Data from reversibility-20sec_Absorbance__172__000000000000172.txt Node

Date: Tue Dec 05 13:10:25 CET 2023
User: Marek
Spectrometer: MAYP115816
Trigger mode: 0
Integration Time (sec): 2.000000E-1
Scans to average: 10
Electric dark correction enabled: true
Nonlinearity correction enabled: true
Boxcar width: 5
XAxis mode: Wavelengths
Number of Pixels in Spectrum: 2068
>>>>>Begin Spectral Data<<<<<
199	-0.259
199	-0.222
200	-0.152
200	-0.098
201	-0.067
201	-0.049
202	-0.033
202	-0.023
203	-0.016
203	-0.011
204	0.003
204	0.016
205	0.029
205	0.034
205	0.032
206	0.032
206	0.031
207	0.033
207	0.03
208	0.031
208	0.03
209	0.032
209	0.03
210	0.028
210	0.029
211	0.029
211	0.032
212	0.031
212	0.032
213	0.038
213	0.037
213	0.034
214	0.037
214	0.04
215	0.043
215	0.043
216	0.047
216	0.048
217	0.054
217	0.056
218	0.054
218	0.059
219	0.068
219	0.069
220	0.072
220	0.072
221	0.074
221	0.075
221	0.079
222	0.08
222	0.083
223	0.087
223	0.088
224	0.093
224	0.101
225	0.109
225	0.119
226	0.126
226	0.138
227	0.146
227	0.159
228	0.175
228	0.189
229	0.21
229	0.233
229	0.254
230	0.279
230	0.308
231	0.342
231	0.38
232	0.417
232	0.46
233	0.503
233	0.554
234	0.599
234	0.649
235	0.7
235	0.752
236	0.805
236	0.856
236	0.907
237	0.958
237	1.004
238	1.05
238	1.096
239	1.142
239	1.183
240	1.223
240	1.259
241	1.293
241	1.326
242	1.356
242	1.388
243	1.418
243	1.444
243	1.469
244	1.492
244	1.515
245	1.534
245	1.557
246	1.576
246	1.592
247	1.607
247	1.621
248	1.635
248	1.648
249	1.659
249	1.667
250	1.676
250	1.683
250	1.687
251	1.693
251	1.695
252	1.699
252	1.7
253	1.703
253	1.7
254	1.699
254	1.701
255	1.698
255	1.7
256	1.7
256	1.699
257	1.7
257	1.699
258	1.698
258	1.697
258	1.699
259	1.699
259	1.698
260	1.698
260	1.698
261	1.697
261	1.699
262	1.701
262	1.702
263	1.703
263	1.703
264	1.703
264	1.704
265	1.704
265	1.704
265	1.704
266	1.704
266	1.703
267	1.7
267	1.701
268	1.7
268	1.701
269	1.702
269	1.701
270	1.699
270	1.699
271	1.695
271	1.694
272	1.692
272	1.69
272	1.687
273	1.683
273	1.678
274	1.673
274	1.667
275	1.661
275	1.655
276	1.65
276	1.643
277	1.635
277	1.627
278	1.616
278	1.605
278	1.593
279	1.58
279	1.566
280	1.547
280	1.524
281	1.497
281	1.467
282	1.435
282	1.402
283	1.367
283	1.333
284	1.3
284	1.266
285	1.234
285	1.204
285	1.178
286	1.154
286	1.132
287	1.113
287	1.096
288	1.082
288	1.07
289	1.06
289	1.05
290	1.043
290	1.035
291	1.029
291	1.023
292	1.019
292	1.014
292	1.01
293	1.007
293	1.003
294	0.999
294	0.996
295	0.993
295	0.991
296	0.988
296	0.986
297	0.983
297	0.98
298	0.978
298	0.975
298	0.973
299	0.97
299	0.968
300	0.966
300	0.963
301	0.96
301	0.958
302	0.956
302	0.954
303	0.952
303	0.949
304	0.947
304	0.944
305	0.942
305	0.939
305	0.936
306	0.934
306	0.932
307	0.93
307	0.927
308	0.924
308	0.921
309	0.919
309	0.916
310	0.913
310	0.911
311	0.908
311	0.904
311	0.901
312	0.897
312	0.894
313	0.89
313	0.887
314	0.883
314	0.879
315	0.875
315	0.87
316	0.866
316	0.862
317	0.858
317	0.853
318	0.849
318	0.844
318	0.839
319	0.834
319	0.828
320	0.823
320	0.818
321	0.812
321	0.806
322	0.8
322	0.794
323	0.787
323	0.781
324	0.775
324	0.769
324	0.762
325	0.756
325	0.749
326	0.743
326	0.737
327	0.73
327	0.723
328	0.717
328	0.71
329	0.704
329	0.697
330	0.69
330	0.684
330	0.677
331	0.67
331	0.663
332	0.657
332	0.65
333	0.644
333	0.637
334	0.63
334	0.624
335	0.617
335	0.61
336	0.604
336	0.598
336	0.592
337	0.585
337	0.579
338	0.573
338	0.567
339	0.562
339	0.556
340	0.551
340	0.545
341	0.54
341	0.534
342	0.529
342	0.523
342	0.518
343	0.513
343	0.508
344	0.503
344	0.499
345	0.495
345	0.49
346	0.486
346	0.481
347	0.477
347	0.473
348	0.469
348	0.466
348	0.462
349	0.458
349	0.455
350	0.451
350	0.448
351	0.444
351	0.441
352	0.438
352	0.435
353	0.432
353	0.429
354	0.426
354	0.423
354	0.42
355	0.417
355	0.414
356	0.411
356	0.408
357	0.405
357	0.402
358	0.4
358	0.397
359	0.395
359	0.392
360	0.39
360	0.389
360	0.386
361	0.384
361	0.383
362	0.381
362	0.379
363	0.378
363	0.376
364	0.374
364	0.372
365	0.37
365	0.368
366	0.366
366	0.364
366	0.362
367	0.361
367	0.359
368	0.357
368	0.355
369	0.353
369	0.352
370	0.35
370	0.349
371	0.347
371	0.346
372	0.344
372	0.343
372	0.342
373	0.341
373	0.339
374	0.338
374	0.337
375	0.336
375	0.335
376	0.334
376	0.333
377	0.332
377	0.331
378	0.329
378	0.328
378	0.327
379	0.326
379	0.325
380	0.324
380	0.323
381	0.322
381	0.321
382	0.32
382	0.319
383	0.319
383	0.318
383	0.317
384	0.316
384	0.315
385	0.314
385	0.313
386	0.313
386	0.312
387	0.312
387	0.311
388	0.31
388	0.31
389	0.309
389	0.309
389	0.308
390	0.307
390	0.307
391	0.306
391	0.306
392	0.305
392	0.304
393	0.304
393	0.303
394	0.302
394	0.302
394	0.301
395	0.301
395	0.3
396	0.3
396	0.299
397	0.298
397	0.298
398	0.297
398	0.297
399	0.296
399	0.296
400	0.295
400	0.295
400	0.294
401	0.293
401	0.293
402	0.293
402	0.292
403	0.292
403	0.291
404	0.291
404	0.29
405	0.29
405	0.29
405	0.289
406	0.289
406	0.288
407	0.288
407	0.288
408	0.287
408	0.287
409	0.286
409	0.286
410	0.285
410	0.285
411	0.284
411	0.284
411	0.284
412	0.284
412	0.283
413	0.283
413	0.283
414	0.282
414	0.282
415	0.282
415	0.281
416	0.281
416	0.281
416	0.28
417	0.28
417	0.28
418	0.279
418	0.279
419	0.279
419	0.278
420	0.278
420	0.278
421	0.277
421	0.277
421	0.277
422	0.277
422	0.276
423	0.276
423	0.276
424	0.275
424	0.275
425	0.275
425	0.275
426	0.274
426	0.274
427	0.273
427	0.273
427	0.273
428	0.273
428	0.273
429	0.273
429	0.272
430	0.272
430	0.272
431	0.272
431	0.272
432	0.272
432	0.272
432	0.271
433	0.271
433	0.271
434	0.271
434	0.271
435	0.271
435	0.271
436	0.271
436	0.271
437	0.27
437	0.27
437	0.27
438	0.27
438	0.27
439	0.27
439	0.27
440	0.27
440	0.269
441	0.269
441	0.269
442	0.269
442	0.269
442	0.269
443	0.269
443	0.269
444	0.269
444	0.269
445	0.269
445	0.269
446	0.269
446	0.269
447	0.269
447	0.269
447	0.269
448	0.269
448	0.269
449	0.269
449	0.269
450	0.269
450	0.269
451	0.269
451	0.269
452	0.269
452	0.269
452	0.269
453	0.269
453	0.269
454	0.27
454	0.269
455	0.27
455	0.269
456	0.27
456	0.27
457	0.27
457	0.27
458	0.27
458	0.27
458	0.27
459	0.27
459	0.271
460	0.271
460	0.271
461	0.271
461	0.272
462	0.272
462	0.272
463	0.272
463	0.272
463	0.272
464	0.273
464	0.273
465	0.273
465	0.273
466	0.273
466	0.274
467	0.274
467	0.274
467	0.274
468	0.275
468	0.275
469	0.276
469	0.276
470	0.277
470	0.277
471	0.278
471	0.278
472	0.278
472	0.279
472	0.28
473	0.28
473	0.281
474	0.281
474	0.282
475	0.283
475	0.284
476	0.284
476	0.285
477	0.286
477	0.287
477	0.288
478	0.288
478	0.289
479	0.29
479	0.291
480	0.291
480	0.292
481	0.293
481	0.293
482	0.294
482	0.295
482	0.296
483	0.298
483	0.299
484	0.3
484	0.301
485	0.302
485	0.303
486	0.304
486	0.305
487	0.306
487	0.307
487	0.308
488	0.309
488	0.31
489	0.312
489	0.314
490	0.315
490	0.316
491	0.318
491	0.32
492	0.321
492	0.322
492	0.324
493	0.325
493	0.327
494	0.329
494	0.33
495	0.332
495	0.334
496	0.335
496	0.337
496	0.339
497	0.34
497	0.342
498	0.343
498	0.345
499	0.347
499	0.349
500	0.35
500	0.352
501	0.354
501	0.355
501	0.357
502	0.359
502	0.36
503	0.362
503	0.364
504	0.365
504	0.367
505	0.368
505	0.37
506	0.371
506	0.373
506	0.374
507	0.376
507	0.377
508	0.379
508	0.38
509	0.381
509	0.383
510	0.384
510	0.386
511	0.387
511	0.389
511	0.39
512	0.391
512	0.392
513	0.393
513	0.394
514	0.396
514	0.396
515	0.398
515	0.398
515	0.399
516	0.4
516	0.401
517	0.402
517	0.402
518	0.403
518	0.403
519	0.404
519	0.404
520	0.404
520	0.404
520	0.404
521	0.404
521	0.404
522	0.404
522	0.404
523	0.404
523	0.404
524	0.404
524	0.404
524	0.403
525	0.403
525	0.403
526	0.402
526	0.401
527	0.4
527	0.399
528	0.398
528	0.398
529	0.396
529	0.395
529	0.394
530	0.393
530	0.391
531	0.39
531	0.388
532	0.387
532	0.385
533	0.384
533	0.382
533	0.38
534	0.379
534	0.377
535	0.375
535	0.373
536	0.371
536	0.37
537	0.368
537	0.365
538	0.363
538	0.361
538	0.358
539	0.356
539	0.354
540	0.351
540	0.349
541	0.346
541	0.343
542	0.341
542	0.338
542	0.335
543	0.333
543	0.33
544	0.327
544	0.325
545	0.322
545	0.32
546	0.317
546	0.314
547	0.312
547	0.309
547	0.307
548	0.304
548	0.302
549	0.299
549	0.296
550	0.293
550	0.291
551	0.288
551	0.284
551	0.282
552	0.279
552	0.276
553	0.273
553	0.27
554	0.268
554	0.265
555	0.263
555	0.26
556	0.258
556	0.255
556	0.253
557	0.251
557	0.248
558	0.246
558	0.244
559	0.241
559	0.239
560	0.237
560	0.234
560	0.232
561	0.23
561	0.227
562	0.225
562	0.222
563	0.22
563	0.217
564	0.215
564	0.212
564	0.21
565	0.208
565	0.205
566	0.203
566	0.201
567	0.199
567	0.197
568	0.195
568	0.193
568	0.191
569	0.189
569	0.187
570	0.185
570	0.183
571	0.182
571	0.18
572	0.178
572	0.176
573	0.175
573	0.173
573	0.171
574	0.17
574	0.168
575	0.166
575	0.165
576	0.164
576	0.162
577	0.16
577	0.158
577	0.157
578	0.155
578	0.154
579	0.152
579	0.151
580	0.149
580	0.147
581	0.145
581	0.144
581	0.143
582	0.142
582	0.141
583	0.14
583	0.139
584	0.137
584	0.135
585	0.133
585	0.132
585	0.131
586	0.129
586	0.128
587	0.126
587	0.125
588	0.123
588	0.122
589	0.121
589	0.12
590	0.119
590	0.119
590	0.118
591	0.117
591	0.116
592	0.115
592	0.114
593	0.113
593	0.112
594	0.111
594	0.11
594	0.109
595	0.108
595	0.107
596	0.105
596	0.105
597	0.104
597	0.104
598	0.103
598	0.102
598	0.102
599	0.101
599	0.1
600	0.099
600	0.098
601	0.098
601	0.097
602	0.096
602	0.095
602	0.094
603	0.093
603	0.092
604	0.092
604	0.091
605	0.091
605	0.09
606	0.089
606	0.089
606	0.088
607	0.087
607	0.086
608	0.085
608	0.084
609	0.083
609	0.082
610	0.081
610	0.08
610	0.08
611	0.079
611	0.079
612	0.078
612	0.078
613	0.077
613	0.077
614	0.076
614	0.076
614	0.075
615	0.075
615	0.074
616	0.073
616	0.073
617	0.073
617	0.072
618	0.071
618	0.071
618	0.07
619	0.07
619	0.07
620	0.07
620	0.069
621	0.068
621	0.068
622	0.067
622	0.066
622	0.066
623	0.065
623	0.065
624	0.064
624	0.064
625	0.063
625	0.063
626	0.062
626	0.062
626	0.062
627	0.061
627	0.061
628	0.06
628	0.059
629	0.058
629	0.057
630	0.057
630	0.056
630	0.055
631	0.055
631	0.054
632	0.054
632	0.053
633	0.053
633	0.053
634	0.054
634	0.054
634	0.054
635	0.054
635	0.053
636	0.053
636	0.053
637	0.053
637	0.052
638	0.052
638	0.051
638	0.051
639	0.05
639	0.049
640	0.049
640	0.049
641	0.048
641	0.048
642	0.047
642	0.047
642	0.047
643	0.046
643	0.046
644	0.046
644	0.046
645	0.045
645	0.045
646	0.045
646	0.045
646	0.045
647	0.045
647	0.044
648	0.044
648	0.043
649	0.043
649	0.043
650	0.042
650	0.042
650	0.042
651	0.041
651	0.041
652	0.04
652	0.04
653	0.04
653	0.041
653	0.046
654	0.038
654	0.031
655	0.03
655	0.03
656	0.03
656	0.03
657	0.03
657	0.031
657	0.031
658	0.03
658	0.025
659	0.031
659	0.038
660	0.041
660	0.041
661	0.04
661	0.04
661	0.039
662	0.039
662	0.038
663	0.038
663	0.037
664	0.037
664	0.036
665	0.035
665	0.035
665	0.035
666	0.034
666	0.034
667	0.034
667	0.033
668	0.033
668	0.033
669	0.033
669	0.033
669	0.033
670	0.033
670	0.033
671	0.033
671	0.032
672	0.032
672	0.031
672	0.031
673	0.031
673	0.031
674	0.031
674	0.03
675	0.03
675	0.03
676	0.03
676	0.03
676	0.03
677	0.03
677	0.03
678	0.03
678	0.029
679	0.029
679	0.029
680	0.029
680	0.029
680	0.029
681	0.029
681	0.029
682	0.029
682	0.029
683	0.029
683	0.03
684	0.03
684	0.031
684	0.03
685	0.03
685	0.03
686	0.03
686	0.03
687	0.03
687	0.029
687	0.029
688	0.029
688	0.029
689	0.029
689	0.029
690	0.029
690	0.028
691	0.028
691	0.029
691	0.029
692	0.029
692	0.029
693	0.029
693	0.029
694	0.028
694	0.028
695	0.028
695	0.029
695	0.029
696	0.028
696	0.028
697	0.027
697	0.027
698	0.027
698	0.027
698	0.027
699	0.027
699	0.027
700	0.026
700	0.027
701	0.027
701	0.026
702	0.026
702	0.026
702	0.026
703	0.025
703	0.024
704	0.024
704	0.023
705	0.023
705	0.022
705	0.022
706	0.022
706	0.022
707	0.022
707	0.022
708	0.022
708	0.023
709	0.023
709	0.022
709	0.022
710	0.022
710	0.023
711	0.023
711	0.023
712	0.023
712	0.022
713	0.022
713	0.022
713	0.022
714	0.022
714	0.022
715	0.022
715	0.021
716	0.021
716	0.021
716	0.021
717	0.021
717	0.021
718	0.02
718	0.02
719	0.02
719	0.02
720	0.02
720	0.02
720	0.02
721	0.02
721	0.021
722	0.021
722	0.021
723	0.021
723	0.021
723	0.021
724	0.021
724	0.02
725	0.019
725	0.019
726	0.018
726	0.017
727	0.017
727	0.016
727	0.016
728	0.016
728	0.016
729	0.016
729	0.016
730	0.016
730	0.016
730	0.017
731	0.017
731	0.017
732	0.017
732	0.017
733	0.017
733	0.017
734	0.017
734	0.017
734	0.017
735	0.017
735	0.017
736	0.017
736	0.017
737	0.016
737	0.016
737	0.016
738	0.016
738	0.015
739	0.015
739	0.014
740	0.013
740	0.013
741	0.013
741	0.013
741	0.013
742	0.013
742	0.013
743	0.014
743	0.015
744	0.015
744	0.016
744	0.016
745	0.016
745	0.017
746	0.017
746	0.017
747	0.017
747	0.017
748	0.016
748	0.016
748	0.015
749	0.015
749	0.014
750	0.014
750	0.013
751	0.013
751	0.012
751	0.012
752	0.012
752	0.012
753	0.012
753	0.012
754	0.012
754	0.012
754	0.013
755	0.013
755	0.014
756	0.013
756	0.012
757	0.012
757	0.012
758	0.011
758	0.011
758	0.01
759	0.01
759	0.01
760	0.01
760	0.01
761	0.01
761	0.011
761	0.012
762	0.012
762	0.012
763	0.013
763	0.013
764	0.012
764	0.012
764	0.012
765	0.011
765	0.011
766	0.01
766	0.01
767	0.009
767	0.008
768	0.008
768	0.008
768	0.008
769	0.008
769	0.008
770	0.008
770	0.008
771	0.008
771	0.008
771	0.008
772	0.008
772	0.008
773	0.008
773	0.008
774	0.008
774	0.008
775	0.008
775	0.008
775	0.008
776	0.008
776	0.008
777	0.008
777	0.008
778	0.009
778	0.008
778	0.008
779	0.008
779	0.008
780	0.008
780	0.008
781	0.008
781	0.008
781	0.008
782	0.008
782	0.008
783	0.008
783	0.008
784	0.008
784	0.009
784	0.009
785	0.009
785	0.009
786	0.009
786	0.01
787	0.01
787	0.01
788	0.01
788	0.009
788	0.009
789	0.009
789	0.009
790	0.009
790	0.008
791	0.008
791	0.007
791	0.007
792	0.007
792	0.006
793	0.005
793	0.005
794	0.004
794	0.004
794	0.003
795	0.003
795	0.003
796	0.003
796	0.003
797	0.003
797	0.003
797	0.004
798	0.004
798	0.005
799	0.005
799	0.005
800	0.005
800	0.004
801	0.004
801	0.004
801	0.004
802	0.003
802	0.003
803	0.003
803	0.003
804	0.003
804	0.004
804	0.004
805	0.005
805	0.005
806	0.005
806	0.006
807	0.006
807	0.007
807	0.007
808	0.008
808	0.008
809	0.009
809	0.009
810	0.01
810	0.01
810	0.01
811	0.01
811	0.01
812	0.01
812	0.01
813	0.01
813	0.01
813	0.009
814	0.009
814	0.009
815	0.01
815	0.01
816	0.01
816	0.009
817	0.009
817	0.008
817	0.008
818	0.008
818	0.008
819	0.007
819	0.007
820	0.006
820	0.006
820	0.005
821	0.005
821	0.005
822	0.005
822	0.005
823	0.005
823	0.005
823	0.005
824	0.006
824	0.007
825	0.008
825	0.008
826	0.008
826	0.008
826	0.008
827	0.009
827	0.009
828	0.009
828	0.009
829	0.009
829	0.009
829	0.008
830	0.008
830	0.009
831	0.009
831	0.009
832	0.009
832	0.01
832	0.009
833	0.009
833	0.009
834	0.009
834	0.009
835	0.008
835	0.008
835	0.008
836	0.007
836	0.007
837	0.007
837	0.007
838	0.006
838	0.006
839	0.005
839	0.005
839	0.004
840	0.003
840	0.002
841	0.001
841	0
842	-0
842	-0
842	-0.001
843	-0.001
843	-0.001
844	-0.001
844	-0.001
845	-0.001
845	-0.001
845	-0.002
846	-0.002
846	-0.002
847	-0.002
847	-0.002
848	-0.001
848	-0.001
848	0
849	0.001
849	0.001
850	0.002
850	0.002
851	0.003
851	0.003
851	0.003
852	0.003
852	0.002
853	0.001
853	0.001
854	0.001
854	0.001
854	0.002
855	0.002
855	0.003
856	0.003
856	0.003
857	0.004
857	0.004
857	0.004
858	0.004
858	0.004
859	0.003
859	0.002
860	0.001
860	0
860	-0
861	-0.001
861	-0.001
862	-0.002
862	-0.002
863	-0.003
863	-0.003
863	-0.003
864	-0.003
864	-0.003
865	-0.003
865	-0.003
866	-0.002
866	-0.003
866	-0.003
867	-0.002
867	-0.002
868	-0.002
868	-0.002
869	-0.001
869	-0.001
869	-0.001
870	-0.001
870	-0.001
871	0
871	0.001
872	0.001
872	0.001
872	0.002
873	0.002
873	0.002
874	0.002
874	0.002
875	0.002
875	0.002
875	0.002
876	0.002
876	0.002
877	0.002
877	0.002
878	0.002
878	0.003
878	0.003
879	0.003
879	0.004
880	0.004
880	0.004
881	0.004
881	0.004
881	0.004
882	0.003
882	0.003
883	0.002
883	0.001
884	0.001
884	0
884	-0.001
885	-0.001
885	-0.002
886	-0.003
886	-0.004
887	-0.004
887	-0.005
887	-0.006
888	-0.006
888	-0.007
889	-0.007
889	-0.007
890	-0.007
890	-0.007
890	-0.006
891	-0.006
891	-0.005
892	-0.004
892	-0.003
893	-0.003
893	-0.002
893	-0.001
894	-0.001
894	-0
895	-0
895	0
895	0
896	-0
896	-0
897	-0.001
897	-0.001
898	-0.002
898	-0.002
898	-0.003
899	-0.003
899	-0.003
900	-0.003
900	-0.004
901	-0.004
901	-0.004
901	-0.004
902	-0.004
902	-0.004
903	-0.004
903	-0.005
904	-0.005
904	-0.005
904	-0.005
905	-0.005
905	-0.006
906	-0.005
906	-0.005
907	-0.004
907	-0.004
907	-0.003
908	-0.003
908	-0.002
909	-0.002
909	-0.002
910	-0.001
910	-0.001
910	-0.001
911	-0.002
911	-0.002
912	-0.002
912	-0.002
913	-0.003
913	-0.003
913	-0.003
914	-0.003
914	-0.004
915	-0.004
915	-0.004
916	-0.004
916	-0.005
916	-0.005
917	-0.006
917	-0.006
918	-0.006
918	-0.007
918	-0.007
919	-0.007
919	-0.006
920	-0.005
920	-0.005
921	-0.004
921	-0.003
921	-0.002
922	-0.001
922	-0
923	0
923	0.001
924	0.002
924	0.003
924	0.003
925	0.003
925	0.003
926	0.003
926	0.004
927	0.004
927	0.004
927	0.003
928	0.003
928	0.003
929	0.003
929	0.003
930	0.003
930	0.002
930	0.002
931	0.002
931	0.002
932	0.001
932	0.001
933	0.001
933	-0
933	-0.001
934	-0.001
934	-0.002
935	-0.002
935	-0.002
935	-0.002
936	-0.003
936	-0.003
937	-0.003
937	-0.002
938	-0.002
938	-0.001
938	-0.001
939	-0.001
939	-0
940	0
940	0.001
941	0.001
941	0.002
941	0.002
942	0.003
942	0.003
943	0.004
943	0.004
944	0.004
944	0.005
944	0.005
945	0.006
945	0.006
946	0.007
946	0.007
946	0.007
947	0.007
947	0.007
948	0.007
948	0.006
949	0.006
949	0.006
949	0.005
950	0.005
950	0.004
951	0.004
951	0.003
952	0.002
952	0.002
952	0.001
953	0
953	-0
954	-0.001
954	-0.002
955	-0.003
955	-0.004
955	-0.004
956	-0.004
956	-0.004
957	-0.004
957	-0.004
957	-0.003
958	-0.003
958	-0.003
959	-0.002
959	-0.001
960	-0.001
960	-0
960	0
961	0
961	0.001
962	0.001
962	0.001
963	0.001
963	0.002
963	0.002
964	0.002
964	0.002
965	0.002
965	0.002
966	0.003
966	0.003
966	0.003
967	0.004
967	0.004
968	0.005
968	0.006
968	0.006
969	0.006
969	0.006
970	0.006
970	0.006
971	0.005
971	0.005
971	0.004
972	0.004
972	0.003
973	0.003
973	0.002
974	0.002
974	0.002
974	0.002
975	0.002
975	0.002
976	0.003
976	0.003
976	0.003
977	0.002
977	0.002
978	0.001
978	0.001
979	0
979	-0
979	-0.001
980	-0.002
980	-0.002
981	-0.003
981	-0.004
982	-0.004
982	-0.005
982	-0.005
983	-0.005
983	-0.006
984	-0.006
984	-0.007
984	-0.007
985	-0.007
985	-0.007
986	-0.007
986	-0.007
987	-0.008
987	-0.008
987	-0.008
988	-0.008
988	-0.008
989	-0.008
989	-0.008
990	-0.008
990	-0.008
990	-0.008
991	-0.008
991	-0.008
992	-0.007
992	-0.007
992	-0.007
993	-0.007
993	-0.007
994	-0.007
994	-0.007
995	-0.007
995	-0.007
995	-0.007
996	-0.006
996	-0.006
997	-0.005
997	-0.004
997	-0.003
998	-0.003
998	-0.002
999	-0.001
999	0
1000	0.001
1000	0.001
1000	0.002
1001	0.002
1001	0.002
1002	0.002
1002	0.001
1003	0.001
1003	0.001
1003	-0
1004	-0.001
1004	-0.001
1005	-0.002
1005	-0.003
1005	-0.003
1006	-0.004
1006	-0.004
1007	-0.004
1007	-0.005
1008	-0.005
1008	-0.004
1008	-0.004
1009	-0.004
1009	-0.004
1010	-0.004
1010	-0.003
1010	-0.003
1011	-0.003
1011	-0.003
1012	-0.002
1012	-0.002
1013	-0.002
1013	-0.002
1013	-0.002
1014	-0.002
1014	-0.003
1015	-0.003
1015	-0.003
1016	-0.003
1016	-0.003
1016	-0.003
1017	-0.004
1017	-0.004
1018	-0.003
1018	-0.004
1018	-0.004
1019	-0.004
1019	-0.004
1020	-0.004
1020	-0.004
1021	-0.004
1021	-0.004
1021	-0.004
1022	-0.005
1022	-0.005
1023	-0.005
1023	-0.005
1023	-0.005
1024	-0.005
1024	-0.006
1025	-0.006
1025	-0.007
1026	-0.007
1026	-0.008
1026	-0.008
1027	-0.009
1027	-0.009
1028	-0.01
1028	-0.01
1028	-0.011
1029	-0.011
1029	-0.011
1030	-0.011
1030	-0.011
1031	-0.011
1031	-0.011
1031	-0.011
1032	-0.011
1032	-0.011
1033	-0.011
1033	-0.011
1033	-0.011
1034	-0.012
1034	-0.012
1035	-0.012
1035	-0.012
1036	-0.013
1036	-0.013
1036	-0.013
1037	-0.013
1037	-0.013
1038	-0.013
1038	-0.013
1039	-0.012
1039	-0.012
1039	-0.012
1040	-0.011
1040	-0.011
1041	-0.011
1041	-0.01
1041	-0.01
1042	-0.01
1042	-0.01
1043	-0.009
1043	-0.009
1044	-0.009
1044	-0.009
1044	-0.008
1045	-0.008
1045	-0.007
1046	-0.007
1046	-0.006
1046	-0.005
1047	-0.005
1047	-0.004
1048	-0.004
1048	-0.003
1049	-0.003
1049	-0.003
1049	-0.003
1050	-0.003
1050	-0.003
1051	-0.004
1051	-0.004
1051	-0.004
1052	-0.005
1052	-0.005
1053	-0.006
1053	-0.006
1053	-0.007
1054	-0.007
1054	-0.007
1055	-0.008
1055	-0.008
1056	-0.008
1056	-0.009
1056	-0.009
1057	-0.01
1057	-0.01
1058	-0.01
1058	-0.011
1058	-0.011
1059	-0.012
1059	-0.012
1060	-0.012
1060	-0.012
1061	-0.013
1061	-0.013
1061	-0.013
1062	-0.014
1062	-0.014
1063	-0.014
1063	-0.014
1063	-0.015
1064	-0.015
1064	-0.016
1065	-0.016
1065	-0.017
1066	-0.017
1066	-0.017
1066	-0.017
1067	-0.017
1067	-0.017
1068	-0.017
1068	-0.017
1068	-0.017
1069	-0.017
1069	-0.018
1070	-0.018
1070	-0.018
1071	-0.018
1071	-0.018
1071	-0.019
1072	-0.019
1072	-0.019
1073	-0.02
1073	-0.02
1073	-0.02
1074	-0.02
1074	-0.02
1075	-0.02
1075	-0.02
1076	-0.019
1076	-0.019
1076	-0.019
1077	-0.019
1077	-0.018
1078	-0.018
1078	-0.017
1078	-0.017
1079	-0.017
1079	-0.016
1080	-0.016
1080	-0.016
1080	-0.016
1081	-0.016
1081	-0.016
1082	-0.015
1082	-0.015
1083	-0.015
1083	-0.015
1083	-0.015
1084	-0.016
1084	-0.016
1085	-0.016
1085	-0.017
1085	-0.017
1086	-0.017
1086	-0.017
1087	-0.018
1087	-0.018
1088	-0.018
1088	-0.018
1088	-0.018
1089	-0.019
1089	-0.019
1090	-0.019
1090	-0.02
1090	-0.02
1091	-0.02
1091	-0.021
1092	-0.021
1092	-0.02
1092	-0.021
1093	-0.021
1093	-0.02
1094	-0.02
1094	-0.021
1095	-0.02
1095	-0.021
1095	-0.021
1096	-0.021
1096	-0.022
1097	-0.022
1097	-0.023
1097	-0.023
1098	-0.024
1098	-0.024
1099	-0.025
1099	-0.026
1100	-0.027
1100	-0.028
1100	-0.028
1101	-0.029
1101	-0.03
1102	-0.03
1102	-0.031
1102	-0.032
1103	-0.032
1103	-0.033
1104	-0.034
1104	-0.034
1104	-0.035
1105	-0.035
1105	-0.038
1106	-0.039
1106	-0.04
1107	-0.041
1107	-0.042
1107	-0.044
1108	-0.045
1108	-0.046
1109	-0.047
1109	-0.049
1109	-0.05
1110	-0.048
1110	-0.051
1111	-0.052
1111	-0.055
