Data from reversibility-20sec_Absorbance__1284__000000000001284.txt Node

Date: Tue Dec 05 19:21:06 CET 2023
User: Marek
Spectrometer: MAYP115816
Trigger mode: 0
Integration Time (sec): 2.000000E-1
Scans to average: 10
Electric dark correction enabled: true
Nonlinearity correction enabled: true
Boxcar width: 5
XAxis mode: Wavelengths
Number of Pixels in Spectrum: 2068
>>>>>Begin Spectral Data<<<<<
199	-0.213
199	-0.18
200	-0.107
200	-0.05
201	-0.02
201	-0.005
202	0.01
202	0.018
203	0.024
203	0.028
204	0.043
204	0.057
205	0.069
205	0.071
205	0.068
206	0.069
206	0.069
207	0.07
207	0.069
208	0.07
208	0.073
209	0.076
209	0.074
210	0.075
210	0.078
211	0.078
211	0.081
212	0.082
212	0.084
213	0.086
213	0.087
213	0.085
214	0.087
214	0.088
215	0.092
215	0.093
216	0.096
216	0.095
217	0.096
217	0.1
218	0.098
218	0.103
219	0.105
219	0.104
220	0.107
220	0.107
221	0.106
221	0.109
221	0.116
222	0.123
222	0.126
223	0.133
223	0.137
224	0.145
224	0.158
225	0.167
225	0.177
226	0.187
226	0.196
227	0.205
227	0.215
228	0.229
228	0.245
229	0.262
229	0.284
229	0.303
230	0.329
230	0.356
231	0.388
231	0.427
232	0.464
232	0.508
233	0.553
233	0.601
234	0.648
234	0.702
235	0.753
235	0.809
236	0.863
236	0.917
236	0.971
237	1.024
237	1.073
238	1.121
238	1.17
239	1.224
239	1.268
240	1.314
240	1.354
241	1.393
241	1.434
242	1.469
242	1.507
243	1.54
243	1.572
243	1.602
244	1.627
244	1.654
245	1.675
245	1.703
246	1.725
246	1.746
247	1.765
247	1.78
248	1.8
248	1.817
249	1.828
249	1.84
250	1.851
250	1.864
250	1.871
251	1.879
251	1.883
252	1.894
252	1.9
253	1.906
253	1.905
254	1.908
254	1.913
255	1.915
255	1.916
256	1.919
256	1.922
257	1.927
257	1.926
258	1.926
258	1.926
258	1.929
259	1.932
259	1.933
260	1.932
260	1.936
261	1.936
261	1.941
262	1.943
262	1.947
263	1.953
263	1.955
264	1.958
264	1.961
265	1.964
265	1.968
265	1.97
266	1.973
266	1.974
267	1.973
267	1.975
268	1.977
268	1.981
269	1.984
269	1.986
270	1.987
270	1.987
271	1.985
271	1.989
272	1.988
272	1.987
272	1.984
273	1.977
273	1.967
274	1.962
274	1.955
275	1.949
275	1.944
276	1.936
276	1.927
277	1.919
277	1.91
278	1.898
278	1.887
278	1.875
279	1.856
279	1.835
280	1.807
280	1.773
281	1.735
281	1.692
282	1.649
282	1.603
283	1.56
283	1.517
284	1.475
284	1.435
285	1.397
285	1.362
285	1.332
286	1.306
286	1.282
287	1.261
287	1.243
288	1.228
288	1.215
289	1.203
289	1.194
290	1.186
290	1.178
291	1.171
291	1.165
292	1.16
292	1.156
292	1.151
293	1.147
293	1.143
294	1.14
294	1.136
295	1.133
295	1.13
296	1.126
296	1.123
297	1.12
297	1.117
298	1.114
298	1.111
298	1.108
299	1.105
299	1.102
300	1.1
300	1.097
301	1.095
301	1.092
302	1.089
302	1.087
303	1.084
303	1.081
304	1.079
304	1.077
305	1.074
305	1.071
305	1.068
306	1.066
306	1.063
307	1.061
307	1.058
308	1.055
308	1.053
309	1.05
309	1.047
310	1.044
310	1.041
311	1.038
311	1.034
311	1.03
312	1.027
312	1.023
313	1.019
313	1.015
314	1.011
314	1.007
315	1.002
315	0.998
316	0.993
316	0.988
317	0.984
317	0.979
318	0.973
318	0.968
318	0.962
319	0.956
319	0.951
320	0.945
320	0.939
321	0.933
321	0.926
322	0.92
322	0.913
323	0.907
323	0.9
324	0.893
324	0.887
324	0.879
325	0.873
325	0.866
326	0.858
326	0.852
327	0.844
327	0.837
328	0.83
328	0.823
329	0.816
329	0.808
330	0.801
330	0.793
330	0.786
331	0.779
331	0.772
332	0.764
332	0.757
333	0.751
333	0.743
334	0.736
334	0.729
335	0.722
335	0.715
336	0.709
336	0.702
336	0.695
337	0.689
337	0.682
338	0.676
338	0.669
339	0.663
339	0.657
340	0.651
340	0.645
341	0.639
341	0.633
342	0.627
342	0.621
342	0.616
343	0.61
343	0.605
344	0.6
344	0.595
345	0.589
345	0.585
346	0.58
346	0.576
347	0.571
347	0.566
348	0.562
348	0.558
348	0.554
349	0.55
349	0.546
350	0.543
350	0.539
351	0.535
351	0.532
352	0.528
352	0.525
353	0.522
353	0.519
354	0.516
354	0.512
354	0.509
355	0.506
355	0.503
356	0.501
356	0.498
357	0.495
357	0.492
358	0.489
358	0.487
359	0.484
359	0.482
360	0.479
360	0.477
360	0.475
361	0.473
361	0.47
362	0.468
362	0.466
363	0.464
363	0.462
364	0.459
364	0.457
365	0.455
365	0.453
366	0.451
366	0.449
366	0.448
367	0.446
367	0.444
368	0.442
368	0.44
369	0.439
369	0.437
370	0.435
370	0.434
371	0.432
371	0.431
372	0.429
372	0.428
372	0.426
373	0.425
373	0.423
374	0.422
374	0.421
375	0.42
375	0.419
376	0.417
376	0.416
377	0.415
377	0.414
378	0.413
378	0.411
378	0.41
379	0.409
379	0.408
380	0.407
380	0.406
381	0.405
381	0.404
382	0.403
382	0.402
383	0.401
383	0.4
383	0.399
384	0.399
384	0.398
385	0.397
385	0.396
386	0.395
386	0.395
387	0.394
387	0.393
388	0.392
388	0.391
389	0.391
389	0.39
389	0.389
390	0.389
390	0.388
391	0.387
391	0.387
392	0.386
392	0.386
393	0.385
393	0.384
394	0.384
394	0.383
394	0.382
395	0.382
395	0.381
396	0.38
396	0.38
397	0.379
397	0.378
398	0.378
398	0.377
399	0.377
399	0.376
400	0.375
400	0.375
400	0.375
401	0.374
401	0.373
402	0.373
402	0.372
403	0.372
403	0.371
404	0.371
404	0.371
405	0.37
405	0.37
405	0.369
406	0.369
406	0.368
407	0.368
407	0.367
408	0.367
408	0.367
409	0.366
409	0.366
410	0.365
410	0.365
411	0.364
411	0.364
411	0.363
412	0.363
412	0.362
413	0.362
413	0.361
414	0.361
414	0.36
415	0.36
415	0.36
416	0.359
416	0.359
416	0.358
417	0.358
417	0.358
418	0.357
418	0.357
419	0.357
419	0.356
420	0.355
420	0.355
421	0.354
421	0.354
421	0.353
422	0.353
422	0.353
423	0.352
423	0.351
424	0.351
424	0.351
425	0.35
425	0.35
426	0.35
426	0.349
427	0.349
427	0.349
427	0.348
428	0.348
428	0.347
429	0.347
429	0.346
430	0.346
430	0.346
431	0.346
431	0.345
432	0.345
432	0.345
432	0.344
433	0.344
433	0.344
434	0.344
434	0.344
435	0.344
435	0.344
436	0.344
436	0.344
437	0.343
437	0.343
437	0.343
438	0.343
438	0.342
439	0.342
439	0.342
440	0.342
440	0.341
441	0.341
441	0.341
442	0.341
442	0.341
442	0.34
443	0.34
443	0.34
444	0.34
444	0.339
445	0.339
445	0.339
446	0.339
446	0.339
447	0.338
447	0.338
447	0.338
448	0.338
448	0.338
449	0.338
449	0.338
450	0.338
450	0.338
451	0.337
451	0.337
452	0.337
452	0.337
452	0.337
453	0.337
453	0.337
454	0.337
454	0.337
455	0.337
455	0.336
456	0.336
456	0.336
457	0.336
457	0.336
458	0.336
458	0.336
458	0.336
459	0.336
459	0.336
460	0.336
460	0.336
461	0.336
461	0.336
462	0.336
462	0.336
463	0.336
463	0.336
463	0.336
464	0.336
464	0.336
465	0.336
465	0.336
466	0.336
466	0.337
467	0.337
467	0.337
467	0.337
468	0.337
468	0.337
469	0.337
469	0.338
470	0.338
470	0.338
471	0.339
471	0.339
472	0.339
472	0.34
472	0.34
473	0.341
473	0.342
474	0.342
474	0.342
475	0.342
475	0.342
476	0.343
476	0.344
477	0.344
477	0.345
477	0.345
478	0.346
478	0.346
479	0.347
479	0.347
480	0.348
480	0.349
481	0.349
481	0.35
482	0.35
482	0.351
482	0.351
483	0.352
483	0.353
484	0.354
484	0.354
485	0.355
485	0.356
486	0.356
486	0.357
487	0.358
487	0.359
487	0.36
488	0.361
488	0.362
489	0.363
489	0.365
490	0.367
490	0.368
491	0.37
491	0.371
492	0.372
492	0.373
492	0.374
493	0.375
493	0.377
494	0.378
494	0.379
495	0.38
495	0.382
496	0.383
496	0.385
496	0.386
497	0.387
497	0.388
498	0.39
498	0.391
499	0.392
499	0.393
500	0.395
500	0.396
501	0.398
501	0.399
501	0.4
502	0.401
502	0.402
503	0.404
503	0.405
504	0.407
504	0.408
505	0.409
505	0.41
506	0.412
506	0.413
506	0.414
507	0.415
507	0.417
508	0.418
508	0.419
509	0.42
509	0.421
510	0.423
510	0.424
511	0.425
511	0.427
511	0.428
512	0.429
512	0.43
513	0.43
513	0.431
514	0.432
514	0.433
515	0.434
515	0.435
515	0.435
516	0.436
516	0.437
517	0.438
517	0.438
518	0.439
518	0.439
519	0.44
519	0.44
520	0.44
520	0.44
520	0.441
521	0.441
521	0.44
522	0.44
522	0.44
523	0.44
523	0.44
524	0.44
524	0.44
524	0.439
525	0.439
525	0.438
526	0.438
526	0.437
527	0.437
527	0.436
528	0.435
528	0.434
529	0.434
529	0.433
529	0.431
530	0.43
530	0.429
531	0.428
531	0.427
532	0.425
532	0.424
533	0.422
533	0.421
533	0.42
534	0.418
534	0.417
535	0.416
535	0.414
536	0.413
536	0.411
537	0.41
537	0.408
538	0.407
538	0.405
538	0.403
539	0.401
539	0.4
540	0.398
540	0.396
541	0.394
541	0.392
542	0.39
542	0.387
542	0.385
543	0.383
543	0.381
544	0.379
544	0.377
545	0.375
545	0.373
546	0.371
546	0.368
547	0.366
547	0.364
547	0.362
548	0.36
548	0.358
549	0.356
549	0.354
550	0.352
550	0.35
551	0.347
551	0.345
551	0.343
552	0.34
552	0.338
553	0.335
553	0.333
554	0.331
554	0.329
555	0.326
555	0.324
556	0.322
556	0.32
556	0.318
557	0.317
557	0.315
558	0.314
558	0.312
559	0.31
559	0.308
560	0.307
560	0.305
560	0.303
561	0.301
561	0.3
562	0.297
562	0.295
563	0.293
563	0.291
564	0.289
564	0.287
564	0.285
565	0.284
565	0.282
566	0.28
566	0.279
567	0.277
567	0.276
568	0.274
568	0.273
568	0.272
569	0.27
569	0.269
570	0.267
570	0.265
571	0.263
571	0.262
572	0.26
572	0.258
573	0.257
573	0.255
573	0.254
574	0.252
574	0.251
575	0.25
575	0.249
576	0.248
576	0.246
577	0.245
577	0.244
577	0.243
578	0.241
578	0.24
579	0.24
579	0.239
580	0.238
580	0.236
581	0.234
581	0.233
581	0.232
582	0.232
582	0.231
583	0.23
583	0.229
584	0.227
584	0.225
585	0.224
585	0.223
585	0.222
586	0.221
586	0.219
587	0.218
587	0.216
588	0.215
588	0.214
589	0.213
589	0.213
590	0.212
590	0.212
590	0.212
591	0.211
591	0.21
592	0.209
592	0.208
593	0.207
593	0.207
594	0.206
594	0.204
594	0.203
595	0.203
595	0.202
596	0.2
596	0.2
597	0.2
597	0.2
598	0.199
598	0.199
598	0.198
599	0.197
599	0.197
600	0.196
600	0.195
601	0.194
601	0.194
602	0.193
602	0.192
602	0.191
603	0.19
603	0.189
604	0.189
604	0.188
605	0.188
605	0.187
606	0.187
606	0.186
606	0.185
607	0.184
607	0.184
608	0.183
608	0.182
609	0.181
609	0.181
610	0.18
610	0.18
610	0.179
611	0.179
611	0.178
612	0.178
612	0.178
613	0.178
613	0.177
614	0.177
614	0.176
614	0.175
615	0.175
615	0.174
616	0.174
616	0.173
617	0.173
617	0.172
618	0.172
618	0.172
618	0.172
619	0.172
619	0.172
620	0.172
620	0.171
621	0.171
621	0.17
622	0.169
622	0.168
622	0.167
623	0.166
623	0.166
624	0.165
624	0.165
625	0.164
625	0.164
626	0.163
626	0.163
626	0.162
627	0.162
627	0.162
628	0.161
628	0.161
629	0.16
629	0.16
630	0.159
630	0.159
630	0.159
631	0.159
631	0.158
632	0.158
632	0.158
633	0.158
633	0.158
634	0.158
634	0.158
634	0.157
635	0.157
635	0.156
636	0.156
636	0.156
637	0.155
637	0.155
638	0.154
638	0.154
638	0.153
639	0.153
639	0.152
640	0.152
640	0.152
641	0.151
641	0.151
642	0.15
642	0.15
642	0.15
643	0.15
643	0.15
644	0.15
644	0.149
645	0.149
645	0.149
646	0.149
646	0.148
646	0.148
647	0.148
647	0.147
648	0.147
648	0.146
649	0.146
649	0.146
650	0.146
650	0.146
650	0.145
651	0.145
651	0.145
652	0.145
652	0.145
653	0.146
653	0.147
653	0.154
654	0.123
654	0.099
655	0.098
655	0.099
656	0.099
656	0.099
657	0.099
657	0.099
657	0.099
658	0.098
658	0.088
659	0.111
659	0.141
660	0.145
660	0.145
661	0.144
661	0.143
661	0.143
662	0.142
662	0.142
663	0.141
663	0.14
664	0.139
664	0.139
665	0.139
665	0.139
665	0.139
666	0.139
666	0.139
667	0.139
667	0.139
668	0.14
668	0.14
669	0.14
669	0.14
669	0.14
670	0.14
670	0.14
671	0.14
671	0.139
672	0.139
672	0.139
672	0.139
673	0.139
673	0.139
674	0.138
674	0.138
675	0.137
675	0.137
676	0.137
676	0.136
676	0.136
677	0.136
677	0.135
678	0.135
678	0.135
679	0.134
679	0.134
680	0.134
680	0.134
680	0.134
681	0.134
681	0.135
682	0.135
682	0.135
683	0.136
683	0.136
684	0.137
684	0.137
684	0.136
685	0.136
685	0.137
686	0.136
686	0.136
687	0.135
687	0.135
687	0.135
688	0.134
688	0.134
689	0.135
689	0.135
690	0.135
690	0.135
691	0.135
691	0.135
691	0.136
692	0.136
692	0.136
693	0.136
693	0.136
694	0.136
694	0.136
695	0.137
695	0.137
695	0.137
696	0.137
696	0.137
697	0.136
697	0.136
698	0.135
698	0.135
698	0.135
699	0.135
699	0.134
700	0.134
700	0.134
701	0.134
701	0.134
702	0.134
702	0.134
702	0.134
703	0.134
703	0.133
704	0.133
704	0.133
705	0.132
705	0.132
705	0.131
706	0.131
706	0.131
707	0.131
707	0.131
708	0.131
708	0.131
709	0.131
709	0.131
709	0.13
710	0.13
710	0.131
711	0.131
711	0.131
712	0.131
712	0.13
713	0.13
713	0.13
713	0.131
714	0.13
714	0.131
715	0.131
715	0.13
716	0.13
716	0.13
716	0.129
717	0.129
717	0.128
718	0.128
718	0.127
719	0.127
719	0.127
720	0.128
720	0.128
720	0.128
721	0.128
721	0.129
722	0.129
722	0.129
723	0.129
723	0.13
723	0.13
724	0.129
724	0.129
725	0.128
725	0.128
726	0.127
726	0.127
727	0.126
727	0.126
727	0.125
728	0.125
728	0.125
729	0.125
729	0.124
730	0.124
730	0.124
730	0.124
731	0.124
731	0.124
732	0.125
732	0.125
733	0.124
733	0.124
734	0.124
734	0.124
734	0.125
735	0.125
735	0.125
736	0.125
736	0.125
737	0.125
737	0.125
737	0.125
738	0.124
738	0.123
739	0.122
739	0.122
740	0.121
740	0.12
741	0.12
741	0.119
741	0.119
742	0.118
742	0.118
743	0.118
743	0.119
744	0.119
744	0.119
744	0.119
745	0.119
745	0.119
746	0.119
746	0.119
747	0.119
747	0.119
748	0.119
748	0.119
748	0.118
749	0.118
749	0.118
750	0.118
750	0.118
751	0.118
751	0.118
751	0.118
752	0.118
752	0.117
753	0.116
753	0.116
754	0.115
754	0.115
754	0.115
755	0.115
755	0.115
756	0.115
756	0.114
757	0.113
757	0.113
758	0.112
758	0.112
758	0.112
759	0.112
759	0.111
760	0.111
760	0.11
761	0.11
761	0.111
761	0.111
762	0.111
762	0.112
763	0.112
763	0.112
764	0.112
764	0.111
764	0.111
765	0.111
765	0.11
766	0.11
766	0.109
767	0.109
767	0.108
768	0.107
768	0.106
768	0.106
769	0.105
769	0.105
770	0.105
770	0.105
771	0.105
771	0.105
771	0.105
772	0.105
772	0.105
773	0.105
773	0.105
774	0.105
774	0.105
775	0.105
775	0.104
775	0.104
776	0.103
776	0.103
777	0.103
777	0.103
778	0.102
778	0.102
778	0.101
779	0.101
779	0.101
780	0.1
780	0.1
781	0.099
781	0.099
781	0.098
782	0.098
782	0.098
783	0.098
783	0.098
784	0.098
784	0.098
784	0.098
785	0.098
785	0.098
786	0.098
786	0.097
787	0.097
787	0.097
788	0.096
788	0.096
788	0.095
789	0.095
789	0.095
790	0.095
790	0.094
791	0.094
791	0.094
791	0.094
792	0.095
792	0.095
793	0.094
793	0.094
794	0.094
794	0.094
794	0.094
795	0.094
795	0.094
796	0.094
796	0.093
797	0.093
797	0.093
797	0.092
798	0.092
798	0.092
799	0.091
799	0.09
800	0.089
800	0.088
801	0.088
801	0.087
801	0.087
802	0.087
802	0.087
803	0.088
803	0.088
804	0.089
804	0.09
804	0.09
805	0.09
805	0.091
806	0.091
806	0.091
807	0.09
807	0.09
807	0.09
808	0.089
808	0.088
809	0.088
809	0.087
810	0.087
810	0.086
810	0.086
811	0.086
811	0.086
812	0.086
812	0.086
813	0.086
813	0.086
813	0.086
814	0.087
814	0.087
815	0.087
815	0.086
816	0.086
816	0.085
817	0.085
817	0.084
817	0.084
818	0.083
818	0.083
819	0.082
819	0.082
820	0.081
820	0.08
820	0.08
821	0.08
821	0.08
822	0.08
822	0.08
823	0.08
823	0.08
823	0.08
824	0.081
824	0.082
825	0.083
825	0.083
826	0.083
826	0.083
826	0.083
827	0.083
827	0.083
828	0.082
828	0.082
829	0.082
829	0.081
829	0.081
830	0.081
830	0.081
831	0.081
831	0.081
832	0.081
832	0.081
832	0.082
833	0.082
833	0.082
834	0.082
834	0.081
835	0.081
835	0.081
835	0.081
836	0.082
836	0.082
837	0.082
837	0.082
838	0.081
838	0.081
839	0.08
839	0.08
839	0.079
840	0.078
840	0.077
841	0.075
841	0.074
842	0.073
842	0.073
842	0.072
843	0.071
843	0.071
844	0.07
844	0.07
845	0.07
845	0.069
845	0.069
846	0.069
846	0.069
847	0.069
847	0.069
848	0.069
848	0.069
848	0.07
849	0.07
849	0.07
850	0.071
850	0.071
851	0.071
851	0.072
851	0.071
852	0.071
852	0.07
853	0.07
853	0.069
854	0.069
854	0.069
854	0.069
855	0.069
855	0.069
856	0.069
856	0.07
857	0.07
857	0.071
857	0.072
858	0.072
858	0.071
859	0.071
859	0.07
860	0.069
860	0.068
860	0.066
861	0.065
861	0.064
862	0.062
862	0.061
863	0.06
863	0.06
863	0.059
864	0.059
864	0.059
865	0.059
865	0.059
866	0.059
866	0.059
866	0.059
867	0.059
867	0.059
868	0.059
868	0.059
869	0.059
869	0.059
869	0.059
870	0.059
870	0.059
871	0.059
871	0.059
872	0.06
872	0.06
872	0.06
873	0.061
873	0.061
874	0.061
874	0.061
875	0.061
875	0.061
875	0.061
876	0.062
876	0.061
877	0.062
877	0.062
878	0.062
878	0.063
878	0.063
879	0.064
879	0.064
880	0.065
880	0.065
881	0.065
881	0.065
881	0.064
882	0.064
882	0.063
883	0.062
883	0.061
884	0.061
884	0.06
884	0.059
885	0.058
885	0.058
886	0.057
886	0.057
887	0.057
887	0.056
887	0.056
888	0.055
888	0.055
889	0.055
889	0.055
890	0.055
890	0.056
890	0.056
891	0.056
891	0.057
892	0.057
892	0.058
893	0.059
893	0.059
893	0.059
894	0.06
894	0.06
895	0.06
895	0.06
895	0.059
896	0.059
896	0.059
897	0.058
897	0.057
898	0.056
898	0.056
898	0.055
899	0.054
899	0.054
900	0.053
900	0.053
901	0.053
901	0.053
901	0.053
902	0.053
902	0.053
903	0.053
903	0.053
904	0.053
904	0.053
904	0.053
905	0.052
905	0.052
906	0.052
906	0.052
907	0.052
907	0.052
907	0.052
908	0.052
908	0.052
909	0.052
909	0.052
910	0.052
910	0.052
910	0.052
911	0.053
911	0.053
912	0.053
912	0.053
913	0.053
913	0.053
913	0.054
914	0.054
914	0.053
915	0.053
915	0.053
916	0.053
916	0.052
916	0.051
917	0.051
917	0.05
918	0.049
918	0.049
918	0.048
919	0.048
919	0.048
920	0.048
920	0.048
921	0.048
921	0.048
921	0.048
922	0.048
922	0.049
923	0.049
923	0.05
924	0.05
924	0.05
924	0.051
925	0.051
925	0.051
926	0.051
926	0.051
927	0.051
927	0.051
927	0.051
928	0.05
928	0.05
929	0.05
929	0.05
930	0.049
930	0.049
930	0.049
931	0.048
931	0.048
932	0.048
932	0.048
933	0.048
933	0.048
933	0.047
934	0.047
934	0.046
935	0.046
935	0.046
935	0.045
936	0.045
936	0.045
937	0.045
937	0.045
938	0.045
938	0.045
938	0.045
939	0.046
939	0.046
940	0.046
940	0.047
941	0.048
941	0.048
941	0.049
942	0.049
942	0.05
943	0.05
943	0.05
944	0.05
944	0.05
944	0.05
945	0.05
945	0.05
946	0.05
946	0.05
946	0.05
947	0.05
947	0.05
948	0.05
948	0.05
949	0.051
949	0.051
949	0.051
950	0.051
950	0.051
951	0.051
951	0.051
952	0.05
952	0.05
952	0.049
953	0.049
953	0.048
954	0.048
954	0.048
955	0.047
955	0.046
955	0.046
956	0.046
956	0.046
957	0.046
957	0.045
957	0.045
958	0.045
958	0.045
959	0.045
959	0.045
960	0.045
960	0.045
960	0.045
961	0.045
961	0.045
962	0.045
962	0.045
963	0.045
963	0.045
963	0.045
964	0.046
964	0.046
965	0.046
965	0.045
966	0.046
966	0.046
966	0.046
967	0.046
967	0.045
968	0.046
968	0.046
968	0.046
969	0.046
969	0.046
970	0.046
970	0.046
971	0.046
971	0.046
971	0.046
972	0.047
972	0.047
973	0.047
973	0.047
974	0.047
974	0.048
974	0.048
975	0.048
975	0.049
976	0.049
976	0.049
976	0.05
977	0.05
977	0.049
978	0.049
978	0.049
979	0.049
979	0.049
979	0.049
980	0.049
980	0.048
981	0.048
981	0.047
982	0.047
982	0.046
982	0.046
983	0.046
983	0.045
984	0.044
984	0.044
984	0.043
985	0.042
985	0.042
986	0.041
986	0.041
987	0.04
987	0.039
987	0.039
988	0.038
988	0.037
989	0.037
989	0.036
990	0.036
990	0.035
990	0.035
991	0.035
991	0.035
992	0.035
992	0.035
992	0.035
993	0.035
993	0.035
994	0.035
994	0.035
995	0.035
995	0.035
995	0.036
996	0.036
996	0.036
997	0.037
997	0.038
997	0.039
998	0.04
998	0.041
999	0.042
999	0.044
1000	0.045
1000	0.046
1000	0.047
1001	0.047
1001	0.048
1002	0.048
1002	0.048
1003	0.048
1003	0.048
1003	0.047
1004	0.047
1004	0.046
1005	0.046
1005	0.045
1005	0.044
1006	0.044
1006	0.043
1007	0.043
1007	0.043
1008	0.042
1008	0.042
1008	0.042
1009	0.042
1009	0.042
1010	0.041
1010	0.041
1010	0.041
1011	0.041
1011	0.04
1012	0.04
1012	0.04
1013	0.039
1013	0.039
1013	0.039
1014	0.039
1014	0.039
1015	0.039
1015	0.039
1016	0.039
1016	0.039
1016	0.039
1017	0.038
1017	0.038
1018	0.038
1018	0.038
1018	0.038
1019	0.038
1019	0.038
1020	0.038
1020	0.038
1021	0.039
1021	0.039
1021	0.039
1022	0.039
1022	0.039
1023	0.04
1023	0.039
1023	0.04
1024	0.04
1024	0.039
1025	0.039
1025	0.039
1026	0.038
1026	0.038
1026	0.037
1027	0.037
1027	0.037
1028	0.036
1028	0.036
1028	0.035
1029	0.035
1029	0.035
1030	0.035
1030	0.035
1031	0.035
1031	0.035
1031	0.035
1032	0.035
1032	0.035
1033	0.035
1033	0.035
1033	0.035
1034	0.035
1034	0.034
1035	0.034
1035	0.034
1036	0.034
1036	0.033
1036	0.033
1037	0.033
1037	0.033
1038	0.033
1038	0.033
1039	0.033
1039	0.033
1039	0.034
1040	0.034
1040	0.035
1041	0.036
1041	0.036
1041	0.037
1042	0.037
1042	0.038
1043	0.038
1043	0.039
1044	0.039
1044	0.039
1044	0.039
1045	0.04
1045	0.04
1046	0.04
1046	0.04
1046	0.041
1047	0.041
1047	0.041
1048	0.042
1048	0.042
1049	0.043
1049	0.043
1049	0.043
1050	0.042
1050	0.042
1051	0.041
1051	0.041
1051	0.04
1052	0.039
1052	0.038
1053	0.037
1053	0.036
1053	0.036
1054	0.035
1054	0.035
1055	0.035
1055	0.034
1056	0.034
1056	0.033
1056	0.033
1057	0.032
1057	0.032
1058	0.031
1058	0.03
1058	0.03
1059	0.029
1059	0.029
1060	0.028
1060	0.028
1061	0.027
1061	0.027
1061	0.027
1062	0.027
1062	0.027
1063	0.027
1063	0.026
1063	0.026
1064	0.026
1064	0.026
1065	0.026
1065	0.026
1066	0.026
1066	0.026
1066	0.026
1067	0.026
1067	0.026
1068	0.026
1068	0.026
1068	0.026
1069	0.026
1069	0.025
1070	0.025
1070	0.025
1071	0.024
1071	0.024
1071	0.023
1072	0.023
1072	0.023
1073	0.022
1073	0.022
1073	0.022
1074	0.022
1074	0.022
1075	0.022
1075	0.022
1076	0.023
1076	0.024
1076	0.024
1077	0.024
1077	0.025
1078	0.025
1078	0.025
1078	0.026
1079	0.026
1079	0.026
1080	0.026
1080	0.026
1080	0.026
1081	0.026
1081	0.026
1082	0.027
1082	0.027
1083	0.027
1083	0.026
1083	0.027
1084	0.026
1084	0.027
1085	0.026
1085	0.026
1085	0.025
1086	0.025
1086	0.024
1087	0.023
1087	0.022
1088	0.022
1088	0.021
1088	0.021
1089	0.02
1089	0.02
1090	0.019
1090	0.019
1090	0.018
1091	0.018
1091	0.018
1092	0.018
1092	0.018
1092	0.018
1093	0.017
1093	0.017
1094	0.017
1094	0.017
1095	0.017
1095	0.017
1095	0.017
1096	0.016
1096	0.015
1097	0.014
1097	0.014
1097	0.013
1098	0.013
1098	0.012
1099	0.011
1099	0.01
1100	0.009
1100	0.008
1100	0.008
1101	0.007
1101	0.005
1102	0.005
1102	0.004
1102	0.003
1103	0.003
1103	0.003
1104	0.003
1104	0.002
1104	0.003
1105	0.001
1105	-0
1106	-0.001
1106	-0.002
1107	-0.003
1107	-0.004
1107	-0.004
1108	-0.005
1108	-0.006
1109	-0.007
1109	-0.008
1109	-0.008
1110	-0.006
1110	-0.007
1111	-0.006
1111	-0.006
