Data from reversibility-20sec_Absorbance__6856__000000000006856.txt Node

Date: Thu Dec 07 02:18:25 CET 2023
User: Marek
Spectrometer: MAYP115816
Trigger mode: 0
Integration Time (sec): 2.000000E-1
Scans to average: 10
Electric dark correction enabled: true
Nonlinearity correction enabled: true
Boxcar width: 5
XAxis mode: Wavelengths
Number of Pixels in Spectrum: 2068
>>>>>Begin Spectral Data<<<<<
199	-0.116
199	-0.09
200	-0.028
200	0.026
201	0.053
201	0.073
202	0.083
202	0.092
203	0.1
203	0.103
204	0.118
204	0.133
205	0.143
205	0.15
205	0.148
206	0.148
206	0.147
207	0.148
207	0.151
208	0.149
208	0.148
209	0.15
209	0.147
210	0.149
210	0.148
211	0.15
211	0.155
212	0.153
212	0.156
213	0.157
213	0.158
213	0.159
214	0.162
214	0.163
215	0.164
215	0.164
216	0.162
216	0.158
217	0.161
217	0.16
218	0.16
218	0.167
219	0.168
219	0.169
220	0.171
220	0.171
221	0.173
221	0.176
221	0.181
222	0.186
222	0.193
223	0.198
223	0.201
224	0.21
224	0.216
225	0.224
225	0.234
226	0.244
226	0.257
227	0.264
227	0.274
228	0.288
228	0.302
229	0.317
229	0.339
229	0.364
230	0.39
230	0.421
231	0.451
231	0.488
232	0.527
232	0.57
233	0.612
233	0.66
234	0.71
234	0.762
235	0.814
235	0.866
236	0.917
236	0.97
236	1.022
237	1.075
237	1.124
238	1.172
238	1.216
239	1.264
239	1.303
240	1.34
240	1.38
241	1.409
241	1.445
242	1.474
242	1.506
243	1.535
243	1.562
243	1.585
244	1.604
244	1.626
245	1.647
245	1.664
246	1.684
246	1.701
247	1.715
247	1.728
248	1.742
248	1.755
249	1.767
249	1.775
250	1.781
250	1.787
250	1.79
251	1.794
251	1.795
252	1.798
252	1.796
253	1.795
253	1.792
254	1.789
254	1.789
255	1.786
255	1.785
256	1.783
256	1.781
257	1.779
257	1.776
258	1.778
258	1.776
258	1.776
259	1.777
259	1.778
260	1.777
260	1.778
261	1.779
261	1.783
262	1.788
262	1.79
263	1.793
263	1.795
264	1.797
264	1.798
265	1.8
265	1.802
265	1.804
266	1.804
266	1.804
267	1.801
267	1.802
268	1.801
268	1.801
269	1.802
269	1.802
270	1.8
270	1.799
271	1.796
271	1.796
272	1.792
272	1.791
272	1.788
273	1.781
273	1.774
274	1.767
274	1.759
275	1.751
275	1.745
276	1.739
276	1.731
277	1.723
277	1.712
278	1.7
278	1.686
278	1.671
279	1.653
279	1.631
280	1.604
280	1.569
281	1.529
281	1.486
282	1.44
282	1.394
283	1.35
283	1.307
284	1.266
284	1.226
285	1.188
285	1.155
285	1.125
286	1.098
286	1.076
287	1.056
287	1.04
288	1.025
288	1.013
289	1.003
289	0.994
290	0.986
290	0.979
291	0.973
291	0.968
292	0.964
292	0.959
292	0.955
293	0.951
293	0.948
294	0.945
294	0.942
295	0.939
295	0.936
296	0.933
296	0.93
297	0.928
297	0.925
298	0.922
298	0.92
298	0.917
299	0.914
299	0.911
300	0.909
300	0.906
301	0.904
301	0.901
302	0.898
302	0.896
303	0.894
303	0.892
304	0.889
304	0.887
305	0.885
305	0.883
305	0.88
306	0.878
306	0.876
307	0.874
307	0.871
308	0.869
308	0.867
309	0.864
309	0.862
310	0.859
310	0.856
311	0.853
311	0.85
311	0.847
312	0.843
312	0.84
313	0.836
313	0.833
314	0.829
314	0.825
315	0.821
315	0.816
316	0.812
316	0.808
317	0.803
317	0.798
318	0.794
318	0.789
318	0.783
319	0.778
319	0.773
320	0.767
320	0.761
321	0.755
321	0.749
322	0.743
322	0.737
323	0.73
323	0.724
324	0.717
324	0.711
324	0.704
325	0.697
325	0.69
326	0.683
326	0.676
327	0.669
327	0.662
328	0.655
328	0.648
329	0.641
329	0.634
330	0.627
330	0.62
330	0.613
331	0.606
331	0.599
332	0.592
332	0.585
333	0.578
333	0.57
334	0.564
334	0.557
335	0.55
335	0.543
336	0.536
336	0.53
336	0.523
337	0.517
337	0.51
338	0.504
338	0.498
339	0.492
339	0.486
340	0.48
340	0.475
341	0.469
341	0.463
342	0.458
342	0.452
342	0.447
343	0.442
343	0.436
344	0.431
344	0.426
345	0.422
345	0.417
346	0.413
346	0.408
347	0.404
347	0.4
348	0.395
348	0.391
348	0.387
349	0.384
349	0.38
350	0.377
350	0.373
351	0.37
351	0.367
352	0.363
352	0.36
353	0.357
353	0.354
354	0.351
354	0.348
354	0.346
355	0.343
355	0.34
356	0.337
356	0.335
357	0.331
357	0.329
358	0.326
358	0.324
359	0.322
359	0.319
360	0.317
360	0.315
360	0.314
361	0.312
361	0.31
362	0.308
362	0.307
363	0.305
363	0.303
364	0.302
364	0.3
365	0.298
365	0.296
366	0.295
366	0.293
366	0.291
367	0.29
367	0.288
368	0.287
368	0.285
369	0.284
369	0.282
370	0.281
370	0.28
371	0.279
371	0.277
372	0.276
372	0.275
372	0.274
373	0.273
373	0.272
374	0.272
374	0.27
375	0.27
375	0.269
376	0.268
376	0.267
377	0.266
377	0.265
378	0.264
378	0.263
378	0.263
379	0.262
379	0.261
380	0.261
380	0.26
381	0.259
381	0.259
382	0.258
382	0.258
383	0.258
383	0.257
383	0.257
384	0.256
384	0.256
385	0.256
385	0.255
386	0.255
386	0.255
387	0.254
387	0.254
388	0.253
388	0.253
389	0.252
389	0.252
389	0.252
390	0.252
390	0.251
391	0.251
391	0.251
392	0.25
392	0.25
393	0.25
393	0.249
394	0.249
394	0.249
394	0.249
395	0.248
395	0.248
396	0.248
396	0.247
397	0.247
397	0.246
398	0.246
398	0.246
399	0.246
399	0.246
400	0.245
400	0.245
400	0.245
401	0.245
401	0.244
402	0.244
402	0.244
403	0.244
403	0.243
404	0.243
404	0.243
405	0.242
405	0.242
405	0.242
406	0.242
406	0.242
407	0.241
407	0.241
408	0.241
408	0.241
409	0.241
409	0.24
410	0.24
410	0.24
411	0.24
411	0.24
411	0.239
412	0.239
412	0.239
413	0.238
413	0.238
414	0.238
414	0.237
415	0.237
415	0.237
416	0.237
416	0.236
416	0.236
417	0.236
417	0.235
418	0.235
418	0.235
419	0.235
419	0.234
420	0.234
420	0.234
421	0.233
421	0.233
421	0.232
422	0.232
422	0.232
423	0.231
423	0.231
424	0.231
424	0.23
425	0.23
425	0.23
426	0.23
426	0.229
427	0.229
427	0.228
427	0.228
428	0.227
428	0.227
429	0.227
429	0.226
430	0.226
430	0.226
431	0.226
431	0.225
432	0.225
432	0.225
432	0.225
433	0.225
433	0.224
434	0.224
434	0.224
435	0.224
435	0.224
436	0.224
436	0.224
437	0.223
437	0.223
437	0.223
438	0.223
438	0.222
439	0.222
439	0.222
440	0.221
440	0.221
441	0.221
441	0.22
442	0.22
442	0.22
442	0.22
443	0.219
443	0.219
444	0.219
444	0.219
445	0.219
445	0.219
446	0.219
446	0.218
447	0.218
447	0.218
447	0.218
448	0.218
448	0.217
449	0.217
449	0.217
450	0.217
450	0.216
451	0.216
451	0.216
452	0.216
452	0.216
452	0.215
453	0.215
453	0.215
454	0.215
454	0.214
455	0.214
455	0.214
456	0.214
456	0.213
457	0.213
457	0.213
458	0.212
458	0.212
458	0.211
459	0.211
459	0.211
460	0.211
460	0.211
461	0.211
461	0.211
462	0.21
462	0.21
463	0.21
463	0.21
463	0.21
464	0.209
464	0.209
465	0.209
465	0.208
466	0.208
466	0.208
467	0.208
467	0.208
467	0.208
468	0.208
468	0.208
469	0.208
469	0.208
470	0.208
470	0.208
471	0.208
471	0.208
472	0.208
472	0.208
472	0.207
473	0.207
473	0.207
474	0.207
474	0.207
475	0.206
475	0.206
476	0.206
476	0.206
477	0.206
477	0.206
477	0.206
478	0.206
478	0.206
479	0.206
479	0.206
480	0.205
480	0.206
481	0.205
481	0.205
482	0.205
482	0.205
482	0.205
483	0.205
483	0.205
484	0.205
484	0.205
485	0.205
485	0.205
486	0.205
486	0.205
487	0.205
487	0.205
487	0.205
488	0.205
488	0.205
489	0.205
489	0.206
490	0.206
490	0.206
491	0.207
491	0.207
492	0.207
492	0.208
492	0.208
493	0.208
493	0.209
494	0.209
494	0.209
495	0.209
495	0.209
496	0.209
496	0.21
496	0.21
497	0.21
497	0.21
498	0.211
498	0.211
499	0.211
499	0.211
500	0.212
500	0.212
501	0.213
501	0.213
501	0.213
502	0.213
502	0.214
503	0.214
503	0.214
504	0.215
504	0.215
505	0.215
505	0.215
506	0.216
506	0.216
506	0.216
507	0.216
507	0.217
508	0.217
508	0.217
509	0.217
509	0.218
510	0.218
510	0.219
511	0.219
511	0.22
511	0.22
512	0.22
512	0.22
513	0.221
513	0.221
514	0.222
514	0.222
515	0.223
515	0.223
515	0.223
516	0.223
516	0.224
517	0.224
517	0.225
518	0.225
518	0.225
519	0.225
519	0.225
520	0.226
520	0.226
520	0.226
521	0.226
521	0.226
522	0.227
522	0.227
523	0.227
523	0.227
524	0.227
524	0.227
524	0.228
525	0.228
525	0.228
526	0.228
526	0.228
527	0.229
527	0.229
528	0.229
528	0.229
529	0.229
529	0.229
529	0.229
530	0.229
530	0.229
531	0.229
531	0.229
532	0.229
532	0.228
533	0.228
533	0.228
533	0.228
534	0.228
534	0.228
535	0.228
535	0.229
536	0.229
536	0.229
537	0.229
537	0.229
538	0.229
538	0.229
538	0.23
539	0.23
539	0.23
540	0.229
540	0.229
541	0.229
541	0.229
542	0.229
542	0.228
542	0.228
543	0.228
543	0.228
544	0.228
544	0.228
545	0.228
545	0.228
546	0.228
546	0.228
547	0.227
547	0.227
547	0.227
548	0.227
548	0.226
549	0.226
549	0.226
550	0.226
550	0.226
551	0.226
551	0.226
551	0.226
552	0.226
552	0.225
553	0.225
553	0.225
554	0.224
554	0.224
555	0.223
555	0.222
556	0.222
556	0.222
556	0.222
557	0.222
557	0.222
558	0.222
558	0.222
559	0.222
559	0.223
560	0.223
560	0.223
560	0.223
561	0.223
561	0.222
562	0.222
562	0.221
563	0.22
563	0.22
564	0.219
564	0.219
564	0.219
565	0.218
565	0.218
566	0.218
566	0.218
567	0.218
567	0.218
568	0.218
568	0.217
568	0.217
569	0.217
569	0.216
570	0.215
570	0.215
571	0.214
571	0.214
572	0.214
572	0.213
573	0.213
573	0.213
573	0.213
574	0.213
574	0.213
575	0.213
575	0.213
576	0.213
576	0.212
577	0.212
577	0.211
577	0.211
578	0.21
578	0.21
579	0.21
579	0.21
580	0.209
580	0.209
581	0.208
581	0.208
581	0.208
582	0.209
582	0.209
583	0.209
583	0.209
584	0.208
584	0.207
585	0.206
585	0.207
585	0.206
586	0.206
586	0.206
587	0.205
587	0.205
588	0.204
588	0.204
589	0.204
589	0.204
590	0.204
590	0.203
590	0.204
591	0.204
591	0.203
592	0.203
592	0.202
593	0.202
593	0.202
594	0.202
594	0.201
594	0.2
595	0.2
595	0.2
596	0.199
596	0.2
597	0.201
597	0.201
598	0.201
598	0.201
598	0.201
599	0.201
599	0.201
600	0.2
600	0.2
601	0.2
601	0.199
602	0.199
602	0.198
602	0.198
603	0.197
603	0.197
604	0.197
604	0.197
605	0.197
605	0.197
606	0.197
606	0.196
606	0.196
607	0.196
607	0.196
608	0.196
608	0.195
609	0.195
609	0.195
610	0.195
610	0.194
610	0.194
611	0.194
611	0.194
612	0.194
612	0.194
613	0.194
613	0.194
614	0.194
614	0.194
614	0.194
615	0.194
615	0.194
616	0.195
616	0.194
617	0.194
617	0.194
618	0.194
618	0.194
618	0.194
619	0.194
619	0.194
620	0.194
620	0.194
621	0.193
621	0.193
622	0.192
622	0.192
622	0.192
623	0.191
623	0.191
624	0.191
624	0.191
625	0.19
625	0.19
626	0.191
626	0.19
626	0.191
627	0.191
627	0.191
628	0.191
628	0.19
629	0.19
629	0.19
630	0.19
630	0.189
630	0.189
631	0.189
631	0.189
632	0.188
632	0.188
633	0.188
633	0.188
634	0.188
634	0.188
634	0.188
635	0.188
635	0.187
636	0.187
636	0.188
637	0.187
637	0.187
638	0.187
638	0.187
638	0.187
639	0.186
639	0.186
640	0.186
640	0.186
641	0.186
641	0.186
642	0.186
642	0.186
642	0.186
643	0.186
643	0.187
644	0.187
644	0.187
645	0.187
645	0.187
646	0.187
646	0.187
646	0.187
647	0.187
647	0.186
648	0.186
648	0.185
649	0.185
649	0.185
650	0.185
650	0.185
650	0.185
651	0.185
651	0.185
652	0.185
652	0.185
653	0.186
653	0.187
653	0.193
654	0.151
654	0.121
655	0.121
655	0.122
656	0.122
656	0.122
657	0.122
657	0.123
657	0.123
658	0.122
658	0.112
659	0.141
659	0.181
660	0.186
660	0.186
661	0.186
661	0.186
661	0.185
662	0.185
662	0.184
663	0.184
663	0.184
664	0.183
664	0.183
665	0.183
665	0.183
665	0.183
666	0.183
666	0.183
667	0.183
667	0.184
668	0.184
668	0.184
669	0.184
669	0.184
669	0.185
670	0.185
670	0.185
671	0.185
671	0.184
672	0.184
672	0.183
672	0.183
673	0.183
673	0.182
674	0.182
674	0.182
675	0.182
675	0.182
676	0.182
676	0.183
676	0.183
677	0.183
677	0.183
678	0.183
678	0.183
679	0.183
679	0.183
680	0.183
680	0.183
680	0.182
681	0.182
681	0.183
682	0.183
682	0.183
683	0.184
683	0.184
684	0.184
684	0.184
684	0.184
685	0.185
685	0.185
686	0.185
686	0.185
687	0.185
687	0.185
687	0.185
688	0.185
688	0.185
689	0.186
689	0.186
690	0.185
690	0.185
691	0.185
691	0.185
691	0.185
692	0.185
692	0.185
693	0.185
693	0.186
694	0.186
694	0.185
695	0.187
695	0.188
695	0.188
696	0.188
696	0.188
697	0.188
697	0.188
698	0.188
698	0.188
698	0.188
699	0.188
699	0.187
700	0.187
700	0.187
701	0.187
701	0.186
702	0.186
702	0.186
702	0.186
703	0.186
703	0.186
704	0.186
704	0.186
705	0.186
705	0.186
705	0.185
706	0.185
706	0.185
707	0.185
707	0.185
708	0.185
708	0.185
709	0.185
709	0.185
709	0.185
710	0.185
710	0.186
711	0.187
711	0.187
712	0.188
712	0.188
713	0.188
713	0.189
713	0.189
714	0.189
714	0.189
715	0.189
715	0.188
716	0.187
716	0.187
716	0.186
717	0.185
717	0.185
718	0.184
718	0.184
719	0.184
719	0.184
720	0.185
720	0.185
720	0.186
721	0.186
721	0.187
722	0.188
722	0.188
723	0.189
723	0.189
723	0.189
724	0.189
724	0.189
725	0.188
725	0.187
726	0.187
726	0.186
727	0.185
727	0.185
727	0.185
728	0.185
728	0.185
729	0.185
729	0.185
730	0.186
730	0.186
730	0.187
731	0.187
731	0.188
732	0.189
732	0.19
733	0.19
733	0.191
734	0.191
734	0.192
734	0.192
735	0.193
735	0.192
736	0.192
736	0.192
737	0.192
737	0.192
737	0.192
738	0.191
738	0.19
739	0.189
739	0.189
740	0.189
740	0.189
741	0.189
741	0.189
741	0.189
742	0.189
742	0.19
743	0.191
743	0.192
744	0.192
744	0.193
744	0.193
745	0.194
745	0.194
746	0.194
746	0.193
747	0.193
747	0.193
748	0.192
748	0.192
748	0.192
749	0.192
749	0.192
750	0.192
750	0.192
751	0.192
751	0.193
751	0.193
752	0.193
752	0.193
753	0.192
753	0.192
754	0.192
754	0.192
754	0.192
755	0.192
755	0.192
756	0.191
756	0.191
757	0.191
757	0.191
758	0.191
758	0.192
758	0.192
759	0.192
759	0.192
760	0.192
760	0.192
761	0.193
761	0.193
761	0.193
762	0.194
762	0.194
763	0.194
763	0.194
764	0.193
764	0.194
764	0.194
765	0.194
765	0.194
766	0.194
766	0.194
767	0.194
767	0.193
768	0.192
768	0.192
768	0.193
769	0.193
769	0.193
770	0.194
770	0.194
771	0.195
771	0.195
771	0.196
772	0.197
772	0.198
773	0.198
773	0.199
774	0.199
774	0.199
775	0.199
775	0.199
775	0.199
776	0.199
776	0.199
777	0.2
777	0.2
778	0.2
778	0.2
778	0.2
779	0.2
779	0.2
780	0.199
780	0.198
781	0.198
781	0.198
781	0.198
782	0.198
782	0.198
783	0.198
783	0.199
784	0.199
784	0.199
784	0.2
785	0.2
785	0.2
786	0.2
786	0.2
787	0.201
787	0.2
788	0.2
788	0.2
788	0.2
789	0.199
789	0.2
790	0.2
790	0.2
791	0.199
791	0.199
791	0.199
792	0.2
792	0.2
793	0.2
793	0.2
794	0.2
794	0.199
794	0.199
795	0.199
795	0.2
796	0.2
796	0.2
797	0.2
797	0.2
797	0.201
798	0.201
798	0.201
799	0.201
799	0.201
800	0.201
800	0.201
801	0.201
801	0.201
801	0.201
802	0.201
802	0.201
803	0.201
803	0.202
804	0.202
804	0.202
804	0.203
805	0.203
805	0.203
806	0.203
806	0.203
807	0.203
807	0.203
807	0.203
808	0.203
808	0.203
809	0.203
809	0.203
810	0.203
810	0.203
810	0.203
811	0.203
811	0.203
812	0.204
812	0.204
813	0.205
813	0.206
813	0.206
814	0.207
814	0.208
815	0.208
815	0.209
816	0.209
816	0.208
817	0.208
817	0.208
817	0.207
818	0.207
818	0.206
819	0.206
819	0.205
820	0.204
820	0.203
820	0.203
821	0.203
821	0.203
822	0.203
822	0.204
823	0.204
823	0.204
823	0.205
824	0.206
824	0.207
825	0.208
825	0.21
826	0.21
826	0.21
826	0.211
827	0.211
827	0.211
828	0.212
828	0.212
829	0.212
829	0.212
829	0.212
830	0.213
830	0.213
831	0.214
831	0.215
832	0.215
832	0.215
832	0.215
833	0.215
833	0.214
834	0.214
834	0.214
835	0.213
835	0.213
835	0.212
836	0.212
836	0.211
837	0.211
837	0.21
838	0.21
838	0.209
839	0.208
839	0.207
839	0.206
840	0.205
840	0.205
841	0.204
841	0.203
842	0.203
842	0.202
842	0.202
843	0.202
843	0.201
844	0.201
844	0.201
845	0.201
845	0.201
845	0.201
846	0.201
846	0.201
847	0.201
847	0.202
848	0.202
848	0.202
848	0.202
849	0.203
849	0.203
850	0.203
850	0.204
851	0.204
851	0.204
851	0.204
852	0.204
852	0.204
853	0.204
853	0.204
854	0.204
854	0.205
854	0.205
855	0.206
855	0.207
856	0.207
856	0.208
857	0.209
857	0.21
857	0.211
858	0.211
858	0.211
859	0.211
859	0.211
860	0.211
860	0.211
860	0.211
861	0.21
861	0.21
862	0.209
862	0.208
863	0.208
863	0.207
863	0.207
864	0.207
864	0.207
865	0.207
865	0.207
866	0.207
866	0.207
866	0.207
867	0.208
867	0.208
868	0.209
868	0.209
869	0.209
869	0.209
869	0.208
870	0.208
870	0.208
871	0.208
871	0.207
872	0.207
872	0.207
872	0.206
873	0.206
873	0.206
874	0.205
874	0.205
875	0.205
875	0.205
875	0.205
876	0.205
876	0.204
877	0.204
877	0.204
878	0.204
878	0.204
878	0.204
879	0.204
879	0.204
880	0.204
880	0.204
881	0.204
881	0.205
881	0.205
882	0.205
882	0.205
883	0.205
883	0.206
884	0.206
884	0.206
884	0.206
885	0.206
885	0.206
886	0.206
886	0.205
887	0.205
887	0.204
887	0.204
888	0.203
888	0.202
889	0.202
889	0.202
890	0.202
890	0.202
890	0.201
891	0.201
891	0.201
892	0.201
892	0.201
893	0.201
893	0.201
893	0.2
894	0.2
894	0.2
895	0.199
895	0.199
895	0.199
896	0.199
896	0.199
897	0.199
897	0.199
898	0.199
898	0.198
898	0.198
899	0.197
899	0.196
900	0.196
900	0.195
901	0.195
901	0.194
901	0.194
902	0.193
902	0.193
903	0.193
903	0.193
904	0.192
904	0.192
904	0.192
905	0.191
905	0.191
906	0.191
906	0.191
907	0.191
907	0.192
907	0.192
908	0.192
908	0.192
909	0.192
909	0.192
910	0.192
910	0.192
910	0.192
911	0.192
911	0.191
912	0.191
912	0.191
913	0.19
913	0.19
913	0.19
914	0.189
914	0.189
915	0.189
915	0.189
916	0.189
916	0.189
916	0.188
917	0.188
917	0.188
918	0.187
918	0.187
918	0.187
919	0.186
919	0.186
920	0.185
920	0.185
921	0.184
921	0.184
921	0.184
922	0.183
922	0.183
923	0.183
923	0.183
924	0.183
924	0.183
924	0.183
925	0.184
925	0.184
926	0.184
926	0.185
927	0.185
927	0.185
927	0.186
928	0.186
928	0.186
929	0.186
929	0.186
930	0.186
930	0.186
930	0.186
931	0.186
931	0.186
932	0.186
932	0.186
933	0.186
933	0.185
933	0.185
934	0.185
934	0.184
935	0.184
935	0.183
935	0.182
936	0.182
936	0.181
937	0.18
937	0.179
938	0.179
938	0.178
938	0.178
939	0.177
939	0.176
940	0.176
940	0.176
941	0.176
941	0.176
941	0.176
942	0.176
942	0.176
943	0.176
943	0.176
944	0.176
944	0.177
944	0.177
945	0.177
945	0.177
946	0.177
946	0.177
946	0.177
947	0.177
947	0.177
948	0.176
948	0.176
949	0.175
949	0.174
949	0.173
950	0.172
950	0.171
951	0.17
951	0.169
952	0.168
952	0.167
952	0.166
953	0.166
953	0.165
954	0.165
954	0.165
955	0.165
955	0.165
955	0.166
956	0.166
956	0.167
957	0.167
957	0.168
957	0.168
958	0.168
958	0.169
959	0.169
959	0.169
960	0.169
960	0.169
960	0.169
961	0.169
961	0.169
962	0.169
962	0.169
963	0.169
963	0.169
963	0.169
964	0.169
964	0.169
965	0.168
965	0.168
966	0.168
966	0.168
966	0.168
967	0.167
967	0.167
968	0.167
968	0.166
968	0.166
969	0.165
969	0.164
970	0.163
970	0.162
971	0.161
971	0.16
971	0.159
972	0.158
972	0.157
973	0.157
973	0.157
974	0.157
974	0.157
974	0.158
975	0.158
975	0.159
976	0.159
976	0.16
976	0.161
977	0.161
977	0.161
978	0.161
978	0.161
979	0.161
979	0.161
979	0.161
980	0.161
980	0.16
981	0.16
981	0.16
982	0.159
982	0.159
982	0.159
983	0.159
983	0.159
984	0.158
984	0.158
984	0.158
985	0.158
985	0.158
986	0.157
986	0.157
987	0.157
987	0.157
987	0.157
988	0.157
988	0.157
989	0.156
989	0.156
990	0.155
990	0.155
990	0.154
991	0.154
991	0.153
992	0.153
992	0.152
992	0.15
993	0.149
993	0.148
994	0.147
994	0.146
995	0.145
995	0.145
995	0.145
996	0.144
996	0.144
997	0.145
997	0.145
997	0.146
998	0.146
998	0.147
999	0.148
999	0.149
1000	0.15
1000	0.15
1000	0.151
1001	0.152
1001	0.152
1002	0.152
1002	0.152
1003	0.152
1003	0.151
1003	0.151
1004	0.15
1004	0.149
1005	0.148
1005	0.147
1005	0.146
1006	0.145
1006	0.145
1007	0.144
1007	0.144
1008	0.143
1008	0.143
1008	0.143
1009	0.143
1009	0.143
1010	0.143
1010	0.143
1010	0.143
1011	0.142
1011	0.142
1012	0.142
1012	0.141
1013	0.141
1013	0.14
1013	0.14
1014	0.139
1014	0.139
1015	0.138
1015	0.138
1016	0.138
1016	0.137
1016	0.137
1017	0.137
1017	0.136
1018	0.136
1018	0.136
1018	0.136
1019	0.135
1019	0.135
1020	0.135
1020	0.135
1021	0.135
1021	0.136
1021	0.136
1022	0.136
1022	0.136
1023	0.137
1023	0.137
1023	0.137
1024	0.137
1024	0.137
1025	0.138
1025	0.138
1026	0.138
1026	0.138
1026	0.138
1027	0.138
1027	0.138
1028	0.138
1028	0.138
1028	0.138
1029	0.138
1029	0.138
1030	0.138
1030	0.138
1031	0.138
1031	0.138
1031	0.138
1032	0.138
1032	0.138
1033	0.138
1033	0.138
1033	0.138
1034	0.138
1034	0.137
1035	0.137
1035	0.137
1036	0.137
1036	0.136
1036	0.136
1037	0.136
1037	0.135
1038	0.135
1038	0.134
1039	0.134
1039	0.134
1039	0.133
1040	0.133
1040	0.132
1041	0.132
1041	0.132
1041	0.131
1042	0.131
1042	0.131
1043	0.131
1043	0.13
1044	0.13
1044	0.13
1044	0.129
1045	0.129
1045	0.129
1046	0.129
1046	0.129
1046	0.129
1047	0.129
1047	0.128
1048	0.128
1048	0.129
1049	0.129
1049	0.129
1049	0.129
1050	0.129
1050	0.129
1051	0.129
1051	0.128
1051	0.128
1052	0.128
1052	0.127
1053	0.126
1053	0.126
1053	0.125
1054	0.124
1054	0.123
1055	0.123
1055	0.122
1056	0.121
1056	0.12
1056	0.12
1057	0.119
1057	0.118
1058	0.117
1058	0.116
1058	0.115
1059	0.114
1059	0.114
1060	0.113
1060	0.112
1061	0.112
1061	0.111
1061	0.111
1062	0.111
1062	0.11
1063	0.11
1063	0.11
1063	0.109
1064	0.109
1064	0.108
1065	0.108
1065	0.108
1066	0.108
1066	0.107
1066	0.107
1067	0.107
1067	0.107
1068	0.107
1068	0.107
1068	0.107
1069	0.107
1069	0.107
1070	0.106
1070	0.106
1071	0.106
1071	0.106
1071	0.105
1072	0.106
1072	0.106
1073	0.105
1073	0.105
1073	0.105
1074	0.105
1074	0.106
1075	0.106
1075	0.107
1076	0.107
1076	0.108
1076	0.108
1077	0.108
1077	0.108
1078	0.109
1078	0.109
1078	0.109
1079	0.108
1079	0.108
1080	0.107
1080	0.107
1080	0.106
1081	0.106
1081	0.105
1082	0.105
1082	0.105
1083	0.105
1083	0.104
1083	0.104
1084	0.105
1084	0.105
1085	0.105
1085	0.105
1085	0.105
1086	0.105
1086	0.104
1087	0.104
1087	0.104
1088	0.104
1088	0.103
1088	0.103
1089	0.102
1089	0.101
1090	0.1
1090	0.099
1090	0.098
1091	0.098
1091	0.098
1092	0.098
1092	0.098
1092	0.097
1093	0.097
1093	0.097
1094	0.097
1094	0.096
1095	0.096
1095	0.095
1095	0.094
1096	0.094
1096	0.092
1097	0.091
1097	0.09
1097	0.089
1098	0.089
1098	0.088
1099	0.088
1099	0.086
1100	0.085
1100	0.084
1100	0.083
1101	0.082
1101	0.082
1102	0.081
1102	0.08
1102	0.077
1103	0.076
1103	0.076
1104	0.076
1104	0.076
1104	0.076
1105	0.074
1105	0.072
1106	0.07
1106	0.069
1107	0.069
1107	0.069
1107	0.069
1108	0.068
1108	0.066
1109	0.064
1109	0.063
1109	0.062
1110	0.065
1110	0.065
1111	0.064
1111	0.063
