Data from reversibility-20sec_Absorbance__4942__000000000004942.txt Node

Date: Wed Dec 06 15:40:26 CET 2023
User: Marek
Spectrometer: MAYP115816
Trigger mode: 0
Integration Time (sec): 2.000000E-1
Scans to average: 10
Electric dark correction enabled: true
Nonlinearity correction enabled: true
Boxcar width: 5
XAxis mode: Wavelengths
Number of Pixels in Spectrum: 2068
>>>>>Begin Spectral Data<<<<<
199	-0.196
199	-0.167
200	-0.092
200	-0.038
201	-0.009
201	0.006
202	0.019
202	0.027
203	0.033
203	0.039
204	0.056
204	0.069
205	0.082
205	0.087
205	0.084
206	0.085
206	0.085
207	0.086
207	0.084
208	0.085
208	0.082
209	0.083
209	0.081
210	0.082
210	0.081
211	0.082
211	0.083
212	0.081
212	0.083
213	0.088
213	0.092
213	0.092
214	0.096
214	0.099
215	0.099
215	0.101
216	0.102
216	0.102
217	0.107
217	0.109
218	0.109
218	0.108
219	0.114
219	0.112
220	0.115
220	0.117
221	0.115
221	0.118
221	0.121
222	0.127
222	0.131
223	0.141
223	0.144
224	0.148
224	0.16
225	0.168
225	0.18
226	0.19
226	0.201
227	0.212
227	0.221
228	0.235
228	0.245
229	0.266
229	0.289
229	0.309
230	0.334
230	0.362
231	0.395
231	0.432
232	0.471
232	0.516
233	0.559
233	0.608
234	0.658
234	0.709
235	0.766
235	0.818
236	0.871
236	0.924
236	0.976
237	1.028
237	1.076
238	1.124
238	1.171
239	1.217
239	1.259
240	1.296
240	1.332
241	1.368
241	1.402
242	1.435
242	1.467
243	1.499
243	1.525
243	1.55
244	1.572
244	1.593
245	1.613
245	1.636
246	1.654
246	1.672
247	1.687
247	1.703
248	1.715
248	1.729
249	1.741
249	1.746
250	1.754
250	1.763
250	1.766
251	1.772
251	1.776
252	1.781
252	1.782
253	1.783
253	1.781
254	1.779
254	1.785
255	1.785
255	1.786
256	1.787
256	1.784
257	1.784
257	1.784
258	1.783
258	1.783
258	1.784
259	1.783
259	1.781
260	1.78
260	1.78
261	1.78
261	1.785
262	1.786
262	1.786
263	1.789
263	1.791
264	1.792
264	1.793
265	1.794
265	1.795
265	1.796
266	1.796
266	1.795
267	1.793
267	1.793
268	1.792
268	1.792
269	1.793
269	1.793
270	1.792
270	1.79
271	1.787
271	1.786
272	1.784
272	1.784
272	1.782
273	1.776
273	1.772
274	1.766
274	1.763
275	1.757
275	1.753
276	1.746
276	1.739
277	1.732
277	1.722
278	1.711
278	1.7
278	1.687
279	1.673
279	1.655
280	1.633
280	1.606
281	1.576
281	1.542
282	1.504
282	1.466
283	1.428
283	1.391
284	1.355
284	1.319
285	1.285
285	1.253
285	1.225
286	1.199
286	1.177
287	1.158
287	1.142
288	1.127
288	1.115
289	1.104
289	1.095
290	1.087
290	1.08
291	1.073
291	1.068
292	1.063
292	1.058
292	1.054
293	1.049
293	1.046
294	1.042
294	1.039
295	1.036
295	1.032
296	1.029
296	1.026
297	1.023
297	1.019
298	1.016
298	1.013
298	1.01
299	1.007
299	1.004
300	1.001
300	0.998
301	0.995
301	0.992
302	0.99
302	0.987
303	0.985
303	0.982
304	0.98
304	0.976
305	0.974
305	0.972
305	0.97
306	0.967
306	0.965
307	0.962
307	0.959
308	0.956
308	0.953
309	0.95
309	0.947
310	0.944
310	0.941
311	0.938
311	0.934
311	0.931
312	0.927
312	0.924
313	0.92
313	0.917
314	0.913
314	0.909
315	0.904
315	0.9
316	0.896
316	0.891
317	0.886
317	0.881
318	0.877
318	0.871
318	0.866
319	0.86
319	0.855
320	0.85
320	0.844
321	0.838
321	0.832
322	0.826
322	0.819
323	0.813
323	0.806
324	0.8
324	0.794
324	0.787
325	0.78
325	0.773
326	0.766
326	0.76
327	0.753
327	0.746
328	0.74
328	0.733
329	0.726
329	0.719
330	0.712
330	0.705
330	0.698
331	0.691
331	0.685
332	0.678
332	0.671
333	0.664
333	0.657
334	0.651
334	0.644
335	0.637
335	0.63
336	0.624
336	0.617
336	0.611
337	0.604
337	0.598
338	0.592
338	0.585
339	0.579
339	0.573
340	0.568
340	0.562
341	0.556
341	0.551
342	0.546
342	0.54
342	0.535
343	0.53
343	0.525
344	0.52
344	0.515
345	0.51
345	0.506
346	0.501
346	0.497
347	0.492
347	0.488
348	0.484
348	0.48
348	0.477
349	0.473
349	0.469
350	0.466
350	0.462
351	0.459
351	0.456
352	0.452
352	0.449
353	0.446
353	0.443
354	0.44
354	0.437
354	0.434
355	0.431
355	0.428
356	0.426
356	0.423
357	0.42
357	0.417
358	0.415
358	0.412
359	0.41
359	0.407
360	0.405
360	0.403
360	0.401
361	0.399
361	0.397
362	0.396
362	0.394
363	0.392
363	0.39
364	0.388
364	0.386
365	0.384
365	0.382
366	0.38
366	0.379
366	0.377
367	0.375
367	0.373
368	0.372
368	0.37
369	0.368
369	0.367
370	0.365
370	0.364
371	0.362
371	0.361
372	0.36
372	0.358
372	0.357
373	0.356
373	0.355
374	0.354
374	0.352
375	0.351
375	0.35
376	0.349
376	0.348
377	0.347
377	0.346
378	0.345
378	0.344
378	0.343
379	0.342
379	0.341
380	0.34
380	0.339
381	0.339
381	0.338
382	0.337
382	0.337
383	0.336
383	0.335
383	0.335
384	0.334
384	0.333
385	0.333
385	0.332
386	0.331
386	0.331
387	0.33
387	0.33
388	0.329
388	0.329
389	0.328
389	0.328
389	0.327
390	0.327
390	0.326
391	0.325
391	0.325
392	0.324
392	0.324
393	0.323
393	0.323
394	0.322
394	0.322
394	0.321
395	0.321
395	0.32
396	0.32
396	0.319
397	0.319
397	0.318
398	0.318
398	0.317
399	0.317
399	0.316
400	0.316
400	0.316
400	0.315
401	0.315
401	0.315
402	0.314
402	0.314
403	0.314
403	0.313
404	0.313
404	0.312
405	0.312
405	0.312
405	0.312
406	0.311
406	0.311
407	0.31
407	0.31
408	0.309
408	0.309
409	0.309
409	0.308
410	0.308
410	0.308
411	0.307
411	0.307
411	0.306
412	0.306
412	0.306
413	0.305
413	0.305
414	0.304
414	0.304
415	0.304
415	0.303
416	0.303
416	0.302
416	0.302
417	0.301
417	0.301
418	0.301
418	0.301
419	0.3
419	0.3
420	0.299
420	0.299
421	0.299
421	0.299
421	0.298
422	0.298
422	0.298
423	0.297
423	0.297
424	0.296
424	0.296
425	0.296
425	0.295
426	0.295
426	0.294
427	0.294
427	0.294
427	0.294
428	0.293
428	0.293
429	0.293
429	0.293
430	0.292
430	0.292
431	0.292
431	0.292
432	0.292
432	0.291
432	0.291
433	0.291
433	0.291
434	0.291
434	0.291
435	0.291
435	0.29
436	0.29
436	0.29
437	0.289
437	0.289
437	0.289
438	0.289
438	0.288
439	0.288
439	0.288
440	0.288
440	0.288
441	0.288
441	0.287
442	0.287
442	0.287
442	0.287
443	0.287
443	0.287
444	0.287
444	0.287
445	0.287
445	0.287
446	0.287
446	0.286
447	0.286
447	0.286
447	0.286
448	0.286
448	0.285
449	0.285
449	0.285
450	0.285
450	0.285
451	0.285
451	0.285
452	0.285
452	0.285
452	0.285
453	0.285
453	0.285
454	0.285
454	0.285
455	0.284
455	0.284
456	0.284
456	0.284
457	0.284
457	0.284
458	0.284
458	0.284
458	0.284
459	0.283
459	0.283
460	0.284
460	0.284
461	0.284
461	0.284
462	0.283
462	0.283
463	0.284
463	0.284
463	0.284
464	0.284
464	0.283
465	0.283
465	0.283
466	0.283
466	0.284
467	0.284
467	0.284
467	0.284
468	0.284
468	0.285
469	0.285
469	0.285
470	0.286
470	0.286
471	0.287
471	0.287
472	0.287
472	0.288
472	0.288
473	0.289
473	0.289
474	0.289
474	0.289
475	0.289
475	0.29
476	0.29
476	0.291
477	0.291
477	0.292
477	0.292
478	0.292
478	0.293
479	0.293
479	0.294
480	0.294
480	0.295
481	0.295
481	0.296
482	0.296
482	0.297
482	0.297
483	0.298
483	0.299
484	0.3
484	0.3
485	0.301
485	0.302
486	0.303
486	0.303
487	0.304
487	0.305
487	0.305
488	0.306
488	0.307
489	0.308
489	0.309
490	0.31
490	0.311
491	0.312
491	0.313
492	0.314
492	0.315
492	0.317
493	0.318
493	0.319
494	0.32
494	0.321
495	0.322
495	0.323
496	0.324
496	0.326
496	0.327
497	0.328
497	0.329
498	0.331
498	0.332
499	0.333
499	0.334
500	0.336
500	0.337
501	0.338
501	0.339
501	0.34
502	0.341
502	0.343
503	0.344
503	0.345
504	0.346
504	0.347
505	0.348
505	0.349
506	0.35
506	0.351
506	0.352
507	0.353
507	0.354
508	0.356
508	0.357
509	0.357
509	0.359
510	0.36
510	0.361
511	0.362
511	0.363
511	0.364
512	0.365
512	0.366
513	0.367
513	0.368
514	0.369
514	0.369
515	0.37
515	0.371
515	0.372
516	0.372
516	0.373
517	0.374
517	0.374
518	0.375
518	0.375
519	0.376
519	0.376
520	0.376
520	0.376
520	0.376
521	0.376
521	0.376
522	0.376
522	0.375
523	0.375
523	0.375
524	0.375
524	0.375
524	0.375
525	0.375
525	0.374
526	0.374
526	0.373
527	0.373
527	0.373
528	0.372
528	0.371
529	0.371
529	0.37
529	0.369
530	0.368
530	0.367
531	0.367
531	0.365
532	0.364
532	0.363
533	0.362
533	0.361
533	0.36
534	0.358
534	0.357
535	0.356
535	0.355
536	0.353
536	0.352
537	0.351
537	0.349
538	0.348
538	0.346
538	0.344
539	0.343
539	0.342
540	0.34
540	0.338
541	0.336
541	0.335
542	0.333
542	0.332
542	0.33
543	0.328
543	0.326
544	0.324
544	0.322
545	0.321
545	0.319
546	0.317
546	0.315
547	0.313
547	0.311
547	0.31
548	0.308
548	0.306
549	0.304
549	0.302
550	0.301
550	0.299
551	0.296
551	0.294
551	0.292
552	0.29
552	0.288
553	0.286
553	0.285
554	0.283
554	0.281
555	0.278
555	0.276
556	0.275
556	0.273
556	0.271
557	0.27
557	0.268
558	0.267
558	0.266
559	0.264
559	0.262
560	0.261
560	0.259
560	0.258
561	0.257
561	0.255
562	0.253
562	0.251
563	0.249
563	0.247
564	0.245
564	0.244
564	0.242
565	0.241
565	0.239
566	0.238
566	0.236
567	0.235
567	0.233
568	0.232
568	0.23
568	0.229
569	0.228
569	0.226
570	0.224
570	0.223
571	0.221
571	0.22
572	0.219
572	0.217
573	0.216
573	0.215
573	0.214
574	0.213
574	0.212
575	0.211
575	0.21
576	0.21
576	0.208
577	0.207
577	0.205
577	0.204
578	0.203
578	0.202
579	0.201
579	0.201
580	0.199
580	0.198
581	0.196
581	0.195
581	0.195
582	0.194
582	0.193
583	0.193
583	0.192
584	0.19
584	0.188
585	0.187
585	0.186
585	0.185
586	0.184
586	0.183
587	0.182
587	0.181
588	0.18
588	0.179
589	0.179
589	0.178
590	0.178
590	0.177
590	0.177
591	0.177
591	0.176
592	0.175
592	0.174
593	0.173
593	0.173
594	0.172
594	0.171
594	0.17
595	0.169
595	0.168
596	0.167
596	0.167
597	0.167
597	0.167
598	0.166
598	0.165
598	0.165
599	0.164
599	0.163
600	0.163
600	0.162
601	0.161
601	0.161
602	0.16
602	0.159
602	0.158
603	0.157
603	0.157
604	0.157
604	0.157
605	0.157
605	0.157
606	0.156
606	0.155
606	0.155
607	0.154
607	0.154
608	0.153
608	0.152
609	0.152
609	0.151
610	0.151
610	0.15
610	0.15
611	0.149
611	0.149
612	0.149
612	0.148
613	0.148
613	0.147
614	0.147
614	0.146
614	0.146
615	0.145
615	0.145
616	0.144
616	0.144
617	0.143
617	0.143
618	0.142
618	0.142
618	0.142
619	0.142
619	0.142
620	0.142
620	0.141
621	0.141
621	0.141
622	0.14
622	0.139
622	0.139
623	0.138
623	0.138
624	0.138
624	0.137
625	0.136
625	0.136
626	0.136
626	0.135
626	0.135
627	0.135
627	0.135
628	0.134
628	0.134
629	0.133
629	0.133
630	0.132
630	0.132
630	0.132
631	0.132
631	0.132
632	0.132
632	0.131
633	0.131
633	0.131
634	0.131
634	0.131
634	0.131
635	0.13
635	0.129
636	0.129
636	0.128
637	0.128
637	0.127
638	0.127
638	0.126
638	0.126
639	0.125
639	0.125
640	0.125
640	0.124
641	0.124
641	0.124
642	0.124
642	0.125
642	0.125
643	0.125
643	0.125
644	0.125
644	0.125
645	0.125
645	0.125
646	0.125
646	0.125
646	0.125
647	0.124
647	0.124
648	0.123
648	0.123
649	0.122
649	0.122
650	0.122
650	0.122
650	0.122
651	0.122
651	0.121
652	0.121
652	0.121
653	0.122
653	0.123
653	0.129
654	0.103
654	0.083
655	0.082
655	0.081
656	0.082
656	0.082
657	0.082
657	0.082
657	0.082
658	0.081
658	0.073
659	0.091
659	0.115
660	0.121
660	0.121
661	0.121
661	0.12
661	0.12
662	0.119
662	0.119
663	0.119
663	0.119
664	0.119
664	0.118
665	0.118
665	0.118
665	0.118
666	0.118
666	0.118
667	0.118
667	0.118
668	0.118
668	0.118
669	0.118
669	0.118
669	0.118
670	0.118
670	0.118
671	0.118
671	0.117
672	0.117
672	0.116
672	0.116
673	0.115
673	0.115
674	0.115
674	0.114
675	0.114
675	0.114
676	0.114
676	0.114
676	0.114
677	0.114
677	0.114
678	0.113
678	0.113
679	0.112
679	0.112
680	0.112
680	0.112
680	0.111
681	0.111
681	0.112
682	0.112
682	0.113
683	0.113
683	0.114
684	0.114
684	0.114
684	0.113
685	0.114
685	0.114
686	0.114
686	0.114
687	0.113
687	0.113
687	0.113
688	0.113
688	0.113
689	0.113
689	0.113
690	0.113
690	0.113
691	0.113
691	0.113
691	0.113
692	0.113
692	0.112
693	0.113
693	0.113
694	0.113
694	0.113
695	0.113
695	0.115
695	0.115
696	0.115
696	0.115
697	0.115
697	0.115
698	0.114
698	0.114
698	0.114
699	0.114
699	0.113
700	0.112
700	0.112
701	0.112
701	0.111
702	0.11
702	0.11
702	0.11
703	0.11
703	0.11
704	0.109
704	0.109
705	0.109
705	0.109
705	0.109
706	0.11
706	0.11
707	0.111
707	0.111
708	0.111
708	0.112
709	0.112
709	0.112
709	0.112
710	0.112
710	0.112
711	0.113
711	0.113
712	0.113
712	0.113
713	0.113
713	0.112
713	0.112
714	0.111
714	0.111
715	0.11
715	0.109
716	0.109
716	0.108
716	0.107
717	0.107
717	0.106
718	0.106
718	0.106
719	0.107
719	0.107
720	0.108
720	0.108
720	0.109
721	0.109
721	0.109
722	0.11
722	0.11
723	0.11
723	0.11
723	0.11
724	0.11
724	0.11
725	0.109
725	0.109
726	0.108
726	0.108
727	0.108
727	0.108
727	0.107
728	0.107
728	0.107
729	0.107
729	0.107
730	0.107
730	0.108
730	0.108
731	0.108
731	0.109
732	0.11
732	0.11
733	0.11
733	0.11
734	0.11
734	0.111
734	0.111
735	0.111
735	0.111
736	0.111
736	0.111
737	0.111
737	0.111
737	0.111
738	0.11
738	0.109
739	0.109
739	0.108
740	0.107
740	0.107
741	0.107
741	0.106
741	0.106
742	0.106
742	0.106
743	0.107
743	0.107
744	0.107
744	0.108
744	0.108
745	0.108
745	0.108
746	0.108
746	0.108
747	0.107
747	0.107
748	0.106
748	0.106
748	0.106
749	0.105
749	0.105
750	0.105
750	0.105
751	0.105
751	0.105
751	0.105
752	0.104
752	0.104
753	0.103
753	0.103
754	0.102
754	0.102
754	0.102
755	0.101
755	0.101
756	0.1
756	0.099
757	0.098
757	0.098
758	0.098
758	0.098
758	0.099
759	0.099
759	0.098
760	0.098
760	0.098
761	0.098
761	0.099
761	0.099
762	0.099
762	0.099
763	0.099
763	0.099
764	0.098
764	0.098
764	0.098
765	0.098
765	0.097
766	0.097
766	0.097
767	0.097
767	0.096
768	0.095
768	0.095
768	0.096
769	0.096
769	0.096
770	0.096
770	0.097
771	0.097
771	0.097
771	0.097
772	0.098
772	0.098
773	0.098
773	0.098
774	0.098
774	0.098
775	0.098
775	0.098
775	0.098
776	0.098
776	0.098
777	0.098
777	0.097
778	0.097
778	0.097
778	0.096
779	0.096
779	0.096
780	0.095
780	0.094
781	0.094
781	0.093
781	0.093
782	0.093
782	0.093
783	0.093
783	0.094
784	0.094
784	0.094
784	0.094
785	0.095
785	0.095
786	0.095
786	0.095
787	0.095
787	0.094
788	0.093
788	0.092
788	0.091
789	0.09
789	0.09
790	0.089
790	0.088
791	0.087
791	0.086
791	0.085
792	0.085
792	0.084
793	0.084
793	0.084
794	0.083
794	0.083
794	0.083
795	0.083
795	0.084
796	0.084
796	0.085
797	0.084
797	0.085
797	0.085
798	0.086
798	0.086
799	0.086
799	0.086
800	0.086
800	0.085
801	0.085
801	0.085
801	0.084
802	0.084
802	0.083
803	0.082
803	0.082
804	0.082
804	0.082
804	0.082
805	0.082
805	0.081
806	0.081
806	0.081
807	0.081
807	0.081
807	0.081
808	0.082
808	0.082
809	0.081
809	0.081
810	0.081
810	0.081
810	0.081
811	0.081
811	0.081
812	0.081
812	0.081
813	0.081
813	0.081
813	0.082
814	0.082
814	0.083
815	0.084
815	0.084
816	0.084
816	0.084
817	0.084
817	0.083
817	0.083
818	0.083
818	0.083
819	0.082
819	0.081
820	0.08
820	0.079
820	0.079
821	0.079
821	0.079
822	0.079
822	0.079
823	0.079
823	0.078
823	0.079
824	0.079
824	0.08
825	0.081
825	0.081
826	0.081
826	0.081
826	0.081
827	0.081
827	0.081
828	0.081
828	0.081
829	0.081
829	0.081
829	0.081
830	0.081
830	0.081
831	0.082
831	0.082
832	0.082
832	0.082
832	0.081
833	0.081
833	0.081
834	0.08
834	0.08
835	0.079
835	0.079
835	0.079
836	0.078
836	0.078
837	0.078
837	0.078
838	0.078
838	0.077
839	0.077
839	0.076
839	0.076
840	0.075
840	0.074
841	0.073
841	0.072
842	0.071
842	0.07
842	0.069
843	0.069
843	0.068
844	0.067
844	0.066
845	0.066
845	0.065
845	0.065
846	0.064
846	0.064
847	0.064
847	0.064
848	0.065
848	0.065
848	0.065
849	0.065
849	0.066
850	0.066
850	0.066
851	0.067
851	0.067
851	0.067
852	0.066
852	0.066
853	0.065
853	0.065
854	0.065
854	0.066
854	0.066
855	0.067
855	0.067
856	0.068
856	0.068
857	0.069
857	0.07
857	0.071
858	0.071
858	0.071
859	0.071
859	0.07
860	0.07
860	0.069
860	0.068
861	0.067
861	0.067
862	0.066
862	0.065
863	0.064
863	0.064
863	0.063
864	0.063
864	0.063
865	0.063
865	0.064
866	0.064
866	0.063
866	0.064
867	0.064
867	0.065
868	0.065
868	0.065
869	0.065
869	0.065
869	0.065
870	0.065
870	0.065
871	0.064
871	0.064
872	0.064
872	0.064
872	0.064
873	0.064
873	0.063
874	0.063
874	0.063
875	0.063
875	0.063
875	0.063
876	0.063
876	0.063
877	0.063
877	0.063
878	0.063
878	0.063
878	0.064
879	0.064
879	0.064
880	0.063
880	0.063
881	0.063
881	0.063
881	0.062
882	0.062
882	0.062
883	0.061
883	0.061
884	0.061
884	0.062
884	0.062
885	0.062
885	0.061
886	0.061
886	0.061
887	0.061
887	0.06
887	0.06
888	0.059
888	0.058
889	0.058
889	0.057
890	0.057
890	0.057
890	0.057
891	0.056
891	0.056
892	0.056
892	0.056
893	0.055
893	0.055
893	0.055
894	0.055
894	0.054
895	0.054
895	0.054
895	0.054
896	0.054
896	0.054
897	0.055
897	0.055
898	0.055
898	0.056
898	0.056
899	0.056
899	0.057
900	0.057
900	0.057
901	0.057
901	0.057
901	0.057
902	0.057
902	0.056
903	0.056
903	0.056
904	0.055
904	0.055
904	0.055
905	0.054
905	0.054
906	0.054
906	0.054
907	0.054
907	0.055
907	0.055
908	0.055
908	0.055
909	0.055
909	0.055
910	0.055
910	0.055
910	0.055
911	0.054
911	0.054
912	0.054
912	0.053
913	0.053
913	0.052
913	0.052
914	0.052
914	0.052
915	0.052
915	0.052
916	0.052
916	0.052
916	0.052
917	0.053
917	0.053
918	0.053
918	0.053
918	0.053
919	0.053
919	0.053
920	0.053
920	0.052
921	0.052
921	0.052
921	0.052
922	0.052
922	0.052
923	0.052
923	0.052
924	0.052
924	0.053
924	0.053
925	0.054
925	0.054
926	0.055
926	0.055
927	0.055
927	0.055
927	0.055
928	0.055
928	0.055
929	0.055
929	0.054
930	0.053
930	0.053
930	0.052
931	0.052
931	0.052
932	0.051
932	0.051
933	0.051
933	0.05
933	0.05
934	0.05
934	0.049
935	0.049
935	0.048
935	0.048
936	0.047
936	0.047
937	0.047
937	0.047
938	0.047
938	0.047
938	0.047
939	0.047
939	0.047
940	0.047
940	0.048
941	0.048
941	0.048
941	0.049
942	0.049
942	0.049
943	0.05
943	0.05
944	0.049
944	0.05
944	0.05
945	0.05
945	0.05
946	0.05
946	0.05
946	0.05
947	0.051
947	0.051
948	0.051
948	0.051
949	0.051
949	0.051
949	0.05
950	0.05
950	0.05
951	0.05
951	0.05
952	0.049
952	0.048
952	0.048
953	0.048
953	0.048
954	0.048
954	0.047
955	0.047
955	0.047
955	0.047
956	0.047
956	0.048
957	0.048
957	0.048
957	0.048
958	0.049
958	0.048
959	0.048
959	0.048
960	0.048
960	0.048
960	0.048
961	0.047
961	0.047
962	0.047
962	0.047
963	0.046
963	0.047
963	0.047
964	0.047
964	0.047
965	0.048
965	0.047
966	0.048
966	0.048
966	0.048
967	0.047
967	0.047
968	0.047
968	0.047
968	0.046
969	0.046
969	0.045
970	0.045
970	0.045
971	0.044
971	0.044
971	0.043
972	0.043
972	0.042
973	0.042
973	0.042
974	0.042
974	0.042
974	0.041
975	0.041
975	0.042
976	0.042
976	0.042
976	0.042
977	0.042
977	0.042
978	0.042
978	0.042
979	0.042
979	0.041
979	0.041
980	0.041
980	0.041
981	0.041
981	0.041
982	0.041
982	0.041
982	0.041
983	0.042
983	0.042
984	0.043
984	0.043
984	0.044
985	0.044
985	0.045
986	0.045
986	0.045
987	0.045
987	0.046
987	0.046
988	0.046
988	0.046
989	0.046
989	0.047
990	0.047
990	0.047
990	0.047
991	0.047
991	0.047
992	0.046
992	0.046
992	0.045
993	0.044
993	0.044
994	0.043
994	0.042
995	0.042
995	0.041
995	0.041
996	0.041
996	0.041
997	0.041
997	0.041
997	0.041
998	0.042
998	0.042
999	0.043
999	0.043
1000	0.044
1000	0.044
1000	0.045
1001	0.045
1001	0.045
1002	0.045
1002	0.045
1003	0.045
1003	0.045
1003	0.044
1004	0.044
1004	0.043
1005	0.042
1005	0.042
1005	0.041
1006	0.04
1006	0.04
1007	0.039
1007	0.039
1008	0.038
1008	0.038
1008	0.038
1009	0.038
1009	0.037
1010	0.037
1010	0.037
1010	0.037
1011	0.037
1011	0.037
1012	0.037
1012	0.037
1013	0.036
1013	0.036
1013	0.036
1014	0.036
1014	0.036
1015	0.036
1015	0.036
1016	0.036
1016	0.036
1016	0.036
1017	0.036
1017	0.036
1018	0.036
1018	0.036
1018	0.036
1019	0.036
1019	0.036
1020	0.035
1020	0.035
1021	0.036
1021	0.036
1021	0.036
1022	0.037
1022	0.037
1023	0.037
1023	0.038
1023	0.038
1024	0.038
1024	0.038
1025	0.039
1025	0.039
1026	0.039
1026	0.039
1026	0.039
1027	0.039
1027	0.039
1028	0.039
1028	0.039
1028	0.039
1029	0.039
1029	0.039
1030	0.04
1030	0.04
1031	0.04
1031	0.041
1031	0.041
1032	0.041
1032	0.042
1033	0.042
1033	0.042
1033	0.042
1034	0.042
1034	0.042
1035	0.042
1035	0.042
1036	0.042
1036	0.042
1036	0.042
1037	0.042
1037	0.042
1038	0.042
1038	0.043
1039	0.043
1039	0.043
1039	0.043
1040	0.043
1040	0.043
1041	0.044
1041	0.043
1041	0.043
1042	0.043
1042	0.043
1043	0.043
1043	0.043
1044	0.043
1044	0.043
1044	0.042
1045	0.042
1045	0.042
1046	0.042
1046	0.042
1046	0.042
1047	0.042
1047	0.042
1048	0.042
1048	0.042
1049	0.042
1049	0.042
1049	0.041
1050	0.041
1050	0.04
1051	0.04
1051	0.039
1051	0.039
1052	0.038
1052	0.038
1053	0.038
1053	0.037
1053	0.037
1054	0.037
1054	0.037
1055	0.037
1055	0.036
1056	0.036
1056	0.036
1056	0.035
1057	0.034
1057	0.034
1058	0.033
1058	0.032
1058	0.032
1059	0.031
1059	0.031
1060	0.03
1060	0.03
1061	0.03
1061	0.029
1061	0.029
1062	0.029
1062	0.029
1063	0.029
1063	0.029
1063	0.029
1064	0.029
1064	0.029
1065	0.029
1065	0.029
1066	0.029
1066	0.029
1066	0.029
1067	0.029
1067	0.029
1068	0.029
1068	0.028
1068	0.029
1069	0.029
1069	0.028
1070	0.028
1070	0.028
1071	0.027
1071	0.027
1071	0.026
1072	0.026
1072	0.026
1073	0.025
1073	0.025
1073	0.025
1074	0.025
1074	0.025
1075	0.025
1075	0.025
1076	0.025
1076	0.026
1076	0.026
1077	0.026
1077	0.026
1078	0.026
1078	0.026
1078	0.025
1079	0.025
1079	0.025
1080	0.024
1080	0.024
1080	0.024
1081	0.023
1081	0.023
1082	0.023
1082	0.023
1083	0.023
1083	0.023
1083	0.023
1084	0.024
1084	0.024
1085	0.024
1085	0.025
1085	0.025
1086	0.026
1086	0.025
1087	0.025
1087	0.025
1088	0.025
1088	0.025
1088	0.025
1089	0.025
1089	0.024
1090	0.024
1090	0.023
1090	0.022
1091	0.022
1091	0.022
1092	0.022
1092	0.022
1092	0.022
1093	0.022
1093	0.023
1094	0.022
1094	0.021
1095	0.021
1095	0.02
1095	0.02
1096	0.019
1096	0.018
1097	0.017
1097	0.016
1097	0.016
1098	0.015
1098	0.013
1099	0.013
1099	0.012
1100	0.011
1100	0.01
1100	0.009
1101	0.008
1101	0.007
1102	0.006
1102	0.004
1102	0.002
1103	0.002
1103	0.001
1104	0.001
1104	0.001
1104	0.001
1105	0
1105	-0
1106	-0.002
1106	-0.002
1107	-0.002
1107	-0.002
1107	-0.002
1108	-0.003
1108	-0.004
1109	-0.005
1109	-0.006
1109	-0.005
1110	-0.003
1110	-0.004
1111	-0.007
1111	-0.007
