Data from reversibility-20sec_Absorbance__3999__000000000003999.txt Node

Date: Wed Dec 06 10:26:06 CET 2023
User: Marek
Spectrometer: MAYP115816
Trigger mode: 0
Integration Time (sec): 2.000000E-1
Scans to average: 10
Electric dark correction enabled: true
Nonlinearity correction enabled: true
Boxcar width: 5
XAxis mode: Wavelengths
Number of Pixels in Spectrum: 2068
>>>>>Begin Spectral Data<<<<<
199	-0.136
199	-0.092
200	-0.035
200	0.02
201	0.047
201	0.062
202	0.07
202	0.077
203	0.085
203	0.089
204	0.104
204	0.118
205	0.127
205	0.135
205	0.129
206	0.129
206	0.13
207	0.132
207	0.132
208	0.133
208	0.135
209	0.137
209	0.136
210	0.138
210	0.138
211	0.142
211	0.143
212	0.14
212	0.142
213	0.145
213	0.149
213	0.147
214	0.147
214	0.144
215	0.145
215	0.145
216	0.146
216	0.144
217	0.146
217	0.148
218	0.148
218	0.149
219	0.154
219	0.156
220	0.159
220	0.159
221	0.163
221	0.169
221	0.176
222	0.184
222	0.188
223	0.197
223	0.201
224	0.206
224	0.216
225	0.229
225	0.24
226	0.251
226	0.258
227	0.264
227	0.273
228	0.288
228	0.301
229	0.318
229	0.34
229	0.36
230	0.383
230	0.411
231	0.442
231	0.479
232	0.518
232	0.563
233	0.609
233	0.657
234	0.708
234	0.759
235	0.814
235	0.87
236	0.923
236	0.974
236	1.029
237	1.08
237	1.132
238	1.175
238	1.222
239	1.266
239	1.308
240	1.346
240	1.38
241	1.414
241	1.446
242	1.479
242	1.513
243	1.54
243	1.565
243	1.59
244	1.614
244	1.635
245	1.656
245	1.674
246	1.694
246	1.71
247	1.72
247	1.734
248	1.746
248	1.76
249	1.766
249	1.772
250	1.78
250	1.786
250	1.791
251	1.794
251	1.797
252	1.802
252	1.801
253	1.803
253	1.8
254	1.802
254	1.803
255	1.801
255	1.801
256	1.801
256	1.8
257	1.8
257	1.799
258	1.799
258	1.797
258	1.797
259	1.797
259	1.797
260	1.797
260	1.798
261	1.796
261	1.798
262	1.799
262	1.798
263	1.799
263	1.8
264	1.802
264	1.802
265	1.802
265	1.803
265	1.803
266	1.803
266	1.803
267	1.801
267	1.802
268	1.803
268	1.803
269	1.803
269	1.803
270	1.8
270	1.798
271	1.795
271	1.795
272	1.791
272	1.791
272	1.786
273	1.78
273	1.773
274	1.769
274	1.762
275	1.755
275	1.749
276	1.741
276	1.733
277	1.725
277	1.716
278	1.705
278	1.694
278	1.68
279	1.665
279	1.647
280	1.624
280	1.598
281	1.567
281	1.532
282	1.494
282	1.456
283	1.418
283	1.38
284	1.343
284	1.307
285	1.273
285	1.242
285	1.214
286	1.189
286	1.167
287	1.148
287	1.131
288	1.116
288	1.104
289	1.093
289	1.084
290	1.076
290	1.069
291	1.063
291	1.057
292	1.052
292	1.047
292	1.043
293	1.039
293	1.035
294	1.032
294	1.028
295	1.025
295	1.022
296	1.019
296	1.015
297	1.013
297	1.01
298	1.007
298	1.004
298	1.001
299	0.999
299	0.996
300	0.993
300	0.99
301	0.988
301	0.985
302	0.982
302	0.98
303	0.977
303	0.975
304	0.972
304	0.97
305	0.967
305	0.965
305	0.962
306	0.96
306	0.957
307	0.955
307	0.953
308	0.95
308	0.947
309	0.945
309	0.942
310	0.939
310	0.936
311	0.932
311	0.929
311	0.926
312	0.923
312	0.919
313	0.915
313	0.911
314	0.908
314	0.904
315	0.9
315	0.895
316	0.891
316	0.887
317	0.882
317	0.877
318	0.872
318	0.867
318	0.862
319	0.856
319	0.851
320	0.846
320	0.84
321	0.834
321	0.828
322	0.822
322	0.815
323	0.809
323	0.803
324	0.797
324	0.79
324	0.784
325	0.777
325	0.771
326	0.764
326	0.758
327	0.751
327	0.745
328	0.738
328	0.731
329	0.724
329	0.717
330	0.71
330	0.703
330	0.696
331	0.689
331	0.683
332	0.676
332	0.669
333	0.662
333	0.655
334	0.649
334	0.642
335	0.635
335	0.629
336	0.622
336	0.616
336	0.609
337	0.603
337	0.597
338	0.591
338	0.585
339	0.579
339	0.573
340	0.568
340	0.562
341	0.556
341	0.551
342	0.545
342	0.54
342	0.535
343	0.53
343	0.525
344	0.52
344	0.515
345	0.51
345	0.506
346	0.501
346	0.497
347	0.493
347	0.488
348	0.484
348	0.48
348	0.477
349	0.473
349	0.469
350	0.466
350	0.462
351	0.459
351	0.456
352	0.452
352	0.449
353	0.446
353	0.444
354	0.441
354	0.438
354	0.435
355	0.432
355	0.429
356	0.426
356	0.423
357	0.42
357	0.417
358	0.415
358	0.412
359	0.41
359	0.407
360	0.405
360	0.403
360	0.401
361	0.4
361	0.398
362	0.396
362	0.394
363	0.393
363	0.391
364	0.389
364	0.387
365	0.385
365	0.383
366	0.381
366	0.379
366	0.377
367	0.376
367	0.374
368	0.372
368	0.37
369	0.369
369	0.367
370	0.366
370	0.365
371	0.364
371	0.362
372	0.361
372	0.36
372	0.359
373	0.358
373	0.356
374	0.355
374	0.354
375	0.353
375	0.352
376	0.351
376	0.35
377	0.349
377	0.348
378	0.347
378	0.345
378	0.345
379	0.344
379	0.343
380	0.342
380	0.341
381	0.34
381	0.339
382	0.339
382	0.338
383	0.337
383	0.337
383	0.336
384	0.336
384	0.335
385	0.334
385	0.334
386	0.333
386	0.333
387	0.332
387	0.331
388	0.331
388	0.33
389	0.33
389	0.329
389	0.329
390	0.328
390	0.328
391	0.327
391	0.327
392	0.327
392	0.326
393	0.326
393	0.326
394	0.325
394	0.325
394	0.324
395	0.324
395	0.323
396	0.323
396	0.322
397	0.322
397	0.321
398	0.321
398	0.32
399	0.32
399	0.319
400	0.319
400	0.319
400	0.318
401	0.318
401	0.317
402	0.317
402	0.316
403	0.316
403	0.315
404	0.315
404	0.315
405	0.314
405	0.314
405	0.314
406	0.313
406	0.313
407	0.313
407	0.312
408	0.312
408	0.312
409	0.311
409	0.311
410	0.311
410	0.31
411	0.31
411	0.31
411	0.31
412	0.309
412	0.309
413	0.308
413	0.308
414	0.308
414	0.308
415	0.307
415	0.307
416	0.307
416	0.306
416	0.306
417	0.306
417	0.305
418	0.305
418	0.305
419	0.304
419	0.304
420	0.303
420	0.303
421	0.303
421	0.302
421	0.302
422	0.302
422	0.301
423	0.301
423	0.3
424	0.3
424	0.3
425	0.3
425	0.3
426	0.299
426	0.299
427	0.298
427	0.298
427	0.297
428	0.297
428	0.297
429	0.297
429	0.296
430	0.295
430	0.295
431	0.295
431	0.295
432	0.295
432	0.295
432	0.295
433	0.294
433	0.294
434	0.294
434	0.294
435	0.294
435	0.294
436	0.294
436	0.294
437	0.294
437	0.294
437	0.293
438	0.293
438	0.293
439	0.293
439	0.293
440	0.292
440	0.292
441	0.292
441	0.291
442	0.291
442	0.291
442	0.291
443	0.29
443	0.29
444	0.29
444	0.29
445	0.29
445	0.29
446	0.289
446	0.289
447	0.289
447	0.289
447	0.289
448	0.289
448	0.289
449	0.289
449	0.289
450	0.289
450	0.289
451	0.289
451	0.289
452	0.289
452	0.289
452	0.289
453	0.289
453	0.289
454	0.289
454	0.288
455	0.288
455	0.288
456	0.288
456	0.288
457	0.287
457	0.287
458	0.287
458	0.287
458	0.287
459	0.287
459	0.287
460	0.287
460	0.287
461	0.287
461	0.287
462	0.287
462	0.287
463	0.287
463	0.287
463	0.287
464	0.287
464	0.287
465	0.287
465	0.287
466	0.287
466	0.287
467	0.288
467	0.288
467	0.288
468	0.288
468	0.288
469	0.289
469	0.289
470	0.289
470	0.29
471	0.29
471	0.29
472	0.29
472	0.29
472	0.29
473	0.291
473	0.291
474	0.291
474	0.291
475	0.291
475	0.292
476	0.292
476	0.292
477	0.293
477	0.293
477	0.294
478	0.294
478	0.295
479	0.295
479	0.296
480	0.296
480	0.297
481	0.297
481	0.298
482	0.298
482	0.299
482	0.3
483	0.301
483	0.301
484	0.302
484	0.303
485	0.303
485	0.304
486	0.304
486	0.305
487	0.305
487	0.306
487	0.307
488	0.307
488	0.308
489	0.308
489	0.31
490	0.311
490	0.312
491	0.313
491	0.315
492	0.316
492	0.317
492	0.318
493	0.319
493	0.32
494	0.321
494	0.322
495	0.323
495	0.324
496	0.325
496	0.327
496	0.328
497	0.329
497	0.33
498	0.331
498	0.332
499	0.333
499	0.334
500	0.335
500	0.336
501	0.338
501	0.338
501	0.339
502	0.341
502	0.342
503	0.343
503	0.344
504	0.345
504	0.346
505	0.348
505	0.349
506	0.35
506	0.351
506	0.352
507	0.353
507	0.355
508	0.356
508	0.357
509	0.357
509	0.358
510	0.359
510	0.36
511	0.361
511	0.362
511	0.363
512	0.364
512	0.365
513	0.366
513	0.366
514	0.367
514	0.368
515	0.368
515	0.369
515	0.37
516	0.37
516	0.371
517	0.371
517	0.372
518	0.372
518	0.373
519	0.373
519	0.373
520	0.374
520	0.374
520	0.374
521	0.374
521	0.374
522	0.374
522	0.375
523	0.375
523	0.375
524	0.375
524	0.375
524	0.374
525	0.374
525	0.374
526	0.373
526	0.373
527	0.372
527	0.372
528	0.371
528	0.371
529	0.37
529	0.369
529	0.369
530	0.368
530	0.367
531	0.366
531	0.365
532	0.364
532	0.363
533	0.362
533	0.361
533	0.36
534	0.359
534	0.358
535	0.356
535	0.355
536	0.354
536	0.353
537	0.351
537	0.35
538	0.348
538	0.347
538	0.345
539	0.344
539	0.343
540	0.342
540	0.34
541	0.339
541	0.338
542	0.336
542	0.334
542	0.333
543	0.331
543	0.33
544	0.328
544	0.327
545	0.325
545	0.324
546	0.322
546	0.321
547	0.319
547	0.317
547	0.316
548	0.314
548	0.312
549	0.311
549	0.309
550	0.308
550	0.306
551	0.304
551	0.302
551	0.3
552	0.299
552	0.297
553	0.295
553	0.294
554	0.292
554	0.291
555	0.289
555	0.287
556	0.285
556	0.284
556	0.282
557	0.281
557	0.28
558	0.278
558	0.277
559	0.275
559	0.274
560	0.272
560	0.271
560	0.27
561	0.269
561	0.267
562	0.266
562	0.264
563	0.262
563	0.261
564	0.259
564	0.258
564	0.256
565	0.255
565	0.253
566	0.252
566	0.25
567	0.249
567	0.248
568	0.246
568	0.245
568	0.244
569	0.243
569	0.241
570	0.24
570	0.238
571	0.237
571	0.236
572	0.235
572	0.233
573	0.232
573	0.231
573	0.23
574	0.229
574	0.228
575	0.227
575	0.226
576	0.225
576	0.224
577	0.222
577	0.221
577	0.22
578	0.219
578	0.218
579	0.218
579	0.217
580	0.216
580	0.215
581	0.214
581	0.213
581	0.212
582	0.212
582	0.211
583	0.21
583	0.209
584	0.208
584	0.206
585	0.205
585	0.204
585	0.204
586	0.203
586	0.202
587	0.201
587	0.2
588	0.199
588	0.199
589	0.198
589	0.198
590	0.197
590	0.196
590	0.196
591	0.195
591	0.194
592	0.193
592	0.192
593	0.191
593	0.19
594	0.189
594	0.188
594	0.188
595	0.187
595	0.186
596	0.185
596	0.185
597	0.185
597	0.185
598	0.185
598	0.184
598	0.184
599	0.184
599	0.183
600	0.182
600	0.182
601	0.181
601	0.181
602	0.18
602	0.179
602	0.178
603	0.178
603	0.178
604	0.177
604	0.177
605	0.176
605	0.176
606	0.175
606	0.175
606	0.174
607	0.173
607	0.173
608	0.172
608	0.172
609	0.171
609	0.171
610	0.17
610	0.169
610	0.169
611	0.169
611	0.169
612	0.169
612	0.169
613	0.168
613	0.168
614	0.168
614	0.167
614	0.167
615	0.167
615	0.166
616	0.166
616	0.166
617	0.165
617	0.165
618	0.165
618	0.165
618	0.164
619	0.164
619	0.164
620	0.164
620	0.164
621	0.163
621	0.163
622	0.162
622	0.161
622	0.161
623	0.16
623	0.16
624	0.159
624	0.159
625	0.158
625	0.158
626	0.157
626	0.157
626	0.157
627	0.157
627	0.156
628	0.156
628	0.156
629	0.155
629	0.155
630	0.154
630	0.154
630	0.154
631	0.154
631	0.153
632	0.153
632	0.153
633	0.153
633	0.153
634	0.153
634	0.154
634	0.154
635	0.154
635	0.154
636	0.154
636	0.154
637	0.153
637	0.153
638	0.153
638	0.152
638	0.152
639	0.151
639	0.15
640	0.15
640	0.15
641	0.149
641	0.149
642	0.148
642	0.148
642	0.148
643	0.148
643	0.148
644	0.147
644	0.147
645	0.147
645	0.148
646	0.148
646	0.148
646	0.148
647	0.148
647	0.147
648	0.147
648	0.147
649	0.147
649	0.146
650	0.146
650	0.146
650	0.146
651	0.146
651	0.146
652	0.146
652	0.146
653	0.147
653	0.148
653	0.153
654	0.122
654	0.098
655	0.098
655	0.098
656	0.098
656	0.098
657	0.098
657	0.099
657	0.099
658	0.097
658	0.089
659	0.112
659	0.142
660	0.146
660	0.146
661	0.145
661	0.145
661	0.144
662	0.144
662	0.143
663	0.142
663	0.142
664	0.142
664	0.141
665	0.141
665	0.141
665	0.141
666	0.141
666	0.141
667	0.142
667	0.142
668	0.142
668	0.142
669	0.142
669	0.142
669	0.143
670	0.143
670	0.143
671	0.142
671	0.142
672	0.141
672	0.141
672	0.14
673	0.14
673	0.14
674	0.139
674	0.139
675	0.139
675	0.139
676	0.139
676	0.14
676	0.14
677	0.141
677	0.141
678	0.141
678	0.141
679	0.141
679	0.141
680	0.141
680	0.14
680	0.14
681	0.14
681	0.14
682	0.14
682	0.14
683	0.14
683	0.141
684	0.141
684	0.14
684	0.14
685	0.14
685	0.141
686	0.14
686	0.141
687	0.141
687	0.141
687	0.141
688	0.141
688	0.141
689	0.142
689	0.142
690	0.142
690	0.142
691	0.142
691	0.142
691	0.142
692	0.142
692	0.142
693	0.142
693	0.143
694	0.142
694	0.142
695	0.143
695	0.143
695	0.143
696	0.143
696	0.143
697	0.143
697	0.143
698	0.142
698	0.142
698	0.142
699	0.142
699	0.142
700	0.141
700	0.142
701	0.141
701	0.141
702	0.141
702	0.14
702	0.14
703	0.14
703	0.139
704	0.139
704	0.139
705	0.139
705	0.139
705	0.139
706	0.139
706	0.139
707	0.139
707	0.139
708	0.139
708	0.139
709	0.139
709	0.139
709	0.138
710	0.138
710	0.138
711	0.138
711	0.137
712	0.137
712	0.137
713	0.137
713	0.137
713	0.138
714	0.138
714	0.138
715	0.138
715	0.137
716	0.137
716	0.137
716	0.136
717	0.136
717	0.135
718	0.135
718	0.135
719	0.135
719	0.136
720	0.136
720	0.137
720	0.137
721	0.138
721	0.139
722	0.14
722	0.14
723	0.14
723	0.14
723	0.14
724	0.139
724	0.138
725	0.137
725	0.136
726	0.135
726	0.134
727	0.134
727	0.133
727	0.133
728	0.133
728	0.134
729	0.135
729	0.135
730	0.136
730	0.136
730	0.137
731	0.138
731	0.138
732	0.139
732	0.139
733	0.139
733	0.139
734	0.139
734	0.139
734	0.139
735	0.138
735	0.138
736	0.137
736	0.137
737	0.136
737	0.136
737	0.135
738	0.135
738	0.134
739	0.134
739	0.134
740	0.133
740	0.134
741	0.134
741	0.135
741	0.135
742	0.135
742	0.136
743	0.137
743	0.137
744	0.137
744	0.138
744	0.138
745	0.137
745	0.137
746	0.137
746	0.137
747	0.137
747	0.137
748	0.137
748	0.137
748	0.137
749	0.136
749	0.137
750	0.137
750	0.137
751	0.137
751	0.137
751	0.137
752	0.137
752	0.137
753	0.136
753	0.136
754	0.136
754	0.135
754	0.135
755	0.135
755	0.134
756	0.133
756	0.132
757	0.132
757	0.132
758	0.132
758	0.132
758	0.132
759	0.132
759	0.131
760	0.131
760	0.13
761	0.13
761	0.131
761	0.131
762	0.131
762	0.131
763	0.131
763	0.131
764	0.13
764	0.13
764	0.13
765	0.13
765	0.13
766	0.13
766	0.13
767	0.129
767	0.129
768	0.129
768	0.129
768	0.129
769	0.13
769	0.13
770	0.13
770	0.13
771	0.13
771	0.13
771	0.13
772	0.13
772	0.13
773	0.129
773	0.129
774	0.129
774	0.129
775	0.129
775	0.128
775	0.128
776	0.129
776	0.129
777	0.129
777	0.129
778	0.129
778	0.129
778	0.128
779	0.128
779	0.128
780	0.127
780	0.126
781	0.125
781	0.124
781	0.124
782	0.123
782	0.123
783	0.123
783	0.123
784	0.123
784	0.124
784	0.124
785	0.124
785	0.124
786	0.125
786	0.125
787	0.125
787	0.125
788	0.125
788	0.125
788	0.124
789	0.123
789	0.123
790	0.123
790	0.122
791	0.122
791	0.121
791	0.121
792	0.121
792	0.121
793	0.12
793	0.12
794	0.119
794	0.119
794	0.118
795	0.118
795	0.118
796	0.118
796	0.118
797	0.117
797	0.117
797	0.118
798	0.118
798	0.118
799	0.118
799	0.118
800	0.117
800	0.117
801	0.116
801	0.116
801	0.116
802	0.116
802	0.116
803	0.115
803	0.115
804	0.115
804	0.116
804	0.116
805	0.116
805	0.116
806	0.116
806	0.116
807	0.116
807	0.116
807	0.116
808	0.116
808	0.116
809	0.116
809	0.116
810	0.116
810	0.116
810	0.115
811	0.115
811	0.115
812	0.115
812	0.115
813	0.115
813	0.115
813	0.115
814	0.115
814	0.115
815	0.115
815	0.114
816	0.114
816	0.113
817	0.112
817	0.112
817	0.112
818	0.111
818	0.111
819	0.111
819	0.11
820	0.11
820	0.109
820	0.109
821	0.109
821	0.109
822	0.109
822	0.109
823	0.109
823	0.109
823	0.109
824	0.11
824	0.111
825	0.112
825	0.112
826	0.113
826	0.113
826	0.113
827	0.113
827	0.113
828	0.112
828	0.112
829	0.112
829	0.111
829	0.111
830	0.111
830	0.111
831	0.112
831	0.112
832	0.111
832	0.111
832	0.111
833	0.111
833	0.11
834	0.11
834	0.109
835	0.108
835	0.107
835	0.106
836	0.105
836	0.104
837	0.103
837	0.102
838	0.101
838	0.101
839	0.1
839	0.1
839	0.099
840	0.099
840	0.098
841	0.097
841	0.097
842	0.096
842	0.096
842	0.095
843	0.095
843	0.095
844	0.095
844	0.095
845	0.096
845	0.096
845	0.097
846	0.097
846	0.097
847	0.098
847	0.098
848	0.098
848	0.097
848	0.097
849	0.096
849	0.095
850	0.095
850	0.094
851	0.094
851	0.093
851	0.093
852	0.092
852	0.092
853	0.092
853	0.092
854	0.092
854	0.092
854	0.093
855	0.093
855	0.094
856	0.094
856	0.094
857	0.095
857	0.095
857	0.096
858	0.096
858	0.095
859	0.095
859	0.095
860	0.094
860	0.093
860	0.092
861	0.092
861	0.091
862	0.09
862	0.089
863	0.089
863	0.088
863	0.088
864	0.088
864	0.087
865	0.087
865	0.087
866	0.087
866	0.087
866	0.087
867	0.087
867	0.087
868	0.087
868	0.087
869	0.086
869	0.086
869	0.085
870	0.084
870	0.083
871	0.083
871	0.083
872	0.082
872	0.082
872	0.082
873	0.082
873	0.082
874	0.081
874	0.081
875	0.081
875	0.081
875	0.081
876	0.081
876	0.081
877	0.081
877	0.081
878	0.081
878	0.081
878	0.081
879	0.081
879	0.081
880	0.081
880	0.081
881	0.081
881	0.081
881	0.081
882	0.08
882	0.08
883	0.08
883	0.08
884	0.08
884	0.08
884	0.081
885	0.081
885	0.081
886	0.08
886	0.08
887	0.08
887	0.079
887	0.079
888	0.079
888	0.078
889	0.078
889	0.077
890	0.077
890	0.077
890	0.077
891	0.077
891	0.077
892	0.076
892	0.076
893	0.076
893	0.076
893	0.076
894	0.076
894	0.076
895	0.075
895	0.075
895	0.075
896	0.075
896	0.075
897	0.074
897	0.074
898	0.073
898	0.073
898	0.072
899	0.072
899	0.071
900	0.071
900	0.071
901	0.07
901	0.07
901	0.07
902	0.069
902	0.069
903	0.069
903	0.069
904	0.069
904	0.069
904	0.069
905	0.069
905	0.069
906	0.069
906	0.07
907	0.07
907	0.071
907	0.072
908	0.072
908	0.073
909	0.074
909	0.074
910	0.075
910	0.075
910	0.075
911	0.075
911	0.076
912	0.076
912	0.076
913	0.076
913	0.075
913	0.075
914	0.075
914	0.075
915	0.075
915	0.075
916	0.074
916	0.074
916	0.073
917	0.073
917	0.073
918	0.072
918	0.072
918	0.071
919	0.071
919	0.07
920	0.07
920	0.07
921	0.069
921	0.069
921	0.069
922	0.069
922	0.07
923	0.07
923	0.071
924	0.071
924	0.071
924	0.071
925	0.071
925	0.071
926	0.071
926	0.071
927	0.071
927	0.07
927	0.07
928	0.069
928	0.069
929	0.069
929	0.069
930	0.069
930	0.069
930	0.069
931	0.069
931	0.069
932	0.069
932	0.07
933	0.07
933	0.07
933	0.069
934	0.069
934	0.069
935	0.069
935	0.069
935	0.069
936	0.069
936	0.068
937	0.068
937	0.068
938	0.067
938	0.067
938	0.066
939	0.066
939	0.065
940	0.065
940	0.064
941	0.064
941	0.063
941	0.063
942	0.063
942	0.062
943	0.062
943	0.062
944	0.063
944	0.063
944	0.063
945	0.064
945	0.064
946	0.064
946	0.065
946	0.065
947	0.065
947	0.066
948	0.066
948	0.066
949	0.066
949	0.066
949	0.066
950	0.066
950	0.066
951	0.066
951	0.065
952	0.064
952	0.064
952	0.063
953	0.062
953	0.061
954	0.061
954	0.06
955	0.059
955	0.059
955	0.058
956	0.058
956	0.058
957	0.059
957	0.059
957	0.059
958	0.059
958	0.06
959	0.06
959	0.06
960	0.061
960	0.061
960	0.061
961	0.061
961	0.061
962	0.061
962	0.06
963	0.06
963	0.06
963	0.059
964	0.059
964	0.059
965	0.059
965	0.058
966	0.059
966	0.059
966	0.059
967	0.06
967	0.06
968	0.06
968	0.061
968	0.061
969	0.061
969	0.061
970	0.061
970	0.06
971	0.06
971	0.059
971	0.059
972	0.058
972	0.058
973	0.057
973	0.057
974	0.057
974	0.056
974	0.056
975	0.056
975	0.056
976	0.056
976	0.057
976	0.057
977	0.057
977	0.057
978	0.057
978	0.057
979	0.057
979	0.057
979	0.057
980	0.057
980	0.057
981	0.057
981	0.057
982	0.057
982	0.057
982	0.057
983	0.057
983	0.057
984	0.057
984	0.057
984	0.057
985	0.057
985	0.057
986	0.057
986	0.057
987	0.057
987	0.057
987	0.057
988	0.056
988	0.056
989	0.055
989	0.055
990	0.054
990	0.054
990	0.053
991	0.053
991	0.053
992	0.052
992	0.052
992	0.051
993	0.051
993	0.05
994	0.05
994	0.05
995	0.049
995	0.049
995	0.05
996	0.05
996	0.05
997	0.051
997	0.051
997	0.052
998	0.053
998	0.053
999	0.054
999	0.055
1000	0.056
1000	0.056
1000	0.056
1001	0.056
1001	0.056
1002	0.056
1002	0.056
1003	0.055
1003	0.054
1003	0.054
1004	0.053
1004	0.052
1005	0.051
1005	0.051
1005	0.05
1006	0.049
1006	0.049
1007	0.049
1007	0.049
1008	0.049
1008	0.049
1008	0.05
1009	0.05
1009	0.05
1010	0.051
1010	0.051
1010	0.051
1011	0.051
1011	0.051
1012	0.051
1012	0.051
1013	0.051
1013	0.051
1013	0.05
1014	0.05
1014	0.05
1015	0.05
1015	0.05
1016	0.049
1016	0.049
1016	0.049
1017	0.048
1017	0.048
1018	0.048
1018	0.047
1018	0.047
1019	0.047
1019	0.047
1020	0.047
1020	0.046
1021	0.046
1021	0.047
1021	0.047
1022	0.047
1022	0.047
1023	0.047
1023	0.047
1023	0.047
1024	0.047
1024	0.047
1025	0.047
1025	0.047
1026	0.047
1026	0.047
1026	0.047
1027	0.047
1027	0.047
1028	0.047
1028	0.047
1028	0.047
1029	0.047
1029	0.047
1030	0.047
1030	0.047
1031	0.048
1031	0.048
1031	0.048
1032	0.049
1032	0.049
1033	0.049
1033	0.049
1033	0.049
1034	0.049
1034	0.049
1035	0.049
1035	0.049
1036	0.049
1036	0.048
1036	0.048
1037	0.048
1037	0.048
1038	0.048
1038	0.048
1039	0.047
1039	0.047
1039	0.047
1040	0.047
1040	0.047
1041	0.047
1041	0.047
1041	0.046
1042	0.046
1042	0.046
1043	0.047
1043	0.047
1044	0.047
1044	0.047
1044	0.047
1045	0.048
1045	0.048
1046	0.048
1046	0.049
1046	0.049
1047	0.05
1047	0.05
1048	0.05
1048	0.051
1049	0.051
1049	0.051
1049	0.051
1050	0.051
1050	0.05
1051	0.05
1051	0.05
1051	0.05
1052	0.049
1052	0.049
1053	0.048
1053	0.048
1053	0.047
1054	0.047
1054	0.046
1055	0.046
1055	0.045
1056	0.045
1056	0.045
1056	0.044
1057	0.043
1057	0.043
1058	0.043
1058	0.042
1058	0.041
1059	0.041
1059	0.041
1060	0.04
1060	0.04
1061	0.039
1061	0.039
1061	0.039
1062	0.039
1062	0.04
1063	0.04
1063	0.04
1063	0.04
1064	0.04
1064	0.04
1065	0.039
1065	0.039
1066	0.04
1066	0.039
1066	0.039
1067	0.039
1067	0.039
1068	0.039
1068	0.039
1068	0.038
1069	0.038
1069	0.038
1070	0.038
1070	0.037
1071	0.037
1071	0.037
1071	0.037
1072	0.036
1072	0.036
1073	0.036
1073	0.035
1073	0.035
1074	0.036
1074	0.036
1075	0.036
1075	0.036
1076	0.036
1076	0.037
1076	0.037
1077	0.037
1077	0.037
1078	0.037
1078	0.037
1078	0.037
1079	0.037
1079	0.037
1080	0.036
1080	0.036
1080	0.036
1081	0.035
1081	0.035
1082	0.035
1082	0.036
1083	0.035
1083	0.035
1083	0.035
1084	0.035
1084	0.035
1085	0.035
1085	0.035
1085	0.035
1086	0.035
1086	0.034
1087	0.034
1087	0.033
1088	0.033
1088	0.033
1088	0.033
1089	0.032
1089	0.031
1090	0.031
1090	0.03
1090	0.03
1091	0.03
1091	0.029
1092	0.03
1092	0.03
1092	0.03
1093	0.03
1093	0.03
1094	0.03
1094	0.03
1095	0.031
1095	0.031
1095	0.031
1096	0.03
1096	0.03
1097	0.03
1097	0.029
1097	0.029
1098	0.029
1098	0.028
1099	0.028
1099	0.027
1100	0.028
1100	0.027
1100	0.026
1101	0.027
1101	0.026
1102	0.026
1102	0.026
1102	0.025
1103	0.026
1103	0.026
1104	0.026
1104	0.025
1104	0.025
1105	0.025
1105	0.023
1106	0.021
1106	0.019
1107	0.018
1107	0.018
1107	0.017
1108	0.015
1108	0.014
1109	0.012
1109	0.011
1109	0.011
1110	0.012
1110	0.012
1111	0.013
1111	0.014
