Data from reversibility-20sec_Absorbance__6827__000000000006827.txt Node

Date: Thu Dec 07 02:08:45 CET 2023
User: Marek
Spectrometer: MAYP115816
Trigger mode: 0
Integration Time (sec): 2.000000E-1
Scans to average: 10
Electric dark correction enabled: true
Nonlinearity correction enabled: true
Boxcar width: 5
XAxis mode: Wavelengths
Number of Pixels in Spectrum: 2068
>>>>>Begin Spectral Data<<<<<
199	-0.169
199	-0.133
200	-0.071
200	-0.018
201	0.009
201	0.026
202	0.036
202	0.044
203	0.052
203	0.056
204	0.067
204	0.079
205	0.091
205	0.097
205	0.094
206	0.094
206	0.092
207	0.094
207	0.093
208	0.091
208	0.09
209	0.09
209	0.089
210	0.091
210	0.09
211	0.093
211	0.094
212	0.093
212	0.092
213	0.097
213	0.098
213	0.098
214	0.107
214	0.108
215	0.111
215	0.112
216	0.113
216	0.111
217	0.116
217	0.118
218	0.116
218	0.121
219	0.125
219	0.121
220	0.125
220	0.123
221	0.125
221	0.13
221	0.138
222	0.141
222	0.148
223	0.154
223	0.158
224	0.164
224	0.173
225	0.181
225	0.191
226	0.199
226	0.209
227	0.217
227	0.229
228	0.242
228	0.258
229	0.273
229	0.297
229	0.32
230	0.346
230	0.373
231	0.404
231	0.44
232	0.48
232	0.526
233	0.569
233	0.618
234	0.667
234	0.719
235	0.773
235	0.828
236	0.881
236	0.935
236	0.985
237	1.036
237	1.082
238	1.129
238	1.172
239	1.219
239	1.261
240	1.298
240	1.334
241	1.369
241	1.404
242	1.438
242	1.47
243	1.499
243	1.525
243	1.553
244	1.575
244	1.597
245	1.617
245	1.64
246	1.66
246	1.675
247	1.688
247	1.702
248	1.716
248	1.73
249	1.738
249	1.746
250	1.755
250	1.762
250	1.765
251	1.77
251	1.775
252	1.781
252	1.782
253	1.784
253	1.784
254	1.786
254	1.789
255	1.789
255	1.789
256	1.789
256	1.789
257	1.788
257	1.786
258	1.786
258	1.786
258	1.785
259	1.785
259	1.784
260	1.782
260	1.784
261	1.785
261	1.788
262	1.79
262	1.791
263	1.793
263	1.794
264	1.796
264	1.797
265	1.798
265	1.798
265	1.798
266	1.796
266	1.795
267	1.792
267	1.794
268	1.794
268	1.794
269	1.794
269	1.793
270	1.791
270	1.791
271	1.788
271	1.789
272	1.788
272	1.787
272	1.784
273	1.78
273	1.776
274	1.772
274	1.767
275	1.763
275	1.757
276	1.75
276	1.742
277	1.734
277	1.725
278	1.714
278	1.704
278	1.691
279	1.677
279	1.66
280	1.639
280	1.615
281	1.585
281	1.552
282	1.516
282	1.478
283	1.441
283	1.403
284	1.366
284	1.33
285	1.294
285	1.263
285	1.234
286	1.209
286	1.186
287	1.165
287	1.148
288	1.133
288	1.12
289	1.108
289	1.098
290	1.09
290	1.082
291	1.075
291	1.069
292	1.064
292	1.058
292	1.054
293	1.049
293	1.045
294	1.041
294	1.038
295	1.034
295	1.031
296	1.027
296	1.024
297	1.02
297	1.017
298	1.014
298	1.01
298	1.007
299	1.004
299	1.001
300	0.997
300	0.994
301	0.991
301	0.988
302	0.985
302	0.983
303	0.98
303	0.977
304	0.974
304	0.971
305	0.969
305	0.966
305	0.963
306	0.96
306	0.957
307	0.955
307	0.952
308	0.949
308	0.946
309	0.943
309	0.94
310	0.937
310	0.934
311	0.931
311	0.927
311	0.924
312	0.92
312	0.917
313	0.913
313	0.909
314	0.905
314	0.9
315	0.896
315	0.891
316	0.887
316	0.882
317	0.877
317	0.872
318	0.867
318	0.862
318	0.856
319	0.851
319	0.845
320	0.84
320	0.834
321	0.828
321	0.822
322	0.815
322	0.809
323	0.802
323	0.796
324	0.789
324	0.783
324	0.776
325	0.769
325	0.762
326	0.755
326	0.748
327	0.741
327	0.734
328	0.728
328	0.721
329	0.714
329	0.706
330	0.699
330	0.692
330	0.686
331	0.679
331	0.672
332	0.665
332	0.658
333	0.651
333	0.644
334	0.637
334	0.63
335	0.623
335	0.616
336	0.61
336	0.603
336	0.596
337	0.59
337	0.584
338	0.577
338	0.571
339	0.565
339	0.559
340	0.553
340	0.548
341	0.542
341	0.536
342	0.53
342	0.525
342	0.52
343	0.514
343	0.509
344	0.504
344	0.499
345	0.494
345	0.489
346	0.485
346	0.48
347	0.476
347	0.472
348	0.468
348	0.464
348	0.46
349	0.456
349	0.452
350	0.448
350	0.445
351	0.441
351	0.438
352	0.435
352	0.432
353	0.428
353	0.426
354	0.423
354	0.419
354	0.416
355	0.413
355	0.41
356	0.407
356	0.404
357	0.4
357	0.398
358	0.395
358	0.392
359	0.39
359	0.388
360	0.386
360	0.384
360	0.382
361	0.38
361	0.378
362	0.377
362	0.375
363	0.373
363	0.371
364	0.369
364	0.367
365	0.365
365	0.363
366	0.361
366	0.359
366	0.358
367	0.356
367	0.354
368	0.352
368	0.351
369	0.349
369	0.348
370	0.346
370	0.345
371	0.343
371	0.341
372	0.34
372	0.339
372	0.338
373	0.337
373	0.335
374	0.334
374	0.333
375	0.332
375	0.331
376	0.33
376	0.329
377	0.328
377	0.327
378	0.326
378	0.325
378	0.324
379	0.323
379	0.323
380	0.322
380	0.321
381	0.32
381	0.319
382	0.319
382	0.318
383	0.317
383	0.316
383	0.316
384	0.315
384	0.314
385	0.313
385	0.313
386	0.312
386	0.312
387	0.311
387	0.311
388	0.31
388	0.31
389	0.309
389	0.309
389	0.308
390	0.308
390	0.307
391	0.306
391	0.306
392	0.305
392	0.305
393	0.305
393	0.304
394	0.304
394	0.303
394	0.303
395	0.303
395	0.302
396	0.301
396	0.301
397	0.3
397	0.3
398	0.3
398	0.299
399	0.299
399	0.298
400	0.298
400	0.297
400	0.297
401	0.297
401	0.296
402	0.296
402	0.295
403	0.295
403	0.294
404	0.294
404	0.294
405	0.293
405	0.293
405	0.293
406	0.292
406	0.292
407	0.292
407	0.291
408	0.291
408	0.291
409	0.29
409	0.29
410	0.29
410	0.289
411	0.289
411	0.289
411	0.288
412	0.288
412	0.288
413	0.287
413	0.287
414	0.287
414	0.286
415	0.286
415	0.285
416	0.285
416	0.285
416	0.284
417	0.284
417	0.284
418	0.283
418	0.283
419	0.282
419	0.282
420	0.281
420	0.281
421	0.28
421	0.28
421	0.28
422	0.279
422	0.279
423	0.279
423	0.278
424	0.278
424	0.278
425	0.278
425	0.278
426	0.278
426	0.277
427	0.277
427	0.277
427	0.276
428	0.276
428	0.275
429	0.275
429	0.274
430	0.274
430	0.274
431	0.274
431	0.274
432	0.274
432	0.273
432	0.273
433	0.273
433	0.273
434	0.273
434	0.273
435	0.273
435	0.272
436	0.272
436	0.272
437	0.271
437	0.271
437	0.271
438	0.271
438	0.27
439	0.27
439	0.27
440	0.27
440	0.27
441	0.269
441	0.269
442	0.269
442	0.269
442	0.268
443	0.268
443	0.268
444	0.268
444	0.268
445	0.268
445	0.268
446	0.268
446	0.267
447	0.267
447	0.267
447	0.267
448	0.267
448	0.267
449	0.267
449	0.267
450	0.267
450	0.266
451	0.266
451	0.266
452	0.266
452	0.266
452	0.266
453	0.266
453	0.266
454	0.266
454	0.266
455	0.266
455	0.266
456	0.265
456	0.266
457	0.265
457	0.265
458	0.265
458	0.265
458	0.265
459	0.265
459	0.265
460	0.265
460	0.265
461	0.266
461	0.266
462	0.266
462	0.266
463	0.266
463	0.266
463	0.266
464	0.266
464	0.266
465	0.266
465	0.265
466	0.265
466	0.265
467	0.266
467	0.266
467	0.266
468	0.266
468	0.267
469	0.267
469	0.267
470	0.268
470	0.268
471	0.269
471	0.269
472	0.269
472	0.27
472	0.27
473	0.27
473	0.271
474	0.271
474	0.271
475	0.271
475	0.272
476	0.272
476	0.272
477	0.272
477	0.273
477	0.273
478	0.273
478	0.274
479	0.274
479	0.275
480	0.275
480	0.276
481	0.276
481	0.277
482	0.277
482	0.278
482	0.278
483	0.279
483	0.28
484	0.281
484	0.281
485	0.282
485	0.282
486	0.283
486	0.283
487	0.284
487	0.284
487	0.285
488	0.286
488	0.286
489	0.287
489	0.288
490	0.289
490	0.29
491	0.291
491	0.293
492	0.294
492	0.295
492	0.296
493	0.297
493	0.298
494	0.299
494	0.3
495	0.301
495	0.302
496	0.303
496	0.304
496	0.305
497	0.306
497	0.307
498	0.308
498	0.309
499	0.31
499	0.312
500	0.313
500	0.315
501	0.316
501	0.317
501	0.318
502	0.319
502	0.32
503	0.321
503	0.322
504	0.324
504	0.325
505	0.325
505	0.327
506	0.328
506	0.329
506	0.33
507	0.331
507	0.332
508	0.333
508	0.333
509	0.334
509	0.335
510	0.336
510	0.337
511	0.338
511	0.339
511	0.34
512	0.341
512	0.342
513	0.343
513	0.344
514	0.345
514	0.345
515	0.346
515	0.346
515	0.347
516	0.348
516	0.348
517	0.349
517	0.349
518	0.35
518	0.35
519	0.35
519	0.35
520	0.35
520	0.351
520	0.351
521	0.351
521	0.351
522	0.351
522	0.351
523	0.351
523	0.351
524	0.351
524	0.35
524	0.35
525	0.35
525	0.349
526	0.348
526	0.348
527	0.347
527	0.347
528	0.346
528	0.346
529	0.345
529	0.345
529	0.344
530	0.343
530	0.342
531	0.341
531	0.34
532	0.339
532	0.337
533	0.336
533	0.334
533	0.333
534	0.332
534	0.331
535	0.33
535	0.329
536	0.328
536	0.327
537	0.325
537	0.324
538	0.323
538	0.321
538	0.32
539	0.319
539	0.317
540	0.316
540	0.314
541	0.312
541	0.311
542	0.31
542	0.308
542	0.307
543	0.305
543	0.303
544	0.301
544	0.299
545	0.298
545	0.296
546	0.294
546	0.292
547	0.29
547	0.288
547	0.286
548	0.284
548	0.283
549	0.281
549	0.279
550	0.277
550	0.276
551	0.274
551	0.272
551	0.27
552	0.269
552	0.267
553	0.265
553	0.263
554	0.261
554	0.259
555	0.257
555	0.255
556	0.253
556	0.251
556	0.25
557	0.248
557	0.247
558	0.246
558	0.245
559	0.243
559	0.242
560	0.24
560	0.239
560	0.238
561	0.236
561	0.235
562	0.233
562	0.231
563	0.229
563	0.227
564	0.225
564	0.224
564	0.222
565	0.221
565	0.219
566	0.218
566	0.216
567	0.215
567	0.213
568	0.212
568	0.211
568	0.209
569	0.208
569	0.207
570	0.205
570	0.203
571	0.202
571	0.201
572	0.199
572	0.198
573	0.197
573	0.196
573	0.195
574	0.193
574	0.193
575	0.192
575	0.191
576	0.19
576	0.189
577	0.187
577	0.186
577	0.184
578	0.183
578	0.182
579	0.182
579	0.181
580	0.179
580	0.178
581	0.177
581	0.176
581	0.175
582	0.175
582	0.174
583	0.174
583	0.173
584	0.171
584	0.169
585	0.169
585	0.168
585	0.167
586	0.166
586	0.165
587	0.164
587	0.163
588	0.162
588	0.161
589	0.16
589	0.16
590	0.159
590	0.159
590	0.159
591	0.158
591	0.157
592	0.156
592	0.155
593	0.155
593	0.154
594	0.153
594	0.152
594	0.151
595	0.15
595	0.149
596	0.148
596	0.148
597	0.148
597	0.148
598	0.148
598	0.147
598	0.147
599	0.146
599	0.146
600	0.145
600	0.144
601	0.144
601	0.143
602	0.142
602	0.141
602	0.141
603	0.14
603	0.139
604	0.139
604	0.139
605	0.139
605	0.138
606	0.137
606	0.136
606	0.136
607	0.135
607	0.135
608	0.135
608	0.134
609	0.133
609	0.133
610	0.132
610	0.131
610	0.131
611	0.13
611	0.13
612	0.13
612	0.13
613	0.13
613	0.13
614	0.129
614	0.129
614	0.128
615	0.128
615	0.128
616	0.128
616	0.128
617	0.127
617	0.127
618	0.126
618	0.126
618	0.126
619	0.126
619	0.126
620	0.126
620	0.125
621	0.124
621	0.124
622	0.123
622	0.123
622	0.122
623	0.121
623	0.121
624	0.12
624	0.12
625	0.119
625	0.119
626	0.119
626	0.119
626	0.119
627	0.119
627	0.119
628	0.119
628	0.119
629	0.118
629	0.118
630	0.118
630	0.117
630	0.117
631	0.117
631	0.116
632	0.115
632	0.115
633	0.115
633	0.114
634	0.114
634	0.114
634	0.114
635	0.113
635	0.113
636	0.113
636	0.113
637	0.112
637	0.112
638	0.111
638	0.111
638	0.11
639	0.11
639	0.11
640	0.11
640	0.11
641	0.11
641	0.109
642	0.109
642	0.109
642	0.109
643	0.109
643	0.109
644	0.109
644	0.108
645	0.108
645	0.108
646	0.108
646	0.108
646	0.108
647	0.108
647	0.108
648	0.107
648	0.106
649	0.106
649	0.106
650	0.106
650	0.106
650	0.105
651	0.105
651	0.105
652	0.105
652	0.105
653	0.106
653	0.107
653	0.113
654	0.091
654	0.074
655	0.072
655	0.071
656	0.072
656	0.072
657	0.072
657	0.072
657	0.072
658	0.071
658	0.063
659	0.079
659	0.1
660	0.105
660	0.105
661	0.105
661	0.104
661	0.104
662	0.103
662	0.103
663	0.102
663	0.102
664	0.102
664	0.102
665	0.102
665	0.101
665	0.101
666	0.101
666	0.101
667	0.101
667	0.102
668	0.102
668	0.102
669	0.102
669	0.103
669	0.103
670	0.103
670	0.103
671	0.103
671	0.102
672	0.102
672	0.101
672	0.1
673	0.1
673	0.099
674	0.098
674	0.097
675	0.097
675	0.097
676	0.097
676	0.097
676	0.097
677	0.097
677	0.098
678	0.098
678	0.097
679	0.097
679	0.097
680	0.097
680	0.097
680	0.096
681	0.096
681	0.096
682	0.096
682	0.096
683	0.097
683	0.097
684	0.097
684	0.097
684	0.097
685	0.097
685	0.098
686	0.098
686	0.098
687	0.098
687	0.098
687	0.098
688	0.098
688	0.098
689	0.098
689	0.098
690	0.098
690	0.098
691	0.097
691	0.098
691	0.097
692	0.097
692	0.097
693	0.098
693	0.098
694	0.097
694	0.097
695	0.098
695	0.099
695	0.098
696	0.098
696	0.098
697	0.098
697	0.098
698	0.097
698	0.097
698	0.097
699	0.097
699	0.097
700	0.096
700	0.096
701	0.096
701	0.096
702	0.095
702	0.095
702	0.095
703	0.094
703	0.094
704	0.093
704	0.093
705	0.093
705	0.092
705	0.092
706	0.092
706	0.091
707	0.091
707	0.091
708	0.091
708	0.092
709	0.092
709	0.091
709	0.091
710	0.091
710	0.092
711	0.092
711	0.092
712	0.093
712	0.093
713	0.093
713	0.094
713	0.094
714	0.094
714	0.094
715	0.093
715	0.093
716	0.092
716	0.092
716	0.091
717	0.09
717	0.09
718	0.089
718	0.089
719	0.089
719	0.089
720	0.089
720	0.09
720	0.09
721	0.091
721	0.092
722	0.092
722	0.093
723	0.093
723	0.093
723	0.093
724	0.093
724	0.092
725	0.091
725	0.091
726	0.09
726	0.089
727	0.089
727	0.088
727	0.088
728	0.087
728	0.087
729	0.087
729	0.087
730	0.088
730	0.088
730	0.088
731	0.089
731	0.09
732	0.09
732	0.09
733	0.091
733	0.091
734	0.091
734	0.091
734	0.091
735	0.091
735	0.091
736	0.091
736	0.09
737	0.09
737	0.09
737	0.09
738	0.089
738	0.088
739	0.088
739	0.088
740	0.087
740	0.087
741	0.087
741	0.087
741	0.087
742	0.087
742	0.088
743	0.089
743	0.089
744	0.09
744	0.09
744	0.09
745	0.09
745	0.09
746	0.09
746	0.09
747	0.089
747	0.089
748	0.089
748	0.089
748	0.088
749	0.088
749	0.089
750	0.089
750	0.089
751	0.089
751	0.089
751	0.09
752	0.089
752	0.089
753	0.088
753	0.088
754	0.087
754	0.087
754	0.086
755	0.086
755	0.085
756	0.085
756	0.083
757	0.083
757	0.083
758	0.083
758	0.083
758	0.083
759	0.083
759	0.083
760	0.083
760	0.083
761	0.083
761	0.084
761	0.084
762	0.083
762	0.083
763	0.083
763	0.083
764	0.082
764	0.082
764	0.082
765	0.081
765	0.081
766	0.08
766	0.08
767	0.079
767	0.078
768	0.078
768	0.078
768	0.078
769	0.078
769	0.078
770	0.078
770	0.079
771	0.079
771	0.08
771	0.08
772	0.081
772	0.082
773	0.082
773	0.082
774	0.083
774	0.083
775	0.083
775	0.083
775	0.083
776	0.083
776	0.083
777	0.083
777	0.083
778	0.082
778	0.082
778	0.082
779	0.082
779	0.081
780	0.08
780	0.079
781	0.079
781	0.078
781	0.078
782	0.077
782	0.077
783	0.077
783	0.077
784	0.077
784	0.077
784	0.077
785	0.077
785	0.077
786	0.077
786	0.077
787	0.077
787	0.076
788	0.076
788	0.075
788	0.074
789	0.074
789	0.074
790	0.074
790	0.073
791	0.073
791	0.073
791	0.073
792	0.073
792	0.073
793	0.072
793	0.072
794	0.072
794	0.071
794	0.071
795	0.072
795	0.072
796	0.072
796	0.072
797	0.071
797	0.072
797	0.072
798	0.072
798	0.073
799	0.073
799	0.073
800	0.072
800	0.072
801	0.071
801	0.072
801	0.072
802	0.072
802	0.072
803	0.072
803	0.072
804	0.073
804	0.073
804	0.073
805	0.073
805	0.072
806	0.072
806	0.072
807	0.071
807	0.071
807	0.071
808	0.07
808	0.07
809	0.07
809	0.07
810	0.07
810	0.07
810	0.07
811	0.07
811	0.071
812	0.071
812	0.072
813	0.072
813	0.072
813	0.072
814	0.073
814	0.073
815	0.074
815	0.074
816	0.074
816	0.073
817	0.072
817	0.072
817	0.071
818	0.071
818	0.07
819	0.069
819	0.068
820	0.067
820	0.066
820	0.066
821	0.066
821	0.066
822	0.066
822	0.066
823	0.066
823	0.066
823	0.067
824	0.068
824	0.069
825	0.07
825	0.071
826	0.071
826	0.071
826	0.072
827	0.072
827	0.073
828	0.073
828	0.073
829	0.073
829	0.074
829	0.074
830	0.073
830	0.074
831	0.074
831	0.074
832	0.074
832	0.074
832	0.074
833	0.074
833	0.073
834	0.073
834	0.072
835	0.072
835	0.071
835	0.071
836	0.07
836	0.07
837	0.07
837	0.069
838	0.069
838	0.069
839	0.068
839	0.068
839	0.067
840	0.066
840	0.065
841	0.064
841	0.064
842	0.063
842	0.062
842	0.061
843	0.06
843	0.059
844	0.059
844	0.058
845	0.058
845	0.058
845	0.058
846	0.057
846	0.057
847	0.057
847	0.058
848	0.058
848	0.058
848	0.058
849	0.059
849	0.059
850	0.059
850	0.059
851	0.059
851	0.059
851	0.059
852	0.058
852	0.058
853	0.057
853	0.057
854	0.057
854	0.057
854	0.058
855	0.058
855	0.059
856	0.059
856	0.06
857	0.061
857	0.063
857	0.063
858	0.064
858	0.064
859	0.064
859	0.064
860	0.064
860	0.064
860	0.064
861	0.063
861	0.062
862	0.061
862	0.06
863	0.059
863	0.059
863	0.058
864	0.058
864	0.057
865	0.057
865	0.057
866	0.057
866	0.057
866	0.057
867	0.058
867	0.058
868	0.059
868	0.059
869	0.059
869	0.059
869	0.059
870	0.059
870	0.059
871	0.059
871	0.059
872	0.06
872	0.06
872	0.059
873	0.059
873	0.059
874	0.059
874	0.059
875	0.058
875	0.058
875	0.058
876	0.058
876	0.057
877	0.057
877	0.057
878	0.057
878	0.057
878	0.057
879	0.058
879	0.058
880	0.058
880	0.059
881	0.059
881	0.059
881	0.06
882	0.06
882	0.06
883	0.06
883	0.06
884	0.06
884	0.06
884	0.06
885	0.06
885	0.059
886	0.059
886	0.059
887	0.058
887	0.057
887	0.057
888	0.056
888	0.056
889	0.055
889	0.055
890	0.055
890	0.055
890	0.054
891	0.054
891	0.054
892	0.053
892	0.053
893	0.053
893	0.052
893	0.052
894	0.052
894	0.051
895	0.051
895	0.051
895	0.051
896	0.051
896	0.051
897	0.052
897	0.052
898	0.052
898	0.052
898	0.051
899	0.051
899	0.051
900	0.051
900	0.051
901	0.051
901	0.05
901	0.05
902	0.05
902	0.05
903	0.05
903	0.05
904	0.05
904	0.05
904	0.05
905	0.05
905	0.05
906	0.05
906	0.05
907	0.051
907	0.051
907	0.051
908	0.052
908	0.052
909	0.052
909	0.052
910	0.052
910	0.052
910	0.051
911	0.051
911	0.05
912	0.05
912	0.049
913	0.048
913	0.048
913	0.048
914	0.048
914	0.048
915	0.048
915	0.048
916	0.048
916	0.048
916	0.047
917	0.047
917	0.047
918	0.047
918	0.047
918	0.047
919	0.046
919	0.046
920	0.046
920	0.046
921	0.046
921	0.046
921	0.046
922	0.046
922	0.046
923	0.046
923	0.046
924	0.046
924	0.046
924	0.046
925	0.046
925	0.046
926	0.046
926	0.046
927	0.047
927	0.047
927	0.047
928	0.047
928	0.048
929	0.048
929	0.049
930	0.049
930	0.049
930	0.05
931	0.05
931	0.05
932	0.05
932	0.05
933	0.051
933	0.05
933	0.05
934	0.05
934	0.05
935	0.049
935	0.049
935	0.049
936	0.048
936	0.048
937	0.047
937	0.047
938	0.046
938	0.046
938	0.045
939	0.045
939	0.045
940	0.045
940	0.045
941	0.046
941	0.046
941	0.047
942	0.047
942	0.047
943	0.048
943	0.048
944	0.048
944	0.048
944	0.048
945	0.048
945	0.048
946	0.048
946	0.047
946	0.047
947	0.047
947	0.047
948	0.047
948	0.047
949	0.047
949	0.046
949	0.046
950	0.046
950	0.046
951	0.046
951	0.045
952	0.045
952	0.044
952	0.044
953	0.044
953	0.044
954	0.043
954	0.043
955	0.044
955	0.043
955	0.043
956	0.044
956	0.045
957	0.045
957	0.046
957	0.046
958	0.047
958	0.047
959	0.047
959	0.048
960	0.048
960	0.048
960	0.049
961	0.049
961	0.049
962	0.049
962	0.048
963	0.048
963	0.048
963	0.048
964	0.048
964	0.048
965	0.048
965	0.048
966	0.048
966	0.048
966	0.048
967	0.048
967	0.048
968	0.048
968	0.048
968	0.048
969	0.047
969	0.046
970	0.045
970	0.045
971	0.044
971	0.043
971	0.042
972	0.042
972	0.041
973	0.041
973	0.041
974	0.041
974	0.042
974	0.042
975	0.043
975	0.044
976	0.045
976	0.045
976	0.046
977	0.046
977	0.047
978	0.047
978	0.047
979	0.047
979	0.046
979	0.046
980	0.046
980	0.046
981	0.045
981	0.045
982	0.045
982	0.045
982	0.045
983	0.045
983	0.045
984	0.045
984	0.046
984	0.046
985	0.046
985	0.046
986	0.046
986	0.046
987	0.046
987	0.045
987	0.045
988	0.046
988	0.046
989	0.046
989	0.046
990	0.046
990	0.046
990	0.046
991	0.046
991	0.046
992	0.046
992	0.045
992	0.045
993	0.044
993	0.043
994	0.042
994	0.041
995	0.041
995	0.04
995	0.039
996	0.039
996	0.039
997	0.039
997	0.039
997	0.039
998	0.039
998	0.04
999	0.041
999	0.041
1000	0.042
1000	0.043
1000	0.043
1001	0.043
1001	0.044
1002	0.044
1002	0.043
1003	0.043
1003	0.043
1003	0.042
1004	0.042
1004	0.041
1005	0.04
1005	0.039
1005	0.038
1006	0.038
1006	0.037
1007	0.037
1007	0.036
1008	0.036
1008	0.035
1008	0.035
1009	0.035
1009	0.035
1010	0.036
1010	0.036
1010	0.036
1011	0.036
1011	0.036
1012	0.036
1012	0.036
1013	0.036
1013	0.035
1013	0.035
1014	0.035
1014	0.034
1015	0.034
1015	0.034
1016	0.034
1016	0.034
1016	0.033
1017	0.033
1017	0.033
1018	0.033
1018	0.033
1018	0.033
1019	0.033
1019	0.033
1020	0.033
1020	0.034
1021	0.034
1021	0.035
1021	0.035
1022	0.036
1022	0.036
1023	0.037
1023	0.037
1023	0.037
1024	0.038
1024	0.038
1025	0.038
1025	0.038
1026	0.039
1026	0.038
1026	0.038
1027	0.039
1027	0.039
1028	0.039
1028	0.039
1028	0.038
1029	0.038
1029	0.038
1030	0.038
1030	0.038
1031	0.039
1031	0.039
1031	0.039
1032	0.039
1032	0.04
1033	0.04
1033	0.04
1033	0.04
1034	0.04
1034	0.04
1035	0.04
1035	0.04
1036	0.04
1036	0.04
1036	0.041
1037	0.04
1037	0.04
1038	0.04
1038	0.04
1039	0.04
1039	0.04
1039	0.04
1040	0.04
1040	0.039
1041	0.039
1041	0.039
1041	0.039
1042	0.039
1042	0.038
1043	0.038
1043	0.038
1044	0.037
1044	0.037
1044	0.036
1045	0.036
1045	0.035
1046	0.035
1046	0.035
1046	0.035
1047	0.035
1047	0.035
1048	0.035
1048	0.036
1049	0.036
1049	0.036
1049	0.036
1050	0.036
1050	0.036
1051	0.036
1051	0.036
1051	0.036
1052	0.035
1052	0.035
1053	0.034
1053	0.034
1053	0.033
1054	0.033
1054	0.033
1055	0.033
1055	0.032
1056	0.032
1056	0.031
1056	0.031
1057	0.03
1057	0.03
1058	0.03
1058	0.029
1058	0.029
1059	0.028
1059	0.028
1060	0.028
1060	0.027
1061	0.027
1061	0.027
1061	0.027
1062	0.027
1062	0.027
1063	0.027
1063	0.027
1063	0.027
1064	0.026
1064	0.027
1065	0.027
1065	0.027
1066	0.027
1066	0.027
1066	0.027
1067	0.027
1067	0.027
1068	0.027
1068	0.027
1068	0.028
1069	0.028
1069	0.028
1070	0.028
1070	0.028
1071	0.027
1071	0.027
1071	0.027
1072	0.027
1072	0.027
1073	0.027
1073	0.027
1073	0.026
1074	0.027
1074	0.027
1075	0.027
1075	0.027
1076	0.027
1076	0.028
1076	0.028
1077	0.028
1077	0.028
1078	0.028
1078	0.028
1078	0.028
1079	0.027
1079	0.027
1080	0.026
1080	0.026
1080	0.025
1081	0.025
1081	0.024
1082	0.024
1082	0.024
1083	0.024
1083	0.024
1083	0.024
1084	0.024
1084	0.024
1085	0.025
1085	0.025
1085	0.025
1086	0.025
1086	0.025
1087	0.024
1087	0.024
1088	0.025
1088	0.025
1088	0.025
1089	0.024
1089	0.024
1090	0.023
1090	0.023
1090	0.022
1091	0.022
1091	0.022
1092	0.022
1092	0.023
1092	0.022
1093	0.022
1093	0.022
1094	0.022
1094	0.022
1095	0.022
1095	0.023
1095	0.023
1096	0.023
1096	0.022
1097	0.021
1097	0.02
1097	0.02
1098	0.019
1098	0.018
1099	0.017
1099	0.016
1100	0.015
1100	0.014
1100	0.012
1101	0.011
1101	0.01
1102	0.01
1102	0.009
1102	0.008
1103	0.008
1103	0.009
1104	0.009
1104	0.009
1104	0.008
1105	0.007
1105	0.006
1106	0.005
1106	0.003
1107	0.003
1107	0.003
1107	0.002
1108	0.001
1108	-0.001
1109	-0.002
1109	-0.002
1109	-0.002
1110	0.001
1110	-0
1111	0.002
1111	0.001
