Data from reversibility-20sec_Absorbance__4654__000000000004654.txt Node

Date: Wed Dec 06 14:04:25 CET 2023
User: Marek
Spectrometer: MAYP115816
Trigger mode: 0
Integration Time (sec): 2.000000E-1
Scans to average: 10
Electric dark correction enabled: true
Nonlinearity correction enabled: true
Boxcar width: 5
XAxis mode: Wavelengths
Number of Pixels in Spectrum: 2068
>>>>>Begin Spectral Data<<<<<
199	-0.168
199	-0.149
200	-0.081
200	-0.027
201	0.005
201	0.026
202	0.04
202	0.049
203	0.056
203	0.059
204	0.072
204	0.089
205	0.104
205	0.111
205	0.11
206	0.112
206	0.107
207	0.108
207	0.107
208	0.106
208	0.106
209	0.108
209	0.103
210	0.103
210	0.103
211	0.103
211	0.104
212	0.104
212	0.104
213	0.106
213	0.108
213	0.107
214	0.107
214	0.111
215	0.112
215	0.112
216	0.114
216	0.11
217	0.114
217	0.115
218	0.117
218	0.121
219	0.124
219	0.124
220	0.125
220	0.122
221	0.121
221	0.121
221	0.127
222	0.133
222	0.139
223	0.142
223	0.146
224	0.151
224	0.161
225	0.169
225	0.181
226	0.189
226	0.201
227	0.21
227	0.218
228	0.234
228	0.248
229	0.265
229	0.286
229	0.307
230	0.333
230	0.364
231	0.397
231	0.434
232	0.471
232	0.517
233	0.559
233	0.609
234	0.66
234	0.714
235	0.765
235	0.819
236	0.868
236	0.921
236	0.973
237	1.025
237	1.072
238	1.118
238	1.164
239	1.209
239	1.25
240	1.291
240	1.328
241	1.365
241	1.398
242	1.429
242	1.463
243	1.494
243	1.518
243	1.541
244	1.563
244	1.583
245	1.602
245	1.622
246	1.641
246	1.661
247	1.675
247	1.69
248	1.704
248	1.719
249	1.73
249	1.739
250	1.749
250	1.757
250	1.759
251	1.763
251	1.766
252	1.769
252	1.768
253	1.767
253	1.762
254	1.762
254	1.762
255	1.76
255	1.76
256	1.76
256	1.758
257	1.758
257	1.756
258	1.755
258	1.757
258	1.759
259	1.759
259	1.759
260	1.76
260	1.761
261	1.762
261	1.766
262	1.768
262	1.771
263	1.774
263	1.775
264	1.776
264	1.778
265	1.779
265	1.778
265	1.779
266	1.78
266	1.779
267	1.776
267	1.777
268	1.776
268	1.777
269	1.779
269	1.778
270	1.778
270	1.779
271	1.776
271	1.776
272	1.775
272	1.774
272	1.771
273	1.765
273	1.757
274	1.75
274	1.743
275	1.734
275	1.727
276	1.72
276	1.712
277	1.703
277	1.691
278	1.679
278	1.666
278	1.652
279	1.636
279	1.615
280	1.589
280	1.557
281	1.519
281	1.478
282	1.434
282	1.391
283	1.349
283	1.307
284	1.268
284	1.229
285	1.193
285	1.16
285	1.131
286	1.105
286	1.083
287	1.064
287	1.048
288	1.034
288	1.022
289	1.012
289	1.003
290	0.996
290	0.99
291	0.984
291	0.979
292	0.975
292	0.971
292	0.967
293	0.964
293	0.961
294	0.958
294	0.955
295	0.952
295	0.95
296	0.947
296	0.944
297	0.942
297	0.939
298	0.936
298	0.934
298	0.931
299	0.928
299	0.926
300	0.923
300	0.92
301	0.918
301	0.915
302	0.913
302	0.911
303	0.909
303	0.907
304	0.904
304	0.902
305	0.9
305	0.899
305	0.896
306	0.894
306	0.892
307	0.889
307	0.887
308	0.885
308	0.882
309	0.88
309	0.877
310	0.874
310	0.871
311	0.869
311	0.866
311	0.863
312	0.86
312	0.856
313	0.853
313	0.849
314	0.845
314	0.841
315	0.838
315	0.834
316	0.83
316	0.825
317	0.821
317	0.816
318	0.812
318	0.807
318	0.801
319	0.796
319	0.791
320	0.786
320	0.78
321	0.774
321	0.768
322	0.762
322	0.756
323	0.75
323	0.744
324	0.737
324	0.731
324	0.724
325	0.718
325	0.711
326	0.704
326	0.698
327	0.691
327	0.684
328	0.678
328	0.671
329	0.664
329	0.657
330	0.65
330	0.644
330	0.637
331	0.63
331	0.623
332	0.616
332	0.609
333	0.603
333	0.596
334	0.589
334	0.582
335	0.576
335	0.569
336	0.563
336	0.556
336	0.55
337	0.543
337	0.537
338	0.531
338	0.525
339	0.519
339	0.513
340	0.508
340	0.502
341	0.496
341	0.491
342	0.486
342	0.48
342	0.475
343	0.47
343	0.465
344	0.46
344	0.456
345	0.451
345	0.447
346	0.442
346	0.438
347	0.434
347	0.429
348	0.425
348	0.422
348	0.418
349	0.414
349	0.41
350	0.407
350	0.403
351	0.4
351	0.397
352	0.394
352	0.391
353	0.388
353	0.385
354	0.382
354	0.379
354	0.376
355	0.373
355	0.37
356	0.368
356	0.365
357	0.362
357	0.359
358	0.357
358	0.354
359	0.352
359	0.349
360	0.348
360	0.346
360	0.344
361	0.342
361	0.34
362	0.339
362	0.338
363	0.336
363	0.334
364	0.332
364	0.331
365	0.329
365	0.327
366	0.325
366	0.324
366	0.322
367	0.32
367	0.319
368	0.317
368	0.316
369	0.314
369	0.313
370	0.311
370	0.31
371	0.309
371	0.308
372	0.306
372	0.305
372	0.304
373	0.303
373	0.302
374	0.301
374	0.3
375	0.3
375	0.299
376	0.298
376	0.297
377	0.296
377	0.295
378	0.294
378	0.293
378	0.293
379	0.292
379	0.292
380	0.291
380	0.29
381	0.289
381	0.289
382	0.288
382	0.288
383	0.287
383	0.287
383	0.286
384	0.286
384	0.285
385	0.285
385	0.284
386	0.284
386	0.283
387	0.283
387	0.282
388	0.282
388	0.281
389	0.281
389	0.281
389	0.28
390	0.28
390	0.279
391	0.279
391	0.279
392	0.279
392	0.278
393	0.278
393	0.278
394	0.277
394	0.277
394	0.277
395	0.276
395	0.276
396	0.276
396	0.275
397	0.275
397	0.274
398	0.274
398	0.274
399	0.274
399	0.273
400	0.273
400	0.273
400	0.273
401	0.273
401	0.272
402	0.272
402	0.272
403	0.272
403	0.272
404	0.271
404	0.271
405	0.271
405	0.271
405	0.27
406	0.27
406	0.27
407	0.269
407	0.269
408	0.269
408	0.268
409	0.268
409	0.268
410	0.267
410	0.267
411	0.267
411	0.266
411	0.266
412	0.266
412	0.265
413	0.265
413	0.265
414	0.265
414	0.265
415	0.264
415	0.264
416	0.264
416	0.263
416	0.263
417	0.263
417	0.262
418	0.262
418	0.262
419	0.261
419	0.261
420	0.26
420	0.26
421	0.26
421	0.259
421	0.259
422	0.259
422	0.258
423	0.258
423	0.257
424	0.257
424	0.257
425	0.256
425	0.256
426	0.256
426	0.256
427	0.255
427	0.255
427	0.255
428	0.255
428	0.254
429	0.254
429	0.254
430	0.254
430	0.254
431	0.253
431	0.253
432	0.253
432	0.253
432	0.252
433	0.252
433	0.252
434	0.252
434	0.252
435	0.252
435	0.251
436	0.251
436	0.251
437	0.251
437	0.25
437	0.25
438	0.25
438	0.25
439	0.25
439	0.25
440	0.249
440	0.249
441	0.249
441	0.249
442	0.248
442	0.248
442	0.248
443	0.248
443	0.248
444	0.247
444	0.247
445	0.247
445	0.247
446	0.247
446	0.246
447	0.246
447	0.246
447	0.245
448	0.245
448	0.245
449	0.245
449	0.245
450	0.245
450	0.244
451	0.244
451	0.244
452	0.244
452	0.243
452	0.243
453	0.243
453	0.243
454	0.243
454	0.242
455	0.242
455	0.242
456	0.242
456	0.242
457	0.241
457	0.241
458	0.241
458	0.241
458	0.241
459	0.24
459	0.24
460	0.24
460	0.24
461	0.24
461	0.24
462	0.24
462	0.239
463	0.239
463	0.239
463	0.239
464	0.239
464	0.238
465	0.238
465	0.238
466	0.237
466	0.237
467	0.237
467	0.237
467	0.237
468	0.237
468	0.237
469	0.236
469	0.237
470	0.237
470	0.237
471	0.237
471	0.237
472	0.237
472	0.237
472	0.237
473	0.237
473	0.237
474	0.237
474	0.237
475	0.237
475	0.237
476	0.237
476	0.237
477	0.237
477	0.237
477	0.237
478	0.236
478	0.236
479	0.236
479	0.237
480	0.237
480	0.237
481	0.237
481	0.237
482	0.237
482	0.237
482	0.237
483	0.238
483	0.238
484	0.238
484	0.238
485	0.238
485	0.238
486	0.238
486	0.238
487	0.238
487	0.238
487	0.239
488	0.239
488	0.239
489	0.239
489	0.24
490	0.241
490	0.241
491	0.242
491	0.242
492	0.243
492	0.243
492	0.243
493	0.244
493	0.244
494	0.244
494	0.245
495	0.245
495	0.246
496	0.246
496	0.247
496	0.247
497	0.248
497	0.248
498	0.248
498	0.249
499	0.249
499	0.25
500	0.25
500	0.25
501	0.251
501	0.251
501	0.251
502	0.251
502	0.252
503	0.252
503	0.253
504	0.253
504	0.253
505	0.254
505	0.254
506	0.255
506	0.255
506	0.255
507	0.256
507	0.256
508	0.257
508	0.257
509	0.258
509	0.258
510	0.259
510	0.259
511	0.26
511	0.261
511	0.261
512	0.262
512	0.263
513	0.263
513	0.264
514	0.264
514	0.265
515	0.265
515	0.266
515	0.266
516	0.266
516	0.267
517	0.267
517	0.268
518	0.268
518	0.268
519	0.268
519	0.268
520	0.269
520	0.269
520	0.269
521	0.27
521	0.27
522	0.269
522	0.269
523	0.27
523	0.27
524	0.27
524	0.27
524	0.27
525	0.271
525	0.271
526	0.271
526	0.271
527	0.271
527	0.271
528	0.271
528	0.271
529	0.271
529	0.271
529	0.271
530	0.271
530	0.271
531	0.271
531	0.271
532	0.27
532	0.27
533	0.27
533	0.27
533	0.27
534	0.269
534	0.269
535	0.269
535	0.269
536	0.269
536	0.268
537	0.268
537	0.268
538	0.268
538	0.268
538	0.268
539	0.268
539	0.268
540	0.267
540	0.267
541	0.267
541	0.266
542	0.266
542	0.265
542	0.265
543	0.265
543	0.265
544	0.264
544	0.264
545	0.264
545	0.263
546	0.263
546	0.262
547	0.262
547	0.261
547	0.261
548	0.26
548	0.26
549	0.259
549	0.259
550	0.258
550	0.258
551	0.257
551	0.257
551	0.257
552	0.256
552	0.256
553	0.255
553	0.255
554	0.254
554	0.253
555	0.253
555	0.252
556	0.251
556	0.251
556	0.251
557	0.251
557	0.251
558	0.251
558	0.25
559	0.251
559	0.251
560	0.25
560	0.25
560	0.25
561	0.25
561	0.249
562	0.248
562	0.247
563	0.246
563	0.245
564	0.245
564	0.244
564	0.244
565	0.243
565	0.243
566	0.242
566	0.242
567	0.242
567	0.242
568	0.242
568	0.241
568	0.241
569	0.241
569	0.24
570	0.239
570	0.238
571	0.238
571	0.238
572	0.237
572	0.236
573	0.236
573	0.236
573	0.235
574	0.235
574	0.235
575	0.235
575	0.235
576	0.235
576	0.234
577	0.233
577	0.233
577	0.233
578	0.232
578	0.232
579	0.232
579	0.232
580	0.232
580	0.23
581	0.23
581	0.229
581	0.229
582	0.229
582	0.229
583	0.23
583	0.229
584	0.228
584	0.227
585	0.227
585	0.227
585	0.227
586	0.226
586	0.226
587	0.225
587	0.224
588	0.223
588	0.223
589	0.222
589	0.222
590	0.222
590	0.222
590	0.222
591	0.223
591	0.222
592	0.222
592	0.221
593	0.221
593	0.22
594	0.219
594	0.219
594	0.218
595	0.218
595	0.217
596	0.216
596	0.217
597	0.218
597	0.218
598	0.218
598	0.218
598	0.218
599	0.218
599	0.217
600	0.217
600	0.216
601	0.216
601	0.215
602	0.215
602	0.214
602	0.214
603	0.214
603	0.214
604	0.214
604	0.214
605	0.214
605	0.214
606	0.214
606	0.213
606	0.213
607	0.213
607	0.212
608	0.212
608	0.211
609	0.211
609	0.21
610	0.21
610	0.21
610	0.21
611	0.21
611	0.21
612	0.21
612	0.21
613	0.21
613	0.21
614	0.209
614	0.209
614	0.208
615	0.208
615	0.208
616	0.208
616	0.207
617	0.207
617	0.207
618	0.206
618	0.207
618	0.207
619	0.207
619	0.207
620	0.207
620	0.207
621	0.206
621	0.206
622	0.206
622	0.205
622	0.205
623	0.204
623	0.204
624	0.204
624	0.203
625	0.203
625	0.203
626	0.202
626	0.202
626	0.202
627	0.202
627	0.202
628	0.202
628	0.201
629	0.201
629	0.201
630	0.2
630	0.2
630	0.2
631	0.2
631	0.2
632	0.2
632	0.199
633	0.199
633	0.199
634	0.2
634	0.2
634	0.2
635	0.2
635	0.2
636	0.2
636	0.2
637	0.199
637	0.199
638	0.199
638	0.199
638	0.198
639	0.197
639	0.197
640	0.197
640	0.197
641	0.197
641	0.197
642	0.196
642	0.197
642	0.197
643	0.197
643	0.197
644	0.197
644	0.197
645	0.197
645	0.197
646	0.197
646	0.197
646	0.197
647	0.197
647	0.196
648	0.196
648	0.195
649	0.195
649	0.195
650	0.195
650	0.195
650	0.195
651	0.194
651	0.194
652	0.194
652	0.194
653	0.194
653	0.195
653	0.203
654	0.159
654	0.127
655	0.127
655	0.128
656	0.128
656	0.128
657	0.129
657	0.129
657	0.129
658	0.128
658	0.117
659	0.148
659	0.19
660	0.195
660	0.196
661	0.195
661	0.195
661	0.195
662	0.195
662	0.195
663	0.195
663	0.195
664	0.194
664	0.194
665	0.194
665	0.194
665	0.194
666	0.194
666	0.194
667	0.194
667	0.194
668	0.194
668	0.194
669	0.194
669	0.194
669	0.194
670	0.194
670	0.194
671	0.194
671	0.194
672	0.194
672	0.193
672	0.193
673	0.193
673	0.193
674	0.193
674	0.193
675	0.193
675	0.193
676	0.193
676	0.193
676	0.193
677	0.193
677	0.193
678	0.193
678	0.192
679	0.191
679	0.191
680	0.192
680	0.192
680	0.191
681	0.192
681	0.192
682	0.193
682	0.193
683	0.194
683	0.195
684	0.195
684	0.195
684	0.195
685	0.195
685	0.196
686	0.196
686	0.196
687	0.196
687	0.196
687	0.196
688	0.195
688	0.195
689	0.195
689	0.195
690	0.195
690	0.194
691	0.194
691	0.194
691	0.194
692	0.194
692	0.194
693	0.195
693	0.195
694	0.195
694	0.195
695	0.196
695	0.198
695	0.198
696	0.198
696	0.199
697	0.199
697	0.199
698	0.199
698	0.198
698	0.199
699	0.199
699	0.198
700	0.197
700	0.197
701	0.197
701	0.196
702	0.196
702	0.196
702	0.196
703	0.195
703	0.195
704	0.194
704	0.194
705	0.195
705	0.195
705	0.195
706	0.195
706	0.196
707	0.196
707	0.197
708	0.197
708	0.198
709	0.198
709	0.198
709	0.198
710	0.198
710	0.199
711	0.199
711	0.199
712	0.2
712	0.2
713	0.2
713	0.2
713	0.2
714	0.2
714	0.2
715	0.2
715	0.2
716	0.199
716	0.199
716	0.198
717	0.197
717	0.197
718	0.196
718	0.196
719	0.196
719	0.196
720	0.197
720	0.197
720	0.198
721	0.198
721	0.199
722	0.2
722	0.2
723	0.2
723	0.201
723	0.201
724	0.201
724	0.201
725	0.2
725	0.199
726	0.199
726	0.199
727	0.198
727	0.198
727	0.198
728	0.198
728	0.198
729	0.198
729	0.198
730	0.199
730	0.199
730	0.199
731	0.2
731	0.2
732	0.201
732	0.201
733	0.201
733	0.201
734	0.201
734	0.201
734	0.202
735	0.202
735	0.202
736	0.202
736	0.201
737	0.201
737	0.201
737	0.201
738	0.201
738	0.2
739	0.199
739	0.199
740	0.199
740	0.199
741	0.199
741	0.199
741	0.199
742	0.199
742	0.2
743	0.201
743	0.202
744	0.203
744	0.204
744	0.204
745	0.205
745	0.205
746	0.205
746	0.205
747	0.205
747	0.205
748	0.204
748	0.204
748	0.204
749	0.203
749	0.203
750	0.203
750	0.203
751	0.203
751	0.203
751	0.203
752	0.202
752	0.202
753	0.202
753	0.201
754	0.201
754	0.201
754	0.201
755	0.201
755	0.202
756	0.201
756	0.201
757	0.201
757	0.201
758	0.201
758	0.201
758	0.202
759	0.202
759	0.202
760	0.202
760	0.202
761	0.202
761	0.203
761	0.203
762	0.203
762	0.203
763	0.203
763	0.203
764	0.202
764	0.202
764	0.202
765	0.202
765	0.202
766	0.202
766	0.202
767	0.202
767	0.202
768	0.201
768	0.202
768	0.202
769	0.203
769	0.203
770	0.204
770	0.205
771	0.205
771	0.205
771	0.206
772	0.207
772	0.207
773	0.207
773	0.207
774	0.207
774	0.207
775	0.206
775	0.206
775	0.205
776	0.205
776	0.205
777	0.205
777	0.204
778	0.204
778	0.204
778	0.203
779	0.203
779	0.203
780	0.203
780	0.203
781	0.203
781	0.203
781	0.203
782	0.203
782	0.204
783	0.204
783	0.205
784	0.205
784	0.206
784	0.207
785	0.207
785	0.207
786	0.208
786	0.208
787	0.208
787	0.208
788	0.208
788	0.207
788	0.206
789	0.206
789	0.206
790	0.206
790	0.205
791	0.205
791	0.205
791	0.205
792	0.206
792	0.206
793	0.207
793	0.207
794	0.207
794	0.207
794	0.207
795	0.208
795	0.208
796	0.208
796	0.208
797	0.207
797	0.207
797	0.207
798	0.207
798	0.207
799	0.207
799	0.207
800	0.207
800	0.207
801	0.207
801	0.208
801	0.208
802	0.209
802	0.209
803	0.209
803	0.21
804	0.21
804	0.211
804	0.211
805	0.211
805	0.211
806	0.211
806	0.211
807	0.212
807	0.212
807	0.212
808	0.212
808	0.213
809	0.212
809	0.213
810	0.213
810	0.213
810	0.213
811	0.213
811	0.213
812	0.214
812	0.214
813	0.214
813	0.214
813	0.215
814	0.215
814	0.216
815	0.217
815	0.217
816	0.217
816	0.217
817	0.216
817	0.216
817	0.216
818	0.215
818	0.215
819	0.215
819	0.214
820	0.213
820	0.213
820	0.212
821	0.212
821	0.213
822	0.213
822	0.213
823	0.213
823	0.213
823	0.214
824	0.215
824	0.216
825	0.217
825	0.217
826	0.218
826	0.217
826	0.217
827	0.218
827	0.217
828	0.217
828	0.217
829	0.217
829	0.216
829	0.216
830	0.216
830	0.216
831	0.216
831	0.216
832	0.216
832	0.216
832	0.216
833	0.215
833	0.215
834	0.215
834	0.215
835	0.215
835	0.215
835	0.215
836	0.215
836	0.215
837	0.216
837	0.216
838	0.216
838	0.216
839	0.216
839	0.215
839	0.215
840	0.214
840	0.213
841	0.212
841	0.211
842	0.211
842	0.21
842	0.209
843	0.208
843	0.208
844	0.207
844	0.207
845	0.207
845	0.206
845	0.207
846	0.207
846	0.207
847	0.207
847	0.207
848	0.207
848	0.207
848	0.207
849	0.207
849	0.208
850	0.208
850	0.208
851	0.208
851	0.209
851	0.209
852	0.208
852	0.208
853	0.208
853	0.207
854	0.207
854	0.207
854	0.208
855	0.208
855	0.208
856	0.208
856	0.208
857	0.209
857	0.209
857	0.21
858	0.21
858	0.209
859	0.209
859	0.208
860	0.208
860	0.208
860	0.207
861	0.207
861	0.207
862	0.206
862	0.206
863	0.205
863	0.205
863	0.205
864	0.204
864	0.205
865	0.205
865	0.205
866	0.205
866	0.205
866	0.205
867	0.205
867	0.206
868	0.207
868	0.207
869	0.208
869	0.208
869	0.208
870	0.208
870	0.208
871	0.208
871	0.208
872	0.208
872	0.207
872	0.207
873	0.207
873	0.206
874	0.205
874	0.205
875	0.205
875	0.204
875	0.204
876	0.204
876	0.204
877	0.204
877	0.204
878	0.204
878	0.204
878	0.205
879	0.205
879	0.205
880	0.205
880	0.204
881	0.204
881	0.203
881	0.203
882	0.203
882	0.202
883	0.202
883	0.202
884	0.201
884	0.201
884	0.201
885	0.201
885	0.201
886	0.2
886	0.2
887	0.199
887	0.198
887	0.197
888	0.196
888	0.195
889	0.194
889	0.193
890	0.193
890	0.192
890	0.192
891	0.192
891	0.192
892	0.192
892	0.192
893	0.193
893	0.194
893	0.194
894	0.195
894	0.195
895	0.196
895	0.197
895	0.197
896	0.198
896	0.198
897	0.198
897	0.199
898	0.199
898	0.198
898	0.198
899	0.198
899	0.197
900	0.197
900	0.196
901	0.196
901	0.195
901	0.195
902	0.194
902	0.193
903	0.193
903	0.192
904	0.191
904	0.19
904	0.189
905	0.189
905	0.188
906	0.187
906	0.186
907	0.186
907	0.186
907	0.186
908	0.185
908	0.185
909	0.185
909	0.184
910	0.184
910	0.184
910	0.184
911	0.183
911	0.183
912	0.183
912	0.183
913	0.182
913	0.182
913	0.182
914	0.182
914	0.182
915	0.182
915	0.182
916	0.182
916	0.181
916	0.181
917	0.181
917	0.18
918	0.18
918	0.179
918	0.179
919	0.178
919	0.178
920	0.178
920	0.177
921	0.177
921	0.176
921	0.176
922	0.176
922	0.176
923	0.176
923	0.176
924	0.176
924	0.176
924	0.176
925	0.177
925	0.177
926	0.177
926	0.178
927	0.178
927	0.178
927	0.178
928	0.178
928	0.177
929	0.177
929	0.177
930	0.176
930	0.175
930	0.175
931	0.174
931	0.173
932	0.172
932	0.171
933	0.171
933	0.17
933	0.169
934	0.168
934	0.167
935	0.167
935	0.166
935	0.165
936	0.165
936	0.164
937	0.164
937	0.164
938	0.163
938	0.163
938	0.164
939	0.164
939	0.164
940	0.165
940	0.165
941	0.166
941	0.166
941	0.166
942	0.167
942	0.167
943	0.167
943	0.166
944	0.166
944	0.166
944	0.166
945	0.166
945	0.166
946	0.166
946	0.166
946	0.165
947	0.165
947	0.165
948	0.165
948	0.164
949	0.163
949	0.162
949	0.162
950	0.161
950	0.16
951	0.16
951	0.159
952	0.158
952	0.157
952	0.157
953	0.156
953	0.156
954	0.155
954	0.155
955	0.154
955	0.153
955	0.153
956	0.153
956	0.153
957	0.153
957	0.153
957	0.153
958	0.153
958	0.153
959	0.153
959	0.153
960	0.153
960	0.153
960	0.153
961	0.152
961	0.152
962	0.151
962	0.151
963	0.151
963	0.151
963	0.151
964	0.151
964	0.151
965	0.151
965	0.15
966	0.15
966	0.15
966	0.149
967	0.149
967	0.148
968	0.148
968	0.148
968	0.148
969	0.147
969	0.147
970	0.146
970	0.146
971	0.145
971	0.145
971	0.145
972	0.144
972	0.143
973	0.143
973	0.142
974	0.142
974	0.141
974	0.141
975	0.141
975	0.141
976	0.142
976	0.142
976	0.142
977	0.142
977	0.142
978	0.142
978	0.143
979	0.143
979	0.142
979	0.142
980	0.142
980	0.142
981	0.141
981	0.141
982	0.14
982	0.14
982	0.139
983	0.138
983	0.138
984	0.137
984	0.136
984	0.136
985	0.135
985	0.135
986	0.134
986	0.133
987	0.133
987	0.133
987	0.132
988	0.132
988	0.132
989	0.131
989	0.131
990	0.131
990	0.131
990	0.131
991	0.131
991	0.131
992	0.13
992	0.13
992	0.13
993	0.129
993	0.128
994	0.127
994	0.127
995	0.126
995	0.126
995	0.126
996	0.126
996	0.125
997	0.126
997	0.126
997	0.126
998	0.127
998	0.128
999	0.129
999	0.129
1000	0.13
1000	0.13
1000	0.131
1001	0.131
1001	0.13
1002	0.13
1002	0.129
1003	0.129
1003	0.128
1003	0.127
1004	0.126
1004	0.125
1005	0.125
1005	0.124
1005	0.123
1006	0.123
1006	0.122
1007	0.122
1007	0.121
1008	0.121
1008	0.121
1008	0.121
1009	0.121
1009	0.121
1010	0.12
1010	0.12
1010	0.12
1011	0.119
1011	0.119
1012	0.118
1012	0.118
1013	0.118
1013	0.117
1013	0.117
1014	0.116
1014	0.116
1015	0.116
1015	0.116
1016	0.116
1016	0.115
1016	0.115
1017	0.115
1017	0.115
1018	0.114
1018	0.114
1018	0.114
1019	0.114
1019	0.113
1020	0.113
1020	0.113
1021	0.113
1021	0.113
1021	0.113
1022	0.113
1022	0.114
1023	0.114
1023	0.115
1023	0.115
1024	0.115
1024	0.116
1025	0.116
1025	0.117
1026	0.117
1026	0.117
1026	0.117
1027	0.117
1027	0.117
1028	0.117
1028	0.117
1028	0.117
1029	0.117
1029	0.117
1030	0.117
1030	0.117
1031	0.117
1031	0.116
1031	0.116
1032	0.116
1032	0.116
1033	0.116
1033	0.116
1033	0.116
1034	0.115
1034	0.115
1035	0.115
1035	0.114
1036	0.114
1036	0.114
1036	0.114
1037	0.113
1037	0.113
1038	0.112
1038	0.112
1039	0.111
1039	0.111
1039	0.111
1040	0.11
1040	0.11
1041	0.11
1041	0.109
1041	0.109
1042	0.109
1042	0.109
1043	0.108
1043	0.108
1044	0.108
1044	0.108
1044	0.107
1045	0.107
1045	0.107
1046	0.107
1046	0.107
1046	0.107
1047	0.107
1047	0.107
1048	0.107
1048	0.107
1049	0.107
1049	0.107
1049	0.107
1050	0.106
1050	0.105
1051	0.105
1051	0.104
1051	0.104
1052	0.103
1052	0.102
1053	0.101
1053	0.1
1053	0.1
1054	0.099
1054	0.098
1055	0.098
1055	0.097
1056	0.097
1056	0.096
1056	0.095
1057	0.094
1057	0.093
1058	0.093
1058	0.091
1058	0.09
1059	0.089
1059	0.088
1060	0.088
1060	0.087
1061	0.086
1061	0.086
1061	0.086
1062	0.085
1062	0.085
1063	0.085
1063	0.085
1063	0.085
1064	0.085
1064	0.085
1065	0.085
1065	0.085
1066	0.085
1066	0.085
1066	0.085
1067	0.085
1067	0.085
1068	0.084
1068	0.084
1068	0.084
1069	0.084
1069	0.084
1070	0.083
1070	0.083
1071	0.082
1071	0.082
1071	0.082
1072	0.082
1072	0.082
1073	0.081
1073	0.081
1073	0.08
1074	0.081
1074	0.08
1075	0.08
1075	0.08
1076	0.08
1076	0.08
1076	0.08
1077	0.08
1077	0.079
1078	0.079
1078	0.079
1078	0.078
1079	0.078
1079	0.078
1080	0.077
1080	0.077
1080	0.077
1081	0.077
1081	0.077
1082	0.078
1082	0.078
1083	0.078
1083	0.078
1083	0.078
1084	0.078
1084	0.079
1085	0.079
1085	0.079
1085	0.079
1086	0.079
1086	0.079
1087	0.079
1087	0.079
1088	0.079
1088	0.079
1088	0.079
1089	0.079
1089	0.079
1090	0.078
1090	0.078
1090	0.077
1091	0.076
1091	0.076
1092	0.076
1092	0.075
1092	0.075
1093	0.075
1093	0.075
1094	0.075
1094	0.074
1095	0.074
1095	0.074
1095	0.073
1096	0.073
1096	0.072
1097	0.071
1097	0.07
1097	0.069
1098	0.068
1098	0.066
1099	0.065
1099	0.063
1100	0.062
1100	0.061
1100	0.058
1101	0.057
1101	0.056
1102	0.055
1102	0.054
1102	0.052
1103	0.052
1103	0.051
1104	0.051
1104	0.05
1104	0.049
1105	0.049
1105	0.047
1106	0.045
1106	0.044
1107	0.042
1107	0.042
1107	0.041
1108	0.04
1108	0.038
1109	0.037
1109	0.036
1109	0.034
1110	0.035
1110	0.035
1111	0.034
1111	0.035
