Data from reversibility-20sec_Absorbance__4258__000000000004258.txt Node

Date: Wed Dec 06 11:52:26 CET 2023
User: Marek
Spectrometer: MAYP115816
Trigger mode: 0
Integration Time (sec): 2.000000E-1
Scans to average: 10
Electric dark correction enabled: true
Nonlinearity correction enabled: true
Boxcar width: 5
XAxis mode: Wavelengths
Number of Pixels in Spectrum: 2068
>>>>>Begin Spectral Data<<<<<
199	-0.197
199	-0.166
200	-0.1
200	-0.047
201	-0.019
201	-0.001
202	0.015
202	0.02
203	0.026
203	0.029
204	0.041
204	0.053
205	0.065
205	0.072
205	0.07
206	0.07
206	0.068
207	0.067
207	0.068
208	0.067
208	0.068
209	0.071
209	0.071
210	0.071
210	0.071
211	0.071
211	0.072
212	0.073
212	0.073
213	0.076
213	0.078
213	0.078
214	0.08
214	0.081
215	0.083
215	0.082
216	0.085
216	0.082
217	0.084
217	0.088
218	0.088
218	0.093
219	0.096
219	0.097
220	0.1
220	0.097
221	0.098
221	0.101
221	0.107
222	0.113
222	0.12
223	0.126
223	0.129
224	0.133
224	0.143
225	0.151
225	0.167
226	0.177
226	0.185
227	0.196
227	0.206
228	0.219
228	0.233
229	0.246
229	0.273
229	0.294
230	0.316
230	0.346
231	0.378
231	0.417
232	0.454
232	0.498
233	0.54
233	0.591
234	0.644
234	0.693
235	0.747
235	0.803
236	0.855
236	0.908
236	0.96
237	1.012
237	1.06
238	1.108
238	1.152
239	1.199
239	1.243
240	1.283
240	1.319
241	1.353
241	1.387
242	1.42
242	1.453
243	1.484
243	1.512
243	1.539
244	1.561
244	1.582
245	1.601
245	1.623
246	1.64
246	1.661
247	1.674
247	1.688
248	1.701
248	1.714
249	1.723
249	1.733
250	1.744
250	1.753
250	1.759
251	1.765
251	1.766
252	1.772
252	1.774
253	1.776
253	1.775
254	1.776
254	1.778
255	1.775
255	1.775
256	1.778
256	1.778
257	1.78
257	1.78
258	1.78
258	1.781
258	1.781
259	1.782
259	1.782
260	1.782
260	1.783
261	1.781
261	1.782
262	1.783
262	1.784
263	1.788
263	1.787
264	1.787
264	1.787
265	1.787
265	1.789
265	1.789
266	1.79
266	1.79
267	1.789
267	1.788
268	1.786
268	1.787
269	1.788
269	1.787
270	1.785
270	1.784
271	1.78
271	1.779
272	1.778
272	1.775
272	1.773
273	1.77
273	1.766
274	1.762
274	1.758
275	1.752
275	1.746
276	1.74
276	1.733
277	1.724
277	1.715
278	1.704
278	1.693
278	1.681
279	1.667
279	1.65
280	1.631
280	1.607
281	1.579
281	1.547
282	1.512
282	1.476
283	1.441
283	1.404
284	1.369
284	1.335
285	1.301
285	1.271
285	1.243
286	1.218
286	1.196
287	1.177
287	1.161
288	1.147
288	1.134
289	1.124
289	1.114
290	1.106
290	1.099
291	1.092
291	1.086
292	1.081
292	1.076
292	1.071
293	1.067
293	1.063
294	1.059
294	1.056
295	1.052
295	1.049
296	1.046
296	1.042
297	1.039
297	1.036
298	1.033
298	1.03
298	1.027
299	1.024
299	1.021
300	1.018
300	1.015
301	1.012
301	1.01
302	1.006
302	1.004
303	1.002
303	0.999
304	0.996
304	0.993
305	0.991
305	0.988
305	0.985
306	0.983
306	0.98
307	0.977
307	0.974
308	0.971
308	0.968
309	0.965
309	0.962
310	0.959
310	0.956
311	0.953
311	0.949
311	0.945
312	0.942
312	0.938
313	0.935
313	0.931
314	0.927
314	0.923
315	0.919
315	0.914
316	0.91
316	0.905
317	0.901
317	0.896
318	0.891
318	0.885
318	0.88
319	0.875
319	0.869
320	0.864
320	0.858
321	0.852
321	0.846
322	0.84
322	0.834
323	0.828
323	0.821
324	0.815
324	0.809
324	0.802
325	0.796
325	0.789
326	0.782
326	0.775
327	0.769
327	0.762
328	0.755
328	0.749
329	0.741
329	0.734
330	0.727
330	0.721
330	0.714
331	0.707
331	0.7
332	0.693
332	0.686
333	0.679
333	0.672
334	0.666
334	0.659
335	0.652
335	0.646
336	0.639
336	0.633
336	0.626
337	0.62
337	0.614
338	0.608
338	0.602
339	0.596
339	0.59
340	0.584
340	0.579
341	0.573
341	0.568
342	0.563
342	0.557
342	0.552
343	0.547
343	0.542
344	0.537
344	0.532
345	0.528
345	0.523
346	0.519
346	0.514
347	0.51
347	0.506
348	0.501
348	0.498
348	0.494
349	0.49
349	0.486
350	0.483
350	0.479
351	0.475
351	0.472
352	0.469
352	0.466
353	0.463
353	0.46
354	0.457
354	0.454
354	0.451
355	0.448
355	0.445
356	0.443
356	0.44
357	0.436
357	0.433
358	0.43
358	0.427
359	0.425
359	0.423
360	0.42
360	0.418
360	0.416
361	0.415
361	0.413
362	0.411
362	0.41
363	0.408
363	0.406
364	0.404
364	0.402
365	0.4
365	0.398
366	0.396
366	0.394
366	0.393
367	0.391
367	0.389
368	0.387
368	0.386
369	0.384
369	0.383
370	0.381
370	0.379
371	0.377
371	0.376
372	0.375
372	0.373
372	0.372
373	0.371
373	0.37
374	0.369
374	0.367
375	0.366
375	0.365
376	0.364
376	0.363
377	0.362
377	0.361
378	0.36
378	0.359
378	0.358
379	0.357
379	0.356
380	0.355
380	0.354
381	0.353
381	0.352
382	0.352
382	0.351
383	0.35
383	0.35
383	0.349
384	0.348
384	0.347
385	0.346
385	0.346
386	0.345
386	0.345
387	0.344
387	0.343
388	0.343
388	0.342
389	0.341
389	0.341
389	0.34
390	0.339
390	0.339
391	0.338
391	0.338
392	0.337
392	0.337
393	0.336
393	0.336
394	0.335
394	0.335
394	0.334
395	0.333
395	0.333
396	0.332
396	0.332
397	0.331
397	0.33
398	0.33
398	0.33
399	0.329
399	0.329
400	0.328
400	0.328
400	0.328
401	0.328
401	0.327
402	0.327
402	0.326
403	0.326
403	0.325
404	0.325
404	0.325
405	0.324
405	0.324
405	0.324
406	0.323
406	0.323
407	0.322
407	0.322
408	0.321
408	0.321
409	0.32
409	0.32
410	0.319
410	0.319
411	0.318
411	0.318
411	0.317
412	0.317
412	0.317
413	0.317
413	0.316
414	0.316
414	0.316
415	0.315
415	0.315
416	0.314
416	0.314
416	0.314
417	0.313
417	0.313
418	0.313
418	0.312
419	0.312
419	0.311
420	0.311
420	0.311
421	0.31
421	0.31
421	0.31
422	0.309
422	0.309
423	0.309
423	0.308
424	0.308
424	0.308
425	0.308
425	0.307
426	0.307
426	0.306
427	0.306
427	0.306
427	0.305
428	0.305
428	0.305
429	0.304
429	0.304
430	0.304
430	0.303
431	0.303
431	0.303
432	0.303
432	0.303
432	0.302
433	0.302
433	0.302
434	0.302
434	0.302
435	0.302
435	0.302
436	0.301
436	0.301
437	0.301
437	0.301
437	0.301
438	0.3
438	0.3
439	0.3
439	0.3
440	0.3
440	0.3
441	0.299
441	0.299
442	0.299
442	0.299
442	0.299
443	0.298
443	0.299
444	0.298
444	0.298
445	0.298
445	0.298
446	0.298
446	0.298
447	0.298
447	0.298
447	0.298
448	0.298
448	0.298
449	0.298
449	0.297
450	0.298
450	0.297
451	0.297
451	0.297
452	0.297
452	0.297
452	0.297
453	0.297
453	0.297
454	0.297
454	0.297
455	0.297
455	0.297
456	0.297
456	0.297
457	0.297
457	0.297
458	0.297
458	0.297
458	0.297
459	0.297
459	0.297
460	0.297
460	0.297
461	0.297
461	0.297
462	0.297
462	0.297
463	0.298
463	0.298
463	0.298
464	0.298
464	0.298
465	0.298
465	0.298
466	0.298
466	0.298
467	0.299
467	0.299
467	0.299
468	0.299
468	0.3
469	0.3
469	0.3
470	0.301
470	0.301
471	0.302
471	0.302
472	0.303
472	0.303
472	0.303
473	0.304
473	0.304
474	0.305
474	0.305
475	0.306
475	0.306
476	0.307
476	0.307
477	0.308
477	0.308
477	0.309
478	0.31
478	0.31
479	0.311
479	0.312
480	0.312
480	0.313
481	0.313
481	0.314
482	0.315
482	0.315
482	0.316
483	0.317
483	0.318
484	0.319
484	0.319
485	0.32
485	0.321
486	0.321
486	0.322
487	0.323
487	0.324
487	0.325
488	0.326
488	0.327
489	0.328
489	0.33
490	0.331
490	0.332
491	0.334
491	0.335
492	0.336
492	0.337
492	0.339
493	0.34
493	0.341
494	0.343
494	0.344
495	0.345
495	0.347
496	0.348
496	0.35
496	0.351
497	0.353
497	0.354
498	0.355
498	0.357
499	0.358
499	0.359
500	0.361
500	0.363
501	0.364
501	0.365
501	0.366
502	0.367
502	0.369
503	0.37
503	0.371
504	0.373
504	0.374
505	0.375
505	0.377
506	0.378
506	0.379
506	0.38
507	0.382
507	0.383
508	0.384
508	0.386
509	0.387
509	0.388
510	0.389
510	0.39
511	0.392
511	0.393
511	0.394
512	0.395
512	0.396
513	0.397
513	0.398
514	0.399
514	0.401
515	0.402
515	0.402
515	0.403
516	0.403
516	0.404
517	0.405
517	0.405
518	0.406
518	0.406
519	0.406
519	0.407
520	0.407
520	0.407
520	0.407
521	0.407
521	0.406
522	0.406
522	0.406
523	0.406
523	0.406
524	0.405
524	0.405
524	0.405
525	0.405
525	0.404
526	0.404
526	0.404
527	0.403
527	0.402
528	0.401
528	0.401
529	0.4
529	0.399
529	0.398
530	0.397
530	0.395
531	0.394
531	0.392
532	0.391
532	0.39
533	0.388
533	0.386
533	0.385
534	0.384
534	0.382
535	0.381
535	0.379
536	0.378
536	0.376
537	0.375
537	0.373
538	0.371
538	0.369
538	0.367
539	0.365
539	0.364
540	0.362
540	0.36
541	0.358
541	0.355
542	0.353
542	0.351
542	0.348
543	0.346
543	0.344
544	0.341
544	0.339
545	0.337
545	0.335
546	0.333
546	0.33
547	0.328
547	0.326
547	0.323
548	0.321
548	0.319
549	0.317
549	0.314
550	0.312
550	0.31
551	0.307
551	0.305
551	0.302
552	0.3
552	0.298
553	0.296
553	0.294
554	0.291
554	0.289
555	0.286
555	0.284
556	0.281
556	0.279
556	0.278
557	0.276
557	0.274
558	0.272
558	0.27
559	0.269
559	0.267
560	0.265
560	0.263
560	0.261
561	0.259
561	0.257
562	0.255
562	0.252
563	0.25
563	0.248
564	0.245
564	0.243
564	0.241
565	0.24
565	0.238
566	0.236
566	0.234
567	0.232
567	0.231
568	0.229
568	0.228
568	0.226
569	0.225
569	0.223
570	0.22
570	0.218
571	0.217
571	0.215
572	0.213
572	0.212
573	0.21
573	0.209
573	0.207
574	0.206
574	0.204
575	0.204
575	0.203
576	0.202
576	0.2
577	0.198
577	0.197
577	0.196
578	0.194
578	0.193
579	0.192
579	0.191
580	0.189
580	0.187
581	0.185
581	0.184
581	0.183
582	0.183
582	0.182
583	0.181
583	0.18
584	0.179
584	0.176
585	0.175
585	0.175
585	0.174
586	0.173
586	0.171
587	0.17
587	0.169
588	0.167
588	0.166
589	0.165
589	0.165
590	0.164
590	0.163
590	0.163
591	0.162
591	0.161
592	0.16
592	0.159
593	0.158
593	0.157
594	0.156
594	0.155
594	0.154
595	0.153
595	0.152
596	0.151
596	0.151
597	0.151
597	0.151
598	0.151
598	0.15
598	0.149
599	0.148
599	0.148
600	0.147
600	0.146
601	0.145
601	0.144
602	0.143
602	0.142
602	0.14
603	0.14
603	0.139
604	0.139
604	0.139
605	0.139
605	0.138
606	0.138
606	0.137
606	0.136
607	0.135
607	0.135
608	0.134
608	0.133
609	0.132
609	0.132
610	0.131
610	0.13
610	0.129
611	0.129
611	0.128
612	0.128
612	0.128
613	0.128
613	0.127
614	0.126
614	0.125
614	0.125
615	0.125
615	0.124
616	0.124
616	0.123
617	0.123
617	0.122
618	0.122
618	0.122
618	0.122
619	0.122
619	0.121
620	0.121
620	0.121
621	0.12
621	0.12
622	0.119
622	0.119
622	0.118
623	0.117
623	0.117
624	0.116
624	0.115
625	0.115
625	0.114
626	0.114
626	0.113
626	0.113
627	0.113
627	0.112
628	0.112
628	0.111
629	0.111
629	0.11
630	0.11
630	0.109
630	0.109
631	0.109
631	0.108
632	0.108
632	0.108
633	0.107
633	0.107
634	0.107
634	0.107
634	0.107
635	0.106
635	0.106
636	0.105
636	0.105
637	0.104
637	0.104
638	0.104
638	0.104
638	0.103
639	0.102
639	0.102
640	0.102
640	0.102
641	0.102
641	0.101
642	0.101
642	0.101
642	0.101
643	0.101
643	0.101
644	0.101
644	0.101
645	0.101
645	0.101
646	0.101
646	0.101
646	0.101
647	0.101
647	0.101
648	0.1
648	0.1
649	0.099
649	0.099
650	0.099
650	0.098
650	0.098
651	0.097
651	0.097
652	0.096
652	0.096
653	0.096
653	0.098
653	0.104
654	0.084
654	0.068
655	0.066
655	0.065
656	0.066
656	0.066
657	0.066
657	0.066
657	0.066
658	0.065
658	0.057
659	0.07
659	0.088
660	0.094
660	0.094
661	0.093
661	0.093
661	0.092
662	0.092
662	0.091
663	0.09
663	0.09
664	0.09
664	0.089
665	0.089
665	0.089
665	0.089
666	0.089
666	0.089
667	0.089
667	0.089
668	0.09
668	0.09
669	0.089
669	0.089
669	0.09
670	0.09
670	0.089
671	0.089
671	0.088
672	0.088
672	0.088
672	0.087
673	0.087
673	0.087
674	0.087
674	0.086
675	0.086
675	0.086
676	0.086
676	0.086
676	0.086
677	0.086
677	0.086
678	0.085
678	0.084
679	0.084
679	0.083
680	0.083
680	0.083
680	0.082
681	0.082
681	0.082
682	0.082
682	0.082
683	0.083
683	0.083
684	0.084
684	0.083
684	0.083
685	0.083
685	0.084
686	0.084
686	0.083
687	0.083
687	0.083
687	0.083
688	0.083
688	0.083
689	0.084
689	0.084
690	0.084
690	0.083
691	0.083
691	0.084
691	0.083
692	0.083
692	0.083
693	0.083
693	0.083
694	0.082
694	0.082
695	0.083
695	0.084
695	0.084
696	0.083
696	0.083
697	0.083
697	0.083
698	0.083
698	0.082
698	0.082
699	0.082
699	0.081
700	0.081
700	0.081
701	0.08
701	0.08
702	0.08
702	0.079
702	0.079
703	0.079
703	0.079
704	0.078
704	0.078
705	0.078
705	0.078
705	0.078
706	0.078
706	0.078
707	0.078
707	0.078
708	0.078
708	0.078
709	0.078
709	0.078
709	0.077
710	0.076
710	0.076
711	0.076
711	0.076
712	0.076
712	0.076
713	0.076
713	0.076
713	0.076
714	0.075
714	0.076
715	0.075
715	0.075
716	0.075
716	0.075
716	0.074
717	0.074
717	0.073
718	0.072
718	0.072
719	0.072
719	0.072
720	0.072
720	0.073
720	0.073
721	0.073
721	0.074
722	0.075
722	0.075
723	0.076
723	0.076
723	0.076
724	0.076
724	0.076
725	0.075
725	0.074
726	0.074
726	0.073
727	0.072
727	0.072
727	0.071
728	0.07
728	0.07
729	0.07
729	0.07
730	0.07
730	0.069
730	0.07
731	0.07
731	0.07
732	0.07
732	0.07
733	0.07
733	0.07
734	0.07
734	0.069
734	0.069
735	0.07
735	0.069
736	0.069
736	0.068
737	0.068
737	0.068
737	0.068
738	0.067
738	0.066
739	0.066
739	0.066
740	0.066
740	0.066
741	0.066
741	0.066
741	0.065
742	0.065
742	0.065
743	0.066
743	0.066
744	0.067
744	0.067
744	0.067
745	0.067
745	0.067
746	0.067
746	0.067
747	0.067
747	0.068
748	0.068
748	0.068
748	0.068
749	0.068
749	0.069
750	0.069
750	0.068
751	0.068
751	0.068
751	0.068
752	0.067
752	0.066
753	0.066
753	0.065
754	0.065
754	0.065
754	0.065
755	0.066
755	0.066
756	0.065
756	0.064
757	0.063
757	0.063
758	0.063
758	0.063
758	0.062
759	0.062
759	0.062
760	0.061
760	0.061
761	0.061
761	0.062
761	0.063
762	0.063
762	0.063
763	0.063
763	0.062
764	0.062
764	0.061
764	0.061
765	0.06
765	0.059
766	0.058
766	0.057
767	0.056
767	0.055
768	0.054
768	0.053
768	0.053
769	0.053
769	0.053
770	0.053
770	0.053
771	0.054
771	0.054
771	0.054
772	0.055
772	0.056
773	0.057
773	0.057
774	0.058
774	0.058
775	0.059
775	0.059
775	0.059
776	0.059
776	0.059
777	0.059
777	0.059
778	0.058
778	0.057
778	0.057
779	0.056
779	0.056
780	0.055
780	0.054
781	0.054
781	0.053
781	0.053
782	0.052
782	0.052
783	0.053
783	0.053
784	0.053
784	0.053
784	0.054
785	0.054
785	0.054
786	0.055
786	0.055
787	0.055
787	0.055
788	0.054
788	0.054
788	0.053
789	0.053
789	0.052
790	0.052
790	0.051
791	0.051
791	0.05
791	0.05
792	0.051
792	0.051
793	0.051
793	0.051
794	0.05
794	0.05
794	0.049
795	0.049
795	0.05
796	0.05
796	0.049
797	0.049
797	0.049
797	0.049
798	0.05
798	0.05
799	0.051
799	0.051
800	0.051
800	0.05
801	0.05
801	0.051
801	0.051
802	0.051
802	0.051
803	0.051
803	0.052
804	0.052
804	0.053
804	0.053
805	0.053
805	0.053
806	0.053
806	0.053
807	0.053
807	0.053
807	0.053
808	0.053
808	0.053
809	0.052
809	0.052
810	0.052
810	0.052
810	0.052
811	0.051
811	0.052
812	0.052
812	0.052
813	0.051
813	0.051
813	0.052
814	0.052
814	0.052
815	0.053
815	0.053
816	0.053
816	0.052
817	0.052
817	0.052
817	0.052
818	0.051
818	0.051
819	0.05
819	0.049
820	0.048
820	0.048
820	0.047
821	0.047
821	0.047
822	0.046
822	0.046
823	0.046
823	0.046
823	0.047
824	0.048
824	0.049
825	0.05
825	0.05
826	0.051
826	0.051
826	0.051
827	0.051
827	0.051
828	0.051
828	0.051
829	0.05
829	0.05
829	0.05
830	0.05
830	0.05
831	0.051
831	0.051
832	0.051
832	0.051
832	0.052
833	0.052
833	0.052
834	0.052
834	0.052
835	0.052
835	0.053
835	0.053
836	0.053
836	0.054
837	0.054
837	0.054
838	0.054
838	0.054
839	0.053
839	0.053
839	0.052
840	0.05
840	0.049
841	0.047
841	0.046
842	0.045
842	0.043
842	0.042
843	0.042
843	0.041
844	0.041
844	0.041
845	0.041
845	0.041
845	0.041
846	0.041
846	0.042
847	0.042
847	0.043
848	0.044
848	0.044
848	0.045
849	0.046
849	0.047
850	0.047
850	0.048
851	0.048
851	0.049
851	0.048
852	0.048
852	0.047
853	0.046
853	0.046
854	0.045
854	0.045
854	0.045
855	0.045
855	0.045
856	0.045
856	0.045
857	0.046
857	0.046
857	0.045
858	0.045
858	0.044
859	0.043
859	0.042
860	0.041
860	0.04
860	0.039
861	0.038
861	0.037
862	0.036
862	0.035
863	0.035
863	0.034
863	0.034
864	0.034
864	0.035
865	0.035
865	0.036
866	0.036
866	0.036
866	0.037
867	0.037
867	0.038
868	0.038
868	0.038
869	0.038
869	0.038
869	0.038
870	0.038
870	0.038
871	0.038
871	0.038
872	0.039
872	0.039
872	0.039
873	0.04
873	0.04
874	0.04
874	0.04
875	0.04
875	0.04
875	0.04
876	0.04
876	0.04
877	0.04
877	0.04
878	0.041
878	0.042
878	0.043
879	0.044
879	0.044
880	0.045
880	0.045
881	0.045
881	0.045
881	0.045
882	0.044
882	0.044
883	0.043
883	0.042
884	0.042
884	0.041
884	0.04
885	0.04
885	0.039
886	0.039
886	0.039
887	0.038
887	0.038
887	0.037
888	0.037
888	0.036
889	0.036
889	0.035
890	0.035
890	0.035
890	0.034
891	0.034
891	0.034
892	0.034
892	0.034
893	0.035
893	0.035
893	0.035
894	0.035
894	0.036
895	0.036
895	0.036
895	0.036
896	0.036
896	0.036
897	0.036
897	0.036
898	0.036
898	0.036
898	0.037
899	0.037
899	0.037
900	0.037
900	0.038
901	0.038
901	0.038
901	0.039
902	0.039
902	0.039
903	0.039
903	0.039
904	0.039
904	0.04
904	0.039
905	0.039
905	0.04
906	0.04
906	0.04
907	0.041
907	0.041
907	0.042
908	0.042
908	0.043
909	0.043
909	0.043
910	0.043
910	0.043
910	0.043
911	0.042
911	0.042
912	0.041
912	0.041
913	0.04
913	0.039
913	0.039
914	0.038
914	0.038
915	0.037
915	0.037
916	0.037
916	0.036
916	0.036
917	0.035
917	0.035
918	0.034
918	0.033
918	0.033
919	0.033
919	0.032
920	0.033
920	0.032
921	0.033
921	0.033
921	0.033
922	0.034
922	0.034
923	0.035
923	0.035
924	0.036
924	0.036
924	0.037
925	0.037
925	0.038
926	0.038
926	0.038
927	0.038
927	0.038
927	0.038
928	0.038
928	0.038
929	0.038
929	0.038
930	0.038
930	0.038
930	0.038
931	0.038
931	0.039
932	0.039
932	0.04
933	0.04
933	0.041
933	0.041
934	0.041
934	0.041
935	0.041
935	0.041
935	0.041
936	0.041
936	0.04
937	0.04
937	0.04
938	0.039
938	0.039
938	0.039
939	0.038
939	0.038
940	0.038
940	0.038
941	0.038
941	0.038
941	0.038
942	0.038
942	0.038
943	0.038
943	0.038
944	0.038
944	0.038
944	0.038
945	0.038
945	0.037
946	0.037
946	0.037
946	0.036
947	0.036
947	0.036
948	0.036
948	0.036
949	0.035
949	0.035
949	0.036
950	0.036
950	0.036
951	0.036
951	0.036
952	0.036
952	0.036
952	0.036
953	0.036
953	0.036
954	0.036
954	0.036
955	0.036
955	0.036
955	0.036
956	0.036
956	0.037
957	0.038
957	0.038
957	0.039
958	0.039
958	0.04
959	0.04
959	0.041
960	0.041
960	0.041
960	0.041
961	0.041
961	0.041
962	0.04
962	0.04
963	0.04
963	0.04
963	0.04
964	0.04
964	0.04
965	0.04
965	0.041
966	0.041
966	0.041
966	0.041
967	0.042
967	0.042
968	0.042
968	0.042
968	0.042
969	0.042
969	0.042
970	0.042
970	0.041
971	0.041
971	0.041
971	0.04
972	0.04
972	0.039
973	0.039
973	0.038
974	0.037
974	0.037
974	0.037
975	0.037
975	0.036
976	0.036
976	0.036
976	0.036
977	0.036
977	0.036
978	0.036
978	0.035
979	0.035
979	0.035
979	0.035
980	0.034
980	0.034
981	0.033
981	0.033
982	0.033
982	0.032
982	0.032
983	0.032
983	0.032
984	0.032
984	0.031
984	0.031
985	0.031
985	0.031
986	0.031
986	0.03
987	0.03
987	0.03
987	0.03
988	0.029
988	0.029
989	0.028
989	0.028
990	0.027
990	0.027
990	0.027
991	0.027
991	0.027
992	0.026
992	0.026
992	0.026
993	0.025
993	0.025
994	0.025
994	0.025
995	0.024
995	0.024
995	0.024
996	0.025
996	0.025
997	0.026
997	0.026
997	0.027
998	0.028
998	0.029
999	0.031
999	0.032
1000	0.033
1000	0.033
1000	0.034
1001	0.034
1001	0.034
1002	0.034
1002	0.034
1003	0.034
1003	0.034
1003	0.033
1004	0.033
1004	0.032
1005	0.032
1005	0.032
1005	0.032
1006	0.032
1006	0.032
1007	0.032
1007	0.032
1008	0.032
1008	0.033
1008	0.033
1009	0.033
1009	0.034
1010	0.034
1010	0.034
1010	0.034
1011	0.034
1011	0.034
1012	0.033
1012	0.033
1013	0.033
1013	0.032
1013	0.032
1014	0.031
1014	0.031
1015	0.03
1015	0.03
1016	0.03
1016	0.029
1016	0.029
1017	0.028
1017	0.028
1018	0.028
1018	0.027
1018	0.027
1019	0.027
1019	0.026
1020	0.026
1020	0.026
1021	0.026
1021	0.026
1021	0.026
1022	0.026
1022	0.027
1023	0.027
1023	0.027
1023	0.028
1024	0.028
1024	0.028
1025	0.028
1025	0.028
1026	0.028
1026	0.028
1026	0.028
1027	0.028
1027	0.028
1028	0.028
1028	0.027
1028	0.027
1029	0.027
1029	0.027
1030	0.027
1030	0.026
1031	0.027
1031	0.026
1031	0.026
1032	0.026
1032	0.026
1033	0.026
1033	0.026
1033	0.026
1034	0.026
1034	0.026
1035	0.026
1035	0.025
1036	0.025
1036	0.026
1036	0.026
1037	0.026
1037	0.026
1038	0.026
1038	0.027
1039	0.027
1039	0.028
1039	0.028
1040	0.029
1040	0.029
1041	0.029
1041	0.029
1041	0.03
1042	0.03
1042	0.03
1043	0.03
1043	0.03
1044	0.03
1044	0.03
1044	0.031
1045	0.031
1045	0.031
1046	0.032
1046	0.032
1046	0.032
1047	0.033
1047	0.033
1048	0.033
1048	0.034
1049	0.034
1049	0.035
1049	0.035
1050	0.034
1050	0.034
1051	0.033
1051	0.033
1051	0.032
1052	0.032
1052	0.031
1053	0.03
1053	0.029
1053	0.028
1054	0.028
1054	0.027
1055	0.027
1055	0.027
1056	0.027
1056	0.026
1056	0.025
1057	0.025
1057	0.025
1058	0.024
1058	0.023
1058	0.022
1059	0.022
1059	0.021
1060	0.021
1060	0.02
1061	0.02
1061	0.019
1061	0.019
1062	0.019
1062	0.019
1063	0.019
1063	0.019
1063	0.019
1064	0.019
1064	0.019
1065	0.02
1065	0.02
1066	0.02
1066	0.02
1066	0.02
1067	0.02
1067	0.02
1068	0.02
1068	0.019
1068	0.019
1069	0.019
1069	0.018
1070	0.017
1070	0.017
1071	0.016
1071	0.015
1071	0.015
1072	0.014
1072	0.014
1073	0.013
1073	0.012
1073	0.012
1074	0.013
1074	0.013
1075	0.013
1075	0.014
1076	0.014
1076	0.015
1076	0.015
1077	0.016
1077	0.017
1078	0.017
1078	0.017
1078	0.017
1079	0.017
1079	0.017
1080	0.016
1080	0.017
1080	0.016
1081	0.016
1081	0.016
1082	0.016
1082	0.017
1083	0.017
1083	0.016
1083	0.017
1084	0.017
1084	0.017
1085	0.017
1085	0.017
1085	0.018
1086	0.018
1086	0.017
1087	0.017
1087	0.016
1088	0.017
1088	0.017
1088	0.017
1089	0.016
1089	0.016
1090	0.015
1090	0.015
1090	0.014
1091	0.014
1091	0.014
1092	0.014
1092	0.015
1092	0.014
1093	0.013
1093	0.014
1094	0.014
1094	0.014
1095	0.014
1095	0.014
1095	0.014
1096	0.014
1096	0.013
1097	0.013
1097	0.012
1097	0.012
1098	0.012
1098	0.011
1099	0.01
1099	0.01
1100	0.009
1100	0.008
1100	0.007
1101	0.006
1101	0.005
1102	0.005
1102	0.004
1102	0.002
1103	0.002
1103	0.001
1104	0
1104	-0
1104	-0
1105	-0.002
1105	-0.003
1106	-0.004
1106	-0.005
1107	-0.006
1107	-0.007
1107	-0.008
1108	-0.009
1108	-0.01
1109	-0.012
1109	-0.013
1109	-0.013
1110	-0.011
1110	-0.012
1111	-0.013
1111	-0.019
