Data from reversibility-20sec_Absorbance__5552__000000000005552.txt Node

Date: Wed Dec 06 19:03:45 CET 2023
User: Marek
Spectrometer: MAYP115816
Trigger mode: 0
Integration Time (sec): 2.000000E-1
Scans to average: 10
Electric dark correction enabled: true
Nonlinearity correction enabled: true
Boxcar width: 5
XAxis mode: Wavelengths
Number of Pixels in Spectrum: 2068
>>>>>Begin Spectral Data<<<<<
199	-0.172
199	-0.151
200	-0.09
200	-0.033
201	-0.005
201	0.013
202	0.026
202	0.033
203	0.04
203	0.044
204	0.057
204	0.067
205	0.082
205	0.092
205	0.09
206	0.09
206	0.091
207	0.092
207	0.095
208	0.093
208	0.096
209	0.096
209	0.094
210	0.092
210	0.091
211	0.094
211	0.093
212	0.089
212	0.089
213	0.09
213	0.092
213	0.089
214	0.094
214	0.096
215	0.098
215	0.096
216	0.095
216	0.095
217	0.101
217	0.104
218	0.103
218	0.109
219	0.115
219	0.114
220	0.12
220	0.118
221	0.12
221	0.122
221	0.128
222	0.132
222	0.134
223	0.138
223	0.141
224	0.144
224	0.151
225	0.158
225	0.17
226	0.181
226	0.19
227	0.202
227	0.214
228	0.229
228	0.244
229	0.26
229	0.285
229	0.31
230	0.334
230	0.364
231	0.396
231	0.434
232	0.469
232	0.511
233	0.554
233	0.604
234	0.655
234	0.706
235	0.757
235	0.812
236	0.863
236	0.915
236	0.968
237	1.02
237	1.067
238	1.113
238	1.161
239	1.208
239	1.251
240	1.291
240	1.326
241	1.36
241	1.395
242	1.425
242	1.459
243	1.489
243	1.517
243	1.541
244	1.562
244	1.582
245	1.602
245	1.626
246	1.643
246	1.661
247	1.677
247	1.689
248	1.703
248	1.717
249	1.728
249	1.736
250	1.745
250	1.754
250	1.758
251	1.765
251	1.768
252	1.773
252	1.774
253	1.778
253	1.776
254	1.775
254	1.776
255	1.774
255	1.773
256	1.771
256	1.769
257	1.768
257	1.767
258	1.766
258	1.765
258	1.766
259	1.766
259	1.766
260	1.766
260	1.767
261	1.769
261	1.772
262	1.775
262	1.776
263	1.78
263	1.781
264	1.781
264	1.782
265	1.784
265	1.785
265	1.786
266	1.786
266	1.785
267	1.781
267	1.782
268	1.781
268	1.781
269	1.782
269	1.781
270	1.779
270	1.778
271	1.776
271	1.775
272	1.772
272	1.771
272	1.768
273	1.762
273	1.756
274	1.75
274	1.745
275	1.739
275	1.733
276	1.726
276	1.719
277	1.712
277	1.702
278	1.692
278	1.68
278	1.665
279	1.65
279	1.63
280	1.606
280	1.576
281	1.542
281	1.503
282	1.462
282	1.42
283	1.379
283	1.339
284	1.301
284	1.263
285	1.227
285	1.194
285	1.165
286	1.14
286	1.118
287	1.098
287	1.082
288	1.068
288	1.056
289	1.046
289	1.037
290	1.029
290	1.022
291	1.017
291	1.011
292	1.006
292	1.002
292	0.997
293	0.993
293	0.99
294	0.986
294	0.983
295	0.98
295	0.977
296	0.974
296	0.971
297	0.968
297	0.965
298	0.962
298	0.96
298	0.957
299	0.954
299	0.951
300	0.948
300	0.946
301	0.943
301	0.941
302	0.938
302	0.936
303	0.933
303	0.931
304	0.929
304	0.926
305	0.924
305	0.921
305	0.919
306	0.916
306	0.914
307	0.912
307	0.909
308	0.907
308	0.904
309	0.901
309	0.899
310	0.895
310	0.893
311	0.89
311	0.887
311	0.883
312	0.88
312	0.876
313	0.873
313	0.869
314	0.866
314	0.862
315	0.858
315	0.854
316	0.849
316	0.845
317	0.84
317	0.836
318	0.831
318	0.826
318	0.82
319	0.815
319	0.81
320	0.804
320	0.798
321	0.792
321	0.786
322	0.78
322	0.774
323	0.768
323	0.761
324	0.755
324	0.748
324	0.741
325	0.735
325	0.728
326	0.721
326	0.715
327	0.708
327	0.701
328	0.694
328	0.688
329	0.681
329	0.674
330	0.667
330	0.66
330	0.653
331	0.646
331	0.639
332	0.632
332	0.625
333	0.618
333	0.612
334	0.605
334	0.598
335	0.591
335	0.585
336	0.578
336	0.572
336	0.565
337	0.559
337	0.553
338	0.546
338	0.54
339	0.534
339	0.528
340	0.523
340	0.517
341	0.511
341	0.506
342	0.5
342	0.495
342	0.489
343	0.484
343	0.479
344	0.474
344	0.47
345	0.465
345	0.46
346	0.456
346	0.451
347	0.447
347	0.443
348	0.439
348	0.435
348	0.432
349	0.428
349	0.424
350	0.421
350	0.417
351	0.414
351	0.411
352	0.408
352	0.404
353	0.401
353	0.399
354	0.396
354	0.393
354	0.39
355	0.387
355	0.384
356	0.381
356	0.378
357	0.375
357	0.372
358	0.369
358	0.367
359	0.364
359	0.362
360	0.36
360	0.358
360	0.357
361	0.355
361	0.353
362	0.352
362	0.35
363	0.348
363	0.346
364	0.344
364	0.342
365	0.34
365	0.339
366	0.337
366	0.335
366	0.334
367	0.332
367	0.33
368	0.329
368	0.327
369	0.326
369	0.325
370	0.323
370	0.322
371	0.32
371	0.319
372	0.318
372	0.317
372	0.315
373	0.315
373	0.313
374	0.313
374	0.311
375	0.31
375	0.309
376	0.309
376	0.308
377	0.307
377	0.306
378	0.305
378	0.304
378	0.303
379	0.302
379	0.302
380	0.301
380	0.301
381	0.3
381	0.299
382	0.299
382	0.298
383	0.298
383	0.297
383	0.296
384	0.296
384	0.295
385	0.295
385	0.294
386	0.294
386	0.293
387	0.293
387	0.292
388	0.292
388	0.291
389	0.291
389	0.29
389	0.29
390	0.29
390	0.289
391	0.289
391	0.288
392	0.288
392	0.288
393	0.287
393	0.287
394	0.286
394	0.286
394	0.286
395	0.285
395	0.285
396	0.284
396	0.284
397	0.283
397	0.283
398	0.283
398	0.282
399	0.282
399	0.282
400	0.281
400	0.281
400	0.281
401	0.281
401	0.28
402	0.28
402	0.28
403	0.28
403	0.279
404	0.279
404	0.279
405	0.279
405	0.278
405	0.278
406	0.278
406	0.277
407	0.277
407	0.276
408	0.276
408	0.276
409	0.275
409	0.275
410	0.275
410	0.274
411	0.274
411	0.274
411	0.274
412	0.273
412	0.273
413	0.273
413	0.273
414	0.272
414	0.272
415	0.271
415	0.271
416	0.271
416	0.27
416	0.27
417	0.27
417	0.27
418	0.269
418	0.269
419	0.269
419	0.268
420	0.268
420	0.268
421	0.267
421	0.267
421	0.266
422	0.266
422	0.266
423	0.265
423	0.265
424	0.265
424	0.264
425	0.264
425	0.264
426	0.264
426	0.263
427	0.263
427	0.263
427	0.262
428	0.262
428	0.261
429	0.261
429	0.261
430	0.261
430	0.26
431	0.26
431	0.26
432	0.26
432	0.26
432	0.259
433	0.259
433	0.259
434	0.259
434	0.259
435	0.259
435	0.258
436	0.258
436	0.258
437	0.258
437	0.257
437	0.257
438	0.257
438	0.257
439	0.256
439	0.256
440	0.256
440	0.256
441	0.256
441	0.256
442	0.256
442	0.256
442	0.255
443	0.255
443	0.255
444	0.255
444	0.255
445	0.255
445	0.255
446	0.254
446	0.254
447	0.254
447	0.253
447	0.253
448	0.253
448	0.253
449	0.252
449	0.252
450	0.252
450	0.252
451	0.252
451	0.252
452	0.252
452	0.251
452	0.251
453	0.251
453	0.251
454	0.251
454	0.251
455	0.251
455	0.251
456	0.25
456	0.25
457	0.25
457	0.25
458	0.25
458	0.25
458	0.25
459	0.25
459	0.249
460	0.249
460	0.249
461	0.249
461	0.249
462	0.249
462	0.249
463	0.248
463	0.248
463	0.248
464	0.247
464	0.247
465	0.247
465	0.247
466	0.247
466	0.247
467	0.247
467	0.247
467	0.247
468	0.247
468	0.248
469	0.248
469	0.248
470	0.248
470	0.248
471	0.249
471	0.249
472	0.249
472	0.249
472	0.249
473	0.249
473	0.249
474	0.249
474	0.25
475	0.25
475	0.25
476	0.25
476	0.25
477	0.25
477	0.25
477	0.25
478	0.25
478	0.25
479	0.251
479	0.251
480	0.251
480	0.251
481	0.251
481	0.251
482	0.251
482	0.252
482	0.252
483	0.252
483	0.253
484	0.253
484	0.253
485	0.253
485	0.254
486	0.254
486	0.254
487	0.255
487	0.255
487	0.256
488	0.256
488	0.256
489	0.256
489	0.258
490	0.258
490	0.259
491	0.26
491	0.26
492	0.261
492	0.261
492	0.262
493	0.263
493	0.264
494	0.264
494	0.265
495	0.266
495	0.266
496	0.267
496	0.268
496	0.269
497	0.269
497	0.27
498	0.27
498	0.271
499	0.272
499	0.273
500	0.273
500	0.274
501	0.275
501	0.275
501	0.276
502	0.277
502	0.277
503	0.278
503	0.279
504	0.279
504	0.28
505	0.28
505	0.281
506	0.282
506	0.282
506	0.283
507	0.284
507	0.284
508	0.285
508	0.286
509	0.286
509	0.287
510	0.288
510	0.288
511	0.289
511	0.29
511	0.291
512	0.292
512	0.292
513	0.293
513	0.293
514	0.294
514	0.294
515	0.295
515	0.295
515	0.295
516	0.296
516	0.296
517	0.297
517	0.297
518	0.298
518	0.298
519	0.298
519	0.298
520	0.298
520	0.299
520	0.299
521	0.299
521	0.299
522	0.299
522	0.299
523	0.3
523	0.3
524	0.3
524	0.3
524	0.3
525	0.3
525	0.3
526	0.3
526	0.3
527	0.3
527	0.3
528	0.3
528	0.3
529	0.299
529	0.299
529	0.298
530	0.298
530	0.298
531	0.297
531	0.297
532	0.296
532	0.295
533	0.295
533	0.294
533	0.293
534	0.293
534	0.292
535	0.292
535	0.292
536	0.291
536	0.291
537	0.29
537	0.29
538	0.289
538	0.289
538	0.288
539	0.288
539	0.287
540	0.286
540	0.285
541	0.284
541	0.283
542	0.283
542	0.282
542	0.281
543	0.28
543	0.279
544	0.278
544	0.277
545	0.277
545	0.276
546	0.275
546	0.274
547	0.273
547	0.272
547	0.272
548	0.271
548	0.27
549	0.269
549	0.269
550	0.268
550	0.267
551	0.266
551	0.265
551	0.264
552	0.263
552	0.262
553	0.261
553	0.26
554	0.259
554	0.258
555	0.256
555	0.255
556	0.254
556	0.253
556	0.253
557	0.252
557	0.252
558	0.251
558	0.25
559	0.25
559	0.249
560	0.249
560	0.248
560	0.247
561	0.247
561	0.246
562	0.245
562	0.244
563	0.243
563	0.242
564	0.24
564	0.24
564	0.239
565	0.238
565	0.238
566	0.237
566	0.236
567	0.236
567	0.235
568	0.235
568	0.234
568	0.233
569	0.233
569	0.232
570	0.23
570	0.229
571	0.228
571	0.227
572	0.226
572	0.225
573	0.225
573	0.224
573	0.223
574	0.222
574	0.222
575	0.221
575	0.221
576	0.221
576	0.22
577	0.219
577	0.218
577	0.218
578	0.217
578	0.217
579	0.216
579	0.216
580	0.215
580	0.214
581	0.213
581	0.213
581	0.212
582	0.212
582	0.212
583	0.212
583	0.212
584	0.211
584	0.209
585	0.209
585	0.209
585	0.208
586	0.208
586	0.207
587	0.206
587	0.205
588	0.204
588	0.203
589	0.203
589	0.203
590	0.202
590	0.202
590	0.202
591	0.202
591	0.202
592	0.201
592	0.2
593	0.2
593	0.2
594	0.199
594	0.198
594	0.197
595	0.197
595	0.196
596	0.195
596	0.195
597	0.196
597	0.196
598	0.195
598	0.195
598	0.195
599	0.195
599	0.194
600	0.194
600	0.193
601	0.193
601	0.193
602	0.192
602	0.191
602	0.191
603	0.19
603	0.19
604	0.19
604	0.19
605	0.19
605	0.19
606	0.189
606	0.189
606	0.188
607	0.188
607	0.188
608	0.187
608	0.187
609	0.186
609	0.186
610	0.185
610	0.185
610	0.185
611	0.184
611	0.184
612	0.184
612	0.184
613	0.184
613	0.183
614	0.183
614	0.182
614	0.182
615	0.182
615	0.182
616	0.182
616	0.182
617	0.182
617	0.182
618	0.181
618	0.181
618	0.182
619	0.182
619	0.182
620	0.182
620	0.182
621	0.182
621	0.181
622	0.181
622	0.18
622	0.18
623	0.179
623	0.179
624	0.178
624	0.177
625	0.176
625	0.176
626	0.176
626	0.175
626	0.175
627	0.175
627	0.175
628	0.174
628	0.174
629	0.173
629	0.173
630	0.172
630	0.172
630	0.172
631	0.172
631	0.172
632	0.171
632	0.171
633	0.171
633	0.171
634	0.172
634	0.172
634	0.172
635	0.172
635	0.172
636	0.172
636	0.172
637	0.171
637	0.171
638	0.17
638	0.17
638	0.17
639	0.169
639	0.169
640	0.169
640	0.169
641	0.169
641	0.168
642	0.168
642	0.168
642	0.169
643	0.169
643	0.169
644	0.169
644	0.169
645	0.168
645	0.168
646	0.168
646	0.168
646	0.168
647	0.168
647	0.167
648	0.167
648	0.166
649	0.166
649	0.166
650	0.166
650	0.165
650	0.165
651	0.165
651	0.165
652	0.165
652	0.165
653	0.166
653	0.167
653	0.174
654	0.137
654	0.11
655	0.11
655	0.11
656	0.111
656	0.111
657	0.112
657	0.112
657	0.112
658	0.111
658	0.101
659	0.127
659	0.163
660	0.168
660	0.168
661	0.167
661	0.167
661	0.166
662	0.166
662	0.165
663	0.165
663	0.164
664	0.164
664	0.163
665	0.163
665	0.163
665	0.163
666	0.163
666	0.163
667	0.163
667	0.163
668	0.164
668	0.164
669	0.165
669	0.165
669	0.166
670	0.167
670	0.167
671	0.167
671	0.167
672	0.167
672	0.167
672	0.166
673	0.166
673	0.166
674	0.165
674	0.165
675	0.164
675	0.164
676	0.164
676	0.164
676	0.164
677	0.164
677	0.164
678	0.164
678	0.163
679	0.163
679	0.163
680	0.163
680	0.163
680	0.163
681	0.163
681	0.164
682	0.164
682	0.164
683	0.164
683	0.165
684	0.165
684	0.164
684	0.164
685	0.164
685	0.164
686	0.164
686	0.164
687	0.164
687	0.164
687	0.164
688	0.163
688	0.164
689	0.164
689	0.165
690	0.165
690	0.164
691	0.164
691	0.165
691	0.165
692	0.165
692	0.165
693	0.165
693	0.165
694	0.165
694	0.164
695	0.165
695	0.166
695	0.166
696	0.166
696	0.165
697	0.166
697	0.165
698	0.165
698	0.164
698	0.164
699	0.164
699	0.164
700	0.163
700	0.163
701	0.164
701	0.164
702	0.164
702	0.164
702	0.165
703	0.165
703	0.165
704	0.165
704	0.165
705	0.166
705	0.165
705	0.165
706	0.165
706	0.166
707	0.166
707	0.166
708	0.166
708	0.166
709	0.166
709	0.166
709	0.166
710	0.166
710	0.166
711	0.166
711	0.166
712	0.165
712	0.165
713	0.165
713	0.165
713	0.165
714	0.165
714	0.165
715	0.165
715	0.165
716	0.165
716	0.165
716	0.165
717	0.164
717	0.164
718	0.164
718	0.163
719	0.164
719	0.164
720	0.165
720	0.165
720	0.166
721	0.166
721	0.167
722	0.167
722	0.168
723	0.168
723	0.169
723	0.169
724	0.169
724	0.168
725	0.168
725	0.167
726	0.166
726	0.166
727	0.165
727	0.165
727	0.164
728	0.164
728	0.163
729	0.163
729	0.163
730	0.163
730	0.163
730	0.164
731	0.165
731	0.165
732	0.166
732	0.166
733	0.166
733	0.167
734	0.167
734	0.167
734	0.168
735	0.169
735	0.169
736	0.169
736	0.169
737	0.169
737	0.17
737	0.17
738	0.169
738	0.169
739	0.169
739	0.168
740	0.168
740	0.168
741	0.168
741	0.168
741	0.168
742	0.167
742	0.168
743	0.169
743	0.169
744	0.17
744	0.171
744	0.171
745	0.172
745	0.172
746	0.172
746	0.173
747	0.173
747	0.173
748	0.173
748	0.173
748	0.172
749	0.172
749	0.172
750	0.172
750	0.171
751	0.171
751	0.171
751	0.171
752	0.17
752	0.17
753	0.169
753	0.169
754	0.168
754	0.168
754	0.168
755	0.168
755	0.168
756	0.168
756	0.167
757	0.167
757	0.167
758	0.167
758	0.167
758	0.168
759	0.168
759	0.168
760	0.169
760	0.169
761	0.169
761	0.17
761	0.171
762	0.17
762	0.171
763	0.171
763	0.17
764	0.17
764	0.17
764	0.169
765	0.169
765	0.169
766	0.169
766	0.168
767	0.168
767	0.167
768	0.167
768	0.167
768	0.167
769	0.167
769	0.168
770	0.168
770	0.168
771	0.169
771	0.17
771	0.17
772	0.171
772	0.172
773	0.172
773	0.173
774	0.173
774	0.174
775	0.174
775	0.175
775	0.175
776	0.175
776	0.175
777	0.176
777	0.176
778	0.176
778	0.175
778	0.175
779	0.175
779	0.175
780	0.174
780	0.173
781	0.173
781	0.173
781	0.173
782	0.173
782	0.173
783	0.174
783	0.174
784	0.175
784	0.175
784	0.176
785	0.177
785	0.177
786	0.177
786	0.177
787	0.178
787	0.177
788	0.176
788	0.175
788	0.174
789	0.173
789	0.173
790	0.172
790	0.171
791	0.17
791	0.17
791	0.169
792	0.17
792	0.17
793	0.17
793	0.17
794	0.17
794	0.17
794	0.17
795	0.171
795	0.171
796	0.172
796	0.172
797	0.172
797	0.172
797	0.172
798	0.173
798	0.173
799	0.173
799	0.172
800	0.172
800	0.172
801	0.171
801	0.171
801	0.171
802	0.171
802	0.171
803	0.171
803	0.171
804	0.171
804	0.172
804	0.172
805	0.172
805	0.171
806	0.171
806	0.171
807	0.17
807	0.17
807	0.17
808	0.17
808	0.17
809	0.17
809	0.17
810	0.171
810	0.171
810	0.171
811	0.171
811	0.172
812	0.173
812	0.173
813	0.173
813	0.173
813	0.174
814	0.174
814	0.175
815	0.175
815	0.175
816	0.175
816	0.175
817	0.174
817	0.174
817	0.173
818	0.173
818	0.173
819	0.172
819	0.171
820	0.17
820	0.17
820	0.169
821	0.169
821	0.17
822	0.17
822	0.17
823	0.17
823	0.169
823	0.17
824	0.171
824	0.171
825	0.172
825	0.173
826	0.173
826	0.172
826	0.173
827	0.173
827	0.173
828	0.173
828	0.173
829	0.173
829	0.173
829	0.172
830	0.172
830	0.173
831	0.173
831	0.173
832	0.173
832	0.173
832	0.173
833	0.173
833	0.173
834	0.173
834	0.172
835	0.172
835	0.172
835	0.172
836	0.171
836	0.171
837	0.171
837	0.171
838	0.17
838	0.17
839	0.169
839	0.168
839	0.168
840	0.166
840	0.165
841	0.164
841	0.163
842	0.162
842	0.161
842	0.16
843	0.159
843	0.158
844	0.157
844	0.156
845	0.155
845	0.154
845	0.154
846	0.153
846	0.153
847	0.153
847	0.153
848	0.154
848	0.155
848	0.156
849	0.157
849	0.158
850	0.159
850	0.159
851	0.16
851	0.16
851	0.16
852	0.16
852	0.159
853	0.158
853	0.158
854	0.157
854	0.157
854	0.158
855	0.158
855	0.158
856	0.158
856	0.158
857	0.159
857	0.159
857	0.16
858	0.16
858	0.16
859	0.159
859	0.159
860	0.158
860	0.157
860	0.156
861	0.155
861	0.154
862	0.153
862	0.152
863	0.152
863	0.151
863	0.151
864	0.151
864	0.151
865	0.151
865	0.152
866	0.152
866	0.151
866	0.152
867	0.152
867	0.153
868	0.153
868	0.154
869	0.154
869	0.154
869	0.154
870	0.154
870	0.154
871	0.155
871	0.155
872	0.155
872	0.154
872	0.154
873	0.154
873	0.153
874	0.152
874	0.151
875	0.15
875	0.15
875	0.149
876	0.148
876	0.147
877	0.147
877	0.146
878	0.146
878	0.146
878	0.146
879	0.146
879	0.146
880	0.147
880	0.147
881	0.147
881	0.148
881	0.148
882	0.147
882	0.147
883	0.147
883	0.147
884	0.147
884	0.147
884	0.146
885	0.146
885	0.145
886	0.144
886	0.143
887	0.143
887	0.142
887	0.141
888	0.14
888	0.139
889	0.138
889	0.138
890	0.138
890	0.138
890	0.138
891	0.137
891	0.137
892	0.137
892	0.137
893	0.137
893	0.137
893	0.137
894	0.137
894	0.136
895	0.136
895	0.136
895	0.136
896	0.137
896	0.137
897	0.137
897	0.137
898	0.137
898	0.137
898	0.137
899	0.136
899	0.136
900	0.135
900	0.135
901	0.134
901	0.134
901	0.133
902	0.132
902	0.132
903	0.131
903	0.131
904	0.13
904	0.13
904	0.13
905	0.129
905	0.129
906	0.129
906	0.129
907	0.129
907	0.129
907	0.129
908	0.129
908	0.129
909	0.129
909	0.128
910	0.128
910	0.128
910	0.127
911	0.127
911	0.126
912	0.126
912	0.125
913	0.125
913	0.125
913	0.125
914	0.125
914	0.126
915	0.126
915	0.126
916	0.127
916	0.127
916	0.126
917	0.126
917	0.126
918	0.125
918	0.125
918	0.125
919	0.124
919	0.124
920	0.124
920	0.124
921	0.124
921	0.124
921	0.123
922	0.123
922	0.124
923	0.124
923	0.124
924	0.124
924	0.124
924	0.124
925	0.125
925	0.125
926	0.125
926	0.125
927	0.126
927	0.126
927	0.126
928	0.126
928	0.125
929	0.125
929	0.125
930	0.124
930	0.123
930	0.123
931	0.122
931	0.121
932	0.121
932	0.12
933	0.12
933	0.119
933	0.118
934	0.118
934	0.117
935	0.117
935	0.116
935	0.116
936	0.116
936	0.115
937	0.115
937	0.115
938	0.115
938	0.114
938	0.114
939	0.113
939	0.113
940	0.112
940	0.112
941	0.112
941	0.112
941	0.112
942	0.112
942	0.112
943	0.112
943	0.112
944	0.112
944	0.112
944	0.112
945	0.112
945	0.112
946	0.112
946	0.112
946	0.112
947	0.112
947	0.112
948	0.112
948	0.112
949	0.111
949	0.111
949	0.111
950	0.11
950	0.11
951	0.11
951	0.109
952	0.109
952	0.108
952	0.108
953	0.108
953	0.108
954	0.107
954	0.107
955	0.107
955	0.107
955	0.106
956	0.107
956	0.107
957	0.107
957	0.107
957	0.107
958	0.107
958	0.107
959	0.107
959	0.107
960	0.106
960	0.106
960	0.106
961	0.105
961	0.105
962	0.105
962	0.105
963	0.105
963	0.104
963	0.105
964	0.105
964	0.105
965	0.105
965	0.105
966	0.105
966	0.105
966	0.105
967	0.105
967	0.105
968	0.105
968	0.104
968	0.104
969	0.103
969	0.103
970	0.102
970	0.102
971	0.101
971	0.101
971	0.1
972	0.099
972	0.099
973	0.098
973	0.098
974	0.098
974	0.098
974	0.098
975	0.098
975	0.098
976	0.099
976	0.099
976	0.099
977	0.099
977	0.099
978	0.099
978	0.098
979	0.098
979	0.098
979	0.098
980	0.097
980	0.097
981	0.096
981	0.095
982	0.095
982	0.095
982	0.095
983	0.095
983	0.094
984	0.094
984	0.094
984	0.094
985	0.094
985	0.094
986	0.094
986	0.094
987	0.093
987	0.093
987	0.093
988	0.092
988	0.092
989	0.092
989	0.091
990	0.091
990	0.091
990	0.091
991	0.09
991	0.09
992	0.089
992	0.089
992	0.088
993	0.088
993	0.087
994	0.086
994	0.086
995	0.085
995	0.085
995	0.085
996	0.085
996	0.085
997	0.085
997	0.086
997	0.087
998	0.087
998	0.088
999	0.089
999	0.09
1000	0.09
1000	0.091
1000	0.091
1001	0.091
1001	0.092
1002	0.091
1002	0.091
1003	0.091
1003	0.09
1003	0.089
1004	0.089
1004	0.088
1005	0.087
1005	0.087
1005	0.086
1006	0.085
1006	0.085
1007	0.085
1007	0.084
1008	0.084
1008	0.084
1008	0.084
1009	0.084
1009	0.085
1010	0.085
1010	0.085
1010	0.085
1011	0.085
1011	0.085
1012	0.086
1012	0.086
1013	0.086
1013	0.086
1013	0.085
1014	0.085
1014	0.085
1015	0.085
1015	0.085
1016	0.085
1016	0.085
1016	0.084
1017	0.083
1017	0.083
1018	0.083
1018	0.082
1018	0.082
1019	0.081
1019	0.08
1020	0.08
1020	0.079
1021	0.079
1021	0.079
1021	0.079
1022	0.079
1022	0.079
1023	0.079
1023	0.08
1023	0.08
1024	0.08
1024	0.08
1025	0.08
1025	0.08
1026	0.08
1026	0.08
1026	0.08
1027	0.08
1027	0.08
1028	0.08
1028	0.08
1028	0.08
1029	0.08
1029	0.08
1030	0.081
1030	0.081
1031	0.081
1031	0.081
1031	0.081
1032	0.081
1032	0.082
1033	0.082
1033	0.082
1033	0.082
1034	0.082
1034	0.082
1035	0.082
1035	0.082
1036	0.082
1036	0.082
1036	0.083
1037	0.083
1037	0.083
1038	0.083
1038	0.083
1039	0.083
1039	0.083
1039	0.083
1040	0.083
1040	0.083
1041	0.084
1041	0.084
1041	0.084
1042	0.084
1042	0.084
1043	0.084
1043	0.083
1044	0.083
1044	0.083
1044	0.083
1045	0.083
1045	0.083
1046	0.082
1046	0.082
1046	0.082
1047	0.082
1047	0.082
1048	0.082
1048	0.082
1049	0.082
1049	0.082
1049	0.082
1050	0.082
1050	0.081
1051	0.08
1051	0.08
1051	0.08
1052	0.079
1052	0.078
1053	0.077
1053	0.077
1053	0.076
1054	0.075
1054	0.075
1055	0.075
1055	0.074
1056	0.074
1056	0.073
1056	0.073
1057	0.072
1057	0.071
1058	0.071
1058	0.07
1058	0.069
1059	0.069
1059	0.068
1060	0.068
1060	0.067
1061	0.067
1061	0.066
1061	0.066
1062	0.066
1062	0.066
1063	0.066
1063	0.065
1063	0.065
1064	0.065
1064	0.065
1065	0.065
1065	0.064
1066	0.065
1066	0.064
1066	0.064
1067	0.064
1067	0.064
1068	0.064
1068	0.063
1068	0.063
1069	0.063
1069	0.062
1070	0.062
1070	0.061
1071	0.06
1071	0.059
1071	0.059
1072	0.058
1072	0.058
1073	0.057
1073	0.056
1073	0.056
1074	0.056
1074	0.056
1075	0.056
1075	0.056
1076	0.056
1076	0.057
1076	0.057
1077	0.057
1077	0.057
1078	0.057
1078	0.057
1078	0.057
1079	0.056
1079	0.056
1080	0.056
1080	0.056
1080	0.055
1081	0.055
1081	0.055
1082	0.055
1082	0.055
1083	0.054
1083	0.054
1083	0.054
1084	0.054
1084	0.055
1085	0.055
1085	0.054
1085	0.055
1086	0.055
1086	0.054
1087	0.055
1087	0.054
1088	0.054
1088	0.054
1088	0.054
1089	0.054
1089	0.053
1090	0.053
1090	0.052
1090	0.051
1091	0.051
1091	0.051
1092	0.051
1092	0.051
1092	0.051
1093	0.051
1093	0.052
1094	0.051
1094	0.051
1095	0.051
1095	0.051
1095	0.051
1096	0.05
1096	0.048
1097	0.048
1097	0.047
1097	0.047
1098	0.045
1098	0.044
1099	0.044
1099	0.042
1100	0.041
1100	0.039
1100	0.037
1101	0.036
1101	0.034
1102	0.033
1102	0.032
1102	0.031
1103	0.03
1103	0.03
1104	0.03
1104	0.029
1104	0.028
1105	0.027
1105	0.026
1106	0.025
1106	0.024
1107	0.023
1107	0.022
1107	0.021
1108	0.019
1108	0.018
1109	0.016
1109	0.015
1109	0.016
1110	0.017
1110	0.016
1111	0.017
1111	0.013
