Data from reversibility-20sec_Absorbance__3561__000000000003561.txt Node

Date: Wed Dec 06 08:00:07 CET 2023
User: Marek
Spectrometer: MAYP115816
Trigger mode: 0
Integration Time (sec): 2.000000E-1
Scans to average: 10
Electric dark correction enabled: true
Nonlinearity correction enabled: true
Boxcar width: 5
XAxis mode: Wavelengths
Number of Pixels in Spectrum: 2068
>>>>>Begin Spectral Data<<<<<
199	-0.166
199	-0.124
200	-0.056
200	-0.003
201	0.02
201	0.037
202	0.047
202	0.055
203	0.063
203	0.065
204	0.082
204	0.094
205	0.103
205	0.108
205	0.105
206	0.106
206	0.107
207	0.11
207	0.109
208	0.109
208	0.111
209	0.112
209	0.112
210	0.112
210	0.111
211	0.113
211	0.114
212	0.113
212	0.113
213	0.12
213	0.121
213	0.118
214	0.122
214	0.123
215	0.127
215	0.127
216	0.128
216	0.129
217	0.131
217	0.134
218	0.131
218	0.137
219	0.144
219	0.145
220	0.15
220	0.145
221	0.147
221	0.152
221	0.157
222	0.161
222	0.166
223	0.17
223	0.17
224	0.171
224	0.179
225	0.189
225	0.203
226	0.215
226	0.225
227	0.237
227	0.249
228	0.262
228	0.278
229	0.294
229	0.321
229	0.341
230	0.363
230	0.39
231	0.422
231	0.461
232	0.496
232	0.539
233	0.584
233	0.633
234	0.684
234	0.736
235	0.79
235	0.844
236	0.896
236	0.95
236	1
237	1.051
237	1.1
238	1.144
238	1.192
239	1.239
239	1.279
240	1.319
240	1.356
241	1.395
241	1.427
242	1.46
242	1.494
243	1.523
243	1.553
243	1.577
244	1.6
244	1.622
245	1.643
245	1.664
246	1.678
246	1.694
247	1.706
247	1.718
248	1.731
248	1.743
249	1.753
249	1.76
250	1.767
250	1.773
250	1.778
251	1.784
251	1.788
252	1.792
252	1.794
253	1.795
253	1.791
254	1.791
254	1.795
255	1.796
255	1.797
256	1.797
256	1.795
257	1.796
257	1.795
258	1.795
258	1.796
258	1.799
259	1.798
259	1.796
260	1.796
260	1.796
261	1.795
261	1.798
262	1.798
262	1.799
263	1.801
263	1.8
264	1.8
264	1.799
265	1.799
265	1.799
265	1.797
266	1.798
266	1.797
267	1.795
267	1.796
268	1.795
268	1.796
269	1.796
269	1.797
270	1.795
270	1.793
271	1.793
271	1.791
272	1.789
272	1.787
272	1.784
273	1.779
273	1.775
274	1.769
274	1.764
275	1.759
275	1.753
276	1.746
276	1.739
277	1.731
277	1.722
278	1.713
278	1.7
278	1.687
279	1.674
279	1.658
280	1.638
280	1.614
281	1.585
281	1.553
282	1.519
282	1.484
283	1.449
283	1.415
284	1.38
284	1.346
285	1.313
285	1.282
285	1.254
286	1.229
286	1.208
287	1.188
287	1.172
288	1.156
288	1.143
289	1.133
289	1.123
290	1.114
290	1.107
291	1.1
291	1.094
292	1.089
292	1.084
292	1.079
293	1.074
293	1.07
294	1.066
294	1.063
295	1.059
295	1.056
296	1.053
296	1.049
297	1.046
297	1.043
298	1.04
298	1.037
298	1.033
299	1.031
299	1.027
300	1.024
300	1.021
301	1.018
301	1.015
302	1.012
302	1.009
303	1.007
303	1.004
304	1.002
304	0.999
305	0.996
305	0.993
305	0.991
306	0.988
306	0.985
307	0.983
307	0.98
308	0.977
308	0.974
309	0.971
309	0.968
310	0.964
310	0.961
311	0.958
311	0.955
311	0.951
312	0.948
312	0.944
313	0.94
313	0.937
314	0.933
314	0.929
315	0.925
315	0.921
316	0.916
316	0.912
317	0.907
317	0.902
318	0.898
318	0.893
318	0.887
319	0.882
319	0.877
320	0.871
320	0.865
321	0.859
321	0.853
322	0.847
322	0.841
323	0.835
323	0.828
324	0.822
324	0.815
324	0.809
325	0.802
325	0.796
326	0.789
326	0.782
327	0.775
327	0.769
328	0.762
328	0.756
329	0.749
329	0.742
330	0.735
330	0.728
330	0.721
331	0.714
331	0.708
332	0.701
332	0.694
333	0.687
333	0.681
334	0.674
334	0.667
335	0.661
335	0.654
336	0.648
336	0.641
336	0.635
337	0.629
337	0.623
338	0.617
338	0.611
339	0.605
339	0.599
340	0.594
340	0.588
341	0.583
341	0.577
342	0.571
342	0.566
342	0.561
343	0.556
343	0.551
344	0.546
344	0.541
345	0.537
345	0.532
346	0.528
346	0.523
347	0.519
347	0.515
348	0.511
348	0.507
348	0.503
349	0.499
349	0.495
350	0.492
350	0.488
351	0.485
351	0.482
352	0.478
352	0.475
353	0.472
353	0.469
354	0.466
354	0.464
354	0.46
355	0.457
355	0.454
356	0.451
356	0.448
357	0.445
357	0.442
358	0.439
358	0.436
359	0.434
359	0.432
360	0.429
360	0.428
360	0.426
361	0.424
361	0.422
362	0.421
362	0.419
363	0.417
363	0.415
364	0.413
364	0.411
365	0.409
365	0.407
366	0.405
366	0.403
366	0.401
367	0.399
367	0.397
368	0.396
368	0.394
369	0.392
369	0.391
370	0.389
370	0.388
371	0.386
371	0.385
372	0.384
372	0.382
372	0.381
373	0.38
373	0.379
374	0.378
374	0.376
375	0.375
375	0.374
376	0.373
376	0.372
377	0.37
377	0.369
378	0.368
378	0.367
378	0.366
379	0.365
379	0.364
380	0.363
380	0.362
381	0.361
381	0.36
382	0.359
382	0.359
383	0.358
383	0.357
383	0.356
384	0.356
384	0.355
385	0.354
385	0.354
386	0.353
386	0.353
387	0.352
387	0.351
388	0.351
388	0.35
389	0.349
389	0.349
389	0.348
390	0.347
390	0.347
391	0.346
391	0.346
392	0.345
392	0.345
393	0.344
393	0.344
394	0.343
394	0.343
394	0.342
395	0.342
395	0.341
396	0.341
396	0.34
397	0.34
397	0.339
398	0.338
398	0.338
399	0.338
399	0.337
400	0.337
400	0.336
400	0.336
401	0.335
401	0.335
402	0.334
402	0.333
403	0.333
403	0.332
404	0.332
404	0.331
405	0.331
405	0.331
405	0.33
406	0.33
406	0.329
407	0.329
407	0.328
408	0.328
408	0.328
409	0.328
409	0.327
410	0.327
410	0.326
411	0.326
411	0.326
411	0.326
412	0.325
412	0.325
413	0.324
413	0.324
414	0.323
414	0.323
415	0.323
415	0.322
416	0.322
416	0.321
416	0.321
417	0.32
417	0.32
418	0.32
418	0.32
419	0.319
419	0.319
420	0.319
420	0.318
421	0.318
421	0.317
421	0.317
422	0.317
422	0.316
423	0.316
423	0.315
424	0.315
424	0.315
425	0.315
425	0.314
426	0.314
426	0.314
427	0.313
427	0.313
427	0.313
428	0.313
428	0.312
429	0.312
429	0.312
430	0.311
430	0.311
431	0.311
431	0.31
432	0.31
432	0.31
432	0.31
433	0.31
433	0.31
434	0.309
434	0.309
435	0.309
435	0.31
436	0.31
436	0.31
437	0.309
437	0.309
437	0.309
438	0.309
438	0.308
439	0.308
439	0.308
440	0.308
440	0.307
441	0.307
441	0.307
442	0.307
442	0.306
442	0.306
443	0.306
443	0.306
444	0.306
444	0.306
445	0.306
445	0.306
446	0.306
446	0.306
447	0.306
447	0.305
447	0.305
448	0.305
448	0.305
449	0.305
449	0.305
450	0.305
450	0.305
451	0.305
451	0.305
452	0.305
452	0.305
452	0.305
453	0.305
453	0.305
454	0.305
454	0.305
455	0.305
455	0.305
456	0.305
456	0.305
457	0.305
457	0.305
458	0.305
458	0.305
458	0.305
459	0.306
459	0.306
460	0.306
460	0.306
461	0.306
461	0.306
462	0.306
462	0.306
463	0.307
463	0.306
463	0.307
464	0.307
464	0.307
465	0.307
465	0.307
466	0.307
466	0.307
467	0.308
467	0.308
467	0.308
468	0.309
468	0.309
469	0.31
469	0.31
470	0.311
470	0.311
471	0.312
471	0.312
472	0.312
472	0.313
472	0.313
473	0.314
473	0.314
474	0.314
474	0.314
475	0.314
475	0.315
476	0.315
476	0.316
477	0.317
477	0.317
477	0.318
478	0.318
478	0.319
479	0.32
479	0.321
480	0.322
480	0.322
481	0.323
481	0.324
482	0.325
482	0.325
482	0.326
483	0.327
483	0.328
484	0.329
484	0.33
485	0.331
485	0.332
486	0.332
486	0.333
487	0.334
487	0.335
487	0.336
488	0.337
488	0.337
489	0.339
489	0.34
490	0.342
490	0.343
491	0.345
491	0.346
492	0.347
492	0.349
492	0.35
493	0.352
493	0.353
494	0.355
494	0.356
495	0.357
495	0.359
496	0.36
496	0.362
496	0.364
497	0.365
497	0.366
498	0.368
498	0.369
499	0.371
499	0.372
500	0.374
500	0.376
501	0.378
501	0.379
501	0.38
502	0.381
502	0.383
503	0.384
503	0.386
504	0.387
504	0.389
505	0.39
505	0.391
506	0.393
506	0.394
506	0.395
507	0.397
507	0.398
508	0.399
508	0.4
509	0.401
509	0.403
510	0.404
510	0.405
511	0.406
511	0.408
511	0.409
512	0.41
512	0.411
513	0.412
513	0.413
514	0.414
514	0.414
515	0.415
515	0.416
515	0.416
516	0.417
516	0.418
517	0.418
517	0.419
518	0.42
518	0.42
519	0.421
519	0.421
520	0.421
520	0.422
520	0.422
521	0.422
521	0.422
522	0.422
522	0.422
523	0.422
523	0.421
524	0.421
524	0.421
524	0.421
525	0.42
525	0.42
526	0.419
526	0.419
527	0.418
527	0.417
528	0.416
528	0.415
529	0.414
529	0.413
529	0.412
530	0.411
530	0.41
531	0.409
531	0.408
532	0.406
532	0.405
533	0.403
533	0.401
533	0.4
534	0.398
534	0.396
535	0.395
535	0.393
536	0.391
536	0.389
537	0.387
537	0.385
538	0.383
538	0.381
538	0.378
539	0.376
539	0.374
540	0.372
540	0.371
541	0.368
541	0.366
542	0.364
542	0.362
542	0.36
543	0.357
543	0.355
544	0.353
544	0.35
545	0.348
545	0.346
546	0.343
546	0.341
547	0.338
547	0.336
547	0.334
548	0.332
548	0.329
549	0.327
549	0.325
550	0.322
550	0.32
551	0.317
551	0.314
551	0.312
552	0.309
552	0.307
553	0.305
553	0.303
554	0.3
554	0.298
555	0.295
555	0.293
556	0.291
556	0.289
556	0.287
557	0.285
557	0.283
558	0.281
558	0.279
559	0.276
559	0.274
560	0.272
560	0.27
560	0.268
561	0.266
561	0.264
562	0.261
562	0.259
563	0.256
563	0.254
564	0.252
564	0.25
564	0.248
565	0.246
565	0.244
566	0.242
566	0.24
567	0.238
567	0.236
568	0.234
568	0.232
568	0.23
569	0.229
569	0.226
570	0.224
570	0.222
571	0.221
571	0.219
572	0.217
572	0.216
573	0.214
573	0.213
573	0.211
574	0.209
574	0.208
575	0.207
575	0.206
576	0.204
576	0.203
577	0.201
577	0.199
577	0.198
578	0.196
578	0.195
579	0.194
579	0.193
580	0.192
580	0.19
581	0.188
581	0.187
581	0.186
582	0.185
582	0.184
583	0.183
583	0.182
584	0.18
584	0.178
585	0.177
585	0.176
585	0.174
586	0.173
586	0.172
587	0.171
587	0.17
588	0.169
588	0.168
589	0.167
589	0.166
590	0.165
590	0.165
590	0.164
591	0.163
591	0.162
592	0.16
592	0.159
593	0.158
593	0.157
594	0.156
594	0.154
594	0.153
595	0.152
595	0.151
596	0.149
596	0.149
597	0.149
597	0.149
598	0.148
598	0.148
598	0.147
599	0.147
599	0.146
600	0.145
600	0.144
601	0.144
601	0.143
602	0.142
602	0.141
602	0.14
603	0.139
603	0.139
604	0.138
604	0.138
605	0.137
605	0.137
606	0.136
606	0.135
606	0.134
607	0.134
607	0.133
608	0.132
608	0.131
609	0.131
609	0.13
610	0.129
610	0.128
610	0.128
611	0.127
611	0.127
612	0.126
612	0.126
613	0.126
613	0.125
614	0.125
614	0.124
614	0.124
615	0.124
615	0.123
616	0.123
616	0.123
617	0.122
617	0.122
618	0.121
618	0.121
618	0.12
619	0.12
619	0.12
620	0.12
620	0.119
621	0.118
621	0.118
622	0.117
622	0.116
622	0.116
623	0.115
623	0.115
624	0.114
624	0.113
625	0.113
625	0.113
626	0.112
626	0.112
626	0.112
627	0.111
627	0.111
628	0.111
628	0.11
629	0.11
629	0.109
630	0.109
630	0.108
630	0.108
631	0.107
631	0.107
632	0.107
632	0.106
633	0.106
633	0.106
634	0.106
634	0.106
634	0.106
635	0.106
635	0.105
636	0.105
636	0.105
637	0.104
637	0.104
638	0.104
638	0.103
638	0.102
639	0.102
639	0.101
640	0.101
640	0.1
641	0.1
641	0.1
642	0.099
642	0.099
642	0.099
643	0.098
643	0.098
644	0.098
644	0.098
645	0.098
645	0.098
646	0.098
646	0.098
646	0.098
647	0.097
647	0.097
648	0.097
648	0.096
649	0.096
649	0.096
650	0.096
650	0.095
650	0.095
651	0.095
651	0.095
652	0.095
652	0.095
653	0.095
653	0.096
653	0.102
654	0.082
654	0.066
655	0.065
655	0.064
656	0.064
656	0.064
657	0.064
657	0.064
657	0.064
658	0.063
658	0.056
659	0.069
659	0.087
660	0.092
660	0.092
661	0.091
661	0.09
661	0.09
662	0.089
662	0.088
663	0.088
663	0.087
664	0.087
664	0.086
665	0.086
665	0.086
665	0.086
666	0.086
666	0.086
667	0.086
667	0.086
668	0.087
668	0.086
669	0.086
669	0.087
669	0.087
670	0.088
670	0.088
671	0.087
671	0.087
672	0.086
672	0.086
672	0.085
673	0.085
673	0.084
674	0.084
674	0.083
675	0.083
675	0.083
676	0.083
676	0.083
676	0.083
677	0.084
677	0.084
678	0.084
678	0.083
679	0.083
679	0.083
680	0.083
680	0.083
680	0.082
681	0.082
681	0.082
682	0.082
682	0.082
683	0.083
683	0.083
684	0.083
684	0.083
684	0.082
685	0.082
685	0.083
686	0.082
686	0.082
687	0.082
687	0.082
687	0.082
688	0.082
688	0.082
689	0.082
689	0.083
690	0.082
690	0.082
691	0.082
691	0.082
691	0.082
692	0.081
692	0.081
693	0.081
693	0.081
694	0.081
694	0.08
695	0.081
695	0.082
695	0.082
696	0.082
696	0.082
697	0.081
697	0.081
698	0.081
698	0.08
698	0.081
699	0.081
699	0.08
700	0.079
700	0.079
701	0.079
701	0.078
702	0.077
702	0.077
702	0.076
703	0.076
703	0.075
704	0.075
704	0.075
705	0.075
705	0.075
705	0.075
706	0.075
706	0.075
707	0.075
707	0.075
708	0.075
708	0.075
709	0.075
709	0.075
709	0.074
710	0.074
710	0.073
711	0.073
711	0.073
712	0.073
712	0.072
713	0.072
713	0.072
713	0.072
714	0.072
714	0.072
715	0.071
715	0.071
716	0.071
716	0.07
716	0.07
717	0.069
717	0.068
718	0.068
718	0.068
719	0.068
719	0.068
720	0.068
720	0.068
720	0.068
721	0.069
721	0.069
722	0.07
722	0.07
723	0.07
723	0.07
723	0.069
724	0.069
724	0.068
725	0.067
725	0.066
726	0.066
726	0.065
727	0.065
727	0.065
727	0.065
728	0.065
728	0.065
729	0.065
729	0.066
730	0.066
730	0.066
730	0.067
731	0.067
731	0.068
732	0.068
732	0.068
733	0.068
733	0.067
734	0.067
734	0.067
734	0.067
735	0.067
735	0.066
736	0.065
736	0.064
737	0.064
737	0.063
737	0.063
738	0.062
738	0.061
739	0.06
739	0.06
740	0.06
740	0.06
741	0.06
741	0.06
741	0.061
742	0.061
742	0.061
743	0.062
743	0.062
744	0.063
744	0.063
744	0.063
745	0.063
745	0.063
746	0.063
746	0.063
747	0.063
747	0.063
748	0.063
748	0.064
748	0.063
749	0.063
749	0.064
750	0.064
750	0.063
751	0.063
751	0.063
751	0.063
752	0.063
752	0.063
753	0.062
753	0.062
754	0.062
754	0.061
754	0.061
755	0.061
755	0.06
756	0.059
756	0.058
757	0.058
757	0.058
758	0.057
758	0.057
758	0.057
759	0.058
759	0.057
760	0.057
760	0.057
761	0.057
761	0.058
761	0.058
762	0.058
762	0.058
763	0.058
763	0.057
764	0.056
764	0.056
764	0.056
765	0.055
765	0.055
766	0.055
766	0.055
767	0.055
767	0.054
768	0.054
768	0.055
768	0.055
769	0.056
769	0.056
770	0.057
770	0.057
771	0.057
771	0.057
771	0.057
772	0.057
772	0.057
773	0.057
773	0.057
774	0.056
774	0.056
775	0.056
775	0.057
775	0.057
776	0.057
776	0.058
777	0.058
777	0.058
778	0.058
778	0.058
778	0.057
779	0.057
779	0.057
780	0.056
780	0.055
781	0.054
781	0.054
781	0.053
782	0.053
782	0.053
783	0.053
783	0.054
784	0.053
784	0.054
784	0.054
785	0.054
785	0.055
786	0.055
786	0.055
787	0.055
787	0.055
788	0.055
788	0.054
788	0.054
789	0.053
789	0.053
790	0.053
790	0.053
791	0.052
791	0.052
791	0.051
792	0.052
792	0.051
793	0.051
793	0.051
794	0.051
794	0.05
794	0.05
795	0.05
795	0.05
796	0.051
796	0.051
797	0.05
797	0.05
797	0.051
798	0.051
798	0.051
799	0.051
799	0.051
800	0.051
800	0.05
801	0.05
801	0.049
801	0.049
802	0.049
802	0.048
803	0.048
803	0.048
804	0.049
804	0.049
804	0.049
805	0.049
805	0.049
806	0.049
806	0.049
807	0.049
807	0.049
807	0.049
808	0.049
808	0.049
809	0.049
809	0.049
810	0.05
810	0.05
810	0.05
811	0.05
811	0.05
812	0.051
812	0.051
813	0.051
813	0.051
813	0.052
814	0.052
814	0.052
815	0.053
815	0.053
816	0.053
816	0.052
817	0.052
817	0.051
817	0.051
818	0.051
818	0.05
819	0.05
819	0.049
820	0.048
820	0.048
820	0.048
821	0.047
821	0.047
822	0.047
822	0.047
823	0.047
823	0.047
823	0.048
824	0.049
824	0.05
825	0.051
825	0.052
826	0.052
826	0.053
826	0.053
827	0.053
827	0.053
828	0.053
828	0.053
829	0.053
829	0.053
829	0.052
830	0.052
830	0.053
831	0.053
831	0.054
832	0.053
832	0.053
832	0.053
833	0.053
833	0.052
834	0.052
834	0.051
835	0.05
835	0.05
835	0.049
836	0.048
836	0.048
837	0.048
837	0.048
838	0.048
838	0.047
839	0.047
839	0.047
839	0.046
840	0.046
840	0.045
841	0.045
841	0.044
842	0.044
842	0.044
842	0.044
843	0.044
843	0.044
844	0.044
844	0.044
845	0.045
845	0.045
845	0.046
846	0.046
846	0.047
847	0.047
847	0.047
848	0.047
848	0.047
848	0.047
849	0.046
849	0.046
850	0.046
850	0.045
851	0.045
851	0.044
851	0.044
852	0.043
852	0.043
853	0.042
853	0.042
854	0.042
854	0.043
854	0.043
855	0.044
855	0.044
856	0.045
856	0.045
857	0.046
857	0.047
857	0.047
858	0.048
858	0.048
859	0.048
859	0.047
860	0.047
860	0.047
860	0.046
861	0.046
861	0.045
862	0.044
862	0.044
863	0.043
863	0.043
863	0.043
864	0.042
864	0.042
865	0.043
865	0.043
866	0.043
866	0.043
866	0.043
867	0.043
867	0.043
868	0.043
868	0.043
869	0.043
869	0.042
869	0.041
870	0.041
870	0.04
871	0.04
871	0.04
872	0.04
872	0.04
872	0.041
873	0.041
873	0.041
874	0.04
874	0.04
875	0.04
875	0.04
875	0.04
876	0.039
876	0.039
877	0.039
877	0.039
878	0.039
878	0.039
878	0.04
879	0.04
879	0.04
880	0.041
880	0.041
881	0.041
881	0.041
881	0.041
882	0.041
882	0.041
883	0.04
883	0.04
884	0.04
884	0.04
884	0.04
885	0.04
885	0.04
886	0.04
886	0.04
887	0.04
887	0.04
887	0.04
888	0.04
888	0.04
889	0.04
889	0.04
890	0.04
890	0.04
890	0.04
891	0.04
891	0.04
892	0.04
892	0.04
893	0.04
893	0.04
893	0.039
894	0.039
894	0.038
895	0.037
895	0.037
895	0.036
896	0.036
896	0.036
897	0.035
897	0.034
898	0.034
898	0.033
898	0.033
899	0.033
899	0.033
900	0.033
900	0.034
901	0.034
901	0.034
901	0.035
902	0.035
902	0.035
903	0.035
903	0.036
904	0.036
904	0.036
904	0.036
905	0.036
905	0.036
906	0.036
906	0.037
907	0.038
907	0.039
907	0.039
908	0.04
908	0.041
909	0.041
909	0.042
910	0.042
910	0.042
910	0.043
911	0.043
911	0.043
912	0.042
912	0.042
913	0.042
913	0.042
913	0.042
914	0.042
914	0.042
915	0.041
915	0.041
916	0.041
916	0.04
916	0.04
917	0.039
917	0.039
918	0.038
918	0.038
918	0.038
919	0.037
919	0.037
920	0.037
920	0.037
921	0.037
921	0.037
921	0.037
922	0.037
922	0.037
923	0.037
923	0.038
924	0.038
924	0.039
924	0.039
925	0.04
925	0.04
926	0.04
926	0.04
927	0.04
927	0.04
927	0.04
928	0.04
928	0.04
929	0.04
929	0.04
930	0.04
930	0.04
930	0.04
931	0.04
931	0.04
932	0.041
932	0.041
933	0.041
933	0.041
933	0.041
934	0.041
934	0.041
935	0.041
935	0.041
935	0.041
936	0.041
936	0.041
937	0.04
937	0.04
938	0.04
938	0.039
938	0.038
939	0.038
939	0.037
940	0.036
940	0.035
941	0.035
941	0.034
941	0.034
942	0.034
942	0.034
943	0.034
943	0.034
944	0.034
944	0.034
944	0.035
945	0.035
945	0.035
946	0.036
946	0.036
946	0.037
947	0.037
947	0.038
948	0.039
948	0.039
949	0.04
949	0.04
949	0.04
950	0.04
950	0.041
951	0.041
951	0.041
952	0.04
952	0.04
952	0.039
953	0.039
953	0.038
954	0.037
954	0.037
955	0.036
955	0.035
955	0.035
956	0.035
956	0.034
957	0.034
957	0.034
957	0.034
958	0.034
958	0.034
959	0.035
959	0.035
960	0.035
960	0.036
960	0.036
961	0.037
961	0.037
962	0.037
962	0.037
963	0.038
963	0.038
963	0.038
964	0.038
964	0.039
965	0.039
965	0.039
966	0.04
966	0.04
966	0.041
967	0.041
967	0.041
968	0.042
968	0.042
968	0.042
969	0.042
969	0.042
970	0.041
970	0.04
971	0.04
971	0.039
971	0.038
972	0.038
972	0.037
973	0.036
973	0.036
974	0.036
974	0.035
974	0.035
975	0.035
975	0.036
976	0.036
976	0.036
976	0.036
977	0.037
977	0.037
978	0.037
978	0.037
979	0.037
979	0.037
979	0.037
980	0.037
980	0.037
981	0.036
981	0.036
982	0.036
982	0.036
982	0.037
983	0.037
983	0.037
984	0.037
984	0.036
984	0.036
985	0.036
985	0.037
986	0.036
986	0.036
987	0.036
987	0.036
987	0.036
988	0.036
988	0.035
989	0.035
989	0.035
990	0.034
990	0.034
990	0.033
991	0.033
991	0.033
992	0.033
992	0.032
992	0.032
993	0.031
993	0.031
994	0.031
994	0.031
995	0.031
995	0.031
995	0.031
996	0.031
996	0.032
997	0.032
997	0.032
997	0.033
998	0.033
998	0.034
999	0.035
999	0.035
1000	0.036
1000	0.036
1000	0.036
1001	0.036
1001	0.036
1002	0.035
1002	0.035
1003	0.034
1003	0.034
1003	0.033
1004	0.032
1004	0.031
1005	0.03
1005	0.029
1005	0.029
1006	0.028
1006	0.028
1007	0.027
1007	0.027
1008	0.027
1008	0.027
1008	0.028
1009	0.028
1009	0.028
1010	0.029
1010	0.029
1010	0.03
1011	0.03
1011	0.03
1012	0.03
1012	0.03
1013	0.03
1013	0.03
1013	0.03
1014	0.03
1014	0.03
1015	0.029
1015	0.029
1016	0.029
1016	0.028
1016	0.028
1017	0.028
1017	0.027
1018	0.027
1018	0.027
1018	0.026
1019	0.026
1019	0.026
1020	0.026
1020	0.026
1021	0.026
1021	0.026
1021	0.027
1022	0.027
1022	0.028
1023	0.028
1023	0.028
1023	0.028
1024	0.029
1024	0.029
1025	0.029
1025	0.029
1026	0.029
1026	0.029
1026	0.028
1027	0.029
1027	0.029
1028	0.029
1028	0.029
1028	0.029
1029	0.029
1029	0.029
1030	0.029
1030	0.03
1031	0.03
1031	0.03
1031	0.03
1032	0.03
1032	0.03
1033	0.031
1033	0.03
1033	0.03
1034	0.03
1034	0.03
1035	0.03
1035	0.029
1036	0.029
1036	0.028
1036	0.028
1037	0.027
1037	0.027
1038	0.026
1038	0.026
1039	0.026
1039	0.026
1039	0.026
1040	0.026
1040	0.026
1041	0.026
1041	0.026
1041	0.027
1042	0.027
1042	0.027
1043	0.028
1043	0.028
1044	0.029
1044	0.029
1044	0.03
1045	0.03
1045	0.031
1046	0.031
1046	0.032
1046	0.032
1047	0.033
1047	0.033
1048	0.034
1048	0.034
1049	0.035
1049	0.035
1049	0.035
1050	0.035
1050	0.035
1051	0.035
1051	0.035
1051	0.035
1052	0.035
1052	0.034
1053	0.034
1053	0.033
1053	0.033
1054	0.032
1054	0.032
1055	0.032
1055	0.031
1056	0.031
1056	0.03
1056	0.03
1057	0.029
1057	0.029
1058	0.028
1058	0.027
1058	0.026
1059	0.025
1059	0.025
1060	0.024
1060	0.024
1061	0.024
1061	0.024
1061	0.024
1062	0.023
1062	0.024
1063	0.024
1063	0.025
1063	0.025
1064	0.025
1064	0.026
1065	0.025
1065	0.025
1066	0.026
1066	0.026
1066	0.026
1067	0.026
1067	0.026
1068	0.025
1068	0.025
1068	0.026
1069	0.025
1069	0.025
1070	0.026
1070	0.025
1071	0.025
1071	0.025
1071	0.024
1072	0.024
1072	0.024
1073	0.023
1073	0.022
1073	0.022
1074	0.023
1074	0.022
1075	0.022
1075	0.022
1076	0.022
1076	0.023
1076	0.023
1077	0.023
1077	0.024
1078	0.024
1078	0.023
1078	0.023
1079	0.023
1079	0.023
1080	0.023
1080	0.022
1080	0.022
1081	0.022
1081	0.022
1082	0.022
1082	0.022
1083	0.022
1083	0.022
1083	0.022
1084	0.022
1084	0.022
1085	0.023
1085	0.023
1085	0.023
1086	0.023
1086	0.022
1087	0.022
1087	0.021
1088	0.021
1088	0.021
1088	0.021
1089	0.02
1089	0.02
1090	0.019
1090	0.018
1090	0.018
1091	0.018
1091	0.018
1092	0.018
1092	0.017
1092	0.018
1093	0.018
1093	0.018
1094	0.018
1094	0.017
1095	0.017
1095	0.016
1095	0.016
1096	0.015
1096	0.015
1097	0.014
1097	0.013
1097	0.013
1098	0.013
1098	0.012
1099	0.013
1099	0.012
1100	0.012
1100	0.011
1100	0.011
1101	0.01
1101	0.01
1102	0.01
1102	0.009
1102	0.01
1103	0.01
1103	0.01
1104	0.01
1104	0.011
1104	0.01
1105	0.01
1105	0.008
1106	0.007
1106	0.006
1107	0.004
1107	0.003
1107	0.002
1108	0
1108	-0.002
1109	-0.003
1109	-0.005
1109	-0.005
1110	-0.005
1110	-0.005
1111	-0.006
1111	-0.007
