Data from reversibility-20sec_Absorbance__7959__000000000007959.txt Node

Date: Thu Dec 07 08:26:06 CET 2023
User: Marek
Spectrometer: MAYP115816
Trigger mode: 0
Integration Time (sec): 2.000000E-1
Scans to average: 10
Electric dark correction enabled: true
Nonlinearity correction enabled: true
Boxcar width: 5
XAxis mode: Wavelengths
Number of Pixels in Spectrum: 2068
>>>>>Begin Spectral Data<<<<<
199	-0.127
199	-0.087
200	-0.038
200	0.009
201	0.032
201	0.049
202	0.056
202	0.066
203	0.073
203	0.077
204	0.09
204	0.103
205	0.112
205	0.12
205	0.119
206	0.12
206	0.119
207	0.123
207	0.124
208	0.125
208	0.122
209	0.123
209	0.122
210	0.124
210	0.124
211	0.126
211	0.13
212	0.128
212	0.126
213	0.127
213	0.129
213	0.132
214	0.136
214	0.138
215	0.14
215	0.137
216	0.139
216	0.135
217	0.141
217	0.142
218	0.143
218	0.146
219	0.148
219	0.148
220	0.149
220	0.148
221	0.152
221	0.155
221	0.161
222	0.166
222	0.169
223	0.175
223	0.18
224	0.185
224	0.193
225	0.202
225	0.212
226	0.223
226	0.231
227	0.243
227	0.254
228	0.272
228	0.286
229	0.304
229	0.328
229	0.352
230	0.377
230	0.408
231	0.44
231	0.479
232	0.516
232	0.558
233	0.598
233	0.648
234	0.697
234	0.752
235	0.806
235	0.859
236	0.909
236	0.957
236	1.011
237	1.062
237	1.112
238	1.163
238	1.209
239	1.253
239	1.292
240	1.33
240	1.365
241	1.401
241	1.438
242	1.469
242	1.501
243	1.53
243	1.553
243	1.576
244	1.598
244	1.62
245	1.637
245	1.659
246	1.676
246	1.691
247	1.705
247	1.719
248	1.733
248	1.745
249	1.756
249	1.766
250	1.773
250	1.782
250	1.785
251	1.791
251	1.797
252	1.8
252	1.802
253	1.804
253	1.803
254	1.804
254	1.806
255	1.806
255	1.807
256	1.807
256	1.806
257	1.805
257	1.802
258	1.801
258	1.8
258	1.8
259	1.799
259	1.798
260	1.798
260	1.798
261	1.798
261	1.802
262	1.802
262	1.804
263	1.806
263	1.808
264	1.807
264	1.809
265	1.81
265	1.81
265	1.81
266	1.809
266	1.807
267	1.807
267	1.807
268	1.807
268	1.805
269	1.808
269	1.806
270	1.805
270	1.803
271	1.8
271	1.8
272	1.798
272	1.796
272	1.794
273	1.79
273	1.786
274	1.78
274	1.775
275	1.77
275	1.765
276	1.758
276	1.75
277	1.742
277	1.733
278	1.724
278	1.712
278	1.698
279	1.685
279	1.668
280	1.649
280	1.624
281	1.594
281	1.561
282	1.525
282	1.488
283	1.449
283	1.412
284	1.374
284	1.338
285	1.302
285	1.27
285	1.241
286	1.215
286	1.192
287	1.171
287	1.153
288	1.138
288	1.124
289	1.113
289	1.103
290	1.094
290	1.086
291	1.079
291	1.072
292	1.066
292	1.061
292	1.057
293	1.052
293	1.048
294	1.044
294	1.039
295	1.036
295	1.032
296	1.028
296	1.025
297	1.021
297	1.017
298	1.014
298	1.011
298	1.008
299	1.005
299	1.001
300	0.998
300	0.995
301	0.992
301	0.989
302	0.986
302	0.983
303	0.98
303	0.977
304	0.974
304	0.971
305	0.969
305	0.966
305	0.963
306	0.96
306	0.957
307	0.954
307	0.951
308	0.948
308	0.945
309	0.942
309	0.939
310	0.936
310	0.933
311	0.929
311	0.926
311	0.923
312	0.919
312	0.915
313	0.911
313	0.907
314	0.903
314	0.899
315	0.894
315	0.89
316	0.885
316	0.88
317	0.875
317	0.87
318	0.865
318	0.86
318	0.854
319	0.849
319	0.843
320	0.837
320	0.831
321	0.825
321	0.819
322	0.813
322	0.806
323	0.799
323	0.793
324	0.786
324	0.78
324	0.772
325	0.765
325	0.759
326	0.752
326	0.745
327	0.738
327	0.731
328	0.723
328	0.716
329	0.709
329	0.701
330	0.694
330	0.687
330	0.68
331	0.672
331	0.665
332	0.658
332	0.651
333	0.644
333	0.636
334	0.629
334	0.623
335	0.616
335	0.609
336	0.602
336	0.595
336	0.588
337	0.582
337	0.575
338	0.569
338	0.563
339	0.557
339	0.551
340	0.544
340	0.539
341	0.533
341	0.527
342	0.522
342	0.516
342	0.51
343	0.505
343	0.5
344	0.494
344	0.489
345	0.484
345	0.48
346	0.475
346	0.471
347	0.466
347	0.461
348	0.457
348	0.453
348	0.449
349	0.445
349	0.441
350	0.437
350	0.434
351	0.43
351	0.427
352	0.424
352	0.421
353	0.417
353	0.414
354	0.411
354	0.408
354	0.405
355	0.402
355	0.399
356	0.396
356	0.393
357	0.39
357	0.387
358	0.384
358	0.382
359	0.379
359	0.377
360	0.375
360	0.373
360	0.371
361	0.369
361	0.367
362	0.365
362	0.363
363	0.361
363	0.359
364	0.357
364	0.355
365	0.353
365	0.351
366	0.349
366	0.347
366	0.345
367	0.343
367	0.341
368	0.34
368	0.338
369	0.336
369	0.335
370	0.333
370	0.332
371	0.331
371	0.329
372	0.328
372	0.327
372	0.325
373	0.325
373	0.323
374	0.322
374	0.321
375	0.32
375	0.319
376	0.318
376	0.317
377	0.316
377	0.315
378	0.314
378	0.313
378	0.312
379	0.311
379	0.31
380	0.309
380	0.308
381	0.308
381	0.307
382	0.306
382	0.305
383	0.305
383	0.304
383	0.304
384	0.303
384	0.302
385	0.302
385	0.301
386	0.301
386	0.3
387	0.299
387	0.299
388	0.298
388	0.298
389	0.297
389	0.297
389	0.296
390	0.296
390	0.295
391	0.295
391	0.294
392	0.294
392	0.293
393	0.293
393	0.292
394	0.292
394	0.291
394	0.291
395	0.291
395	0.29
396	0.29
396	0.289
397	0.289
397	0.288
398	0.288
398	0.288
399	0.287
399	0.287
400	0.286
400	0.286
400	0.286
401	0.285
401	0.285
402	0.285
402	0.284
403	0.284
403	0.283
404	0.283
404	0.283
405	0.282
405	0.282
405	0.282
406	0.281
406	0.281
407	0.28
407	0.28
408	0.28
408	0.279
409	0.279
409	0.279
410	0.278
410	0.278
411	0.278
411	0.278
411	0.277
412	0.277
412	0.277
413	0.276
413	0.276
414	0.276
414	0.276
415	0.275
415	0.275
416	0.275
416	0.274
416	0.274
417	0.274
417	0.273
418	0.273
418	0.273
419	0.272
419	0.271
420	0.271
420	0.27
421	0.27
421	0.269
421	0.269
422	0.268
422	0.268
423	0.268
423	0.267
424	0.267
424	0.267
425	0.266
425	0.266
426	0.266
426	0.266
427	0.265
427	0.265
427	0.265
428	0.264
428	0.264
429	0.263
429	0.263
430	0.263
430	0.262
431	0.262
431	0.262
432	0.262
432	0.262
432	0.262
433	0.262
433	0.261
434	0.261
434	0.261
435	0.261
435	0.261
436	0.261
436	0.261
437	0.26
437	0.26
437	0.26
438	0.259
438	0.259
439	0.259
439	0.259
440	0.258
440	0.258
441	0.258
441	0.258
442	0.258
442	0.258
442	0.257
443	0.257
443	0.257
444	0.257
444	0.257
445	0.257
445	0.256
446	0.256
446	0.256
447	0.256
447	0.256
447	0.255
448	0.256
448	0.255
449	0.255
449	0.255
450	0.255
450	0.255
451	0.255
451	0.255
452	0.255
452	0.255
452	0.255
453	0.255
453	0.255
454	0.255
454	0.255
455	0.255
455	0.254
456	0.254
456	0.254
457	0.254
457	0.254
458	0.254
458	0.253
458	0.253
459	0.253
459	0.253
460	0.253
460	0.253
461	0.253
461	0.253
462	0.253
462	0.253
463	0.254
463	0.254
463	0.254
464	0.253
464	0.253
465	0.253
465	0.253
466	0.253
466	0.254
467	0.254
467	0.254
467	0.254
468	0.254
468	0.254
469	0.255
469	0.255
470	0.256
470	0.256
471	0.256
471	0.256
472	0.256
472	0.257
472	0.257
473	0.257
473	0.258
474	0.257
474	0.258
475	0.258
475	0.258
476	0.258
476	0.259
477	0.259
477	0.259
477	0.26
478	0.26
478	0.26
479	0.261
479	0.261
480	0.262
480	0.262
481	0.263
481	0.263
482	0.263
482	0.264
482	0.264
483	0.265
483	0.266
484	0.266
484	0.267
485	0.267
485	0.267
486	0.267
486	0.267
487	0.268
487	0.269
487	0.269
488	0.27
488	0.27
489	0.271
489	0.272
490	0.274
490	0.275
491	0.276
491	0.277
492	0.278
492	0.279
492	0.28
493	0.281
493	0.282
494	0.283
494	0.284
495	0.285
495	0.286
496	0.287
496	0.288
496	0.289
497	0.29
497	0.29
498	0.291
498	0.292
499	0.293
499	0.294
500	0.296
500	0.297
501	0.298
501	0.299
501	0.3
502	0.301
502	0.302
503	0.303
503	0.304
504	0.305
504	0.306
505	0.307
505	0.308
506	0.309
506	0.309
506	0.311
507	0.312
507	0.313
508	0.314
508	0.314
509	0.315
509	0.316
510	0.317
510	0.318
511	0.318
511	0.319
511	0.32
512	0.321
512	0.321
513	0.322
513	0.323
514	0.323
514	0.324
515	0.325
515	0.325
515	0.326
516	0.327
516	0.328
517	0.328
517	0.329
518	0.329
518	0.329
519	0.329
519	0.329
520	0.329
520	0.329
520	0.33
521	0.33
521	0.33
522	0.329
522	0.33
523	0.33
523	0.33
524	0.329
524	0.33
524	0.329
525	0.33
525	0.329
526	0.329
526	0.328
527	0.327
527	0.327
528	0.326
528	0.326
529	0.325
529	0.325
529	0.324
530	0.323
530	0.322
531	0.321
531	0.32
532	0.32
532	0.318
533	0.317
533	0.316
533	0.315
534	0.314
534	0.313
535	0.312
535	0.311
536	0.31
536	0.308
537	0.307
537	0.306
538	0.304
538	0.303
538	0.302
539	0.301
539	0.299
540	0.298
540	0.297
541	0.295
541	0.294
542	0.292
542	0.291
542	0.289
543	0.288
543	0.286
544	0.285
544	0.283
545	0.281
545	0.28
546	0.278
546	0.276
547	0.274
547	0.273
547	0.271
548	0.27
548	0.268
549	0.267
549	0.265
550	0.264
550	0.262
551	0.26
551	0.258
551	0.257
552	0.255
552	0.254
553	0.252
553	0.25
554	0.249
554	0.247
555	0.245
555	0.243
556	0.242
556	0.24
556	0.239
557	0.238
557	0.237
558	0.236
558	0.235
559	0.233
559	0.232
560	0.231
560	0.229
560	0.228
561	0.227
561	0.225
562	0.224
562	0.222
563	0.22
563	0.218
564	0.217
564	0.215
564	0.214
565	0.213
565	0.212
566	0.21
566	0.209
567	0.208
567	0.207
568	0.206
568	0.204
568	0.203
569	0.202
569	0.2
570	0.198
570	0.196
571	0.195
571	0.194
572	0.192
572	0.191
573	0.19
573	0.189
573	0.187
574	0.186
574	0.185
575	0.184
575	0.184
576	0.183
576	0.181
577	0.18
577	0.179
577	0.178
578	0.177
578	0.176
579	0.176
579	0.175
580	0.174
580	0.173
581	0.172
581	0.171
581	0.17
582	0.17
582	0.169
583	0.169
583	0.168
584	0.166
584	0.164
585	0.163
585	0.163
585	0.162
586	0.162
586	0.161
587	0.16
587	0.159
588	0.158
588	0.158
589	0.157
589	0.157
590	0.156
590	0.156
590	0.155
591	0.154
591	0.153
592	0.152
592	0.151
593	0.151
593	0.15
594	0.149
594	0.148
594	0.147
595	0.147
595	0.146
596	0.145
596	0.145
597	0.146
597	0.146
598	0.145
598	0.145
598	0.144
599	0.144
599	0.143
600	0.143
600	0.142
601	0.141
601	0.141
602	0.14
602	0.139
602	0.138
603	0.138
603	0.137
604	0.137
604	0.137
605	0.137
605	0.136
606	0.136
606	0.135
606	0.134
607	0.133
607	0.133
608	0.132
608	0.131
609	0.13
609	0.13
610	0.129
610	0.129
610	0.129
611	0.129
611	0.128
612	0.128
612	0.128
613	0.128
613	0.128
614	0.128
614	0.127
614	0.127
615	0.127
615	0.127
616	0.127
616	0.127
617	0.127
617	0.126
618	0.126
618	0.126
618	0.125
619	0.125
619	0.125
620	0.125
620	0.124
621	0.124
621	0.123
622	0.122
622	0.122
622	0.121
623	0.12
623	0.12
624	0.12
624	0.119
625	0.118
625	0.118
626	0.118
626	0.118
626	0.118
627	0.117
627	0.117
628	0.117
628	0.117
629	0.117
629	0.117
630	0.116
630	0.116
630	0.116
631	0.116
631	0.116
632	0.115
632	0.115
633	0.114
633	0.114
634	0.114
634	0.114
634	0.114
635	0.113
635	0.113
636	0.112
636	0.112
637	0.112
637	0.111
638	0.111
638	0.11
638	0.11
639	0.109
639	0.109
640	0.109
640	0.108
641	0.108
641	0.108
642	0.107
642	0.107
642	0.108
643	0.108
643	0.108
644	0.108
644	0.108
645	0.108
645	0.108
646	0.109
646	0.109
646	0.109
647	0.109
647	0.108
648	0.108
648	0.107
649	0.107
649	0.107
650	0.106
650	0.106
650	0.106
651	0.105
651	0.105
652	0.105
652	0.105
653	0.106
653	0.108
653	0.113
654	0.09
654	0.074
655	0.072
655	0.072
656	0.072
656	0.072
657	0.072
657	0.072
657	0.072
658	0.071
658	0.064
659	0.08
659	0.1
660	0.105
660	0.105
661	0.105
661	0.104
661	0.104
662	0.103
662	0.103
663	0.102
663	0.102
664	0.102
664	0.101
665	0.101
665	0.101
665	0.101
666	0.101
666	0.101
667	0.101
667	0.101
668	0.101
668	0.101
669	0.101
669	0.102
669	0.102
670	0.103
670	0.103
671	0.102
671	0.102
672	0.102
672	0.101
672	0.101
673	0.1
673	0.1
674	0.099
674	0.099
675	0.098
675	0.098
676	0.098
676	0.099
676	0.098
677	0.099
677	0.099
678	0.099
678	0.099
679	0.099
679	0.099
680	0.099
680	0.099
680	0.098
681	0.098
681	0.098
682	0.099
682	0.099
683	0.099
683	0.099
684	0.099
684	0.098
684	0.098
685	0.098
685	0.098
686	0.098
686	0.098
687	0.098
687	0.098
687	0.099
688	0.099
688	0.099
689	0.1
689	0.1
690	0.1
690	0.099
691	0.099
691	0.099
691	0.099
692	0.099
692	0.099
693	0.099
693	0.099
694	0.099
694	0.099
695	0.1
695	0.101
695	0.101
696	0.1
696	0.1
697	0.1
697	0.1
698	0.1
698	0.099
698	0.099
699	0.099
699	0.098
700	0.098
700	0.097
701	0.097
701	0.096
702	0.096
702	0.095
702	0.095
703	0.094
703	0.094
704	0.093
704	0.093
705	0.093
705	0.093
705	0.093
706	0.093
706	0.093
707	0.093
707	0.093
708	0.093
708	0.093
709	0.093
709	0.093
709	0.093
710	0.093
710	0.093
711	0.094
711	0.094
712	0.095
712	0.095
713	0.095
713	0.095
713	0.095
714	0.095
714	0.094
715	0.094
715	0.094
716	0.093
716	0.093
716	0.092
717	0.091
717	0.091
718	0.091
718	0.091
719	0.091
719	0.091
720	0.092
720	0.092
720	0.093
721	0.094
721	0.094
722	0.095
722	0.095
723	0.095
723	0.096
723	0.095
724	0.095
724	0.095
725	0.094
725	0.093
726	0.092
726	0.092
727	0.091
727	0.09
727	0.09
728	0.089
728	0.089
729	0.089
729	0.089
730	0.089
730	0.089
730	0.089
731	0.09
731	0.09
732	0.091
732	0.091
733	0.091
733	0.091
734	0.091
734	0.092
734	0.092
735	0.092
735	0.092
736	0.092
736	0.092
737	0.091
737	0.091
737	0.091
738	0.09
738	0.089
739	0.089
739	0.089
740	0.088
740	0.089
741	0.089
741	0.09
741	0.09
742	0.09
742	0.091
743	0.092
743	0.093
744	0.093
744	0.093
744	0.093
745	0.093
745	0.092
746	0.092
746	0.092
747	0.091
747	0.091
748	0.091
748	0.091
748	0.091
749	0.09
749	0.091
750	0.091
750	0.091
751	0.092
751	0.092
751	0.092
752	0.092
752	0.091
753	0.091
753	0.09
754	0.09
754	0.089
754	0.088
755	0.087
755	0.087
756	0.086
756	0.085
757	0.084
757	0.085
758	0.085
758	0.085
758	0.085
759	0.085
759	0.085
760	0.085
760	0.085
761	0.085
761	0.086
761	0.086
762	0.086
762	0.086
763	0.086
763	0.085
764	0.085
764	0.085
764	0.085
765	0.084
765	0.084
766	0.084
766	0.084
767	0.083
767	0.082
768	0.082
768	0.082
768	0.082
769	0.082
769	0.082
770	0.082
770	0.082
771	0.083
771	0.083
771	0.083
772	0.083
772	0.084
773	0.084
773	0.084
774	0.084
774	0.084
775	0.084
775	0.084
775	0.084
776	0.085
776	0.085
777	0.085
777	0.085
778	0.085
778	0.085
778	0.084
779	0.084
779	0.083
780	0.082
780	0.081
781	0.08
781	0.079
781	0.078
782	0.077
782	0.077
783	0.077
783	0.077
784	0.077
784	0.077
784	0.077
785	0.078
785	0.078
786	0.079
786	0.079
787	0.079
787	0.079
788	0.079
788	0.078
788	0.078
789	0.078
789	0.078
790	0.078
790	0.078
791	0.078
791	0.078
791	0.077
792	0.078
792	0.078
793	0.078
793	0.077
794	0.077
794	0.077
794	0.077
795	0.077
795	0.077
796	0.077
796	0.077
797	0.076
797	0.076
797	0.076
798	0.076
798	0.075
799	0.075
799	0.074
800	0.074
800	0.074
801	0.074
801	0.074
801	0.074
802	0.075
802	0.075
803	0.075
803	0.076
804	0.076
804	0.076
804	0.076
805	0.076
805	0.075
806	0.075
806	0.074
807	0.074
807	0.074
807	0.073
808	0.073
808	0.073
809	0.073
809	0.073
810	0.074
810	0.074
810	0.074
811	0.074
811	0.075
812	0.075
812	0.076
813	0.076
813	0.077
813	0.077
814	0.077
814	0.078
815	0.078
815	0.078
816	0.078
816	0.077
817	0.077
817	0.076
817	0.076
818	0.076
818	0.076
819	0.075
819	0.074
820	0.073
820	0.073
820	0.073
821	0.073
821	0.073
822	0.072
822	0.072
823	0.072
823	0.072
823	0.072
824	0.073
824	0.074
825	0.075
825	0.076
826	0.077
826	0.077
826	0.078
827	0.079
827	0.079
828	0.079
828	0.079
829	0.079
829	0.079
829	0.079
830	0.079
830	0.079
831	0.079
831	0.078
832	0.078
832	0.078
832	0.078
833	0.078
833	0.078
834	0.078
834	0.077
835	0.077
835	0.076
835	0.076
836	0.076
836	0.075
837	0.075
837	0.074
838	0.073
838	0.072
839	0.072
839	0.071
839	0.07
840	0.069
840	0.068
841	0.067
841	0.067
842	0.066
842	0.065
842	0.065
843	0.064
843	0.064
844	0.063
844	0.063
845	0.062
845	0.062
845	0.062
846	0.062
846	0.062
847	0.062
847	0.062
848	0.062
848	0.062
848	0.062
849	0.062
849	0.062
850	0.062
850	0.062
851	0.061
851	0.061
851	0.061
852	0.06
852	0.06
853	0.06
853	0.06
854	0.061
854	0.062
854	0.063
855	0.064
855	0.065
856	0.066
856	0.067
857	0.069
857	0.07
857	0.07
858	0.071
858	0.071
859	0.071
859	0.071
860	0.071
860	0.071
860	0.07
861	0.069
861	0.068
862	0.067
862	0.067
863	0.066
863	0.066
863	0.065
864	0.065
864	0.065
865	0.065
865	0.065
866	0.065
866	0.065
866	0.065
867	0.066
867	0.066
868	0.066
868	0.066
869	0.066
869	0.066
869	0.066
870	0.066
870	0.065
871	0.065
871	0.065
872	0.065
872	0.064
872	0.064
873	0.063
873	0.063
874	0.062
874	0.062
875	0.061
875	0.061
875	0.061
876	0.061
876	0.061
877	0.062
877	0.062
878	0.062
878	0.062
878	0.063
879	0.063
879	0.063
880	0.063
880	0.063
881	0.063
881	0.063
881	0.063
882	0.063
882	0.063
883	0.063
883	0.063
884	0.063
884	0.063
884	0.063
885	0.063
885	0.063
886	0.063
886	0.063
887	0.063
887	0.064
887	0.064
888	0.064
888	0.064
889	0.064
889	0.064
890	0.065
890	0.065
890	0.066
891	0.066
891	0.066
892	0.066
892	0.066
893	0.066
893	0.066
893	0.065
894	0.064
894	0.063
895	0.062
895	0.062
895	0.061
896	0.061
896	0.061
897	0.06
897	0.06
898	0.059
898	0.059
898	0.059
899	0.059
899	0.059
900	0.059
900	0.058
901	0.058
901	0.058
901	0.058
902	0.058
902	0.058
903	0.058
903	0.059
904	0.059
904	0.059
904	0.059
905	0.058
905	0.058
906	0.058
906	0.058
907	0.058
907	0.058
907	0.057
908	0.057
908	0.057
909	0.056
909	0.056
910	0.056
910	0.056
910	0.055
911	0.055
911	0.054
912	0.054
912	0.053
913	0.053
913	0.053
913	0.052
914	0.052
914	0.052
915	0.052
915	0.052
916	0.052
916	0.053
916	0.053
917	0.053
917	0.053
918	0.053
918	0.053
918	0.053
919	0.053
919	0.052
920	0.053
920	0.053
921	0.053
921	0.053
921	0.053
922	0.053
922	0.053
923	0.053
923	0.054
924	0.054
924	0.054
924	0.055
925	0.055
925	0.055
926	0.055
926	0.055
927	0.056
927	0.056
927	0.056
928	0.057
928	0.057
929	0.057
929	0.058
930	0.058
930	0.058
930	0.058
931	0.058
931	0.057
932	0.057
932	0.057
933	0.057
933	0.056
933	0.055
934	0.055
934	0.054
935	0.053
935	0.053
935	0.052
936	0.051
936	0.05
937	0.05
937	0.049
938	0.048
938	0.048
938	0.047
939	0.047
939	0.046
940	0.046
940	0.046
941	0.047
941	0.047
941	0.048
942	0.049
942	0.05
943	0.051
943	0.051
944	0.052
944	0.053
944	0.053
945	0.054
945	0.054
946	0.054
946	0.054
946	0.054
947	0.054
947	0.053
948	0.053
948	0.053
949	0.053
949	0.052
949	0.052
950	0.052
950	0.052
951	0.051
951	0.051
952	0.051
952	0.05
952	0.05
953	0.05
953	0.049
954	0.049
954	0.049
955	0.049
955	0.049
955	0.05
956	0.051
956	0.051
957	0.052
957	0.053
957	0.054
958	0.055
958	0.056
959	0.057
959	0.058
960	0.059
960	0.059
960	0.059
961	0.06
961	0.059
962	0.059
962	0.059
963	0.058
963	0.058
963	0.057
964	0.057
964	0.057
965	0.056
965	0.056
966	0.056
966	0.056
966	0.056
967	0.056
967	0.057
968	0.057
968	0.057
968	0.057
969	0.057
969	0.056
970	0.055
970	0.054
971	0.053
971	0.052
971	0.051
972	0.05
972	0.049
973	0.048
973	0.048
974	0.048
974	0.048
974	0.048
975	0.048
975	0.048
976	0.049
976	0.049
976	0.049
977	0.049
977	0.049
978	0.049
978	0.049
979	0.049
979	0.049
979	0.049
980	0.049
980	0.05
981	0.05
981	0.05
982	0.05
982	0.051
982	0.051
983	0.052
983	0.052
984	0.052
984	0.052
984	0.052
985	0.052
985	0.052
986	0.052
986	0.051
987	0.051
987	0.05
987	0.05
988	0.05
988	0.049
989	0.049
989	0.049
990	0.048
990	0.048
990	0.048
991	0.047
991	0.047
992	0.046
992	0.046
992	0.045
993	0.044
993	0.043
994	0.043
994	0.042
995	0.042
995	0.041
995	0.041
996	0.041
996	0.041
997	0.041
997	0.041
997	0.042
998	0.042
998	0.042
999	0.043
999	0.044
1000	0.044
1000	0.045
1000	0.046
1001	0.046
1001	0.046
1002	0.047
1002	0.047
1003	0.047
1003	0.047
1003	0.047
1004	0.046
1004	0.046
1005	0.045
1005	0.045
1005	0.044
1006	0.044
1006	0.044
1007	0.044
1007	0.044
1008	0.043
1008	0.043
1008	0.043
1009	0.043
1009	0.043
1010	0.043
1010	0.043
1010	0.042
1011	0.042
1011	0.041
1012	0.041
1012	0.041
1013	0.041
1013	0.04
1013	0.04
1014	0.04
1014	0.04
1015	0.04
1015	0.04
1016	0.04
1016	0.04
1016	0.04
1017	0.04
1017	0.04
1018	0.04
1018	0.04
1018	0.04
1019	0.04
1019	0.04
1020	0.041
1020	0.041
1021	0.041
1021	0.042
1021	0.042
1022	0.043
1022	0.043
1023	0.044
1023	0.044
1023	0.045
1024	0.045
1024	0.045
1025	0.045
1025	0.045
1026	0.045
1026	0.045
1026	0.044
1027	0.045
1027	0.045
1028	0.045
1028	0.045
1028	0.045
1029	0.045
1029	0.045
1030	0.045
1030	0.045
1031	0.045
1031	0.045
1031	0.045
1032	0.045
1032	0.045
1033	0.045
1033	0.045
1033	0.046
1034	0.046
1034	0.045
1035	0.045
1035	0.045
1036	0.045
1036	0.045
1036	0.045
1037	0.045
1037	0.044
1038	0.044
1038	0.044
1039	0.044
1039	0.043
1039	0.043
1040	0.043
1040	0.043
1041	0.043
1041	0.042
1041	0.042
1042	0.042
1042	0.041
1043	0.041
1043	0.041
1044	0.04
1044	0.04
1044	0.04
1045	0.039
1045	0.039
1046	0.039
1046	0.039
1046	0.039
1047	0.039
1047	0.038
1048	0.038
1048	0.038
1049	0.038
1049	0.037
1049	0.037
1050	0.037
1050	0.036
1051	0.036
1051	0.035
1051	0.035
1052	0.034
1052	0.034
1053	0.033
1053	0.033
1053	0.032
1054	0.032
1054	0.032
1055	0.032
1055	0.031
1056	0.031
1056	0.03
1056	0.03
1057	0.03
1057	0.03
1058	0.03
1058	0.029
1058	0.029
1059	0.029
1059	0.03
1060	0.03
1060	0.03
1061	0.03
1061	0.03
1061	0.031
1062	0.031
1062	0.031
1063	0.031
1063	0.031
1063	0.031
1064	0.031
1064	0.031
1065	0.031
1065	0.032
1066	0.032
1066	0.032
1066	0.031
1067	0.031
1067	0.031
1068	0.031
1068	0.031
1068	0.031
1069	0.032
1069	0.032
1070	0.031
1070	0.031
1071	0.031
1071	0.031
1071	0.031
1072	0.031
1072	0.03
1073	0.03
1073	0.03
1073	0.03
1074	0.03
1074	0.03
1075	0.03
1075	0.031
1076	0.031
1076	0.031
1076	0.032
1077	0.032
1077	0.032
1078	0.032
1078	0.032
1078	0.032
1079	0.032
1079	0.032
1080	0.031
1080	0.03
1080	0.03
1081	0.03
1081	0.03
1082	0.03
1082	0.03
1083	0.03
1083	0.03
1083	0.03
1084	0.03
1084	0.031
1085	0.031
1085	0.032
1085	0.032
1086	0.033
1086	0.032
1087	0.032
1087	0.032
1088	0.032
1088	0.032
1088	0.032
1089	0.031
1089	0.031
1090	0.03
1090	0.029
1090	0.028
1091	0.028
1091	0.028
1092	0.028
1092	0.028
1092	0.028
1093	0.028
1093	0.028
1094	0.028
1094	0.028
1095	0.028
1095	0.028
1095	0.027
1096	0.027
1096	0.025
1097	0.025
1097	0.025
1097	0.024
1098	0.023
1098	0.022
1099	0.021
1099	0.021
1100	0.021
1100	0.02
1100	0.019
1101	0.019
1101	0.018
1102	0.018
1102	0.017
1102	0.016
1103	0.017
1103	0.016
1104	0.016
1104	0.016
1104	0.015
1105	0.015
1105	0.014
1106	0.013
1106	0.012
1107	0.011
1107	0.01
1107	0.01
1108	0.01
1108	0.008
1109	0.007
1109	0.007
1109	0.006
1110	0.005
1110	0.004
1111	0.003
1111	0.001
