Data from reversibility-20sec_Absorbance__5338__000000000005338.txt Node

Date: Wed Dec 06 17:52:26 CET 2023
User: Marek
Spectrometer: MAYP115816
Trigger mode: 0
Integration Time (sec): 2.000000E-1
Scans to average: 10
Electric dark correction enabled: true
Nonlinearity correction enabled: true
Boxcar width: 5
XAxis mode: Wavelengths
Number of Pixels in Spectrum: 2068
>>>>>Begin Spectral Data<<<<<
199	-0.186
199	-0.138
200	-0.069
200	-0.013
201	0.014
201	0.028
202	0.04
202	0.048
203	0.057
203	0.06
204	0.078
204	0.092
205	0.102
205	0.108
205	0.104
206	0.104
206	0.105
207	0.105
207	0.107
208	0.106
208	0.104
209	0.104
209	0.101
210	0.102
210	0.103
211	0.105
211	0.106
212	0.103
212	0.109
213	0.113
213	0.113
213	0.114
214	0.119
214	0.12
215	0.122
215	0.12
216	0.12
216	0.117
217	0.124
217	0.121
218	0.119
218	0.122
219	0.128
219	0.126
220	0.129
220	0.129
221	0.128
221	0.132
221	0.139
222	0.144
222	0.148
223	0.153
223	0.155
224	0.159
224	0.166
225	0.173
225	0.183
226	0.19
226	0.199
227	0.208
227	0.214
228	0.23
228	0.246
229	0.265
229	0.287
229	0.31
230	0.337
230	0.366
231	0.402
231	0.441
232	0.479
232	0.524
233	0.566
233	0.615
234	0.664
234	0.718
235	0.769
235	0.821
236	0.872
236	0.926
236	0.976
237	1.03
237	1.077
238	1.126
238	1.174
239	1.222
239	1.261
240	1.301
240	1.339
241	1.376
241	1.408
242	1.442
242	1.473
243	1.503
243	1.529
243	1.553
244	1.571
244	1.592
245	1.612
245	1.632
246	1.647
246	1.664
247	1.676
247	1.692
248	1.706
248	1.72
249	1.729
249	1.737
250	1.747
250	1.754
250	1.76
251	1.766
251	1.765
252	1.769
252	1.769
253	1.768
253	1.765
254	1.764
254	1.765
255	1.761
255	1.76
256	1.757
256	1.756
257	1.757
257	1.756
258	1.756
258	1.757
258	1.757
259	1.757
259	1.756
260	1.757
260	1.759
261	1.759
261	1.763
262	1.765
262	1.766
263	1.769
263	1.771
264	1.772
264	1.774
265	1.776
265	1.776
265	1.777
266	1.779
266	1.779
267	1.777
267	1.778
268	1.778
268	1.778
269	1.779
269	1.778
270	1.778
270	1.778
271	1.775
271	1.774
272	1.77
272	1.767
272	1.763
273	1.756
273	1.749
274	1.743
274	1.736
275	1.729
275	1.722
276	1.714
276	1.706
277	1.698
277	1.688
278	1.676
278	1.665
278	1.65
279	1.633
279	1.611
280	1.585
280	1.552
281	1.513
281	1.47
282	1.426
282	1.382
283	1.339
283	1.296
284	1.255
284	1.216
285	1.18
285	1.147
285	1.118
286	1.092
286	1.07
287	1.05
287	1.034
288	1.02
288	1.008
289	0.998
289	0.989
290	0.981
290	0.975
291	0.969
291	0.965
292	0.96
292	0.956
292	0.952
293	0.949
293	0.946
294	0.943
294	0.94
295	0.937
295	0.934
296	0.932
296	0.929
297	0.926
297	0.923
298	0.921
298	0.918
298	0.916
299	0.913
299	0.911
300	0.908
300	0.906
301	0.903
301	0.901
302	0.899
302	0.897
303	0.894
303	0.892
304	0.89
304	0.887
305	0.885
305	0.883
305	0.881
306	0.879
306	0.876
307	0.874
307	0.872
308	0.87
308	0.867
309	0.865
309	0.862
310	0.86
310	0.857
311	0.854
311	0.851
311	0.848
312	0.845
312	0.842
313	0.838
313	0.835
314	0.831
314	0.827
315	0.823
315	0.819
316	0.815
316	0.81
317	0.806
317	0.801
318	0.797
318	0.792
318	0.786
319	0.781
319	0.776
320	0.771
320	0.765
321	0.759
321	0.753
322	0.747
322	0.741
323	0.735
323	0.728
324	0.722
324	0.716
324	0.709
325	0.702
325	0.695
326	0.689
326	0.682
327	0.675
327	0.668
328	0.662
328	0.655
329	0.648
329	0.641
330	0.634
330	0.627
330	0.62
331	0.614
331	0.607
332	0.6
332	0.593
333	0.586
333	0.58
334	0.573
334	0.566
335	0.56
335	0.553
336	0.546
336	0.54
336	0.533
337	0.527
337	0.521
338	0.515
338	0.508
339	0.502
339	0.496
340	0.491
340	0.485
341	0.479
341	0.474
342	0.468
342	0.463
342	0.458
343	0.453
343	0.447
344	0.442
344	0.438
345	0.433
345	0.428
346	0.424
346	0.42
347	0.416
347	0.411
348	0.407
348	0.404
348	0.4
349	0.396
349	0.393
350	0.389
350	0.386
351	0.382
351	0.379
352	0.376
352	0.373
353	0.37
353	0.367
354	0.364
354	0.362
354	0.359
355	0.356
355	0.353
356	0.351
356	0.348
357	0.345
357	0.342
358	0.34
358	0.337
359	0.335
359	0.333
360	0.331
360	0.329
360	0.327
361	0.325
361	0.324
362	0.323
362	0.321
363	0.319
363	0.317
364	0.316
364	0.314
365	0.312
365	0.31
366	0.309
366	0.307
366	0.305
367	0.304
367	0.302
368	0.3
368	0.299
369	0.297
369	0.296
370	0.295
370	0.293
371	0.292
371	0.291
372	0.29
372	0.288
372	0.288
373	0.287
373	0.286
374	0.285
374	0.284
375	0.283
375	0.282
376	0.281
376	0.281
377	0.28
377	0.279
378	0.278
378	0.278
378	0.277
379	0.276
379	0.276
380	0.275
380	0.274
381	0.274
381	0.273
382	0.272
382	0.272
383	0.271
383	0.271
383	0.27
384	0.27
384	0.269
385	0.269
385	0.269
386	0.268
386	0.268
387	0.267
387	0.267
388	0.267
388	0.266
389	0.266
389	0.266
389	0.265
390	0.265
390	0.264
391	0.264
391	0.264
392	0.263
392	0.263
393	0.263
393	0.263
394	0.262
394	0.262
394	0.262
395	0.261
395	0.261
396	0.261
396	0.26
397	0.26
397	0.26
398	0.259
398	0.259
399	0.259
399	0.259
400	0.258
400	0.258
400	0.258
401	0.258
401	0.258
402	0.257
402	0.257
403	0.257
403	0.257
404	0.256
404	0.256
405	0.256
405	0.256
405	0.256
406	0.255
406	0.255
407	0.255
407	0.254
408	0.254
408	0.254
409	0.254
409	0.253
410	0.253
410	0.253
411	0.253
411	0.252
411	0.252
412	0.252
412	0.252
413	0.251
413	0.251
414	0.251
414	0.251
415	0.25
415	0.25
416	0.25
416	0.249
416	0.249
417	0.248
417	0.248
418	0.248
418	0.248
419	0.247
419	0.247
420	0.247
420	0.246
421	0.246
421	0.245
421	0.245
422	0.245
422	0.244
423	0.244
423	0.244
424	0.243
424	0.243
425	0.243
425	0.242
426	0.242
426	0.242
427	0.242
427	0.241
427	0.241
428	0.241
428	0.24
429	0.24
429	0.24
430	0.239
430	0.239
431	0.239
431	0.239
432	0.239
432	0.238
432	0.238
433	0.238
433	0.238
434	0.238
434	0.238
435	0.238
435	0.238
436	0.237
436	0.237
437	0.237
437	0.237
437	0.236
438	0.236
438	0.236
439	0.235
439	0.235
440	0.235
440	0.235
441	0.234
441	0.234
442	0.234
442	0.234
442	0.234
443	0.234
443	0.233
444	0.233
444	0.233
445	0.233
445	0.233
446	0.232
446	0.232
447	0.232
447	0.231
447	0.231
448	0.231
448	0.231
449	0.231
449	0.23
450	0.23
450	0.23
451	0.23
451	0.23
452	0.23
452	0.229
452	0.229
453	0.229
453	0.229
454	0.229
454	0.229
455	0.229
455	0.228
456	0.228
456	0.228
457	0.227
457	0.227
458	0.227
458	0.227
458	0.226
459	0.226
459	0.226
460	0.226
460	0.226
461	0.225
461	0.225
462	0.225
462	0.224
463	0.224
463	0.223
463	0.223
464	0.223
464	0.223
465	0.222
465	0.222
466	0.222
466	0.222
467	0.222
467	0.222
467	0.222
468	0.222
468	0.222
469	0.222
469	0.222
470	0.222
470	0.222
471	0.222
471	0.222
472	0.222
472	0.222
472	0.222
473	0.222
473	0.222
474	0.222
474	0.222
475	0.222
475	0.222
476	0.222
476	0.222
477	0.222
477	0.222
477	0.222
478	0.221
478	0.221
479	0.221
479	0.221
480	0.221
480	0.221
481	0.221
481	0.221
482	0.221
482	0.221
482	0.221
483	0.221
483	0.221
484	0.222
484	0.221
485	0.221
485	0.221
486	0.221
486	0.221
487	0.221
487	0.221
487	0.221
488	0.221
488	0.222
489	0.222
489	0.223
490	0.223
490	0.223
491	0.224
491	0.224
492	0.225
492	0.225
492	0.225
493	0.225
493	0.226
494	0.226
494	0.226
495	0.226
495	0.226
496	0.227
496	0.228
496	0.228
497	0.228
497	0.228
498	0.229
498	0.229
499	0.23
499	0.23
500	0.231
500	0.231
501	0.232
501	0.232
501	0.232
502	0.232
502	0.233
503	0.233
503	0.233
504	0.234
504	0.234
505	0.234
505	0.235
506	0.235
506	0.235
506	0.235
507	0.236
507	0.236
508	0.236
508	0.237
509	0.237
509	0.238
510	0.238
510	0.239
511	0.239
511	0.24
511	0.24
512	0.241
512	0.242
513	0.242
513	0.242
514	0.243
514	0.243
515	0.244
515	0.244
515	0.244
516	0.245
516	0.245
517	0.246
517	0.246
518	0.246
518	0.247
519	0.247
519	0.247
520	0.247
520	0.247
520	0.247
521	0.247
521	0.248
522	0.248
522	0.248
523	0.248
523	0.248
524	0.248
524	0.249
524	0.249
525	0.249
525	0.249
526	0.249
526	0.249
527	0.25
527	0.25
528	0.25
528	0.251
529	0.251
529	0.251
529	0.25
530	0.25
530	0.25
531	0.251
531	0.251
532	0.25
532	0.25
533	0.25
533	0.25
533	0.25
534	0.249
534	0.249
535	0.249
535	0.25
536	0.25
536	0.25
537	0.25
537	0.25
538	0.25
538	0.25
538	0.249
539	0.25
539	0.25
540	0.25
540	0.249
541	0.249
541	0.248
542	0.248
542	0.248
542	0.248
543	0.248
543	0.247
544	0.247
544	0.247
545	0.246
545	0.246
546	0.246
546	0.246
547	0.246
547	0.245
547	0.245
548	0.245
548	0.245
549	0.245
549	0.245
550	0.244
550	0.244
551	0.244
551	0.243
551	0.243
552	0.243
552	0.242
553	0.242
553	0.241
554	0.241
554	0.24
555	0.24
555	0.239
556	0.239
556	0.238
556	0.239
557	0.239
557	0.239
558	0.239
558	0.239
559	0.239
559	0.239
560	0.239
560	0.239
560	0.239
561	0.239
561	0.238
562	0.238
562	0.237
563	0.236
563	0.235
564	0.235
564	0.234
564	0.234
565	0.234
565	0.234
566	0.233
566	0.233
567	0.233
567	0.233
568	0.233
568	0.233
568	0.232
569	0.232
569	0.232
570	0.231
570	0.23
571	0.23
571	0.229
572	0.229
572	0.228
573	0.228
573	0.228
573	0.227
574	0.227
574	0.227
575	0.227
575	0.227
576	0.227
576	0.227
577	0.226
577	0.226
577	0.225
578	0.225
578	0.225
579	0.225
579	0.225
580	0.224
580	0.223
581	0.223
581	0.222
581	0.222
582	0.223
582	0.223
583	0.223
583	0.223
584	0.222
584	0.221
585	0.221
585	0.221
585	0.221
586	0.22
586	0.22
587	0.219
587	0.218
588	0.217
588	0.217
589	0.217
589	0.217
590	0.216
590	0.216
590	0.217
591	0.217
591	0.217
592	0.216
592	0.216
593	0.216
593	0.215
594	0.215
594	0.214
594	0.214
595	0.214
595	0.213
596	0.213
596	0.213
597	0.214
597	0.214
598	0.213
598	0.213
598	0.213
599	0.213
599	0.212
600	0.212
600	0.211
601	0.211
601	0.211
602	0.21
602	0.21
602	0.21
603	0.209
603	0.21
604	0.21
604	0.21
605	0.21
605	0.211
606	0.21
606	0.21
606	0.209
607	0.209
607	0.209
608	0.208
608	0.208
609	0.207
609	0.207
610	0.207
610	0.206
610	0.206
611	0.206
611	0.206
612	0.206
612	0.207
613	0.206
613	0.206
614	0.206
614	0.206
614	0.206
615	0.206
615	0.206
616	0.206
616	0.206
617	0.206
617	0.205
618	0.205
618	0.206
618	0.205
619	0.206
619	0.206
620	0.206
620	0.206
621	0.206
621	0.205
622	0.205
622	0.205
622	0.204
623	0.204
623	0.204
624	0.204
624	0.203
625	0.202
625	0.202
626	0.202
626	0.201
626	0.202
627	0.201
627	0.201
628	0.201
628	0.2
629	0.2
629	0.199
630	0.198
630	0.198
630	0.198
631	0.198
631	0.198
632	0.198
632	0.197
633	0.197
633	0.198
634	0.198
634	0.199
634	0.199
635	0.199
635	0.199
636	0.199
636	0.199
637	0.199
637	0.198
638	0.198
638	0.198
638	0.197
639	0.197
639	0.197
640	0.197
640	0.196
641	0.196
641	0.196
642	0.196
642	0.196
642	0.196
643	0.196
643	0.196
644	0.196
644	0.196
645	0.196
645	0.196
646	0.196
646	0.196
646	0.196
647	0.196
647	0.196
648	0.195
648	0.195
649	0.194
649	0.194
650	0.194
650	0.194
650	0.194
651	0.194
651	0.193
652	0.193
652	0.193
653	0.194
653	0.195
653	0.202
654	0.159
654	0.127
655	0.127
655	0.128
656	0.128
656	0.129
657	0.129
657	0.13
657	0.13
658	0.128
658	0.117
659	0.148
659	0.191
660	0.196
660	0.196
661	0.195
661	0.195
661	0.195
662	0.195
662	0.194
663	0.194
663	0.194
664	0.194
664	0.193
665	0.193
665	0.193
665	0.194
666	0.194
666	0.194
667	0.194
667	0.194
668	0.195
668	0.195
669	0.196
669	0.196
669	0.197
670	0.197
670	0.197
671	0.197
671	0.197
672	0.197
672	0.197
672	0.197
673	0.197
673	0.196
674	0.196
674	0.196
675	0.195
675	0.195
676	0.195
676	0.195
676	0.194
677	0.194
677	0.194
678	0.193
678	0.193
679	0.192
679	0.192
680	0.193
680	0.193
680	0.193
681	0.193
681	0.194
682	0.194
682	0.195
683	0.196
683	0.197
684	0.197
684	0.197
684	0.197
685	0.197
685	0.197
686	0.197
686	0.197
687	0.197
687	0.197
687	0.197
688	0.196
688	0.196
689	0.196
689	0.197
690	0.196
690	0.196
691	0.195
691	0.196
691	0.196
692	0.195
692	0.195
693	0.196
693	0.196
694	0.196
694	0.195
695	0.196
695	0.197
695	0.197
696	0.197
696	0.197
697	0.197
697	0.197
698	0.197
698	0.196
698	0.196
699	0.196
699	0.196
700	0.196
700	0.196
701	0.196
701	0.197
702	0.197
702	0.197
702	0.197
703	0.198
703	0.198
704	0.198
704	0.198
705	0.198
705	0.198
705	0.198
706	0.199
706	0.199
707	0.199
707	0.199
708	0.2
708	0.2
709	0.2
709	0.2
709	0.2
710	0.2
710	0.2
711	0.2
711	0.2
712	0.2
712	0.2
713	0.2
713	0.2
713	0.2
714	0.199
714	0.199
715	0.199
715	0.198
716	0.198
716	0.198
716	0.197
717	0.197
717	0.197
718	0.196
718	0.196
719	0.196
719	0.197
720	0.198
720	0.198
720	0.199
721	0.199
721	0.2
722	0.201
722	0.201
723	0.202
723	0.203
723	0.203
724	0.203
724	0.203
725	0.202
725	0.202
726	0.201
726	0.201
727	0.2
727	0.2
727	0.2
728	0.199
728	0.199
729	0.199
729	0.199
730	0.199
730	0.199
730	0.199
731	0.199
731	0.2
732	0.2
732	0.201
733	0.201
733	0.201
734	0.201
734	0.202
734	0.203
735	0.203
735	0.203
736	0.203
736	0.203
737	0.203
737	0.204
737	0.204
738	0.203
738	0.203
739	0.202
739	0.202
740	0.202
740	0.202
741	0.202
741	0.202
741	0.202
742	0.202
742	0.202
743	0.203
743	0.204
744	0.205
744	0.206
744	0.206
745	0.206
745	0.206
746	0.207
746	0.207
747	0.207
747	0.207
748	0.207
748	0.207
748	0.207
749	0.206
749	0.206
750	0.206
750	0.205
751	0.205
751	0.204
751	0.204
752	0.204
752	0.203
753	0.202
753	0.202
754	0.202
754	0.201
754	0.202
755	0.202
755	0.202
756	0.202
756	0.202
757	0.201
757	0.202
758	0.202
758	0.202
758	0.203
759	0.204
759	0.204
760	0.204
760	0.204
761	0.205
761	0.206
761	0.206
762	0.206
762	0.207
763	0.207
763	0.206
764	0.206
764	0.206
764	0.206
765	0.206
765	0.205
766	0.205
766	0.205
767	0.205
767	0.204
768	0.203
768	0.203
768	0.203
769	0.203
769	0.204
770	0.204
770	0.204
771	0.205
771	0.205
771	0.206
772	0.207
772	0.208
773	0.208
773	0.208
774	0.208
774	0.209
775	0.209
775	0.21
775	0.21
776	0.21
776	0.21
777	0.21
777	0.21
778	0.21
778	0.21
778	0.21
779	0.21
779	0.21
780	0.21
780	0.209
781	0.209
781	0.209
781	0.209
782	0.209
782	0.209
783	0.21
783	0.211
784	0.211
784	0.212
784	0.212
785	0.213
785	0.214
786	0.214
786	0.214
787	0.215
787	0.214
788	0.213
788	0.212
788	0.211
789	0.21
789	0.21
790	0.209
790	0.208
791	0.208
791	0.207
791	0.207
792	0.207
792	0.208
793	0.208
793	0.208
794	0.208
794	0.208
794	0.208
795	0.208
795	0.209
796	0.21
796	0.21
797	0.21
797	0.21
797	0.211
798	0.211
798	0.211
799	0.212
799	0.212
800	0.212
800	0.211
801	0.211
801	0.212
801	0.212
802	0.212
802	0.212
803	0.212
803	0.212
804	0.212
804	0.213
804	0.213
805	0.213
805	0.213
806	0.213
806	0.212
807	0.212
807	0.212
807	0.212
808	0.212
808	0.212
809	0.212
809	0.213
810	0.213
810	0.213
810	0.213
811	0.214
811	0.214
812	0.215
812	0.215
813	0.216
813	0.216
813	0.217
814	0.218
814	0.219
815	0.219
815	0.22
816	0.22
816	0.22
817	0.22
817	0.22
817	0.22
818	0.22
818	0.221
819	0.22
819	0.22
820	0.219
820	0.219
820	0.219
821	0.219
821	0.219
822	0.218
822	0.218
823	0.218
823	0.218
823	0.218
824	0.219
824	0.22
825	0.22
825	0.221
826	0.221
826	0.221
826	0.221
827	0.221
827	0.222
828	0.222
828	0.222
829	0.222
829	0.222
829	0.222
830	0.222
830	0.223
831	0.224
831	0.224
832	0.224
832	0.224
832	0.224
833	0.224
833	0.224
834	0.224
834	0.223
835	0.223
835	0.223
835	0.223
836	0.223
836	0.223
837	0.223
837	0.223
838	0.223
838	0.222
839	0.222
839	0.221
839	0.22
840	0.219
840	0.218
841	0.217
841	0.216
842	0.215
842	0.214
842	0.213
843	0.213
843	0.212
844	0.212
844	0.211
845	0.211
845	0.211
845	0.211
846	0.211
846	0.211
847	0.211
847	0.212
848	0.212
848	0.213
848	0.213
849	0.214
849	0.215
850	0.216
850	0.216
851	0.217
851	0.217
851	0.218
852	0.217
852	0.217
853	0.217
853	0.217
854	0.217
854	0.217
854	0.217
855	0.218
855	0.218
856	0.218
856	0.219
857	0.22
857	0.22
857	0.221
858	0.221
858	0.221
859	0.22
859	0.22
860	0.219
860	0.218
860	0.217
861	0.217
861	0.216
862	0.215
862	0.215
863	0.214
863	0.214
863	0.214
864	0.214
864	0.214
865	0.214
865	0.215
866	0.215
866	0.214
866	0.215
867	0.215
867	0.216
868	0.216
868	0.217
869	0.217
869	0.217
869	0.217
870	0.217
870	0.217
871	0.218
871	0.218
872	0.218
872	0.218
872	0.218
873	0.218
873	0.217
874	0.217
874	0.216
875	0.216
875	0.215
875	0.215
876	0.214
876	0.214
877	0.213
877	0.213
878	0.213
878	0.213
878	0.214
879	0.214
879	0.214
880	0.214
880	0.214
881	0.214
881	0.214
881	0.214
882	0.214
882	0.214
883	0.214
883	0.214
884	0.214
884	0.213
884	0.213
885	0.213
885	0.212
886	0.212
886	0.211
887	0.211
887	0.21
887	0.209
888	0.209
888	0.208
889	0.207
889	0.207
890	0.207
890	0.207
890	0.207
891	0.206
891	0.206
892	0.206
892	0.207
893	0.207
893	0.207
893	0.207
894	0.207
894	0.207
895	0.207
895	0.207
895	0.207
896	0.207
896	0.207
897	0.207
897	0.207
898	0.207
898	0.207
898	0.206
899	0.206
899	0.206
900	0.205
900	0.205
901	0.204
901	0.204
901	0.203
902	0.203
902	0.202
903	0.201
903	0.2
904	0.2
904	0.199
904	0.198
905	0.198
905	0.198
906	0.197
906	0.197
907	0.197
907	0.197
907	0.197
908	0.197
908	0.197
909	0.197
909	0.196
910	0.196
910	0.196
910	0.196
911	0.195
911	0.195
912	0.195
912	0.195
913	0.195
913	0.195
913	0.195
914	0.195
914	0.195
915	0.195
915	0.195
916	0.195
916	0.195
916	0.195
917	0.195
917	0.195
918	0.194
918	0.194
918	0.194
919	0.193
919	0.193
920	0.193
920	0.192
921	0.192
921	0.192
921	0.192
922	0.192
922	0.192
923	0.192
923	0.192
924	0.193
924	0.193
924	0.193
925	0.193
925	0.194
926	0.194
926	0.194
927	0.195
927	0.195
927	0.194
928	0.194
928	0.194
929	0.193
929	0.193
930	0.192
930	0.191
930	0.19
931	0.188
931	0.188
932	0.187
932	0.186
933	0.186
933	0.185
933	0.185
934	0.185
934	0.184
935	0.184
935	0.184
935	0.184
936	0.184
936	0.184
937	0.184
937	0.184
938	0.183
938	0.183
938	0.182
939	0.182
939	0.181
940	0.181
940	0.18
941	0.18
941	0.179
941	0.179
942	0.179
942	0.178
943	0.178
943	0.178
944	0.178
944	0.178
944	0.178
945	0.178
945	0.178
946	0.178
946	0.179
946	0.179
947	0.179
947	0.179
948	0.179
948	0.179
949	0.178
949	0.178
949	0.177
950	0.176
950	0.176
951	0.176
951	0.175
952	0.174
952	0.174
952	0.174
953	0.173
953	0.173
954	0.173
954	0.173
955	0.173
955	0.173
955	0.172
956	0.172
956	0.172
957	0.172
957	0.172
957	0.172
958	0.171
958	0.171
959	0.17
959	0.17
960	0.169
960	0.169
960	0.168
961	0.168
961	0.167
962	0.167
962	0.167
963	0.167
963	0.167
963	0.167
964	0.167
964	0.167
965	0.167
965	0.168
966	0.168
966	0.168
966	0.167
967	0.167
967	0.167
968	0.167
968	0.166
968	0.166
969	0.165
969	0.164
970	0.163
970	0.162
971	0.162
971	0.161
971	0.16
972	0.16
972	0.159
973	0.158
973	0.158
974	0.158
974	0.157
974	0.157
975	0.157
975	0.157
976	0.158
976	0.158
976	0.158
977	0.158
977	0.158
978	0.157
978	0.157
979	0.157
979	0.157
979	0.157
980	0.156
980	0.155
981	0.155
981	0.154
982	0.154
982	0.153
982	0.153
983	0.153
983	0.152
984	0.152
984	0.151
984	0.151
985	0.151
985	0.151
986	0.151
986	0.151
987	0.15
987	0.15
987	0.15
988	0.15
988	0.149
989	0.149
989	0.148
990	0.147
990	0.147
990	0.146
991	0.146
991	0.145
992	0.145
992	0.144
992	0.143
993	0.142
993	0.142
994	0.141
994	0.14
995	0.14
995	0.139
995	0.139
996	0.139
996	0.139
997	0.139
997	0.14
997	0.141
998	0.141
998	0.142
999	0.143
999	0.143
1000	0.144
1000	0.145
1000	0.145
1001	0.145
1001	0.145
1002	0.144
1002	0.144
1003	0.143
1003	0.143
1003	0.142
1004	0.141
1004	0.14
1005	0.139
1005	0.139
1005	0.138
1006	0.138
1006	0.138
1007	0.138
1007	0.137
1008	0.137
1008	0.138
1008	0.138
1009	0.138
1009	0.138
1010	0.138
1010	0.138
1010	0.138
1011	0.138
1011	0.138
1012	0.138
1012	0.138
1013	0.138
1013	0.138
1013	0.137
1014	0.137
1014	0.137
1015	0.136
1015	0.136
1016	0.136
1016	0.136
1016	0.135
1017	0.134
1017	0.134
1018	0.133
1018	0.133
1018	0.133
1019	0.132
1019	0.132
1020	0.131
1020	0.13
1021	0.131
1021	0.131
1021	0.131
1022	0.131
1022	0.131
1023	0.131
1023	0.131
1023	0.132
1024	0.132
1024	0.132
1025	0.132
1025	0.132
1026	0.132
1026	0.132
1026	0.132
1027	0.131
1027	0.131
1028	0.131
1028	0.131
1028	0.13
1029	0.131
1029	0.13
1030	0.13
1030	0.13
1031	0.131
1031	0.131
1031	0.131
1032	0.131
1032	0.131
1033	0.131
1033	0.131
1033	0.131
1034	0.131
1034	0.131
1035	0.131
1035	0.13
1036	0.13
1036	0.13
1036	0.13
1037	0.129
1037	0.129
1038	0.129
1038	0.129
1039	0.129
1039	0.129
1039	0.128
1040	0.129
1040	0.129
1041	0.128
1041	0.128
1041	0.128
1042	0.128
1042	0.128
1043	0.128
1043	0.128
1044	0.128
1044	0.127
1044	0.127
1045	0.127
1045	0.127
1046	0.127
1046	0.127
1046	0.126
1047	0.127
1047	0.127
1048	0.127
1048	0.127
1049	0.127
1049	0.127
1049	0.126
1050	0.126
1050	0.125
1051	0.124
1051	0.124
1051	0.123
1052	0.122
1052	0.121
1053	0.12
1053	0.119
1053	0.119
1054	0.118
1054	0.117
1055	0.117
1055	0.117
1056	0.116
1056	0.115
1056	0.115
1057	0.114
1057	0.113
1058	0.113
1058	0.112
1058	0.111
1059	0.111
1059	0.11
1060	0.109
1060	0.109
1061	0.108
1061	0.108
1061	0.108
1062	0.108
1062	0.107
1063	0.107
1063	0.107
1063	0.107
1064	0.106
1064	0.106
1065	0.106
1065	0.105
1066	0.105
1066	0.104
1066	0.104
1067	0.104
1067	0.104
1068	0.103
1068	0.103
1068	0.102
1069	0.102
1069	0.101
1070	0.101
1070	0.1
1071	0.099
1071	0.099
1071	0.098
1072	0.097
1072	0.096
1073	0.095
1073	0.095
1073	0.095
1074	0.095
1074	0.095
1075	0.095
1075	0.096
1076	0.096
1076	0.096
1076	0.096
1077	0.096
1077	0.096
1078	0.095
1078	0.095
1078	0.095
1079	0.094
1079	0.094
1080	0.093
1080	0.093
1080	0.092
1081	0.092
1081	0.092
1082	0.092
1082	0.092
1083	0.092
1083	0.091
1083	0.092
1084	0.092
1084	0.092
1085	0.091
1085	0.091
1085	0.091
1086	0.091
1086	0.09
1087	0.09
1087	0.089
1088	0.089
1088	0.088
1088	0.089
1089	0.088
1089	0.087
1090	0.087
1090	0.086
1090	0.085
1091	0.085
1091	0.085
1092	0.085
1092	0.085
1092	0.085
1093	0.084
1093	0.084
1094	0.084
1094	0.084
1095	0.084
1095	0.083
1095	0.083
1096	0.082
1096	0.081
1097	0.081
1097	0.08
1097	0.08
1098	0.078
1098	0.077
1099	0.076
1099	0.075
1100	0.074
1100	0.072
1100	0.07
1101	0.068
1101	0.066
1102	0.066
1102	0.064
1102	0.063
1103	0.061
1103	0.061
1104	0.06
1104	0.059
1104	0.059
1105	0.057
1105	0.055
1106	0.053
1106	0.051
1107	0.05
1107	0.049
1107	0.049
1108	0.047
1108	0.046
1109	0.045
1109	0.044
1109	0.043
1110	0.047
1110	0.046
1111	0.047
1111	0.049
