Data from reversibility-20sec_Absorbance__4809__000000000004809.txt Node

Date: Wed Dec 06 14:56:07 CET 2023
User: Marek
Spectrometer: MAYP115816
Trigger mode: 0
Integration Time (sec): 2.000000E-1
Scans to average: 10
Electric dark correction enabled: true
Nonlinearity correction enabled: true
Boxcar width: 5
XAxis mode: Wavelengths
Number of Pixels in Spectrum: 2068
>>>>>Begin Spectral Data<<<<<
199	-0.117
199	-0.094
200	-0.024
200	0.024
201	0.051
201	0.07
202	0.083
202	0.094
203	0.103
203	0.106
204	0.122
204	0.135
205	0.15
205	0.155
205	0.153
206	0.155
206	0.156
207	0.159
207	0.159
208	0.158
208	0.158
209	0.162
209	0.16
210	0.159
210	0.16
211	0.165
211	0.167
212	0.162
212	0.159
213	0.164
213	0.165
213	0.165
214	0.166
214	0.169
215	0.171
215	0.168
216	0.166
216	0.164
217	0.169
217	0.174
218	0.171
218	0.175
219	0.179
219	0.177
220	0.178
220	0.177
221	0.18
221	0.182
221	0.186
222	0.192
222	0.194
223	0.199
223	0.203
224	0.205
224	0.214
225	0.224
225	0.235
226	0.245
226	0.258
227	0.267
227	0.274
228	0.287
228	0.3
229	0.316
229	0.341
229	0.362
230	0.386
230	0.417
231	0.449
231	0.488
232	0.525
232	0.569
233	0.614
233	0.662
234	0.712
234	0.765
235	0.817
235	0.869
236	0.92
236	0.971
236	1.019
237	1.07
237	1.122
238	1.168
238	1.216
239	1.262
239	1.301
240	1.339
240	1.375
241	1.411
241	1.447
242	1.48
242	1.513
243	1.54
243	1.567
243	1.593
244	1.615
244	1.638
245	1.659
245	1.682
246	1.699
246	1.713
247	1.725
247	1.74
248	1.755
248	1.766
249	1.775
249	1.779
250	1.787
250	1.791
250	1.793
251	1.795
251	1.797
252	1.801
252	1.797
253	1.796
253	1.793
254	1.79
254	1.793
255	1.789
255	1.789
256	1.788
256	1.786
257	1.784
257	1.781
258	1.782
258	1.782
258	1.781
259	1.782
259	1.78
260	1.779
260	1.78
261	1.779
261	1.783
262	1.785
262	1.788
263	1.791
263	1.791
264	1.793
264	1.794
265	1.796
265	1.797
265	1.799
266	1.799
266	1.798
267	1.798
267	1.799
268	1.799
268	1.8
269	1.8
269	1.799
270	1.798
270	1.797
271	1.794
271	1.792
272	1.788
272	1.785
272	1.779
273	1.77
273	1.763
274	1.756
274	1.75
275	1.742
275	1.735
276	1.728
276	1.72
277	1.713
277	1.703
278	1.692
278	1.679
278	1.664
279	1.647
279	1.623
280	1.595
280	1.561
281	1.521
281	1.478
282	1.433
282	1.388
283	1.344
283	1.302
284	1.261
284	1.222
285	1.185
285	1.152
285	1.123
286	1.097
286	1.075
287	1.056
287	1.04
288	1.026
288	1.014
289	1.004
289	0.995
290	0.988
290	0.982
291	0.976
291	0.971
292	0.967
292	0.963
292	0.959
293	0.956
293	0.953
294	0.95
294	0.947
295	0.944
295	0.941
296	0.938
296	0.935
297	0.933
297	0.93
298	0.927
298	0.924
298	0.921
299	0.919
299	0.916
300	0.913
300	0.911
301	0.909
301	0.907
302	0.904
302	0.902
303	0.9
303	0.898
304	0.896
304	0.894
305	0.892
305	0.89
305	0.888
306	0.886
306	0.883
307	0.882
307	0.879
308	0.877
308	0.874
309	0.872
309	0.869
310	0.866
310	0.864
311	0.861
311	0.858
311	0.855
312	0.851
312	0.848
313	0.845
313	0.841
314	0.837
314	0.833
315	0.829
315	0.826
316	0.821
316	0.817
317	0.812
317	0.808
318	0.803
318	0.798
318	0.793
319	0.788
319	0.783
320	0.777
320	0.772
321	0.766
321	0.76
322	0.754
322	0.748
323	0.742
323	0.736
324	0.73
324	0.723
324	0.717
325	0.71
325	0.704
326	0.697
326	0.69
327	0.683
327	0.677
328	0.67
328	0.663
329	0.656
329	0.649
330	0.642
330	0.635
330	0.628
331	0.621
331	0.614
332	0.607
332	0.601
333	0.594
333	0.587
334	0.58
334	0.574
335	0.567
335	0.561
336	0.554
336	0.548
336	0.541
337	0.535
337	0.529
338	0.523
338	0.516
339	0.511
339	0.505
340	0.499
340	0.493
341	0.488
341	0.483
342	0.477
342	0.472
342	0.467
343	0.462
343	0.457
344	0.452
344	0.447
345	0.442
345	0.437
346	0.433
346	0.429
347	0.424
347	0.42
348	0.416
348	0.412
348	0.409
349	0.405
349	0.401
350	0.398
350	0.395
351	0.391
351	0.388
352	0.385
352	0.382
353	0.379
353	0.376
354	0.373
354	0.371
354	0.368
355	0.365
355	0.362
356	0.359
356	0.357
357	0.353
357	0.351
358	0.348
358	0.346
359	0.343
359	0.341
360	0.339
360	0.337
360	0.336
361	0.334
361	0.332
362	0.331
362	0.33
363	0.328
363	0.326
364	0.324
364	0.323
365	0.321
365	0.319
366	0.317
366	0.316
366	0.314
367	0.313
367	0.311
368	0.309
368	0.308
369	0.307
369	0.305
370	0.304
370	0.303
371	0.301
371	0.3
372	0.299
372	0.298
372	0.297
373	0.296
373	0.295
374	0.294
374	0.293
375	0.292
375	0.291
376	0.291
376	0.29
377	0.289
377	0.288
378	0.287
378	0.286
378	0.285
379	0.285
379	0.284
380	0.283
380	0.282
381	0.282
381	0.281
382	0.281
382	0.28
383	0.28
383	0.279
383	0.279
384	0.278
384	0.278
385	0.278
385	0.277
386	0.277
386	0.276
387	0.276
387	0.276
388	0.275
388	0.275
389	0.275
389	0.274
389	0.274
390	0.273
390	0.273
391	0.272
391	0.272
392	0.272
392	0.272
393	0.272
393	0.271
394	0.271
394	0.27
394	0.27
395	0.27
395	0.269
396	0.269
396	0.269
397	0.268
397	0.268
398	0.268
398	0.267
399	0.267
399	0.267
400	0.267
400	0.266
400	0.266
401	0.266
401	0.265
402	0.265
402	0.265
403	0.264
403	0.264
404	0.264
404	0.264
405	0.263
405	0.263
405	0.263
406	0.263
406	0.262
407	0.262
407	0.262
408	0.262
408	0.262
409	0.261
409	0.261
410	0.261
410	0.261
411	0.26
411	0.26
411	0.26
412	0.26
412	0.26
413	0.259
413	0.259
414	0.259
414	0.259
415	0.258
415	0.258
416	0.258
416	0.257
416	0.257
417	0.257
417	0.256
418	0.256
418	0.256
419	0.255
419	0.255
420	0.255
420	0.254
421	0.254
421	0.253
421	0.253
422	0.253
422	0.252
423	0.252
423	0.252
424	0.251
424	0.251
425	0.251
425	0.251
426	0.25
426	0.25
427	0.25
427	0.25
427	0.249
428	0.249
428	0.249
429	0.249
429	0.248
430	0.248
430	0.248
431	0.248
431	0.247
432	0.247
432	0.247
432	0.247
433	0.247
433	0.246
434	0.246
434	0.246
435	0.246
435	0.246
436	0.246
436	0.246
437	0.245
437	0.245
437	0.245
438	0.245
438	0.245
439	0.244
439	0.244
440	0.244
440	0.244
441	0.243
441	0.243
442	0.243
442	0.243
442	0.242
443	0.242
443	0.242
444	0.242
444	0.242
445	0.242
445	0.241
446	0.241
446	0.241
447	0.24
447	0.24
447	0.24
448	0.24
448	0.239
449	0.239
449	0.239
450	0.239
450	0.239
451	0.239
451	0.238
452	0.238
452	0.238
452	0.238
453	0.238
453	0.237
454	0.237
454	0.237
455	0.236
455	0.236
456	0.236
456	0.235
457	0.235
457	0.235
458	0.235
458	0.234
458	0.234
459	0.234
459	0.233
460	0.233
460	0.233
461	0.233
461	0.233
462	0.233
462	0.233
463	0.233
463	0.232
463	0.232
464	0.232
464	0.232
465	0.231
465	0.231
466	0.231
466	0.231
467	0.231
467	0.23
467	0.23
468	0.23
468	0.23
469	0.23
469	0.23
470	0.23
470	0.23
471	0.23
471	0.229
472	0.229
472	0.23
472	0.23
473	0.23
473	0.23
474	0.229
474	0.229
475	0.229
475	0.229
476	0.229
476	0.229
477	0.229
477	0.229
477	0.229
478	0.229
478	0.229
479	0.229
479	0.229
480	0.229
480	0.229
481	0.229
481	0.229
482	0.229
482	0.229
482	0.229
483	0.229
483	0.229
484	0.229
484	0.229
485	0.229
485	0.229
486	0.229
486	0.229
487	0.229
487	0.229
487	0.229
488	0.23
488	0.23
489	0.23
489	0.231
490	0.231
490	0.232
491	0.233
491	0.233
492	0.234
492	0.234
492	0.234
493	0.235
493	0.235
494	0.236
494	0.236
495	0.236
495	0.236
496	0.236
496	0.237
496	0.237
497	0.237
497	0.238
498	0.238
498	0.238
499	0.239
499	0.239
500	0.24
500	0.24
501	0.241
501	0.241
501	0.241
502	0.242
502	0.242
503	0.242
503	0.243
504	0.243
504	0.243
505	0.244
505	0.244
506	0.244
506	0.245
506	0.245
507	0.246
507	0.247
508	0.247
508	0.247
509	0.248
509	0.248
510	0.249
510	0.249
511	0.25
511	0.25
511	0.251
512	0.251
512	0.251
513	0.252
513	0.252
514	0.253
514	0.253
515	0.253
515	0.253
515	0.254
516	0.254
516	0.255
517	0.255
517	0.256
518	0.256
518	0.256
519	0.256
519	0.256
520	0.256
520	0.257
520	0.257
521	0.257
521	0.257
522	0.258
522	0.258
523	0.258
523	0.258
524	0.259
524	0.259
524	0.259
525	0.259
525	0.259
526	0.259
526	0.259
527	0.26
527	0.26
528	0.26
528	0.26
529	0.26
529	0.26
529	0.26
530	0.26
530	0.26
531	0.26
531	0.26
532	0.259
532	0.259
533	0.259
533	0.259
533	0.259
534	0.259
534	0.259
535	0.259
535	0.259
536	0.259
536	0.259
537	0.259
537	0.259
538	0.259
538	0.258
538	0.258
539	0.258
539	0.258
540	0.258
540	0.257
541	0.257
541	0.256
542	0.256
542	0.256
542	0.255
543	0.255
543	0.255
544	0.255
544	0.254
545	0.255
545	0.254
546	0.254
546	0.254
547	0.254
547	0.254
547	0.253
548	0.253
548	0.253
549	0.252
549	0.252
550	0.251
550	0.251
551	0.251
551	0.25
551	0.25
552	0.25
552	0.25
553	0.249
553	0.249
554	0.249
554	0.248
555	0.248
555	0.247
556	0.247
556	0.247
556	0.247
557	0.247
557	0.247
558	0.247
558	0.247
559	0.247
559	0.247
560	0.247
560	0.247
560	0.247
561	0.247
561	0.246
562	0.245
562	0.244
563	0.244
563	0.243
564	0.242
564	0.242
564	0.241
565	0.241
565	0.241
566	0.24
566	0.24
567	0.24
567	0.241
568	0.24
568	0.24
568	0.24
569	0.24
569	0.239
570	0.239
570	0.238
571	0.237
571	0.237
572	0.237
572	0.236
573	0.235
573	0.235
573	0.234
574	0.234
574	0.233
575	0.233
575	0.233
576	0.233
576	0.232
577	0.232
577	0.231
577	0.231
578	0.231
578	0.231
579	0.231
579	0.232
580	0.231
580	0.231
581	0.23
581	0.23
581	0.23
582	0.231
582	0.231
583	0.231
583	0.23
584	0.23
584	0.228
585	0.228
585	0.228
585	0.228
586	0.228
586	0.228
587	0.227
587	0.227
588	0.226
588	0.226
589	0.226
589	0.226
590	0.226
590	0.225
590	0.226
591	0.226
591	0.225
592	0.224
592	0.224
593	0.224
593	0.223
594	0.223
594	0.222
594	0.221
595	0.221
595	0.22
596	0.22
596	0.22
597	0.22
597	0.221
598	0.22
598	0.22
598	0.22
599	0.22
599	0.22
600	0.219
600	0.218
601	0.218
601	0.218
602	0.217
602	0.216
602	0.215
603	0.215
603	0.215
604	0.215
604	0.215
605	0.215
605	0.215
606	0.215
606	0.214
606	0.214
607	0.214
607	0.214
608	0.213
608	0.213
609	0.212
609	0.212
610	0.211
610	0.211
610	0.211
611	0.211
611	0.211
612	0.211
612	0.211
613	0.212
613	0.212
614	0.212
614	0.212
614	0.212
615	0.212
615	0.212
616	0.212
616	0.211
617	0.211
617	0.211
618	0.21
618	0.21
618	0.21
619	0.21
619	0.21
620	0.211
620	0.211
621	0.21
621	0.21
622	0.21
622	0.209
622	0.209
623	0.208
623	0.208
624	0.208
624	0.207
625	0.206
625	0.206
626	0.205
626	0.205
626	0.205
627	0.205
627	0.205
628	0.205
628	0.205
629	0.205
629	0.205
630	0.205
630	0.205
630	0.205
631	0.205
631	0.204
632	0.204
632	0.203
633	0.203
633	0.203
634	0.203
634	0.203
634	0.203
635	0.202
635	0.202
636	0.202
636	0.202
637	0.202
637	0.202
638	0.202
638	0.202
638	0.201
639	0.201
639	0.201
640	0.2
640	0.2
641	0.2
641	0.199
642	0.199
642	0.199
642	0.199
643	0.199
643	0.2
644	0.2
644	0.2
645	0.201
645	0.202
646	0.202
646	0.203
646	0.204
647	0.204
647	0.204
648	0.203
648	0.203
649	0.203
649	0.202
650	0.202
650	0.202
650	0.201
651	0.201
651	0.2
652	0.2
652	0.2
653	0.2
653	0.201
653	0.206
654	0.162
654	0.129
655	0.13
655	0.13
656	0.13
656	0.13
657	0.131
657	0.131
657	0.131
658	0.13
658	0.119
659	0.151
659	0.195
660	0.2
660	0.2
661	0.199
661	0.199
661	0.198
662	0.198
662	0.197
663	0.197
663	0.196
664	0.196
664	0.196
665	0.195
665	0.195
665	0.195
666	0.195
666	0.195
667	0.196
667	0.196
668	0.197
668	0.197
669	0.197
669	0.198
669	0.198
670	0.198
670	0.198
671	0.198
671	0.198
672	0.198
672	0.197
672	0.197
673	0.196
673	0.196
674	0.196
674	0.195
675	0.195
675	0.195
676	0.196
676	0.196
676	0.196
677	0.197
677	0.197
678	0.197
678	0.197
679	0.196
679	0.196
680	0.196
680	0.196
680	0.196
681	0.196
681	0.196
682	0.196
682	0.196
683	0.196
683	0.197
684	0.198
684	0.198
684	0.198
685	0.198
685	0.198
686	0.199
686	0.199
687	0.199
687	0.199
687	0.199
688	0.199
688	0.199
689	0.2
689	0.2
690	0.2
690	0.2
691	0.2
691	0.201
691	0.201
692	0.201
692	0.202
693	0.202
693	0.203
694	0.203
694	0.203
695	0.204
695	0.205
695	0.205
696	0.205
696	0.204
697	0.204
697	0.204
698	0.204
698	0.203
698	0.203
699	0.203
699	0.202
700	0.201
700	0.201
701	0.201
701	0.201
702	0.2
702	0.2
702	0.2
703	0.199
703	0.199
704	0.199
704	0.2
705	0.2
705	0.201
705	0.201
706	0.202
706	0.203
707	0.203
707	0.204
708	0.205
708	0.205
709	0.205
709	0.205
709	0.205
710	0.205
710	0.205
711	0.205
711	0.205
712	0.205
712	0.204
713	0.204
713	0.204
713	0.203
714	0.203
714	0.202
715	0.202
715	0.201
716	0.201
716	0.201
716	0.201
717	0.201
717	0.201
718	0.201
718	0.202
719	0.203
719	0.204
720	0.205
720	0.206
720	0.206
721	0.207
721	0.207
722	0.208
722	0.208
723	0.208
723	0.208
723	0.208
724	0.207
724	0.207
725	0.206
725	0.206
726	0.205
726	0.205
727	0.205
727	0.205
727	0.205
728	0.205
728	0.204
729	0.205
729	0.205
730	0.205
730	0.205
730	0.205
731	0.205
731	0.205
732	0.205
732	0.205
733	0.205
733	0.205
734	0.205
734	0.206
734	0.206
735	0.206
735	0.206
736	0.206
736	0.206
737	0.206
737	0.207
737	0.207
738	0.207
738	0.206
739	0.206
739	0.206
740	0.206
740	0.206
741	0.207
741	0.207
741	0.207
742	0.207
742	0.208
743	0.208
743	0.209
744	0.209
744	0.21
744	0.21
745	0.21
745	0.21
746	0.21
746	0.21
747	0.21
747	0.21
748	0.21
748	0.21
748	0.21
749	0.21
749	0.211
750	0.211
750	0.211
751	0.212
751	0.212
751	0.212
752	0.212
752	0.212
753	0.211
753	0.211
754	0.211
754	0.211
754	0.211
755	0.211
755	0.211
756	0.211
756	0.21
757	0.21
757	0.21
758	0.21
758	0.21
758	0.21
759	0.21
759	0.209
760	0.209
760	0.208
761	0.208
761	0.209
761	0.209
762	0.209
762	0.209
763	0.209
763	0.209
764	0.209
764	0.209
764	0.209
765	0.209
765	0.209
766	0.209
766	0.21
767	0.21
767	0.209
768	0.209
768	0.209
768	0.21
769	0.21
769	0.21
770	0.211
770	0.211
771	0.212
771	0.212
771	0.212
772	0.212
772	0.212
773	0.212
773	0.212
774	0.212
774	0.212
775	0.213
775	0.213
775	0.213
776	0.213
776	0.214
777	0.214
777	0.215
778	0.214
778	0.214
778	0.214
779	0.214
779	0.213
780	0.212
780	0.211
781	0.211
781	0.21
781	0.209
782	0.209
782	0.209
783	0.209
783	0.209
784	0.209
784	0.209
784	0.209
785	0.209
785	0.209
786	0.21
786	0.21
787	0.21
787	0.21
788	0.21
788	0.21
788	0.21
789	0.21
789	0.21
790	0.211
790	0.211
791	0.211
791	0.211
791	0.211
792	0.212
792	0.213
793	0.213
793	0.213
794	0.213
794	0.213
794	0.213
795	0.213
795	0.213
796	0.214
796	0.214
797	0.213
797	0.214
797	0.214
798	0.214
798	0.214
799	0.214
799	0.215
800	0.214
800	0.214
801	0.214
801	0.214
801	0.214
802	0.214
802	0.215
803	0.215
803	0.216
804	0.217
804	0.218
804	0.218
805	0.218
805	0.218
806	0.218
806	0.218
807	0.218
807	0.218
807	0.218
808	0.217
808	0.217
809	0.217
809	0.217
810	0.217
810	0.217
810	0.218
811	0.218
811	0.218
812	0.219
812	0.22
813	0.221
813	0.221
813	0.222
814	0.223
814	0.224
815	0.224
815	0.225
816	0.225
816	0.225
817	0.224
817	0.224
817	0.223
818	0.223
818	0.223
819	0.222
819	0.221
820	0.221
820	0.22
820	0.219
821	0.219
821	0.219
822	0.219
822	0.218
823	0.218
823	0.217
823	0.217
824	0.218
824	0.218
825	0.219
825	0.22
826	0.22
826	0.22
826	0.221
827	0.222
827	0.223
828	0.224
828	0.224
829	0.225
829	0.225
829	0.226
830	0.226
830	0.227
831	0.227
831	0.228
832	0.227
832	0.227
832	0.227
833	0.226
833	0.226
834	0.225
834	0.225
835	0.224
835	0.224
835	0.223
836	0.223
836	0.223
837	0.223
837	0.222
838	0.222
838	0.221
839	0.221
839	0.22
839	0.219
840	0.218
840	0.218
841	0.217
841	0.216
842	0.215
842	0.215
842	0.214
843	0.214
843	0.213
844	0.213
844	0.212
845	0.212
845	0.212
845	0.212
846	0.212
846	0.212
847	0.212
847	0.212
848	0.212
848	0.212
848	0.213
849	0.213
849	0.213
850	0.213
850	0.213
851	0.214
851	0.214
851	0.214
852	0.214
852	0.214
853	0.215
853	0.215
854	0.215
854	0.216
854	0.217
855	0.218
855	0.219
856	0.219
856	0.22
857	0.221
857	0.222
857	0.222
858	0.223
858	0.222
859	0.222
859	0.222
860	0.221
860	0.221
860	0.22
861	0.219
861	0.219
862	0.218
862	0.217
863	0.217
863	0.217
863	0.217
864	0.216
864	0.216
865	0.217
865	0.217
866	0.217
866	0.217
866	0.217
867	0.218
867	0.218
868	0.218
868	0.219
869	0.219
869	0.219
869	0.218
870	0.218
870	0.218
871	0.218
871	0.217
872	0.217
872	0.217
872	0.217
873	0.216
873	0.215
874	0.215
874	0.215
875	0.215
875	0.214
875	0.214
876	0.215
876	0.215
877	0.215
877	0.215
878	0.216
878	0.216
878	0.217
879	0.217
879	0.218
880	0.218
880	0.217
881	0.217
881	0.216
881	0.216
882	0.215
882	0.215
883	0.214
883	0.214
884	0.214
884	0.214
884	0.214
885	0.214
885	0.214
886	0.214
886	0.215
887	0.215
887	0.215
887	0.215
888	0.215
888	0.215
889	0.215
889	0.216
890	0.216
890	0.217
890	0.217
891	0.218
891	0.218
892	0.218
892	0.218
893	0.218
893	0.217
893	0.217
894	0.216
894	0.216
895	0.215
895	0.214
895	0.214
896	0.213
896	0.213
897	0.212
897	0.211
898	0.21
898	0.21
898	0.209
899	0.208
899	0.207
900	0.207
900	0.207
901	0.206
901	0.206
901	0.206
902	0.206
902	0.205
903	0.205
903	0.205
904	0.205
904	0.204
904	0.203
905	0.203
905	0.202
906	0.201
906	0.2
907	0.2
907	0.199
907	0.198
908	0.198
908	0.197
909	0.197
909	0.197
910	0.196
910	0.196
910	0.196
911	0.196
911	0.196
912	0.196
912	0.197
913	0.196
913	0.196
913	0.196
914	0.196
914	0.195
915	0.195
915	0.195
916	0.194
916	0.193
916	0.193
917	0.192
917	0.191
918	0.19
918	0.19
918	0.189
919	0.189
919	0.188
920	0.188
920	0.188
921	0.188
921	0.188
921	0.189
922	0.189
922	0.19
923	0.191
923	0.192
924	0.193
924	0.194
924	0.195
925	0.196
925	0.197
926	0.197
926	0.198
927	0.198
927	0.198
927	0.198
928	0.197
928	0.197
929	0.196
929	0.195
930	0.194
930	0.193
930	0.191
931	0.19
931	0.189
932	0.188
932	0.186
933	0.185
933	0.184
933	0.183
934	0.183
934	0.182
935	0.182
935	0.181
935	0.181
936	0.18
936	0.18
937	0.179
937	0.179
938	0.178
938	0.178
938	0.177
939	0.176
939	0.176
940	0.175
940	0.175
941	0.174
941	0.174
941	0.174
942	0.175
942	0.175
943	0.175
943	0.175
944	0.175
944	0.174
944	0.174
945	0.174
945	0.174
946	0.174
946	0.174
946	0.174
947	0.174
947	0.174
948	0.175
948	0.175
949	0.175
949	0.175
949	0.174
950	0.174
950	0.173
951	0.172
951	0.171
952	0.17
952	0.169
952	0.168
953	0.167
953	0.166
954	0.165
954	0.164
955	0.163
955	0.162
955	0.162
956	0.161
956	0.161
957	0.161
957	0.161
957	0.161
958	0.162
958	0.162
959	0.162
959	0.162
960	0.163
960	0.164
960	0.164
961	0.165
961	0.165
962	0.165
962	0.166
963	0.166
963	0.166
963	0.166
964	0.166
964	0.166
965	0.165
965	0.165
966	0.165
966	0.164
966	0.164
967	0.164
967	0.164
968	0.164
968	0.164
968	0.163
969	0.163
969	0.162
970	0.161
970	0.16
971	0.159
971	0.158
971	0.156
972	0.155
972	0.154
973	0.153
973	0.152
974	0.152
974	0.151
974	0.151
975	0.152
975	0.152
976	0.153
976	0.153
976	0.154
977	0.154
977	0.155
978	0.155
978	0.156
979	0.156
979	0.156
979	0.156
980	0.156
980	0.156
981	0.155
981	0.155
982	0.154
982	0.153
982	0.153
983	0.152
983	0.151
984	0.151
984	0.15
984	0.149
985	0.148
985	0.148
986	0.147
986	0.146
987	0.145
987	0.144
987	0.143
988	0.143
988	0.142
989	0.141
989	0.14
990	0.14
990	0.139
990	0.139
991	0.139
991	0.138
992	0.138
992	0.138
992	0.138
993	0.138
993	0.138
994	0.138
994	0.138
995	0.138
995	0.138
995	0.138
996	0.138
996	0.138
997	0.138
997	0.139
997	0.139
998	0.139
998	0.14
999	0.14
999	0.141
1000	0.142
1000	0.143
1000	0.143
1001	0.144
1001	0.145
1002	0.145
1002	0.145
1003	0.145
1003	0.145
1003	0.144
1004	0.144
1004	0.143
1005	0.142
1005	0.141
1005	0.141
1006	0.14
1006	0.139
1007	0.139
1007	0.138
1008	0.137
1008	0.137
1008	0.137
1009	0.137
1009	0.137
1010	0.137
1010	0.137
1010	0.137
1011	0.136
1011	0.136
1012	0.135
1012	0.135
1013	0.135
1013	0.134
1013	0.133
1014	0.133
1014	0.133
1015	0.133
1015	0.133
1016	0.132
1016	0.132
1016	0.132
1017	0.132
1017	0.132
1018	0.132
1018	0.131
1018	0.131
1019	0.131
1019	0.13
1020	0.13
1020	0.13
1021	0.131
1021	0.131
1021	0.131
1022	0.131
1022	0.13
1023	0.13
1023	0.13
1023	0.13
1024	0.13
1024	0.129
1025	0.129
1025	0.128
1026	0.128
1026	0.127
1026	0.127
1027	0.127
1027	0.127
1028	0.127
1028	0.127
1028	0.127
1029	0.127
1029	0.127
1030	0.128
1030	0.128
1031	0.129
1031	0.129
1031	0.129
1032	0.129
1032	0.13
1033	0.13
1033	0.129
1033	0.129
1034	0.129
1034	0.128
1035	0.127
1035	0.126
1036	0.125
1036	0.124
1036	0.123
1037	0.122
1037	0.122
1038	0.121
1038	0.12
1039	0.12
1039	0.119
1039	0.119
1040	0.118
1040	0.118
1041	0.117
1041	0.117
1041	0.116
1042	0.116
1042	0.116
1043	0.115
1043	0.115
1044	0.115
1044	0.115
1044	0.115
1045	0.115
1045	0.115
1046	0.115
1046	0.116
1046	0.116
1047	0.116
1047	0.116
1048	0.116
1048	0.117
1049	0.116
1049	0.116
1049	0.116
1050	0.116
1050	0.115
1051	0.114
1051	0.114
1051	0.114
1052	0.113
1052	0.113
1053	0.112
1053	0.111
1053	0.111
1054	0.111
1054	0.111
1055	0.111
1055	0.111
1056	0.11
1056	0.11
1056	0.11
1057	0.11
1057	0.109
1058	0.109
1058	0.108
1058	0.107
1059	0.107
1059	0.106
1060	0.105
1060	0.105
1061	0.104
1061	0.103
1061	0.103
1062	0.102
1062	0.102
1063	0.102
1063	0.102
1063	0.102
1064	0.102
1064	0.102
1065	0.101
1065	0.101
1066	0.101
1066	0.101
1066	0.1
1067	0.1
1067	0.099
1068	0.098
1068	0.098
1068	0.097
1069	0.096
1069	0.096
1070	0.095
1070	0.094
1071	0.093
1071	0.093
1071	0.092
1072	0.092
1072	0.091
1073	0.09
1073	0.09
1073	0.09
1074	0.09
1074	0.089
1075	0.089
1075	0.089
1076	0.089
1076	0.09
1076	0.09
1077	0.09
1077	0.09
1078	0.09
1078	0.09
1078	0.09
1079	0.089
1079	0.089
1080	0.089
1080	0.089
1080	0.089
1081	0.088
1081	0.089
1082	0.089
1082	0.089
1083	0.089
1083	0.09
1083	0.09
1084	0.09
1084	0.091
1085	0.091
1085	0.092
1085	0.093
1086	0.093
1086	0.093
1087	0.093
1087	0.093
1088	0.093
1088	0.093
1088	0.094
1089	0.093
1089	0.093
1090	0.092
1090	0.091
1090	0.09
1091	0.089
1091	0.089
1092	0.089
1092	0.09
1092	0.089
1093	0.089
1093	0.089
1094	0.089
1094	0.09
1095	0.09
1095	0.09
1095	0.09
1096	0.09
1096	0.089
1097	0.088
1097	0.087
1097	0.086
1098	0.085
1098	0.084
1099	0.083
1099	0.081
1100	0.079
1100	0.077
1100	0.076
1101	0.074
1101	0.073
1102	0.072
1102	0.071
1102	0.07
1103	0.069
1103	0.069
1104	0.069
1104	0.069
1104	0.068
1105	0.067
1105	0.066
1106	0.065
1106	0.064
1107	0.064
1107	0.063
1107	0.062
1108	0.061
1108	0.06
1109	0.059
1109	0.058
1109	0.058
1110	0.06
1110	0.058
1111	0.057
1111	0.055
