Data from reversibility-20sec_Absorbance__2251__000000000002251.txt Node

Date: Wed Dec 06 00:43:26 CET 2023
User: Marek
Spectrometer: MAYP115816
Trigger mode: 0
Integration Time (sec): 2.000000E-1
Scans to average: 10
Electric dark correction enabled: true
Nonlinearity correction enabled: true
Boxcar width: 5
XAxis mode: Wavelengths
Number of Pixels in Spectrum: 2068
>>>>>Begin Spectral Data<<<<<
199	-0.131
199	-0.108
200	-0.035
200	0.01
201	0.035
201	0.055
202	0.069
202	0.076
203	0.08
203	0.084
204	0.093
204	0.108
205	0.121
205	0.126
205	0.125
206	0.126
206	0.124
207	0.125
207	0.123
208	0.125
208	0.123
209	0.128
209	0.124
210	0.123
210	0.122
211	0.122
211	0.121
212	0.12
212	0.122
213	0.126
213	0.129
213	0.131
214	0.131
214	0.133
215	0.135
215	0.135
216	0.138
216	0.138
217	0.139
217	0.14
218	0.139
218	0.141
219	0.144
219	0.146
220	0.147
220	0.147
221	0.147
221	0.151
221	0.155
222	0.163
222	0.168
223	0.173
223	0.179
224	0.182
224	0.19
225	0.201
225	0.213
226	0.22
226	0.229
227	0.237
227	0.245
228	0.259
228	0.273
229	0.288
229	0.311
229	0.334
230	0.36
230	0.388
231	0.422
231	0.46
232	0.501
232	0.544
233	0.589
233	0.64
234	0.692
234	0.747
235	0.798
235	0.851
236	0.905
236	0.96
236	1.018
237	1.071
237	1.125
238	1.173
238	1.224
239	1.274
239	1.318
240	1.36
240	1.395
241	1.431
241	1.468
242	1.5
242	1.536
243	1.569
243	1.598
243	1.623
244	1.648
244	1.673
245	1.696
245	1.724
246	1.748
246	1.771
247	1.786
247	1.805
248	1.821
248	1.838
249	1.851
249	1.859
250	1.868
250	1.877
250	1.883
251	1.887
251	1.889
252	1.894
252	1.893
253	1.895
253	1.893
254	1.894
254	1.895
255	1.895
255	1.896
256	1.896
256	1.897
257	1.898
257	1.898
258	1.897
258	1.9
258	1.901
259	1.901
259	1.902
260	1.903
260	1.908
261	1.911
261	1.915
262	1.918
262	1.922
263	1.929
263	1.932
264	1.937
264	1.943
265	1.947
265	1.951
265	1.953
266	1.953
266	1.956
267	1.955
267	1.959
268	1.961
268	1.964
269	1.967
269	1.966
270	1.963
270	1.963
271	1.96
271	1.961
272	1.956
272	1.955
272	1.951
273	1.942
273	1.933
274	1.923
274	1.916
275	1.909
275	1.9
276	1.892
276	1.883
277	1.875
277	1.865
278	1.852
278	1.838
278	1.821
279	1.799
279	1.771
280	1.737
280	1.697
281	1.651
281	1.6
282	1.549
282	1.498
283	1.449
283	1.401
284	1.356
284	1.314
285	1.275
285	1.241
285	1.21
286	1.183
286	1.16
287	1.139
287	1.122
288	1.108
288	1.096
289	1.086
289	1.077
290	1.07
290	1.063
291	1.057
291	1.052
292	1.048
292	1.044
292	1.041
293	1.037
293	1.034
294	1.031
294	1.028
295	1.026
295	1.023
296	1.02
296	1.017
297	1.015
297	1.012
298	1.009
298	1.006
298	1.004
299	1.001
299	0.999
300	0.996
300	0.994
301	0.992
301	0.989
302	0.987
302	0.985
303	0.983
303	0.981
304	0.979
304	0.977
305	0.975
305	0.973
305	0.971
306	0.969
306	0.966
307	0.964
307	0.962
308	0.959
308	0.957
309	0.955
309	0.952
310	0.949
310	0.947
311	0.944
311	0.94
311	0.937
312	0.934
312	0.93
313	0.927
313	0.923
314	0.919
314	0.915
315	0.911
315	0.907
316	0.903
316	0.898
317	0.894
317	0.889
318	0.884
318	0.879
318	0.874
319	0.869
319	0.863
320	0.858
320	0.852
321	0.846
321	0.839
322	0.833
322	0.826
323	0.82
323	0.813
324	0.807
324	0.8
324	0.793
325	0.787
325	0.78
326	0.773
326	0.766
327	0.759
327	0.752
328	0.745
328	0.738
329	0.731
329	0.724
330	0.717
330	0.71
330	0.703
331	0.695
331	0.688
332	0.681
332	0.674
333	0.667
333	0.66
334	0.653
334	0.646
335	0.639
335	0.632
336	0.625
336	0.619
336	0.612
337	0.606
337	0.6
338	0.593
338	0.586
339	0.58
339	0.574
340	0.568
340	0.563
341	0.557
341	0.551
342	0.546
342	0.54
342	0.535
343	0.53
343	0.525
344	0.519
344	0.514
345	0.51
345	0.505
346	0.5
346	0.496
347	0.491
347	0.487
348	0.483
348	0.479
348	0.475
349	0.471
349	0.467
350	0.464
350	0.46
351	0.457
351	0.453
352	0.45
352	0.447
353	0.444
353	0.441
354	0.438
354	0.435
354	0.432
355	0.429
355	0.426
356	0.423
356	0.421
357	0.417
357	0.415
358	0.412
358	0.41
359	0.407
359	0.405
360	0.403
360	0.401
360	0.399
361	0.397
361	0.394
362	0.393
362	0.391
363	0.39
363	0.388
364	0.386
364	0.384
365	0.382
365	0.38
366	0.379
366	0.377
366	0.375
367	0.374
367	0.372
368	0.37
368	0.369
369	0.367
369	0.366
370	0.364
370	0.363
371	0.361
371	0.36
372	0.359
372	0.357
372	0.356
373	0.355
373	0.354
374	0.353
374	0.352
375	0.351
375	0.35
376	0.349
376	0.349
377	0.348
377	0.346
378	0.346
378	0.345
378	0.344
379	0.343
379	0.342
380	0.341
380	0.34
381	0.339
381	0.339
382	0.338
382	0.337
383	0.337
383	0.336
383	0.335
384	0.334
384	0.334
385	0.333
385	0.333
386	0.332
386	0.332
387	0.331
387	0.33
388	0.33
388	0.329
389	0.329
389	0.329
389	0.328
390	0.328
390	0.327
391	0.326
391	0.326
392	0.326
392	0.325
393	0.325
393	0.325
394	0.324
394	0.324
394	0.323
395	0.323
395	0.322
396	0.322
396	0.322
397	0.321
397	0.321
398	0.321
398	0.32
399	0.32
399	0.319
400	0.319
400	0.319
400	0.318
401	0.318
401	0.317
402	0.317
402	0.317
403	0.316
403	0.316
404	0.316
404	0.315
405	0.315
405	0.315
405	0.315
406	0.314
406	0.314
407	0.313
407	0.313
408	0.313
408	0.313
409	0.312
409	0.312
410	0.312
410	0.311
411	0.311
411	0.311
411	0.31
412	0.31
412	0.31
413	0.309
413	0.309
414	0.309
414	0.308
415	0.308
415	0.307
416	0.307
416	0.306
416	0.306
417	0.305
417	0.305
418	0.305
418	0.305
419	0.304
419	0.303
420	0.303
420	0.303
421	0.303
421	0.302
421	0.302
422	0.302
422	0.301
423	0.301
423	0.3
424	0.3
424	0.3
425	0.299
425	0.299
426	0.299
426	0.298
427	0.298
427	0.298
427	0.297
428	0.297
428	0.297
429	0.297
429	0.296
430	0.296
430	0.296
431	0.295
431	0.295
432	0.295
432	0.295
432	0.294
433	0.294
433	0.294
434	0.293
434	0.293
435	0.293
435	0.293
436	0.293
436	0.292
437	0.292
437	0.292
437	0.292
438	0.291
438	0.291
439	0.291
439	0.291
440	0.291
440	0.291
441	0.29
441	0.29
442	0.29
442	0.289
442	0.289
443	0.289
443	0.289
444	0.289
444	0.288
445	0.288
445	0.288
446	0.288
446	0.287
447	0.287
447	0.286
447	0.286
448	0.286
448	0.286
449	0.286
449	0.286
450	0.286
450	0.285
451	0.285
451	0.285
452	0.285
452	0.285
452	0.284
453	0.284
453	0.284
454	0.284
454	0.283
455	0.283
455	0.283
456	0.283
456	0.282
457	0.282
457	0.282
458	0.282
458	0.281
458	0.281
459	0.281
459	0.281
460	0.281
460	0.28
461	0.28
461	0.28
462	0.28
462	0.279
463	0.279
463	0.279
463	0.279
464	0.279
464	0.278
465	0.278
465	0.278
466	0.278
466	0.278
467	0.278
467	0.278
467	0.277
468	0.277
468	0.277
469	0.277
469	0.277
470	0.277
470	0.277
471	0.277
471	0.277
472	0.277
472	0.277
472	0.277
473	0.278
473	0.277
474	0.277
474	0.277
475	0.277
475	0.277
476	0.277
476	0.277
477	0.277
477	0.277
477	0.277
478	0.277
478	0.277
479	0.277
479	0.277
480	0.277
480	0.277
481	0.277
481	0.277
482	0.277
482	0.277
482	0.277
483	0.278
483	0.278
484	0.278
484	0.278
485	0.278
485	0.278
486	0.278
486	0.278
487	0.278
487	0.279
487	0.279
488	0.279
488	0.279
489	0.279
489	0.28
490	0.281
490	0.281
491	0.282
491	0.283
492	0.283
492	0.283
492	0.284
493	0.285
493	0.285
494	0.286
494	0.286
495	0.287
495	0.287
496	0.288
496	0.288
496	0.289
497	0.289
497	0.289
498	0.29
498	0.29
499	0.291
499	0.291
500	0.292
500	0.292
501	0.293
501	0.293
501	0.294
502	0.294
502	0.295
503	0.295
503	0.296
504	0.296
504	0.297
505	0.297
505	0.298
506	0.298
506	0.298
506	0.299
507	0.299
507	0.3
508	0.301
508	0.301
509	0.301
509	0.302
510	0.302
510	0.303
511	0.304
511	0.305
511	0.305
512	0.306
512	0.306
513	0.307
513	0.307
514	0.308
514	0.308
515	0.309
515	0.309
515	0.309
516	0.31
516	0.31
517	0.311
517	0.311
518	0.311
518	0.312
519	0.312
519	0.312
520	0.312
520	0.312
520	0.313
521	0.313
521	0.313
522	0.313
522	0.313
523	0.313
523	0.314
524	0.314
524	0.314
524	0.315
525	0.315
525	0.315
526	0.315
526	0.315
527	0.315
527	0.315
528	0.315
528	0.315
529	0.315
529	0.315
529	0.314
530	0.314
530	0.314
531	0.314
531	0.314
532	0.314
532	0.313
533	0.313
533	0.313
533	0.313
534	0.313
534	0.312
535	0.313
535	0.312
536	0.312
536	0.312
537	0.312
537	0.311
538	0.311
538	0.31
538	0.31
539	0.31
539	0.31
540	0.309
540	0.308
541	0.308
541	0.308
542	0.307
542	0.307
542	0.306
543	0.306
543	0.306
544	0.305
544	0.305
545	0.305
545	0.304
546	0.304
546	0.304
547	0.303
547	0.302
547	0.302
548	0.301
548	0.301
549	0.3
549	0.3
550	0.299
550	0.299
551	0.299
551	0.298
551	0.298
552	0.298
552	0.297
553	0.297
553	0.296
554	0.295
554	0.295
555	0.294
555	0.293
556	0.292
556	0.291
556	0.291
557	0.291
557	0.29
558	0.29
558	0.29
559	0.29
559	0.29
560	0.289
560	0.289
560	0.289
561	0.289
561	0.288
562	0.287
562	0.286
563	0.285
563	0.285
564	0.284
564	0.283
564	0.283
565	0.283
565	0.282
566	0.282
566	0.281
567	0.281
567	0.281
568	0.281
568	0.28
568	0.28
569	0.28
569	0.279
570	0.279
570	0.278
571	0.277
571	0.277
572	0.276
572	0.276
573	0.275
573	0.275
573	0.274
574	0.273
574	0.273
575	0.273
575	0.272
576	0.272
576	0.271
577	0.271
577	0.27
577	0.27
578	0.269
578	0.269
579	0.269
579	0.269
580	0.269
580	0.268
581	0.267
581	0.267
581	0.267
582	0.267
582	0.267
583	0.267
583	0.266
584	0.265
584	0.264
585	0.264
585	0.263
585	0.263
586	0.262
586	0.261
587	0.26
587	0.259
588	0.258
588	0.258
589	0.258
589	0.258
590	0.257
590	0.257
590	0.258
591	0.258
591	0.257
592	0.257
592	0.256
593	0.256
593	0.256
594	0.255
594	0.254
594	0.254
595	0.254
595	0.253
596	0.253
596	0.253
597	0.253
597	0.254
598	0.253
598	0.253
598	0.253
599	0.253
599	0.253
600	0.252
600	0.252
601	0.251
601	0.251
602	0.25
602	0.25
602	0.249
603	0.248
603	0.248
604	0.248
604	0.248
605	0.248
605	0.248
606	0.248
606	0.247
606	0.247
607	0.246
607	0.246
608	0.246
608	0.245
609	0.244
609	0.244
610	0.243
610	0.243
610	0.243
611	0.243
611	0.243
612	0.243
612	0.244
613	0.244
613	0.244
614	0.244
614	0.243
614	0.243
615	0.243
615	0.243
616	0.242
616	0.242
617	0.242
617	0.241
618	0.241
618	0.241
618	0.241
619	0.241
619	0.242
620	0.242
620	0.242
621	0.241
621	0.241
622	0.24
622	0.24
622	0.239
623	0.238
623	0.238
624	0.237
624	0.236
625	0.236
625	0.236
626	0.235
626	0.235
626	0.235
627	0.235
627	0.235
628	0.234
628	0.234
629	0.234
629	0.234
630	0.233
630	0.233
630	0.233
631	0.233
631	0.233
632	0.233
632	0.233
633	0.233
633	0.233
634	0.233
634	0.233
634	0.233
635	0.233
635	0.233
636	0.232
636	0.232
637	0.232
637	0.231
638	0.231
638	0.23
638	0.23
639	0.229
639	0.229
640	0.229
640	0.229
641	0.229
641	0.229
642	0.228
642	0.229
642	0.229
643	0.229
643	0.229
644	0.229
644	0.229
645	0.229
645	0.229
646	0.229
646	0.229
646	0.229
647	0.229
647	0.228
648	0.228
648	0.227
649	0.227
649	0.227
650	0.226
650	0.226
650	0.226
651	0.227
651	0.227
652	0.227
652	0.227
653	0.228
653	0.23
653	0.236
654	0.184
654	0.146
655	0.148
655	0.148
656	0.148
656	0.149
657	0.149
657	0.149
657	0.149
658	0.148
658	0.136
659	0.173
659	0.225
660	0.229
660	0.228
661	0.228
661	0.227
661	0.227
662	0.226
662	0.225
663	0.225
663	0.225
664	0.224
664	0.224
665	0.224
665	0.224
665	0.224
666	0.225
666	0.225
667	0.225
667	0.226
668	0.226
668	0.226
669	0.226
669	0.226
669	0.227
670	0.227
670	0.227
671	0.227
671	0.227
672	0.226
672	0.226
672	0.226
673	0.226
673	0.226
674	0.226
674	0.225
675	0.225
675	0.225
676	0.225
676	0.225
676	0.225
677	0.225
677	0.225
678	0.225
678	0.225
679	0.225
679	0.225
680	0.225
680	0.225
680	0.226
681	0.226
681	0.227
682	0.227
682	0.227
683	0.228
683	0.228
684	0.228
684	0.228
684	0.228
685	0.228
685	0.228
686	0.228
686	0.228
687	0.228
687	0.228
687	0.228
688	0.228
688	0.228
689	0.228
689	0.229
690	0.229
690	0.228
691	0.229
691	0.229
691	0.23
692	0.23
692	0.23
693	0.231
693	0.231
694	0.231
694	0.231
695	0.232
695	0.233
695	0.233
696	0.233
696	0.232
697	0.232
697	0.232
698	0.232
698	0.231
698	0.232
699	0.232
699	0.231
700	0.231
700	0.232
701	0.232
701	0.232
702	0.232
702	0.232
702	0.232
703	0.232
703	0.232
704	0.232
704	0.232
705	0.232
705	0.232
705	0.232
706	0.232
706	0.232
707	0.232
707	0.232
708	0.232
708	0.232
709	0.232
709	0.232
709	0.232
710	0.232
710	0.232
711	0.232
711	0.232
712	0.232
712	0.233
713	0.233
713	0.233
713	0.233
714	0.233
714	0.233
715	0.233
715	0.233
716	0.233
716	0.233
716	0.232
717	0.231
717	0.231
718	0.23
718	0.23
719	0.231
719	0.231
720	0.231
720	0.232
720	0.232
721	0.232
721	0.233
722	0.233
722	0.234
723	0.234
723	0.235
723	0.235
724	0.235
724	0.235
725	0.235
725	0.234
726	0.234
726	0.234
727	0.233
727	0.233
727	0.233
728	0.232
728	0.232
729	0.232
729	0.232
730	0.233
730	0.233
730	0.234
731	0.234
731	0.234
732	0.235
732	0.235
733	0.236
733	0.236
734	0.235
734	0.235
734	0.235
735	0.235
735	0.234
736	0.234
736	0.234
737	0.233
737	0.233
737	0.233
738	0.232
738	0.232
739	0.232
739	0.232
740	0.232
740	0.232
741	0.233
741	0.233
741	0.233
742	0.234
742	0.234
743	0.235
743	0.235
744	0.236
744	0.236
744	0.236
745	0.235
745	0.235
746	0.235
746	0.235
747	0.235
747	0.235
748	0.236
748	0.236
748	0.236
749	0.236
749	0.237
750	0.237
750	0.237
751	0.238
751	0.238
751	0.238
752	0.238
752	0.237
753	0.237
753	0.237
754	0.237
754	0.237
754	0.237
755	0.237
755	0.237
756	0.236
756	0.235
757	0.234
757	0.234
758	0.234
758	0.234
758	0.234
759	0.234
759	0.233
760	0.233
760	0.234
761	0.234
761	0.235
761	0.236
762	0.237
762	0.238
763	0.238
763	0.238
764	0.239
764	0.239
764	0.239
765	0.239
765	0.238
766	0.238
766	0.238
767	0.237
767	0.236
768	0.235
768	0.234
768	0.234
769	0.234
769	0.234
770	0.234
770	0.234
771	0.234
771	0.234
771	0.234
772	0.234
772	0.235
773	0.235
773	0.235
774	0.236
774	0.236
775	0.236
775	0.236
775	0.237
776	0.237
776	0.237
777	0.237
777	0.237
778	0.237
778	0.237
778	0.236
779	0.236
779	0.236
780	0.235
780	0.235
781	0.235
781	0.235
781	0.235
782	0.235
782	0.235
783	0.235
783	0.235
784	0.235
784	0.235
784	0.236
785	0.236
785	0.236
786	0.236
786	0.236
787	0.236
787	0.236
788	0.236
788	0.236
788	0.236
789	0.236
789	0.236
790	0.236
790	0.236
791	0.237
791	0.237
791	0.238
792	0.239
792	0.24
793	0.24
793	0.24
794	0.24
794	0.24
794	0.24
795	0.24
795	0.241
796	0.241
796	0.241
797	0.241
797	0.241
797	0.241
798	0.241
798	0.241
799	0.241
799	0.241
800	0.24
800	0.239
801	0.239
801	0.239
801	0.239
802	0.238
802	0.238
803	0.239
803	0.239
804	0.239
804	0.239
804	0.239
805	0.24
805	0.24
806	0.24
806	0.24
807	0.239
807	0.239
807	0.239
808	0.239
808	0.239
809	0.238
809	0.238
810	0.239
810	0.239
810	0.239
811	0.239
811	0.24
812	0.24
812	0.24
813	0.241
813	0.241
813	0.241
814	0.242
814	0.242
815	0.242
815	0.242
816	0.242
816	0.241
817	0.241
817	0.241
817	0.24
818	0.24
818	0.24
819	0.24
819	0.24
820	0.239
820	0.239
820	0.239
821	0.24
821	0.24
822	0.24
822	0.24
823	0.24
823	0.24
823	0.241
824	0.241
824	0.242
825	0.243
825	0.243
826	0.243
826	0.243
826	0.243
827	0.243
827	0.243
828	0.243
828	0.243
829	0.243
829	0.243
829	0.243
830	0.243
830	0.243
831	0.244
831	0.244
832	0.244
832	0.244
832	0.244
833	0.244
833	0.244
834	0.244
834	0.244
835	0.244
835	0.244
835	0.244
836	0.244
836	0.245
837	0.245
837	0.245
838	0.245
838	0.245
839	0.245
839	0.244
839	0.243
840	0.242
840	0.241
841	0.239
841	0.238
842	0.237
842	0.237
842	0.236
843	0.235
843	0.235
844	0.235
844	0.235
845	0.235
845	0.235
845	0.235
846	0.235
846	0.235
847	0.236
847	0.236
848	0.237
848	0.237
848	0.238
849	0.238
849	0.238
850	0.239
850	0.239
851	0.239
851	0.239
851	0.239
852	0.238
852	0.238
853	0.237
853	0.237
854	0.237
854	0.237
854	0.237
855	0.238
855	0.238
856	0.239
856	0.239
857	0.24
857	0.24
857	0.24
858	0.24
858	0.24
859	0.239
859	0.239
860	0.238
860	0.237
860	0.236
861	0.235
861	0.234
862	0.233
862	0.232
863	0.231
863	0.23
863	0.23
864	0.229
864	0.229
865	0.229
865	0.229
866	0.228
866	0.228
866	0.228
867	0.228
867	0.228
868	0.228
868	0.228
869	0.228
869	0.228
869	0.228
870	0.228
870	0.227
871	0.227
871	0.227
872	0.227
872	0.227
872	0.227
873	0.226
873	0.226
874	0.225
874	0.225
875	0.224
875	0.224
875	0.224
876	0.223
876	0.223
877	0.223
877	0.223
878	0.224
878	0.224
878	0.225
879	0.226
879	0.227
880	0.227
880	0.228
881	0.228
881	0.228
881	0.228
882	0.227
882	0.227
883	0.226
883	0.225
884	0.224
884	0.223
884	0.223
885	0.222
885	0.221
886	0.221
886	0.22
887	0.219
887	0.219
887	0.218
888	0.217
888	0.217
889	0.216
889	0.216
890	0.216
890	0.215
890	0.215
891	0.215
891	0.215
892	0.215
892	0.215
893	0.215
893	0.215
893	0.216
894	0.216
894	0.215
895	0.215
895	0.215
895	0.215
896	0.215
896	0.214
897	0.214
897	0.213
898	0.212
898	0.212
898	0.211
899	0.211
899	0.21
900	0.21
900	0.209
901	0.209
901	0.209
901	0.209
902	0.209
902	0.209
903	0.208
903	0.208
904	0.208
904	0.207
904	0.207
905	0.207
905	0.207
906	0.206
906	0.207
907	0.207
907	0.207
907	0.208
908	0.208
908	0.208
909	0.208
909	0.208
910	0.208
910	0.208
910	0.208
911	0.208
911	0.207
912	0.207
912	0.206
913	0.205
913	0.205
913	0.204
914	0.204
914	0.203
915	0.203
915	0.202
916	0.201
916	0.201
916	0.2
917	0.199
917	0.198
918	0.197
918	0.196
918	0.195
919	0.194
919	0.194
920	0.193
920	0.193
921	0.192
921	0.192
921	0.191
922	0.191
922	0.191
923	0.191
923	0.191
924	0.191
924	0.191
924	0.191
925	0.191
925	0.192
926	0.192
926	0.192
927	0.191
927	0.191
927	0.191
928	0.191
928	0.19
929	0.19
929	0.19
930	0.189
930	0.189
930	0.188
931	0.188
931	0.188
932	0.188
932	0.188
933	0.188
933	0.188
933	0.187
934	0.187
934	0.187
935	0.187
935	0.186
935	0.186
936	0.186
936	0.186
937	0.186
937	0.186
938	0.185
938	0.185
938	0.185
939	0.185
939	0.184
940	0.184
940	0.184
941	0.183
941	0.183
941	0.183
942	0.182
942	0.182
943	0.181
943	0.18
944	0.18
944	0.18
944	0.18
945	0.179
945	0.179
946	0.179
946	0.179
946	0.179
947	0.179
947	0.179
948	0.179
948	0.178
949	0.178
949	0.177
949	0.176
950	0.176
950	0.175
951	0.174
951	0.173
952	0.172
952	0.171
952	0.17
953	0.169
953	0.168
954	0.167
954	0.166
955	0.165
955	0.164
955	0.164
956	0.164
956	0.164
957	0.164
957	0.163
957	0.163
958	0.164
958	0.163
959	0.163
959	0.163
960	0.164
960	0.163
960	0.163
961	0.163
961	0.163
962	0.162
962	0.162
963	0.162
963	0.162
963	0.162
964	0.162
964	0.161
965	0.161
965	0.162
966	0.162
966	0.162
966	0.162
967	0.162
967	0.163
968	0.163
968	0.163
968	0.163
969	0.163
969	0.163
970	0.163
970	0.163
971	0.163
971	0.163
971	0.163
972	0.162
972	0.162
973	0.162
973	0.162
974	0.161
974	0.161
974	0.161
975	0.161
975	0.162
976	0.162
976	0.162
976	0.162
977	0.161
977	0.161
978	0.161
978	0.161
979	0.16
979	0.16
979	0.159
980	0.159
980	0.158
981	0.157
981	0.156
982	0.155
982	0.154
982	0.154
983	0.153
983	0.152
984	0.151
984	0.149
984	0.148
985	0.147
985	0.146
986	0.146
986	0.145
987	0.144
987	0.144
987	0.143
988	0.143
988	0.143
989	0.142
989	0.142
990	0.141
990	0.141
990	0.141
991	0.14
991	0.14
992	0.139
992	0.138
992	0.137
993	0.137
993	0.136
994	0.136
994	0.135
995	0.135
995	0.135
995	0.135
996	0.135
996	0.135
997	0.136
997	0.136
997	0.137
998	0.137
998	0.138
999	0.138
999	0.139
1000	0.14
1000	0.14
1000	0.141
1001	0.141
1001	0.142
1002	0.142
1002	0.142
1003	0.142
1003	0.142
1003	0.141
1004	0.141
1004	0.14
1005	0.14
1005	0.139
1005	0.138
1006	0.137
1006	0.137
1007	0.137
1007	0.136
1008	0.136
1008	0.135
1008	0.135
1009	0.135
1009	0.135
1010	0.134
1010	0.134
1010	0.134
1011	0.134
1011	0.133
1012	0.133
1012	0.133
1013	0.133
1013	0.132
1013	0.132
1014	0.132
1014	0.131
1015	0.131
1015	0.131
1016	0.131
1016	0.13
1016	0.13
1017	0.129
1017	0.129
1018	0.129
1018	0.129
1018	0.129
1019	0.128
1019	0.128
1020	0.128
1020	0.128
1021	0.128
1021	0.128
1021	0.128
1022	0.128
1022	0.128
1023	0.127
1023	0.127
1023	0.127
1024	0.127
1024	0.127
1025	0.126
1025	0.126
1026	0.125
1026	0.124
1026	0.124
1027	0.123
1027	0.123
1028	0.123
1028	0.122
1028	0.122
1029	0.121
1029	0.121
1030	0.121
1030	0.121
1031	0.121
1031	0.121
1031	0.122
1032	0.122
1032	0.122
1033	0.122
1033	0.122
1033	0.121
1034	0.121
1034	0.121
1035	0.121
1035	0.12
1036	0.12
1036	0.12
1036	0.12
1037	0.119
1037	0.119
1038	0.119
1038	0.119
1039	0.119
1039	0.12
1039	0.12
1040	0.12
1040	0.12
1041	0.121
1041	0.121
1041	0.121
1042	0.121
1042	0.121
1043	0.121
1043	0.121
1044	0.121
1044	0.121
1044	0.121
1045	0.121
1045	0.121
1046	0.121
1046	0.121
1046	0.122
1047	0.122
1047	0.122
1048	0.123
1048	0.123
1049	0.124
1049	0.124
1049	0.124
1050	0.124
1050	0.124
1051	0.123
1051	0.123
1051	0.122
1052	0.122
1052	0.121
1053	0.12
1053	0.118
1053	0.117
1054	0.117
1054	0.116
1055	0.115
1055	0.114
1056	0.113
1056	0.112
1056	0.111
1057	0.111
1057	0.11
1058	0.109
1058	0.108
1058	0.107
1059	0.106
1059	0.105
1060	0.104
1060	0.104
1061	0.103
1061	0.102
1061	0.102
1062	0.102
1062	0.101
1063	0.101
1063	0.101
1063	0.1
1064	0.1
1064	0.1
1065	0.1
1065	0.1
1066	0.1
1066	0.1
1066	0.099
1067	0.099
1067	0.099
1068	0.098
1068	0.098
1068	0.098
1069	0.097
1069	0.096
1070	0.095
1070	0.095
1071	0.094
1071	0.093
1071	0.092
1072	0.092
1072	0.091
1073	0.091
1073	0.09
1073	0.09
1074	0.09
1074	0.09
1075	0.09
1075	0.09
1076	0.09
1076	0.091
1076	0.091
1077	0.092
1077	0.092
1078	0.092
1078	0.092
1078	0.092
1079	0.093
1079	0.093
1080	0.092
1080	0.092
1080	0.092
1081	0.092
1081	0.092
1082	0.093
1082	0.093
1083	0.093
1083	0.092
1083	0.092
1084	0.092
1084	0.092
1085	0.091
1085	0.091
1085	0.091
1086	0.091
1086	0.089
1087	0.088
1087	0.087
1088	0.087
1088	0.086
1088	0.086
1089	0.086
1089	0.085
1090	0.083
1090	0.083
1090	0.081
1091	0.081
1091	0.081
1092	0.081
1092	0.081
1092	0.081
1093	0.08
1093	0.08
1094	0.08
1094	0.08
1095	0.08
1095	0.079
1095	0.079
1096	0.078
1096	0.077
1097	0.076
1097	0.075
1097	0.074
1098	0.074
1098	0.073
1099	0.072
1099	0.071
1100	0.07
1100	0.069
1100	0.068
1101	0.067
1101	0.067
1102	0.066
1102	0.066
1102	0.065
1103	0.065
1103	0.064
1104	0.063
1104	0.063
1104	0.063
1105	0.061
1105	0.06
1106	0.059
1106	0.058
1107	0.056
1107	0.055
1107	0.055
1108	0.054
1108	0.053
1109	0.052
1109	0.051
1109	0.051
1110	0.052
1110	0.052
1111	0.051
1111	0.05
