Data from reversibility-20sec_Absorbance__7731__000000000007731.txt Node

Date: Thu Dec 07 07:10:06 CET 2023
User: Marek
Spectrometer: MAYP115816
Trigger mode: 0
Integration Time (sec): 2.000000E-1
Scans to average: 10
Electric dark correction enabled: true
Nonlinearity correction enabled: true
Boxcar width: 5
XAxis mode: Wavelengths
Number of Pixels in Spectrum: 2068
>>>>>Begin Spectral Data<<<<<
199	-0.157
199	-0.126
200	-0.062
200	-0.01
201	0.02
201	0.035
202	0.045
202	0.056
203	0.066
203	0.071
204	0.084
204	0.1
205	0.11
205	0.116
205	0.115
206	0.114
206	0.114
207	0.118
207	0.116
208	0.116
208	0.114
209	0.12
209	0.117
210	0.12
210	0.12
211	0.123
211	0.126
212	0.125
212	0.125
213	0.129
213	0.129
213	0.129
214	0.129
214	0.13
215	0.13
215	0.131
216	0.132
216	0.13
217	0.135
217	0.136
218	0.134
218	0.138
219	0.142
219	0.141
220	0.144
220	0.146
221	0.146
221	0.149
221	0.155
222	0.159
222	0.164
223	0.172
223	0.175
224	0.181
224	0.191
225	0.199
225	0.211
226	0.222
226	0.234
227	0.244
227	0.256
228	0.27
228	0.284
229	0.299
229	0.323
229	0.342
230	0.369
230	0.397
231	0.428
231	0.464
232	0.502
232	0.542
233	0.588
233	0.635
234	0.689
234	0.737
235	0.794
235	0.847
236	0.9
236	0.952
236	1.004
237	1.053
237	1.105
238	1.15
238	1.197
239	1.246
239	1.291
240	1.329
240	1.366
241	1.401
241	1.434
242	1.466
242	1.502
243	1.53
243	1.555
243	1.58
244	1.6
244	1.621
245	1.639
245	1.661
246	1.679
246	1.695
247	1.708
247	1.719
248	1.732
248	1.748
249	1.758
249	1.765
250	1.774
250	1.783
250	1.787
251	1.792
251	1.797
252	1.802
252	1.804
253	1.805
253	1.802
254	1.803
254	1.806
255	1.804
255	1.804
256	1.805
256	1.804
257	1.803
257	1.803
258	1.802
258	1.805
258	1.805
259	1.804
259	1.803
260	1.803
260	1.804
261	1.802
261	1.803
262	1.806
262	1.807
263	1.809
263	1.807
264	1.807
264	1.807
265	1.806
265	1.806
265	1.806
266	1.806
266	1.806
267	1.805
267	1.804
268	1.804
268	1.805
269	1.807
269	1.806
270	1.805
270	1.804
271	1.802
271	1.802
272	1.8
272	1.797
272	1.795
273	1.791
273	1.786
274	1.782
274	1.777
275	1.773
275	1.765
276	1.757
276	1.75
277	1.742
277	1.733
278	1.722
278	1.71
278	1.698
279	1.684
279	1.668
280	1.647
280	1.624
281	1.595
281	1.562
282	1.526
282	1.489
283	1.451
283	1.414
284	1.377
284	1.34
285	1.305
285	1.273
285	1.244
286	1.217
286	1.194
287	1.173
287	1.156
288	1.14
288	1.127
289	1.115
289	1.104
290	1.096
290	1.088
291	1.081
291	1.075
292	1.068
292	1.063
292	1.058
293	1.053
293	1.049
294	1.045
294	1.041
295	1.037
295	1.033
296	1.029
296	1.026
297	1.023
297	1.02
298	1.016
298	1.013
298	1.01
299	1.006
299	1.003
300	1
300	0.997
301	0.994
301	0.991
302	0.988
302	0.985
303	0.982
303	0.979
304	0.976
304	0.973
305	0.971
305	0.968
305	0.965
306	0.962
306	0.959
307	0.957
307	0.954
308	0.95
308	0.947
309	0.944
309	0.941
310	0.938
310	0.935
311	0.931
311	0.928
311	0.924
312	0.92
312	0.916
313	0.913
313	0.908
314	0.904
314	0.9
315	0.896
315	0.891
316	0.886
316	0.882
317	0.877
317	0.872
318	0.867
318	0.861
318	0.856
319	0.85
319	0.845
320	0.839
320	0.833
321	0.827
321	0.821
322	0.814
322	0.808
323	0.801
323	0.794
324	0.788
324	0.781
324	0.774
325	0.767
325	0.761
326	0.753
326	0.746
327	0.739
327	0.732
328	0.725
328	0.718
329	0.711
329	0.704
330	0.696
330	0.689
330	0.682
331	0.675
331	0.668
332	0.661
332	0.654
333	0.647
333	0.64
334	0.633
334	0.626
335	0.619
335	0.612
336	0.605
336	0.598
336	0.591
337	0.585
337	0.578
338	0.572
338	0.566
339	0.56
339	0.553
340	0.548
340	0.542
341	0.536
341	0.53
342	0.525
342	0.519
342	0.514
343	0.509
343	0.503
344	0.498
344	0.493
345	0.488
345	0.483
346	0.479
346	0.474
347	0.47
347	0.466
348	0.461
348	0.457
348	0.454
349	0.45
349	0.446
350	0.442
350	0.439
351	0.435
351	0.432
352	0.428
352	0.425
353	0.422
353	0.419
354	0.416
354	0.413
354	0.41
355	0.406
355	0.403
356	0.401
356	0.398
357	0.394
357	0.391
358	0.388
358	0.386
359	0.383
359	0.381
360	0.379
360	0.377
360	0.374
361	0.372
361	0.37
362	0.369
362	0.367
363	0.365
363	0.363
364	0.361
364	0.359
365	0.357
365	0.355
366	0.353
366	0.351
366	0.35
367	0.348
367	0.346
368	0.344
368	0.343
369	0.341
369	0.34
370	0.338
370	0.337
371	0.335
371	0.334
372	0.332
372	0.331
372	0.33
373	0.329
373	0.328
374	0.327
374	0.326
375	0.325
375	0.324
376	0.323
376	0.322
377	0.32
377	0.319
378	0.318
378	0.317
378	0.316
379	0.315
379	0.314
380	0.313
380	0.313
381	0.312
381	0.311
382	0.31
382	0.309
383	0.309
383	0.308
383	0.307
384	0.307
384	0.306
385	0.305
385	0.305
386	0.304
386	0.304
387	0.303
387	0.303
388	0.302
388	0.302
389	0.301
389	0.301
389	0.3
390	0.3
390	0.299
391	0.299
391	0.298
392	0.298
392	0.297
393	0.297
393	0.296
394	0.296
394	0.295
394	0.295
395	0.294
395	0.294
396	0.293
396	0.293
397	0.292
397	0.292
398	0.291
398	0.291
399	0.291
399	0.29
400	0.29
400	0.289
400	0.289
401	0.289
401	0.289
402	0.288
402	0.288
403	0.288
403	0.287
404	0.286
404	0.286
405	0.286
405	0.285
405	0.285
406	0.285
406	0.284
407	0.284
407	0.284
408	0.283
408	0.283
409	0.283
409	0.282
410	0.282
410	0.282
411	0.281
411	0.281
411	0.281
412	0.28
412	0.28
413	0.279
413	0.279
414	0.279
414	0.278
415	0.278
415	0.278
416	0.277
416	0.277
416	0.276
417	0.276
417	0.276
418	0.276
418	0.275
419	0.275
419	0.274
420	0.274
420	0.273
421	0.273
421	0.272
421	0.272
422	0.271
422	0.271
423	0.271
423	0.271
424	0.27
424	0.27
425	0.27
425	0.27
426	0.269
426	0.269
427	0.269
427	0.268
427	0.268
428	0.268
428	0.267
429	0.267
429	0.266
430	0.266
430	0.266
431	0.266
431	0.265
432	0.265
432	0.265
432	0.265
433	0.265
433	0.265
434	0.265
434	0.265
435	0.264
435	0.264
436	0.264
436	0.264
437	0.264
437	0.263
437	0.263
438	0.263
438	0.263
439	0.263
439	0.263
440	0.262
440	0.262
441	0.262
441	0.262
442	0.261
442	0.261
442	0.261
443	0.261
443	0.26
444	0.26
444	0.26
445	0.26
445	0.26
446	0.26
446	0.259
447	0.259
447	0.259
447	0.259
448	0.259
448	0.259
449	0.259
449	0.259
450	0.259
450	0.259
451	0.259
451	0.259
452	0.259
452	0.259
452	0.259
453	0.259
453	0.259
454	0.259
454	0.258
455	0.258
455	0.258
456	0.258
456	0.258
457	0.258
457	0.258
458	0.257
458	0.257
458	0.257
459	0.257
459	0.257
460	0.257
460	0.257
461	0.257
461	0.257
462	0.257
462	0.257
463	0.257
463	0.257
463	0.258
464	0.258
464	0.257
465	0.257
465	0.257
466	0.257
466	0.257
467	0.258
467	0.258
467	0.258
468	0.258
468	0.258
469	0.259
469	0.259
470	0.26
470	0.26
471	0.26
471	0.26
472	0.261
472	0.261
472	0.261
473	0.262
473	0.262
474	0.262
474	0.262
475	0.262
475	0.262
476	0.263
476	0.263
477	0.263
477	0.264
477	0.264
478	0.264
478	0.265
479	0.265
479	0.266
480	0.266
480	0.267
481	0.267
481	0.268
482	0.268
482	0.269
482	0.269
483	0.27
483	0.271
484	0.271
484	0.271
485	0.272
485	0.272
486	0.272
486	0.273
487	0.274
487	0.274
487	0.275
488	0.275
488	0.276
489	0.277
489	0.279
490	0.28
490	0.281
491	0.282
491	0.283
492	0.284
492	0.285
492	0.286
493	0.288
493	0.289
494	0.289
494	0.29
495	0.291
495	0.292
496	0.293
496	0.294
496	0.295
497	0.296
497	0.297
498	0.298
498	0.299
499	0.3
499	0.301
500	0.303
500	0.304
501	0.305
501	0.306
501	0.307
502	0.308
502	0.309
503	0.31
503	0.311
504	0.312
504	0.313
505	0.314
505	0.315
506	0.316
506	0.317
506	0.318
507	0.319
507	0.32
508	0.321
508	0.322
509	0.323
509	0.324
510	0.324
510	0.325
511	0.326
511	0.327
511	0.328
512	0.329
512	0.329
513	0.33
513	0.331
514	0.332
514	0.333
515	0.334
515	0.334
515	0.335
516	0.335
516	0.336
517	0.336
517	0.337
518	0.338
518	0.337
519	0.338
519	0.338
520	0.338
520	0.338
520	0.338
521	0.338
521	0.338
522	0.338
522	0.338
523	0.338
523	0.338
524	0.338
524	0.338
524	0.338
525	0.338
525	0.337
526	0.337
526	0.337
527	0.336
527	0.336
528	0.335
528	0.334
529	0.334
529	0.333
529	0.332
530	0.331
530	0.33
531	0.329
531	0.328
532	0.327
532	0.326
533	0.325
533	0.324
533	0.323
534	0.321
534	0.32
535	0.319
535	0.318
536	0.317
536	0.315
537	0.314
537	0.312
538	0.311
538	0.31
538	0.308
539	0.307
539	0.306
540	0.305
540	0.303
541	0.302
541	0.3
542	0.298
542	0.297
542	0.295
543	0.293
543	0.292
544	0.29
544	0.288
545	0.286
545	0.285
546	0.283
546	0.281
547	0.279
547	0.277
547	0.275
548	0.274
548	0.272
549	0.27
549	0.268
550	0.267
550	0.265
551	0.263
551	0.261
551	0.26
552	0.259
552	0.257
553	0.255
553	0.254
554	0.252
554	0.25
555	0.248
555	0.246
556	0.245
556	0.243
556	0.242
557	0.24
557	0.239
558	0.238
558	0.236
559	0.235
559	0.234
560	0.232
560	0.231
560	0.229
561	0.228
561	0.227
562	0.225
562	0.223
563	0.221
563	0.219
564	0.217
564	0.216
564	0.214
565	0.213
565	0.211
566	0.21
566	0.209
567	0.208
567	0.206
568	0.205
568	0.204
568	0.203
569	0.201
569	0.2
570	0.198
570	0.196
571	0.195
571	0.193
572	0.192
572	0.19
573	0.189
573	0.188
573	0.187
574	0.185
574	0.185
575	0.184
575	0.183
576	0.182
576	0.181
577	0.179
577	0.178
577	0.177
578	0.176
578	0.175
579	0.175
579	0.175
580	0.173
580	0.172
581	0.171
581	0.17
581	0.169
582	0.169
582	0.168
583	0.167
583	0.166
584	0.165
584	0.163
585	0.162
585	0.161
585	0.161
586	0.16
586	0.159
587	0.158
587	0.157
588	0.156
588	0.156
589	0.155
589	0.155
590	0.154
590	0.153
590	0.153
591	0.153
591	0.151
592	0.15
592	0.149
593	0.149
593	0.148
594	0.147
594	0.146
594	0.145
595	0.144
595	0.144
596	0.143
596	0.143
597	0.143
597	0.143
598	0.142
598	0.142
598	0.141
599	0.141
599	0.14
600	0.139
600	0.139
601	0.138
601	0.138
602	0.137
602	0.136
602	0.135
603	0.134
603	0.134
604	0.134
604	0.134
605	0.134
605	0.133
606	0.132
606	0.131
606	0.131
607	0.13
607	0.13
608	0.129
608	0.128
609	0.127
609	0.127
610	0.126
610	0.126
610	0.125
611	0.125
611	0.125
612	0.125
612	0.125
613	0.125
613	0.125
614	0.124
614	0.124
614	0.124
615	0.124
615	0.124
616	0.124
616	0.123
617	0.123
617	0.123
618	0.122
618	0.122
618	0.122
619	0.121
619	0.121
620	0.121
620	0.12
621	0.119
621	0.119
622	0.118
622	0.118
622	0.117
623	0.116
623	0.116
624	0.116
624	0.115
625	0.114
625	0.114
626	0.114
626	0.114
626	0.114
627	0.114
627	0.113
628	0.113
628	0.113
629	0.113
629	0.113
630	0.113
630	0.112
630	0.112
631	0.112
631	0.111
632	0.11
632	0.11
633	0.11
633	0.109
634	0.109
634	0.109
634	0.109
635	0.109
635	0.108
636	0.108
636	0.108
637	0.107
637	0.107
638	0.106
638	0.106
638	0.105
639	0.104
639	0.104
640	0.104
640	0.103
641	0.103
641	0.103
642	0.103
642	0.103
642	0.103
643	0.103
643	0.103
644	0.103
644	0.103
645	0.103
645	0.103
646	0.103
646	0.104
646	0.104
647	0.104
647	0.104
648	0.103
648	0.102
649	0.102
649	0.102
650	0.101
650	0.101
650	0.101
651	0.101
651	0.1
652	0.101
652	0.101
653	0.101
653	0.103
653	0.108
654	0.087
654	0.071
655	0.069
655	0.069
656	0.069
656	0.069
657	0.069
657	0.069
657	0.069
658	0.068
658	0.061
659	0.076
659	0.095
660	0.1
660	0.1
661	0.1
661	0.099
661	0.098
662	0.098
662	0.097
663	0.097
663	0.097
664	0.096
664	0.096
665	0.096
665	0.096
665	0.096
666	0.096
666	0.096
667	0.096
667	0.096
668	0.096
668	0.096
669	0.096
669	0.097
669	0.097
670	0.098
670	0.098
671	0.097
671	0.097
672	0.097
672	0.096
672	0.096
673	0.095
673	0.095
674	0.094
674	0.094
675	0.093
675	0.093
676	0.094
676	0.094
676	0.094
677	0.094
677	0.094
678	0.094
678	0.094
679	0.094
679	0.094
680	0.094
680	0.094
680	0.093
681	0.093
681	0.093
682	0.093
682	0.093
683	0.094
683	0.094
684	0.094
684	0.093
684	0.093
685	0.093
685	0.093
686	0.093
686	0.093
687	0.093
687	0.093
687	0.093
688	0.093
688	0.094
689	0.094
689	0.095
690	0.094
690	0.094
691	0.094
691	0.094
691	0.094
692	0.094
692	0.094
693	0.094
693	0.094
694	0.094
694	0.094
695	0.094
695	0.095
695	0.095
696	0.095
696	0.095
697	0.095
697	0.095
698	0.095
698	0.094
698	0.094
699	0.094
699	0.093
700	0.092
700	0.092
701	0.092
701	0.091
702	0.09
702	0.09
702	0.09
703	0.089
703	0.089
704	0.088
704	0.088
705	0.088
705	0.087
705	0.087
706	0.087
706	0.087
707	0.087
707	0.087
708	0.088
708	0.088
709	0.088
709	0.088
709	0.088
710	0.088
710	0.089
711	0.089
711	0.089
712	0.09
712	0.09
713	0.09
713	0.09
713	0.09
714	0.089
714	0.089
715	0.089
715	0.088
716	0.088
716	0.087
716	0.086
717	0.085
717	0.085
718	0.085
718	0.084
719	0.085
719	0.085
720	0.085
720	0.086
720	0.087
721	0.087
721	0.088
722	0.089
722	0.089
723	0.09
723	0.09
723	0.09
724	0.089
724	0.089
725	0.088
725	0.087
726	0.086
726	0.086
727	0.085
727	0.084
727	0.084
728	0.083
728	0.083
729	0.083
729	0.083
730	0.083
730	0.083
730	0.083
731	0.084
731	0.084
732	0.084
732	0.085
733	0.085
733	0.085
734	0.085
734	0.085
734	0.086
735	0.086
735	0.086
736	0.086
736	0.086
737	0.085
737	0.085
737	0.085
738	0.084
738	0.084
739	0.083
739	0.083
740	0.082
740	0.083
741	0.083
741	0.083
741	0.083
742	0.084
742	0.084
743	0.085
743	0.086
744	0.086
744	0.086
744	0.086
745	0.086
745	0.085
746	0.085
746	0.085
747	0.084
747	0.084
748	0.084
748	0.084
748	0.083
749	0.083
749	0.084
750	0.084
750	0.084
751	0.085
751	0.085
751	0.085
752	0.085
752	0.084
753	0.084
753	0.083
754	0.082
754	0.081
754	0.081
755	0.08
755	0.08
756	0.079
756	0.078
757	0.077
757	0.078
758	0.078
758	0.078
758	0.078
759	0.078
759	0.078
760	0.078
760	0.078
761	0.078
761	0.079
761	0.079
762	0.079
762	0.079
763	0.079
763	0.079
764	0.078
764	0.078
764	0.078
765	0.077
765	0.076
766	0.076
766	0.076
767	0.075
767	0.074
768	0.074
768	0.074
768	0.074
769	0.074
769	0.074
770	0.074
770	0.075
771	0.075
771	0.075
771	0.075
772	0.076
772	0.076
773	0.076
773	0.077
774	0.077
774	0.077
775	0.077
775	0.077
775	0.077
776	0.078
776	0.078
777	0.078
777	0.079
778	0.078
778	0.078
778	0.078
779	0.077
779	0.077
780	0.075
780	0.074
781	0.073
781	0.072
781	0.071
782	0.07
782	0.07
783	0.07
783	0.07
784	0.07
784	0.07
784	0.07
785	0.071
785	0.071
786	0.071
786	0.072
787	0.072
787	0.072
788	0.071
788	0.071
788	0.071
789	0.07
789	0.071
790	0.071
790	0.071
791	0.07
791	0.07
791	0.07
792	0.07
792	0.07
793	0.07
793	0.07
794	0.07
794	0.07
794	0.069
795	0.07
795	0.07
796	0.07
796	0.069
797	0.069
797	0.069
797	0.069
798	0.069
798	0.068
799	0.068
799	0.067
800	0.067
800	0.067
801	0.067
801	0.067
801	0.067
802	0.067
802	0.068
803	0.068
803	0.068
804	0.069
804	0.069
804	0.069
805	0.069
805	0.069
806	0.068
806	0.068
807	0.068
807	0.067
807	0.067
808	0.067
808	0.067
809	0.067
809	0.067
810	0.067
810	0.068
810	0.068
811	0.068
811	0.068
812	0.069
812	0.068
813	0.069
813	0.069
813	0.069
814	0.07
814	0.07
815	0.07
815	0.07
816	0.07
816	0.07
817	0.069
817	0.069
817	0.069
818	0.068
818	0.068
819	0.068
819	0.067
820	0.066
820	0.066
820	0.065
821	0.065
821	0.065
822	0.065
822	0.065
823	0.065
823	0.065
823	0.065
824	0.066
824	0.067
825	0.068
825	0.069
826	0.07
826	0.07
826	0.071
827	0.071
827	0.072
828	0.072
828	0.072
829	0.072
829	0.072
829	0.071
830	0.071
830	0.071
831	0.072
831	0.071
832	0.071
832	0.071
832	0.071
833	0.071
833	0.071
834	0.071
834	0.07
835	0.07
835	0.07
835	0.069
836	0.069
836	0.068
837	0.068
837	0.067
838	0.067
838	0.066
839	0.065
839	0.064
839	0.063
840	0.062
840	0.062
841	0.061
841	0.06
842	0.059
842	0.058
842	0.058
843	0.057
843	0.057
844	0.056
844	0.056
845	0.055
845	0.055
845	0.055
846	0.055
846	0.055
847	0.055
847	0.055
848	0.055
848	0.055
848	0.055
849	0.055
849	0.055
850	0.055
850	0.054
851	0.054
851	0.054
851	0.054
852	0.053
852	0.053
853	0.053
853	0.053
854	0.054
854	0.055
854	0.056
855	0.056
855	0.058
856	0.059
856	0.06
857	0.061
857	0.062
857	0.063
858	0.063
858	0.064
859	0.064
859	0.064
860	0.064
860	0.063
860	0.063
861	0.062
861	0.062
862	0.061
862	0.06
863	0.059
863	0.059
863	0.059
864	0.059
864	0.059
865	0.059
865	0.059
866	0.059
866	0.059
866	0.059
867	0.06
867	0.06
868	0.06
868	0.06
869	0.06
869	0.06
869	0.06
870	0.059
870	0.059
871	0.059
871	0.059
872	0.059
872	0.058
872	0.058
873	0.057
873	0.057
874	0.056
874	0.056
875	0.055
875	0.055
875	0.055
876	0.055
876	0.055
877	0.055
877	0.055
878	0.055
878	0.055
878	0.056
879	0.056
879	0.056
880	0.056
880	0.056
881	0.056
881	0.056
881	0.056
882	0.056
882	0.056
883	0.056
883	0.056
884	0.056
884	0.056
884	0.056
885	0.056
885	0.056
886	0.056
886	0.056
887	0.056
887	0.056
887	0.056
888	0.056
888	0.056
889	0.056
889	0.056
890	0.057
890	0.057
890	0.058
891	0.058
891	0.058
892	0.058
892	0.058
893	0.058
893	0.058
893	0.057
894	0.057
894	0.056
895	0.056
895	0.055
895	0.055
896	0.054
896	0.054
897	0.054
897	0.054
898	0.053
898	0.053
898	0.053
899	0.052
899	0.052
900	0.052
900	0.052
901	0.052
901	0.052
901	0.052
902	0.052
902	0.052
903	0.052
903	0.053
904	0.053
904	0.053
904	0.052
905	0.052
905	0.052
906	0.052
906	0.051
907	0.051
907	0.051
907	0.051
908	0.051
908	0.05
909	0.05
909	0.05
910	0.05
910	0.05
910	0.049
911	0.049
911	0.048
912	0.048
912	0.047
913	0.047
913	0.047
913	0.046
914	0.046
914	0.046
915	0.046
915	0.046
916	0.046
916	0.046
916	0.047
917	0.047
917	0.047
918	0.047
918	0.047
918	0.046
919	0.046
919	0.046
920	0.046
920	0.046
921	0.047
921	0.047
921	0.047
922	0.047
922	0.047
923	0.047
923	0.047
924	0.047
924	0.048
924	0.048
925	0.048
925	0.048
926	0.049
926	0.049
927	0.049
927	0.05
927	0.05
928	0.05
928	0.051
929	0.051
929	0.052
930	0.052
930	0.052
930	0.052
931	0.052
931	0.052
932	0.052
932	0.052
933	0.052
933	0.051
933	0.051
934	0.05
934	0.049
935	0.049
935	0.048
935	0.047
936	0.047
936	0.046
937	0.045
937	0.044
938	0.043
938	0.042
938	0.042
939	0.041
939	0.041
940	0.04
940	0.041
941	0.041
941	0.041
941	0.042
942	0.043
942	0.043
943	0.044
943	0.045
944	0.046
944	0.046
944	0.047
945	0.047
945	0.048
946	0.048
946	0.048
946	0.047
947	0.047
947	0.047
948	0.047
948	0.047
949	0.047
949	0.046
949	0.046
950	0.046
950	0.046
951	0.045
951	0.045
952	0.045
952	0.044
952	0.044
953	0.044
953	0.044
954	0.044
954	0.044
955	0.044
955	0.044
955	0.044
956	0.045
956	0.046
957	0.047
957	0.048
957	0.049
958	0.05
958	0.051
959	0.052
959	0.052
960	0.053
960	0.053
960	0.054
961	0.054
961	0.054
962	0.054
962	0.053
963	0.053
963	0.052
963	0.052
964	0.051
964	0.051
965	0.051
965	0.05
966	0.05
966	0.05
966	0.05
967	0.05
967	0.05
968	0.051
968	0.051
968	0.051
969	0.05
969	0.05
970	0.049
970	0.048
971	0.048
971	0.047
971	0.046
972	0.045
972	0.044
973	0.043
973	0.042
974	0.042
974	0.042
974	0.042
975	0.042
975	0.042
976	0.043
976	0.043
976	0.043
977	0.043
977	0.043
978	0.043
978	0.043
979	0.043
979	0.043
979	0.043
980	0.044
980	0.044
981	0.044
981	0.044
982	0.045
982	0.045
982	0.046
983	0.046
983	0.046
984	0.047
984	0.047
984	0.047
985	0.046
985	0.047
986	0.046
986	0.046
987	0.046
987	0.045
987	0.045
988	0.045
988	0.044
989	0.044
989	0.044
990	0.043
990	0.043
990	0.043
991	0.042
991	0.042
992	0.042
992	0.041
992	0.04
993	0.039
993	0.039
994	0.038
994	0.037
995	0.036
995	0.036
995	0.036
996	0.036
996	0.035
997	0.036
997	0.036
997	0.036
998	0.037
998	0.037
999	0.038
999	0.039
1000	0.04
1000	0.04
1000	0.041
1001	0.042
1001	0.042
1002	0.042
1002	0.042
1003	0.042
1003	0.042
1003	0.042
1004	0.041
1004	0.04
1005	0.039
1005	0.039
1005	0.038
1006	0.038
1006	0.038
1007	0.038
1007	0.037
1008	0.037
1008	0.037
1008	0.037
1009	0.037
1009	0.037
1010	0.037
1010	0.037
1010	0.037
1011	0.037
1011	0.037
1012	0.037
1012	0.036
1013	0.036
1013	0.036
1013	0.036
1014	0.035
1014	0.035
1015	0.035
1015	0.035
1016	0.034
1016	0.034
1016	0.034
1017	0.034
1017	0.034
1018	0.034
1018	0.033
1018	0.034
1019	0.034
1019	0.034
1020	0.034
1020	0.035
1021	0.035
1021	0.036
1021	0.036
1022	0.037
1022	0.037
1023	0.038
1023	0.038
1023	0.039
1024	0.039
1024	0.039
1025	0.039
1025	0.039
1026	0.039
1026	0.038
1026	0.038
1027	0.038
1027	0.038
1028	0.039
1028	0.039
1028	0.039
1029	0.039
1029	0.039
1030	0.039
1030	0.039
1031	0.039
1031	0.039
1031	0.039
1032	0.039
1032	0.04
1033	0.04
1033	0.04
1033	0.04
1034	0.04
1034	0.04
1035	0.04
1035	0.04
1036	0.04
1036	0.04
1036	0.04
1037	0.04
1037	0.04
1038	0.039
1038	0.039
1039	0.039
1039	0.039
1039	0.039
1040	0.039
1040	0.038
1041	0.038
1041	0.038
1041	0.037
1042	0.037
1042	0.037
1043	0.036
1043	0.036
1044	0.036
1044	0.035
1044	0.035
1045	0.035
1045	0.035
1046	0.035
1046	0.035
1046	0.035
1047	0.035
1047	0.034
1048	0.034
1048	0.034
1049	0.034
1049	0.033
1049	0.033
1050	0.033
1050	0.032
1051	0.031
1051	0.031
1051	0.031
1052	0.03
1052	0.03
1053	0.029
1053	0.029
1053	0.028
1054	0.028
1054	0.028
1055	0.028
1055	0.027
1056	0.027
1056	0.027
1056	0.026
1057	0.026
1057	0.026
1058	0.026
1058	0.025
1058	0.025
1059	0.025
1059	0.025
1060	0.025
1060	0.025
1061	0.025
1061	0.025
1061	0.026
1062	0.026
1062	0.026
1063	0.027
1063	0.027
1063	0.027
1064	0.027
1064	0.028
1065	0.027
1065	0.028
1066	0.028
1066	0.028
1066	0.028
1067	0.028
1067	0.028
1068	0.028
1068	0.028
1068	0.028
1069	0.028
1069	0.027
1070	0.027
1070	0.027
1071	0.027
1071	0.026
1071	0.026
1072	0.026
1072	0.026
1073	0.026
1073	0.025
1073	0.026
1074	0.026
1074	0.026
1075	0.026
1075	0.026
1076	0.027
1076	0.028
1076	0.028
1077	0.028
1077	0.028
1078	0.028
1078	0.028
1078	0.028
1079	0.028
1079	0.027
1080	0.027
1080	0.027
1080	0.027
1081	0.026
1081	0.027
1082	0.027
1082	0.027
1083	0.027
1083	0.027
1083	0.028
1084	0.028
1084	0.029
1085	0.029
1085	0.029
1085	0.03
1086	0.03
1086	0.03
1087	0.029
1087	0.029
1088	0.029
1088	0.029
1088	0.028
1089	0.028
1089	0.027
1090	0.026
1090	0.026
1090	0.025
1091	0.025
1091	0.024
1092	0.025
1092	0.025
1092	0.025
1093	0.024
1093	0.025
1094	0.025
1094	0.025
1095	0.024
1095	0.024
1095	0.024
1096	0.023
1096	0.022
1097	0.022
1097	0.021
1097	0.021
1098	0.021
1098	0.02
1099	0.019
1099	0.018
1100	0.017
1100	0.016
1100	0.015
1101	0.015
1101	0.014
1102	0.013
1102	0.012
1102	0.011
1103	0.011
1103	0.011
1104	0.01
1104	0.01
1104	0.01
1105	0.01
1105	0.009
1106	0.009
1106	0.008
1107	0.008
1107	0.008
1107	0.009
1108	0.008
1108	0.009
1109	0.008
1109	0.008
1109	0.007
1110	0.008
1110	0.008
1111	0.007
1111	0.007
