Data from reversibility-20sec_Absorbance__3884__000000000003884.txt Node

Date: Wed Dec 06 09:47:46 CET 2023
User: Marek
Spectrometer: MAYP115816
Trigger mode: 0
Integration Time (sec): 2.000000E-1
Scans to average: 10
Electric dark correction enabled: true
Nonlinearity correction enabled: true
Boxcar width: 5
XAxis mode: Wavelengths
Number of Pixels in Spectrum: 2068
>>>>>Begin Spectral Data<<<<<
199	-0.124
199	-0.095
200	-0.029
200	0.02
201	0.041
201	0.052
202	0.062
202	0.072
203	0.077
203	0.08
204	0.093
204	0.103
205	0.111
205	0.116
205	0.114
206	0.115
206	0.117
207	0.118
207	0.115
208	0.116
208	0.117
209	0.12
209	0.118
210	0.118
210	0.118
211	0.119
211	0.122
212	0.121
212	0.125
213	0.129
213	0.131
213	0.132
214	0.135
214	0.135
215	0.14
215	0.141
216	0.142
216	0.14
217	0.143
217	0.144
218	0.143
218	0.147
219	0.152
219	0.154
220	0.158
220	0.157
221	0.157
221	0.16
221	0.167
222	0.174
222	0.179
223	0.186
223	0.188
224	0.193
224	0.2
225	0.21
225	0.221
226	0.232
226	0.242
227	0.252
227	0.26
228	0.275
228	0.292
229	0.31
229	0.334
229	0.356
230	0.383
230	0.413
231	0.446
231	0.484
232	0.521
232	0.568
233	0.612
233	0.659
234	0.707
234	0.76
235	0.815
235	0.867
236	0.918
236	0.968
236	1.022
237	1.074
237	1.122
238	1.167
238	1.216
239	1.265
239	1.304
240	1.341
240	1.378
241	1.412
241	1.447
242	1.479
242	1.513
243	1.543
243	1.569
243	1.594
244	1.615
244	1.638
245	1.657
245	1.681
246	1.702
246	1.719
247	1.73
247	1.743
248	1.757
248	1.77
249	1.778
249	1.785
250	1.792
250	1.803
250	1.805
251	1.807
251	1.81
252	1.814
252	1.812
253	1.812
253	1.81
254	1.809
254	1.812
255	1.812
255	1.811
256	1.811
256	1.812
257	1.812
257	1.811
258	1.812
258	1.812
258	1.814
259	1.813
259	1.812
260	1.81
260	1.808
261	1.808
261	1.808
262	1.809
262	1.81
263	1.812
263	1.811
264	1.81
264	1.811
265	1.812
265	1.812
265	1.812
266	1.813
266	1.813
267	1.812
267	1.811
268	1.811
268	1.813
269	1.814
269	1.814
270	1.813
270	1.812
271	1.81
271	1.808
272	1.804
272	1.803
272	1.801
273	1.796
273	1.79
274	1.783
274	1.778
275	1.772
275	1.766
276	1.759
276	1.752
277	1.746
277	1.736
278	1.724
278	1.713
278	1.7
279	1.686
279	1.668
280	1.646
280	1.621
281	1.59
281	1.555
282	1.519
282	1.481
283	1.444
283	1.406
284	1.369
284	1.333
285	1.299
285	1.269
285	1.24
286	1.216
286	1.194
287	1.174
287	1.157
288	1.143
288	1.131
289	1.12
289	1.111
290	1.103
290	1.095
291	1.089
291	1.083
292	1.078
292	1.073
292	1.069
293	1.065
293	1.061
294	1.057
294	1.054
295	1.051
295	1.047
296	1.044
296	1.041
297	1.038
297	1.035
298	1.032
298	1.029
298	1.026
299	1.023
299	1.02
300	1.017
300	1.014
301	1.011
301	1.009
302	1.006
302	1.003
303	1.001
303	0.998
304	0.995
304	0.993
305	0.99
305	0.988
305	0.985
306	0.982
306	0.98
307	0.977
307	0.975
308	0.972
308	0.969
309	0.966
309	0.963
310	0.96
310	0.957
311	0.954
311	0.951
311	0.947
312	0.943
312	0.94
313	0.936
313	0.932
314	0.928
314	0.924
315	0.92
315	0.916
316	0.911
316	0.907
317	0.902
317	0.898
318	0.893
318	0.888
318	0.883
319	0.877
319	0.872
320	0.866
320	0.86
321	0.854
321	0.848
322	0.842
322	0.835
323	0.829
323	0.823
324	0.816
324	0.81
324	0.803
325	0.796
325	0.79
326	0.783
326	0.776
327	0.77
327	0.763
328	0.756
328	0.75
329	0.743
329	0.736
330	0.729
330	0.722
330	0.715
331	0.709
331	0.702
332	0.695
332	0.688
333	0.681
333	0.674
334	0.667
334	0.66
335	0.654
335	0.647
336	0.64
336	0.634
336	0.627
337	0.621
337	0.615
338	0.609
338	0.603
339	0.597
339	0.591
340	0.586
340	0.58
341	0.575
341	0.569
342	0.564
342	0.558
342	0.553
343	0.548
343	0.543
344	0.538
344	0.533
345	0.528
345	0.524
346	0.519
346	0.515
347	0.51
347	0.506
348	0.502
348	0.498
348	0.495
349	0.491
349	0.487
350	0.484
350	0.48
351	0.477
351	0.474
352	0.471
352	0.468
353	0.465
353	0.462
354	0.459
354	0.456
354	0.453
355	0.45
355	0.446
356	0.443
356	0.44
357	0.437
357	0.435
358	0.432
358	0.429
359	0.427
359	0.425
360	0.423
360	0.421
360	0.419
361	0.417
361	0.415
362	0.413
362	0.411
363	0.409
363	0.407
364	0.405
364	0.403
365	0.401
365	0.399
366	0.397
366	0.395
366	0.394
367	0.392
367	0.39
368	0.388
368	0.386
369	0.385
369	0.384
370	0.382
370	0.381
371	0.379
371	0.378
372	0.377
372	0.375
372	0.374
373	0.373
373	0.372
374	0.371
374	0.369
375	0.368
375	0.367
376	0.366
376	0.365
377	0.364
377	0.363
378	0.362
378	0.36
378	0.36
379	0.359
379	0.358
380	0.357
380	0.356
381	0.355
381	0.354
382	0.353
382	0.353
383	0.352
383	0.351
383	0.351
384	0.35
384	0.349
385	0.349
385	0.348
386	0.348
386	0.347
387	0.346
387	0.346
388	0.345
388	0.344
389	0.344
389	0.343
389	0.343
390	0.342
390	0.342
391	0.341
391	0.34
392	0.34
392	0.34
393	0.339
393	0.338
394	0.338
394	0.337
394	0.337
395	0.336
395	0.336
396	0.335
396	0.335
397	0.334
397	0.333
398	0.333
398	0.333
399	0.332
399	0.332
400	0.331
400	0.331
400	0.33
401	0.33
401	0.329
402	0.329
402	0.329
403	0.328
403	0.328
404	0.327
404	0.327
405	0.327
405	0.326
405	0.326
406	0.325
406	0.325
407	0.325
407	0.324
408	0.324
408	0.324
409	0.323
409	0.323
410	0.322
410	0.322
411	0.322
411	0.322
411	0.321
412	0.321
412	0.321
413	0.32
413	0.32
414	0.32
414	0.319
415	0.319
415	0.319
416	0.318
416	0.317
416	0.317
417	0.316
417	0.316
418	0.316
418	0.315
419	0.315
419	0.314
420	0.314
420	0.313
421	0.313
421	0.312
421	0.312
422	0.312
422	0.311
423	0.311
423	0.311
424	0.311
424	0.31
425	0.31
425	0.31
426	0.31
426	0.309
427	0.309
427	0.309
427	0.308
428	0.308
428	0.307
429	0.307
429	0.307
430	0.306
430	0.306
431	0.306
431	0.305
432	0.305
432	0.305
432	0.305
433	0.305
433	0.305
434	0.304
434	0.304
435	0.304
435	0.304
436	0.304
436	0.304
437	0.304
437	0.304
437	0.303
438	0.303
438	0.303
439	0.303
439	0.303
440	0.303
440	0.302
441	0.302
441	0.302
442	0.302
442	0.302
442	0.301
443	0.301
443	0.301
444	0.301
444	0.301
445	0.301
445	0.3
446	0.3
446	0.3
447	0.3
447	0.299
447	0.299
448	0.299
448	0.3
449	0.3
449	0.3
450	0.3
450	0.3
451	0.3
451	0.3
452	0.3
452	0.3
452	0.3
453	0.3
453	0.3
454	0.3
454	0.3
455	0.299
455	0.299
456	0.299
456	0.299
457	0.299
457	0.299
458	0.299
458	0.299
458	0.299
459	0.299
459	0.299
460	0.299
460	0.3
461	0.3
461	0.3
462	0.3
462	0.3
463	0.3
463	0.3
463	0.3
464	0.299
464	0.299
465	0.299
465	0.299
466	0.299
466	0.3
467	0.3
467	0.3
467	0.301
468	0.301
468	0.301
469	0.302
469	0.302
470	0.303
470	0.303
471	0.303
471	0.304
472	0.304
472	0.304
472	0.305
473	0.305
473	0.305
474	0.306
474	0.306
475	0.306
475	0.307
476	0.307
476	0.308
477	0.308
477	0.309
477	0.309
478	0.31
478	0.31
479	0.311
479	0.312
480	0.312
480	0.313
481	0.314
481	0.315
482	0.315
482	0.316
482	0.316
483	0.317
483	0.318
484	0.319
484	0.319
485	0.32
485	0.321
486	0.321
486	0.322
487	0.323
487	0.324
487	0.325
488	0.325
488	0.326
489	0.328
489	0.329
490	0.33
490	0.332
491	0.333
491	0.334
492	0.336
492	0.337
492	0.338
493	0.34
493	0.341
494	0.343
494	0.344
495	0.345
495	0.346
496	0.348
496	0.349
496	0.35
497	0.352
497	0.353
498	0.354
498	0.355
499	0.357
499	0.358
500	0.36
500	0.362
501	0.363
501	0.364
501	0.365
502	0.366
502	0.368
503	0.369
503	0.37
504	0.372
504	0.373
505	0.374
505	0.375
506	0.377
506	0.378
506	0.379
507	0.381
507	0.382
508	0.383
508	0.384
509	0.385
509	0.386
510	0.387
510	0.388
511	0.39
511	0.391
511	0.392
512	0.393
512	0.394
513	0.395
513	0.396
514	0.397
514	0.398
515	0.399
515	0.399
515	0.4
516	0.4
516	0.401
517	0.402
517	0.402
518	0.402
518	0.402
519	0.403
519	0.403
520	0.403
520	0.403
520	0.403
521	0.404
521	0.404
522	0.404
522	0.404
523	0.405
523	0.405
524	0.405
524	0.405
524	0.405
525	0.404
525	0.404
526	0.403
526	0.402
527	0.401
527	0.401
528	0.4
528	0.399
529	0.398
529	0.397
529	0.396
530	0.395
530	0.394
531	0.393
531	0.392
532	0.391
532	0.389
533	0.388
533	0.387
533	0.385
534	0.384
534	0.382
535	0.38
535	0.379
536	0.377
536	0.375
537	0.374
537	0.372
538	0.37
538	0.368
538	0.367
539	0.365
539	0.363
540	0.362
540	0.36
541	0.358
541	0.357
542	0.355
542	0.353
542	0.351
543	0.349
543	0.347
544	0.344
544	0.342
545	0.34
545	0.338
546	0.336
546	0.334
547	0.331
547	0.329
547	0.327
548	0.325
548	0.323
549	0.321
549	0.319
550	0.317
550	0.314
551	0.312
551	0.31
551	0.308
552	0.306
552	0.304
553	0.302
553	0.3
554	0.298
554	0.295
555	0.293
555	0.291
556	0.289
556	0.287
556	0.286
557	0.284
557	0.282
558	0.28
558	0.278
559	0.276
559	0.274
560	0.272
560	0.271
560	0.269
561	0.267
561	0.265
562	0.263
562	0.261
563	0.259
563	0.257
564	0.255
564	0.253
564	0.252
565	0.25
565	0.248
566	0.246
566	0.244
567	0.243
567	0.241
568	0.24
568	0.238
568	0.236
569	0.235
569	0.233
570	0.231
570	0.229
571	0.228
571	0.226
572	0.225
572	0.223
573	0.221
573	0.22
573	0.219
574	0.217
574	0.216
575	0.215
575	0.214
576	0.213
576	0.211
577	0.209
577	0.208
577	0.207
578	0.205
578	0.204
579	0.203
579	0.202
580	0.201
580	0.199
581	0.198
581	0.197
581	0.196
582	0.196
582	0.195
583	0.194
583	0.193
584	0.192
584	0.19
585	0.189
585	0.188
585	0.187
586	0.186
586	0.185
587	0.184
587	0.183
588	0.182
588	0.181
589	0.18
589	0.179
590	0.179
590	0.178
590	0.177
591	0.177
591	0.175
592	0.174
592	0.173
593	0.172
593	0.171
594	0.17
594	0.169
594	0.168
595	0.167
595	0.166
596	0.165
596	0.164
597	0.165
597	0.164
598	0.164
598	0.164
598	0.163
599	0.162
599	0.162
600	0.161
600	0.16
601	0.16
601	0.159
602	0.158
602	0.157
602	0.156
603	0.155
603	0.155
604	0.155
604	0.154
605	0.154
605	0.154
606	0.153
606	0.152
606	0.151
607	0.151
607	0.15
608	0.149
608	0.148
609	0.147
609	0.147
610	0.146
610	0.145
610	0.144
611	0.144
611	0.144
612	0.144
612	0.143
613	0.143
613	0.143
614	0.142
614	0.142
614	0.141
615	0.141
615	0.141
616	0.14
616	0.14
617	0.14
617	0.139
618	0.139
618	0.139
618	0.139
619	0.139
619	0.138
620	0.138
620	0.138
621	0.137
621	0.137
622	0.136
622	0.135
622	0.134
623	0.133
623	0.133
624	0.132
624	0.131
625	0.131
625	0.13
626	0.13
626	0.129
626	0.129
627	0.129
627	0.129
628	0.129
628	0.128
629	0.128
629	0.128
630	0.127
630	0.127
630	0.127
631	0.127
631	0.126
632	0.126
632	0.125
633	0.125
633	0.125
634	0.125
634	0.126
634	0.126
635	0.126
635	0.126
636	0.125
636	0.125
637	0.125
637	0.124
638	0.124
638	0.124
638	0.123
639	0.122
639	0.122
640	0.121
640	0.121
641	0.12
641	0.12
642	0.119
642	0.119
642	0.119
643	0.119
643	0.119
644	0.119
644	0.119
645	0.119
645	0.119
646	0.119
646	0.119
646	0.119
647	0.119
647	0.118
648	0.118
648	0.117
649	0.117
649	0.117
650	0.117
650	0.117
650	0.117
651	0.116
651	0.116
652	0.116
652	0.116
653	0.116
653	0.118
653	0.123
654	0.098
654	0.079
655	0.078
655	0.078
656	0.078
656	0.079
657	0.079
657	0.079
657	0.079
658	0.078
658	0.07
659	0.088
659	0.111
660	0.115
660	0.114
661	0.114
661	0.113
661	0.112
662	0.111
662	0.111
663	0.11
663	0.11
664	0.11
664	0.109
665	0.109
665	0.109
665	0.108
666	0.108
666	0.108
667	0.109
667	0.109
668	0.109
668	0.109
669	0.109
669	0.109
669	0.109
670	0.109
670	0.109
671	0.109
671	0.109
672	0.108
672	0.107
672	0.107
673	0.106
673	0.106
674	0.105
674	0.105
675	0.104
675	0.104
676	0.104
676	0.104
676	0.104
677	0.105
677	0.105
678	0.105
678	0.105
679	0.105
679	0.105
680	0.105
680	0.105
680	0.105
681	0.105
681	0.105
682	0.105
682	0.105
683	0.105
683	0.106
684	0.106
684	0.106
684	0.105
685	0.105
685	0.106
686	0.105
686	0.105
687	0.105
687	0.105
687	0.105
688	0.105
688	0.106
689	0.106
689	0.107
690	0.107
690	0.107
691	0.107
691	0.107
691	0.107
692	0.107
692	0.107
693	0.107
693	0.107
694	0.107
694	0.106
695	0.107
695	0.107
695	0.108
696	0.108
696	0.108
697	0.108
697	0.107
698	0.107
698	0.106
698	0.106
699	0.106
699	0.106
700	0.105
700	0.105
701	0.104
701	0.104
702	0.103
702	0.102
702	0.102
703	0.101
703	0.101
704	0.1
704	0.1
705	0.1
705	0.1
705	0.1
706	0.1
706	0.1
707	0.1
707	0.1
708	0.101
708	0.101
709	0.101
709	0.1
709	0.1
710	0.099
710	0.099
711	0.099
711	0.098
712	0.098
712	0.098
713	0.098
713	0.098
713	0.098
714	0.097
714	0.097
715	0.097
715	0.097
716	0.097
716	0.096
716	0.096
717	0.095
717	0.094
718	0.093
718	0.093
719	0.093
719	0.093
720	0.093
720	0.094
720	0.094
721	0.094
721	0.095
722	0.096
722	0.096
723	0.097
723	0.097
723	0.097
724	0.096
724	0.096
725	0.095
725	0.094
726	0.093
726	0.092
727	0.091
727	0.091
727	0.091
728	0.091
728	0.09
729	0.091
729	0.091
730	0.092
730	0.092
730	0.093
731	0.093
731	0.093
732	0.093
732	0.093
733	0.093
733	0.093
734	0.093
734	0.093
734	0.093
735	0.093
735	0.093
736	0.092
736	0.092
737	0.092
737	0.091
737	0.091
738	0.09
738	0.089
739	0.089
739	0.089
740	0.089
740	0.089
741	0.089
741	0.089
741	0.089
742	0.089
742	0.089
743	0.09
743	0.09
744	0.09
744	0.09
744	0.09
745	0.09
745	0.09
746	0.09
746	0.089
747	0.089
747	0.089
748	0.089
748	0.089
748	0.089
749	0.089
749	0.089
750	0.089
750	0.089
751	0.089
751	0.089
751	0.089
752	0.089
752	0.088
753	0.087
753	0.087
754	0.086
754	0.085
754	0.085
755	0.084
755	0.084
756	0.083
756	0.082
757	0.082
757	0.081
758	0.081
758	0.081
758	0.081
759	0.081
759	0.081
760	0.08
760	0.08
761	0.08
761	0.081
761	0.081
762	0.081
762	0.081
763	0.081
763	0.08
764	0.08
764	0.08
764	0.08
765	0.08
765	0.08
766	0.079
766	0.079
767	0.078
767	0.078
768	0.077
768	0.077
768	0.076
769	0.076
769	0.076
770	0.077
770	0.077
771	0.077
771	0.077
771	0.078
772	0.078
772	0.079
773	0.079
773	0.079
774	0.079
774	0.079
775	0.079
775	0.08
775	0.08
776	0.08
776	0.08
777	0.08
777	0.08
778	0.079
778	0.079
778	0.078
779	0.078
779	0.077
780	0.076
780	0.075
781	0.074
781	0.073
781	0.073
782	0.072
782	0.072
783	0.072
783	0.072
784	0.072
784	0.072
784	0.072
785	0.072
785	0.072
786	0.073
786	0.073
787	0.074
787	0.074
788	0.073
788	0.073
788	0.073
789	0.073
789	0.072
790	0.072
790	0.071
791	0.071
791	0.07
791	0.07
792	0.07
792	0.07
793	0.07
793	0.07
794	0.07
794	0.069
794	0.069
795	0.07
795	0.07
796	0.07
796	0.07
797	0.07
797	0.07
797	0.069
798	0.069
798	0.069
799	0.069
799	0.068
800	0.068
800	0.067
801	0.067
801	0.066
801	0.066
802	0.065
802	0.065
803	0.065
803	0.065
804	0.065
804	0.065
804	0.066
805	0.066
805	0.065
806	0.065
806	0.065
807	0.066
807	0.066
807	0.066
808	0.066
808	0.066
809	0.066
809	0.066
810	0.067
810	0.067
810	0.067
811	0.067
811	0.067
812	0.067
812	0.067
813	0.067
813	0.067
813	0.067
814	0.067
814	0.067
815	0.068
815	0.067
816	0.067
816	0.066
817	0.065
817	0.065
817	0.065
818	0.064
818	0.064
819	0.063
819	0.063
820	0.062
820	0.062
820	0.062
821	0.062
821	0.062
822	0.062
822	0.062
823	0.063
823	0.063
823	0.063
824	0.064
824	0.065
825	0.066
825	0.066
826	0.067
826	0.067
826	0.067
827	0.067
827	0.067
828	0.067
828	0.067
829	0.067
829	0.067
829	0.067
830	0.068
830	0.068
831	0.069
831	0.069
832	0.068
832	0.069
832	0.069
833	0.069
833	0.069
834	0.068
834	0.068
835	0.067
835	0.067
835	0.066
836	0.066
836	0.066
837	0.066
837	0.065
838	0.065
838	0.064
839	0.063
839	0.062
839	0.062
840	0.061
840	0.06
841	0.059
841	0.058
842	0.057
842	0.056
842	0.056
843	0.056
843	0.056
844	0.056
844	0.056
845	0.056
845	0.056
845	0.057
846	0.057
846	0.057
847	0.057
847	0.058
848	0.058
848	0.058
848	0.057
849	0.057
849	0.056
850	0.055
850	0.055
851	0.054
851	0.053
851	0.053
852	0.052
852	0.052
853	0.051
853	0.052
854	0.052
854	0.053
854	0.054
855	0.055
855	0.055
856	0.056
856	0.057
857	0.058
857	0.058
857	0.059
858	0.059
858	0.059
859	0.058
859	0.057
860	0.057
860	0.056
860	0.055
861	0.054
861	0.053
862	0.052
862	0.051
863	0.051
863	0.05
863	0.05
864	0.05
864	0.05
865	0.05
865	0.05
866	0.05
866	0.05
866	0.05
867	0.051
867	0.051
868	0.051
868	0.051
869	0.051
869	0.05
869	0.05
870	0.049
870	0.049
871	0.049
871	0.049
872	0.049
872	0.049
872	0.049
873	0.049
873	0.049
874	0.049
874	0.049
875	0.049
875	0.049
875	0.049
876	0.048
876	0.048
877	0.048
877	0.048
878	0.048
878	0.048
878	0.049
879	0.049
879	0.049
880	0.049
880	0.049
881	0.049
881	0.049
881	0.049
882	0.049
882	0.049
883	0.049
883	0.049
884	0.05
884	0.049
884	0.049
885	0.049
885	0.049
886	0.049
886	0.049
887	0.048
887	0.048
887	0.048
888	0.047
888	0.047
889	0.047
889	0.047
890	0.047
890	0.047
890	0.047
891	0.047
891	0.047
892	0.046
892	0.046
893	0.045
893	0.044
893	0.044
894	0.043
894	0.042
895	0.041
895	0.041
895	0.04
896	0.04
896	0.04
897	0.04
897	0.04
898	0.04
898	0.04
898	0.04
899	0.04
899	0.041
900	0.041
900	0.041
901	0.042
901	0.042
901	0.043
902	0.043
902	0.043
903	0.044
903	0.044
904	0.044
904	0.044
904	0.044
905	0.044
905	0.044
906	0.045
906	0.046
907	0.046
907	0.047
907	0.048
908	0.049
908	0.05
909	0.05
909	0.051
910	0.051
910	0.051
910	0.051
911	0.051
911	0.051
912	0.05
912	0.05
913	0.05
913	0.049
913	0.049
914	0.049
914	0.048
915	0.048
915	0.048
916	0.047
916	0.047
916	0.047
917	0.046
917	0.046
918	0.046
918	0.046
918	0.045
919	0.045
919	0.045
920	0.045
920	0.044
921	0.044
921	0.044
921	0.043
922	0.043
922	0.043
923	0.043
923	0.043
924	0.044
924	0.044
924	0.044
925	0.044
925	0.044
926	0.044
926	0.044
927	0.044
927	0.044
927	0.044
928	0.044
928	0.044
929	0.044
929	0.044
930	0.044
930	0.043
930	0.043
931	0.043
931	0.043
932	0.043
932	0.043
933	0.044
933	0.044
933	0.045
934	0.045
934	0.045
935	0.046
935	0.046
935	0.047
936	0.047
936	0.047
937	0.048
937	0.048
938	0.047
938	0.047
938	0.047
939	0.046
939	0.045
940	0.045
940	0.044
941	0.044
941	0.043
941	0.043
942	0.043
942	0.043
943	0.043
943	0.043
944	0.043
944	0.043
944	0.043
945	0.043
945	0.043
946	0.043
946	0.043
946	0.043
947	0.044
947	0.044
948	0.045
948	0.045
949	0.045
949	0.045
949	0.045
950	0.046
950	0.046
951	0.046
951	0.045
952	0.045
952	0.044
952	0.043
953	0.043
953	0.042
954	0.042
954	0.041
955	0.041
955	0.04
955	0.04
956	0.04
956	0.04
957	0.04
957	0.041
957	0.041
958	0.042
958	0.042
959	0.043
959	0.043
960	0.044
960	0.045
960	0.045
961	0.045
961	0.046
962	0.046
962	0.046
963	0.046
963	0.046
963	0.047
964	0.047
964	0.047
965	0.047
965	0.047
966	0.047
966	0.047
966	0.047
967	0.047
967	0.048
968	0.048
968	0.048
968	0.048
969	0.048
969	0.047
970	0.046
970	0.046
971	0.045
971	0.044
971	0.043
972	0.042
972	0.042
973	0.041
973	0.04
974	0.039
974	0.039
974	0.039
975	0.039
975	0.039
976	0.039
976	0.039
976	0.039
977	0.039
977	0.039
978	0.039
978	0.039
979	0.038
979	0.038
979	0.038
980	0.038
980	0.038
981	0.037
981	0.037
982	0.037
982	0.037
982	0.038
983	0.038
983	0.038
984	0.039
984	0.039
984	0.039
985	0.039
985	0.039
986	0.039
986	0.039
987	0.039
987	0.039
987	0.039
988	0.039
988	0.038
989	0.038
989	0.037
990	0.037
990	0.037
990	0.037
991	0.037
991	0.037
992	0.038
992	0.037
992	0.037
993	0.037
993	0.038
994	0.037
994	0.038
995	0.038
995	0.038
995	0.038
996	0.038
996	0.038
997	0.038
997	0.038
997	0.038
998	0.039
998	0.039
999	0.039
999	0.04
1000	0.04
1000	0.04
1000	0.04
1001	0.04
1001	0.039
1002	0.039
1002	0.039
1003	0.038
1003	0.038
1003	0.037
1004	0.036
1004	0.036
1005	0.035
1005	0.034
1005	0.034
1006	0.033
1006	0.033
1007	0.033
1007	0.032
1008	0.033
1008	0.033
1008	0.033
1009	0.034
1009	0.034
1010	0.035
1010	0.035
1010	0.036
1011	0.036
1011	0.037
1012	0.037
1012	0.037
1013	0.037
1013	0.037
1013	0.037
1014	0.037
1014	0.037
1015	0.037
1015	0.037
1016	0.036
1016	0.036
1016	0.036
1017	0.035
1017	0.035
1018	0.035
1018	0.035
1018	0.035
1019	0.035
1019	0.035
1020	0.035
1020	0.035
1021	0.035
1021	0.036
1021	0.036
1022	0.036
1022	0.036
1023	0.036
1023	0.037
1023	0.037
1024	0.037
1024	0.038
1025	0.038
1025	0.038
1026	0.038
1026	0.037
1026	0.037
1027	0.037
1027	0.037
1028	0.037
1028	0.037
1028	0.036
1029	0.036
1029	0.036
1030	0.036
1030	0.036
1031	0.036
1031	0.037
1031	0.037
1032	0.037
1032	0.037
1033	0.037
1033	0.037
1033	0.036
1034	0.036
1034	0.036
1035	0.035
1035	0.035
1036	0.035
1036	0.034
1036	0.034
1037	0.034
1037	0.033
1038	0.033
1038	0.033
1039	0.032
1039	0.032
1039	0.032
1040	0.032
1040	0.032
1041	0.032
1041	0.032
1041	0.032
1042	0.032
1042	0.032
1043	0.033
1043	0.033
1044	0.034
1044	0.034
1044	0.034
1045	0.035
1045	0.035
1046	0.036
1046	0.036
1046	0.037
1047	0.038
1047	0.038
1048	0.038
1048	0.039
1049	0.039
1049	0.04
1049	0.04
1050	0.04
1050	0.039
1051	0.039
1051	0.039
1051	0.038
1052	0.038
1052	0.038
1053	0.037
1053	0.036
1053	0.036
1054	0.035
1054	0.035
1055	0.035
1055	0.034
1056	0.034
1056	0.033
1056	0.033
1057	0.032
1057	0.032
1058	0.032
1058	0.031
1058	0.031
1059	0.031
1059	0.031
1060	0.031
1060	0.031
1061	0.031
1061	0.031
1061	0.031
1062	0.031
1062	0.032
1063	0.032
1063	0.032
1063	0.032
1064	0.032
1064	0.032
1065	0.031
1065	0.031
1066	0.03
1066	0.03
1066	0.03
1067	0.029
1067	0.029
1068	0.028
1068	0.028
1068	0.028
1069	0.027
1069	0.027
1070	0.026
1070	0.026
1071	0.026
1071	0.025
1071	0.025
1072	0.025
1072	0.024
1073	0.024
1073	0.023
1073	0.023
1074	0.023
1074	0.023
1075	0.023
1075	0.023
1076	0.024
1076	0.024
1076	0.024
1077	0.024
1077	0.024
1078	0.024
1078	0.025
1078	0.025
1079	0.024
1079	0.024
1080	0.024
1080	0.024
1080	0.024
1081	0.023
1081	0.024
1082	0.024
1082	0.024
1083	0.024
1083	0.024
1083	0.024
1084	0.024
1084	0.025
1085	0.025
1085	0.025
1085	0.025
1086	0.025
1086	0.024
1087	0.024
1087	0.024
1088	0.024
1088	0.024
1088	0.024
1089	0.024
1089	0.023
1090	0.023
1090	0.022
1090	0.022
1091	0.021
1091	0.021
1092	0.022
1092	0.022
1092	0.022
1093	0.022
1093	0.022
1094	0.022
1094	0.022
1095	0.022
1095	0.022
1095	0.022
1096	0.021
1096	0.021
1097	0.02
1097	0.019
1097	0.019
1098	0.018
1098	0.017
1099	0.017
1099	0.016
1100	0.016
1100	0.016
1100	0.015
1101	0.015
1101	0.015
1102	0.015
1102	0.015
1102	0.014
1103	0.014
1103	0.014
1104	0.014
1104	0.014
1104	0.013
1105	0.013
1105	0.011
1106	0.01
1106	0.008
1107	0.008
1107	0.008
1107	0.007
1108	0.006
1108	0.004
1109	0.002
1109	0.002
1109	0.002
1110	0.005
1110	0.004
1111	0.004
1111	0.004
