Data from reversibility-20sec_Absorbance__5464__000000000005464.txt Node

Date: Wed Dec 06 18:34:26 CET 2023
User: Marek
Spectrometer: MAYP115816
Trigger mode: 0
Integration Time (sec): 2.000000E-1
Scans to average: 10
Electric dark correction enabled: true
Nonlinearity correction enabled: true
Boxcar width: 5
XAxis mode: Wavelengths
Number of Pixels in Spectrum: 2068
>>>>>Begin Spectral Data<<<<<
199	-0.22
199	-0.184
200	-0.122
200	-0.065
201	-0.035
201	-0.017
202	-0.006
202	0.003
203	0.011
203	0.017
204	0.029
204	0.043
205	0.055
205	0.063
205	0.06
206	0.058
206	0.058
207	0.062
207	0.06
208	0.056
208	0.054
209	0.055
209	0.051
210	0.052
210	0.051
211	0.055
211	0.057
212	0.054
212	0.056
213	0.06
213	0.063
213	0.064
214	0.069
214	0.073
215	0.075
215	0.075
216	0.074
216	0.075
217	0.078
217	0.08
218	0.08
218	0.083
219	0.086
219	0.087
220	0.088
220	0.086
221	0.087
221	0.091
221	0.092
222	0.099
222	0.1
223	0.106
223	0.109
224	0.114
224	0.121
225	0.13
225	0.139
226	0.149
226	0.16
227	0.172
227	0.18
228	0.198
228	0.213
229	0.231
229	0.258
229	0.28
230	0.305
230	0.336
231	0.363
231	0.401
232	0.437
232	0.482
233	0.525
233	0.574
234	0.622
234	0.675
235	0.729
235	0.781
236	0.834
236	0.892
236	0.943
237	0.995
237	1.045
238	1.092
238	1.139
239	1.188
239	1.229
240	1.269
240	1.304
241	1.34
241	1.375
242	1.407
242	1.44
243	1.468
243	1.492
243	1.516
244	1.538
244	1.559
245	1.578
245	1.602
246	1.62
246	1.636
247	1.65
247	1.665
248	1.681
248	1.698
249	1.709
249	1.715
250	1.723
250	1.734
250	1.74
251	1.746
251	1.75
252	1.757
252	1.759
253	1.762
253	1.76
254	1.76
254	1.764
255	1.765
255	1.764
256	1.765
256	1.764
257	1.764
257	1.762
258	1.763
258	1.763
258	1.765
259	1.764
259	1.764
260	1.763
260	1.764
261	1.763
261	1.766
262	1.768
262	1.77
263	1.773
263	1.773
264	1.773
264	1.774
265	1.776
265	1.777
265	1.778
266	1.777
266	1.775
267	1.774
267	1.775
268	1.773
268	1.773
269	1.774
269	1.773
270	1.772
270	1.769
271	1.768
271	1.769
272	1.766
272	1.765
272	1.763
273	1.759
273	1.755
274	1.751
274	1.747
275	1.741
275	1.737
276	1.729
276	1.723
277	1.717
277	1.707
278	1.696
278	1.686
278	1.673
279	1.659
279	1.643
280	1.624
280	1.6
281	1.572
281	1.541
282	1.507
282	1.472
283	1.436
283	1.401
284	1.366
284	1.331
285	1.298
285	1.267
285	1.24
286	1.214
286	1.192
287	1.173
287	1.155
288	1.14
288	1.127
289	1.116
289	1.107
290	1.098
290	1.09
291	1.083
291	1.077
292	1.071
292	1.066
292	1.061
293	1.057
293	1.053
294	1.049
294	1.046
295	1.042
295	1.039
296	1.035
296	1.031
297	1.028
297	1.025
298	1.022
298	1.018
298	1.015
299	1.012
299	1.009
300	1.006
300	1.002
301	0.999
301	0.996
302	0.993
302	0.991
303	0.988
303	0.985
304	0.983
304	0.98
305	0.978
305	0.975
305	0.973
306	0.97
306	0.967
307	0.965
307	0.962
308	0.958
308	0.955
309	0.952
309	0.949
310	0.946
310	0.943
311	0.94
311	0.936
311	0.933
312	0.929
312	0.925
313	0.922
313	0.918
314	0.914
314	0.91
315	0.905
315	0.901
316	0.897
316	0.892
317	0.887
317	0.882
318	0.878
318	0.872
318	0.867
319	0.862
319	0.856
320	0.851
320	0.844
321	0.838
321	0.832
322	0.826
322	0.82
323	0.814
323	0.807
324	0.801
324	0.794
324	0.788
325	0.781
325	0.775
326	0.768
326	0.761
327	0.754
327	0.747
328	0.741
328	0.734
329	0.727
329	0.72
330	0.713
330	0.706
330	0.699
331	0.693
331	0.686
332	0.679
332	0.672
333	0.665
333	0.658
334	0.651
334	0.645
335	0.638
335	0.631
336	0.625
336	0.618
336	0.611
337	0.605
337	0.599
338	0.593
338	0.587
339	0.581
339	0.575
340	0.569
340	0.563
341	0.558
341	0.552
342	0.547
342	0.542
342	0.537
343	0.531
343	0.526
344	0.521
344	0.516
345	0.512
345	0.507
346	0.503
346	0.498
347	0.494
347	0.49
348	0.486
348	0.482
348	0.478
349	0.474
349	0.471
350	0.467
350	0.463
351	0.46
351	0.457
352	0.453
352	0.45
353	0.447
353	0.445
354	0.442
354	0.439
354	0.436
355	0.433
355	0.43
356	0.427
356	0.424
357	0.42
357	0.417
358	0.414
358	0.412
359	0.409
359	0.407
360	0.405
360	0.403
360	0.401
361	0.399
361	0.397
362	0.396
362	0.394
363	0.392
363	0.39
364	0.388
364	0.386
365	0.384
365	0.382
366	0.38
366	0.378
366	0.376
367	0.375
367	0.373
368	0.371
368	0.369
369	0.368
369	0.366
370	0.365
370	0.363
371	0.362
371	0.36
372	0.359
372	0.358
372	0.356
373	0.355
373	0.354
374	0.353
374	0.352
375	0.35
375	0.349
376	0.349
376	0.348
377	0.347
377	0.346
378	0.345
378	0.344
378	0.343
379	0.342
379	0.341
380	0.34
380	0.339
381	0.338
381	0.337
382	0.337
382	0.336
383	0.335
383	0.335
383	0.334
384	0.333
384	0.332
385	0.332
385	0.331
386	0.33
386	0.33
387	0.329
387	0.328
388	0.327
388	0.327
389	0.326
389	0.326
389	0.325
390	0.325
390	0.324
391	0.324
391	0.323
392	0.323
392	0.323
393	0.322
393	0.322
394	0.321
394	0.321
394	0.32
395	0.32
395	0.319
396	0.319
396	0.318
397	0.317
397	0.317
398	0.316
398	0.316
399	0.315
399	0.315
400	0.315
400	0.314
400	0.314
401	0.313
401	0.313
402	0.313
402	0.312
403	0.312
403	0.311
404	0.311
404	0.311
405	0.31
405	0.31
405	0.31
406	0.309
406	0.309
407	0.308
407	0.308
408	0.307
408	0.307
409	0.306
409	0.306
410	0.306
410	0.305
411	0.305
411	0.305
411	0.305
412	0.304
412	0.304
413	0.303
413	0.303
414	0.303
414	0.303
415	0.302
415	0.302
416	0.301
416	0.301
416	0.3
417	0.3
417	0.3
418	0.3
418	0.299
419	0.299
419	0.298
420	0.297
420	0.297
421	0.297
421	0.296
421	0.296
422	0.296
422	0.295
423	0.295
423	0.294
424	0.294
424	0.294
425	0.294
425	0.293
426	0.293
426	0.292
427	0.292
427	0.291
427	0.291
428	0.291
428	0.291
429	0.291
429	0.29
430	0.29
430	0.29
431	0.29
431	0.29
432	0.29
432	0.29
432	0.29
433	0.289
433	0.289
434	0.289
434	0.289
435	0.289
435	0.289
436	0.289
436	0.288
437	0.288
437	0.288
437	0.288
438	0.287
438	0.287
439	0.287
439	0.287
440	0.287
440	0.287
441	0.286
441	0.286
442	0.286
442	0.286
442	0.286
443	0.285
443	0.285
444	0.285
444	0.285
445	0.285
445	0.285
446	0.284
446	0.284
447	0.284
447	0.284
447	0.284
448	0.284
448	0.284
449	0.284
449	0.284
450	0.284
450	0.284
451	0.284
451	0.284
452	0.284
452	0.284
452	0.284
453	0.284
453	0.284
454	0.284
454	0.284
455	0.284
455	0.284
456	0.284
456	0.284
457	0.283
457	0.284
458	0.283
458	0.283
458	0.283
459	0.284
459	0.284
460	0.284
460	0.284
461	0.284
461	0.284
462	0.284
462	0.284
463	0.284
463	0.284
463	0.284
464	0.284
464	0.284
465	0.283
465	0.283
466	0.284
466	0.284
467	0.284
467	0.284
467	0.284
468	0.285
468	0.285
469	0.286
469	0.286
470	0.287
470	0.287
471	0.287
471	0.288
472	0.288
472	0.289
472	0.289
473	0.29
473	0.29
474	0.291
474	0.291
475	0.291
475	0.292
476	0.293
476	0.293
477	0.294
477	0.294
477	0.295
478	0.295
478	0.296
479	0.296
479	0.297
480	0.297
480	0.298
481	0.298
481	0.299
482	0.299
482	0.3
482	0.301
483	0.302
483	0.302
484	0.303
484	0.304
485	0.304
485	0.305
486	0.306
486	0.307
487	0.308
487	0.308
487	0.309
488	0.31
488	0.311
489	0.312
489	0.314
490	0.315
490	0.316
491	0.318
491	0.319
492	0.32
492	0.321
492	0.323
493	0.324
493	0.325
494	0.326
494	0.328
495	0.329
495	0.33
496	0.331
496	0.333
496	0.334
497	0.335
497	0.336
498	0.338
498	0.339
499	0.34
499	0.342
500	0.344
500	0.345
501	0.346
501	0.347
501	0.349
502	0.35
502	0.351
503	0.352
503	0.354
504	0.355
504	0.356
505	0.358
505	0.359
506	0.36
506	0.361
506	0.363
507	0.364
507	0.365
508	0.366
508	0.367
509	0.368
509	0.369
510	0.37
510	0.371
511	0.372
511	0.373
511	0.375
512	0.376
512	0.377
513	0.378
513	0.379
514	0.38
514	0.38
515	0.381
515	0.382
515	0.383
516	0.383
516	0.384
517	0.385
517	0.385
518	0.386
518	0.386
519	0.387
519	0.387
520	0.387
520	0.387
520	0.387
521	0.387
521	0.387
522	0.387
522	0.387
523	0.386
523	0.386
524	0.386
524	0.386
524	0.386
525	0.385
525	0.384
526	0.384
526	0.384
527	0.383
527	0.383
528	0.382
528	0.382
529	0.381
529	0.38
529	0.379
530	0.378
530	0.377
531	0.375
531	0.374
532	0.372
532	0.371
533	0.37
533	0.368
533	0.367
534	0.366
534	0.364
535	0.363
535	0.362
536	0.36
536	0.358
537	0.356
537	0.355
538	0.353
538	0.351
538	0.349
539	0.348
539	0.346
540	0.344
540	0.342
541	0.34
541	0.338
542	0.336
542	0.334
542	0.332
543	0.33
543	0.327
544	0.325
544	0.323
545	0.322
545	0.319
546	0.317
546	0.315
547	0.313
547	0.311
547	0.309
548	0.307
548	0.305
549	0.302
549	0.3
550	0.298
550	0.296
551	0.294
551	0.291
551	0.289
552	0.287
552	0.285
553	0.282
553	0.28
554	0.278
554	0.276
555	0.273
555	0.271
556	0.269
556	0.267
556	0.265
557	0.263
557	0.262
558	0.26
558	0.258
559	0.256
559	0.255
560	0.253
560	0.251
560	0.249
561	0.248
561	0.246
562	0.244
562	0.241
563	0.239
563	0.237
564	0.235
564	0.233
564	0.231
565	0.23
565	0.228
566	0.226
566	0.224
567	0.223
567	0.221
568	0.22
568	0.218
568	0.216
569	0.215
569	0.213
570	0.211
570	0.209
571	0.207
571	0.206
572	0.204
572	0.202
573	0.201
573	0.2
573	0.198
574	0.197
574	0.196
575	0.195
575	0.194
576	0.193
576	0.191
577	0.19
577	0.188
577	0.187
578	0.186
578	0.185
579	0.184
579	0.183
580	0.181
580	0.179
581	0.178
581	0.177
581	0.176
582	0.175
582	0.175
583	0.174
583	0.173
584	0.171
584	0.169
585	0.168
585	0.168
585	0.166
586	0.165
586	0.164
587	0.162
587	0.161
588	0.16
588	0.159
589	0.158
589	0.157
590	0.156
590	0.156
590	0.155
591	0.155
591	0.154
592	0.153
592	0.152
593	0.151
593	0.151
594	0.15
594	0.149
594	0.148
595	0.147
595	0.146
596	0.145
596	0.145
597	0.145
597	0.144
598	0.144
598	0.143
598	0.142
599	0.141
599	0.141
600	0.14
600	0.139
601	0.138
601	0.138
602	0.137
602	0.136
602	0.135
603	0.134
603	0.134
604	0.134
604	0.133
605	0.133
605	0.133
606	0.132
606	0.131
606	0.13
607	0.129
607	0.129
608	0.128
608	0.127
609	0.126
609	0.126
610	0.125
610	0.124
610	0.124
611	0.123
611	0.123
612	0.123
612	0.123
613	0.123
613	0.122
614	0.122
614	0.121
614	0.121
615	0.121
615	0.12
616	0.12
616	0.119
617	0.119
617	0.119
618	0.118
618	0.118
618	0.118
619	0.118
619	0.118
620	0.118
620	0.117
621	0.117
621	0.116
622	0.115
622	0.115
622	0.114
623	0.113
623	0.112
624	0.112
624	0.111
625	0.11
625	0.11
626	0.109
626	0.109
626	0.109
627	0.109
627	0.108
628	0.108
628	0.107
629	0.107
629	0.106
630	0.106
630	0.105
630	0.105
631	0.104
631	0.104
632	0.103
632	0.102
633	0.102
633	0.102
634	0.102
634	0.103
634	0.103
635	0.102
635	0.102
636	0.102
636	0.102
637	0.101
637	0.101
638	0.101
638	0.1
638	0.1
639	0.099
639	0.099
640	0.098
640	0.098
641	0.097
641	0.097
642	0.097
642	0.097
642	0.097
643	0.096
643	0.096
644	0.096
644	0.096
645	0.096
645	0.096
646	0.095
646	0.095
646	0.095
647	0.094
647	0.094
648	0.093
648	0.093
649	0.092
649	0.092
650	0.092
650	0.092
650	0.092
651	0.092
651	0.091
652	0.091
652	0.091
653	0.091
653	0.093
653	0.099
654	0.08
654	0.065
655	0.063
655	0.063
656	0.063
656	0.063
657	0.063
657	0.064
657	0.064
658	0.062
658	0.055
659	0.068
659	0.086
660	0.091
660	0.091
661	0.091
661	0.09
661	0.09
662	0.089
662	0.089
663	0.088
663	0.088
664	0.087
664	0.087
665	0.086
665	0.086
665	0.086
666	0.086
666	0.086
667	0.086
667	0.086
668	0.087
668	0.087
669	0.087
669	0.088
669	0.088
670	0.089
670	0.089
671	0.089
671	0.089
672	0.088
672	0.088
672	0.088
673	0.087
673	0.087
674	0.086
674	0.085
675	0.084
675	0.084
676	0.084
676	0.084
676	0.084
677	0.083
677	0.083
678	0.083
678	0.082
679	0.082
679	0.082
680	0.082
680	0.081
680	0.081
681	0.081
681	0.081
682	0.081
682	0.081
683	0.082
683	0.082
684	0.083
684	0.083
684	0.082
685	0.082
685	0.083
686	0.083
686	0.082
687	0.082
687	0.082
687	0.082
688	0.081
688	0.081
689	0.081
689	0.081
690	0.081
690	0.081
691	0.08
691	0.081
691	0.081
692	0.08
692	0.08
693	0.08
693	0.081
694	0.08
694	0.08
695	0.081
695	0.081
695	0.081
696	0.081
696	0.081
697	0.08
697	0.08
698	0.08
698	0.079
698	0.079
699	0.079
699	0.078
700	0.077
700	0.077
701	0.078
701	0.078
702	0.078
702	0.078
702	0.078
703	0.078
703	0.078
704	0.078
704	0.078
705	0.077
705	0.077
705	0.077
706	0.077
706	0.077
707	0.077
707	0.077
708	0.077
708	0.078
709	0.078
709	0.077
709	0.077
710	0.077
710	0.077
711	0.076
711	0.076
712	0.076
712	0.075
713	0.075
713	0.075
713	0.075
714	0.075
714	0.075
715	0.074
715	0.074
716	0.074
716	0.074
716	0.073
717	0.073
717	0.072
718	0.072
718	0.071
719	0.071
719	0.071
720	0.071
720	0.072
720	0.072
721	0.072
721	0.072
722	0.073
722	0.073
723	0.074
723	0.074
723	0.074
724	0.074
724	0.074
725	0.073
725	0.072
726	0.072
726	0.071
727	0.07
727	0.07
727	0.07
728	0.069
728	0.068
729	0.068
729	0.068
730	0.068
730	0.068
730	0.068
731	0.069
731	0.069
732	0.069
732	0.07
733	0.069
733	0.069
734	0.07
734	0.07
734	0.07
735	0.071
735	0.071
736	0.07
736	0.07
737	0.07
737	0.071
737	0.071
738	0.07
738	0.069
739	0.069
739	0.068
740	0.067
740	0.067
741	0.067
741	0.067
741	0.066
742	0.066
742	0.066
743	0.067
743	0.068
744	0.069
744	0.069
744	0.069
745	0.069
745	0.069
746	0.07
746	0.07
747	0.07
747	0.07
748	0.069
748	0.069
748	0.069
749	0.068
749	0.068
750	0.068
750	0.068
751	0.067
751	0.067
751	0.067
752	0.066
752	0.065
753	0.064
753	0.063
754	0.063
754	0.062
754	0.062
755	0.062
755	0.061
756	0.061
756	0.06
757	0.059
757	0.059
758	0.059
758	0.06
758	0.06
759	0.061
759	0.061
760	0.061
760	0.061
761	0.061
761	0.061
761	0.062
762	0.061
762	0.061
763	0.061
763	0.06
764	0.059
764	0.059
764	0.058
765	0.058
765	0.057
766	0.057
766	0.057
767	0.056
767	0.055
768	0.055
768	0.055
768	0.055
769	0.055
769	0.055
770	0.055
770	0.055
771	0.055
771	0.056
771	0.056
772	0.057
772	0.058
773	0.058
773	0.058
774	0.058
774	0.059
775	0.059
775	0.059
775	0.059
776	0.059
776	0.059
777	0.059
777	0.059
778	0.059
778	0.059
778	0.059
779	0.059
779	0.059
780	0.058
780	0.057
781	0.057
781	0.057
781	0.057
782	0.057
782	0.058
783	0.058
783	0.059
784	0.059
784	0.059
784	0.06
785	0.06
785	0.061
786	0.061
786	0.061
787	0.061
787	0.06
788	0.059
788	0.058
788	0.057
789	0.055
789	0.055
790	0.054
790	0.053
791	0.051
791	0.05
791	0.05
792	0.05
792	0.05
793	0.05
793	0.05
794	0.049
794	0.049
794	0.049
795	0.049
795	0.049
796	0.05
796	0.05
797	0.049
797	0.05
797	0.05
798	0.05
798	0.051
799	0.051
799	0.051
800	0.051
800	0.051
801	0.051
801	0.051
801	0.051
802	0.051
802	0.051
803	0.051
803	0.051
804	0.052
804	0.052
804	0.052
805	0.051
805	0.051
806	0.05
806	0.05
807	0.05
807	0.049
807	0.049
808	0.049
808	0.049
809	0.049
809	0.05
810	0.05
810	0.05
810	0.051
811	0.051
811	0.051
812	0.052
812	0.052
813	0.052
813	0.053
813	0.053
814	0.053
814	0.054
815	0.054
815	0.054
816	0.054
816	0.054
817	0.053
817	0.053
817	0.053
818	0.053
818	0.053
819	0.052
819	0.051
820	0.051
820	0.05
820	0.05
821	0.05
821	0.05
822	0.05
822	0.049
823	0.049
823	0.049
823	0.049
824	0.049
824	0.05
825	0.051
825	0.051
826	0.051
826	0.051
826	0.051
827	0.052
827	0.052
828	0.052
828	0.052
829	0.052
829	0.052
829	0.052
830	0.052
830	0.052
831	0.053
831	0.053
832	0.053
832	0.053
832	0.053
833	0.053
833	0.053
834	0.052
834	0.052
835	0.052
835	0.052
835	0.052
836	0.052
836	0.052
837	0.052
837	0.052
838	0.052
838	0.052
839	0.051
839	0.051
839	0.05
840	0.049
840	0.048
841	0.047
841	0.045
842	0.044
842	0.043
842	0.042
843	0.041
843	0.04
844	0.039
844	0.039
845	0.038
845	0.037
845	0.037
846	0.036
846	0.036
847	0.036
847	0.036
848	0.037
848	0.038
848	0.039
849	0.041
849	0.042
850	0.043
850	0.044
851	0.045
851	0.046
851	0.046
852	0.046
852	0.045
853	0.045
853	0.044
854	0.044
854	0.044
854	0.044
855	0.044
855	0.044
856	0.044
856	0.044
857	0.044
857	0.045
857	0.045
858	0.045
858	0.045
859	0.045
859	0.044
860	0.044
860	0.043
860	0.042
861	0.042
861	0.041
862	0.04
862	0.039
863	0.039
863	0.039
863	0.039
864	0.039
864	0.039
865	0.04
865	0.04
866	0.04
866	0.041
866	0.041
867	0.042
867	0.043
868	0.044
868	0.044
869	0.044
869	0.045
869	0.045
870	0.045
870	0.045
871	0.045
871	0.046
872	0.046
872	0.046
872	0.046
873	0.046
873	0.045
874	0.045
874	0.045
875	0.044
875	0.044
875	0.044
876	0.044
876	0.044
877	0.043
877	0.043
878	0.043
878	0.043
878	0.043
879	0.044
879	0.044
880	0.044
880	0.044
881	0.045
881	0.045
881	0.045
882	0.045
882	0.045
883	0.045
883	0.045
884	0.045
884	0.045
884	0.044
885	0.044
885	0.043
886	0.043
886	0.042
887	0.041
887	0.041
887	0.04
888	0.04
888	0.039
889	0.039
889	0.039
890	0.039
890	0.039
890	0.039
891	0.039
891	0.039
892	0.038
892	0.038
893	0.038
893	0.038
893	0.038
894	0.037
894	0.037
895	0.037
895	0.037
895	0.037
896	0.038
896	0.038
897	0.038
897	0.038
898	0.039
898	0.039
898	0.039
899	0.039
899	0.039
900	0.039
900	0.039
901	0.038
901	0.038
901	0.038
902	0.038
902	0.037
903	0.037
903	0.036
904	0.036
904	0.036
904	0.035
905	0.035
905	0.035
906	0.035
906	0.035
907	0.035
907	0.035
907	0.035
908	0.035
908	0.035
909	0.035
909	0.034
910	0.034
910	0.034
910	0.033
911	0.033
911	0.033
912	0.033
912	0.033
913	0.033
913	0.033
913	0.033
914	0.034
914	0.034
915	0.035
915	0.035
916	0.036
916	0.036
916	0.036
917	0.037
917	0.037
918	0.037
918	0.037
918	0.037
919	0.037
919	0.038
920	0.038
920	0.038
921	0.038
921	0.038
921	0.038
922	0.038
922	0.038
923	0.038
923	0.038
924	0.038
924	0.038
924	0.038
925	0.039
925	0.039
926	0.04
926	0.04
927	0.041
927	0.041
927	0.041
928	0.041
928	0.041
929	0.041
929	0.04
930	0.04
930	0.039
930	0.038
931	0.038
931	0.037
932	0.037
932	0.036
933	0.036
933	0.036
933	0.036
934	0.036
934	0.036
935	0.036
935	0.035
935	0.036
936	0.035
936	0.035
937	0.035
937	0.035
938	0.035
938	0.035
938	0.035
939	0.035
939	0.034
940	0.034
940	0.034
941	0.034
941	0.034
941	0.034
942	0.033
942	0.033
943	0.033
943	0.033
944	0.033
944	0.033
944	0.033
945	0.033
945	0.033
946	0.033
946	0.033
946	0.034
947	0.034
947	0.035
948	0.035
948	0.036
949	0.036
949	0.036
949	0.037
950	0.037
950	0.037
951	0.038
951	0.037
952	0.037
952	0.037
952	0.037
953	0.037
953	0.037
954	0.037
954	0.037
955	0.037
955	0.037
955	0.037
956	0.037
956	0.037
957	0.038
957	0.038
957	0.038
958	0.038
958	0.038
959	0.038
959	0.038
960	0.039
960	0.039
960	0.039
961	0.038
961	0.039
962	0.039
962	0.039
963	0.039
963	0.039
963	0.039
964	0.039
964	0.04
965	0.04
965	0.041
966	0.041
966	0.041
966	0.041
967	0.041
967	0.041
968	0.041
968	0.041
968	0.041
969	0.041
969	0.04
970	0.04
970	0.039
971	0.038
971	0.038
971	0.037
972	0.036
972	0.035
973	0.035
973	0.034
974	0.034
974	0.034
974	0.034
975	0.034
975	0.034
976	0.035
976	0.035
976	0.035
977	0.035
977	0.035
978	0.035
978	0.035
979	0.034
979	0.034
979	0.034
980	0.033
980	0.032
981	0.032
981	0.031
982	0.031
982	0.03
982	0.03
983	0.03
983	0.03
984	0.03
984	0.03
984	0.03
985	0.031
985	0.031
986	0.031
986	0.031
987	0.031
987	0.032
987	0.032
988	0.032
988	0.031
989	0.031
989	0.031
990	0.031
990	0.03
990	0.03
991	0.03
991	0.03
992	0.029
992	0.029
992	0.028
993	0.028
993	0.028
994	0.027
994	0.027
995	0.027
995	0.027
995	0.027
996	0.027
996	0.028
997	0.028
997	0.029
997	0.029
998	0.03
998	0.03
999	0.031
999	0.032
1000	0.033
1000	0.033
1000	0.034
1001	0.034
1001	0.034
1002	0.033
1002	0.033
1003	0.033
1003	0.032
1003	0.031
1004	0.031
1004	0.03
1005	0.029
1005	0.029
1005	0.028
1006	0.027
1006	0.027
1007	0.027
1007	0.027
1008	0.027
1008	0.027
1008	0.027
1009	0.028
1009	0.028
1010	0.028
1010	0.029
1010	0.029
1011	0.03
1011	0.03
1012	0.03
1012	0.03
1013	0.031
1013	0.031
1013	0.031
1014	0.031
1014	0.031
1015	0.031
1015	0.031
1016	0.031
1016	0.031
1016	0.031
1017	0.03
1017	0.03
1018	0.03
1018	0.029
1018	0.029
1019	0.028
1019	0.028
1020	0.027
1020	0.027
1021	0.027
1021	0.027
1021	0.027
1022	0.028
1022	0.028
1023	0.028
1023	0.028
1023	0.029
1024	0.029
1024	0.029
1025	0.029
1025	0.03
1026	0.03
1026	0.03
1026	0.03
1027	0.03
1027	0.03
1028	0.029
1028	0.029
1028	0.029
1029	0.03
1029	0.03
1030	0.03
1030	0.03
1031	0.03
1031	0.031
1031	0.031
1032	0.031
1032	0.032
1033	0.032
1033	0.032
1033	0.032
1034	0.032
1034	0.032
1035	0.032
1035	0.032
1036	0.032
1036	0.032
1036	0.033
1037	0.033
1037	0.033
1038	0.033
1038	0.033
1039	0.033
1039	0.034
1039	0.034
1040	0.034
1040	0.035
1041	0.035
1041	0.035
1041	0.035
1042	0.035
1042	0.035
1043	0.035
1043	0.035
1044	0.035
1044	0.034
1044	0.034
1045	0.034
1045	0.034
1046	0.034
1046	0.034
1046	0.034
1047	0.034
1047	0.034
1048	0.034
1048	0.035
1049	0.035
1049	0.035
1049	0.035
1050	0.035
1050	0.034
1051	0.034
1051	0.033
1051	0.033
1052	0.032
1052	0.032
1053	0.031
1053	0.03
1053	0.03
1054	0.029
1054	0.029
1055	0.029
1055	0.029
1056	0.029
1056	0.028
1056	0.028
1057	0.027
1057	0.027
1058	0.026
1058	0.026
1058	0.025
1059	0.025
1059	0.025
1060	0.024
1060	0.024
1061	0.023
1061	0.023
1061	0.023
1062	0.023
1062	0.023
1063	0.023
1063	0.023
1063	0.023
1064	0.023
1064	0.023
1065	0.023
1065	0.022
1066	0.022
1066	0.022
1066	0.022
1067	0.021
1067	0.021
1068	0.021
1068	0.021
1068	0.021
1069	0.02
1069	0.02
1070	0.019
1070	0.019
1071	0.018
1071	0.018
1071	0.018
1072	0.017
1072	0.017
1073	0.016
1073	0.016
1073	0.015
1074	0.015
1074	0.015
1075	0.015
1075	0.015
1076	0.016
1076	0.016
1076	0.016
1077	0.017
1077	0.017
1078	0.016
1078	0.017
1078	0.017
1079	0.017
1079	0.017
1080	0.016
1080	0.016
1080	0.016
1081	0.016
1081	0.016
1082	0.017
1082	0.017
1083	0.017
1083	0.017
1083	0.017
1084	0.017
1084	0.017
1085	0.018
1085	0.017
1085	0.017
1086	0.017
1086	0.016
1087	0.016
1087	0.016
1088	0.015
1088	0.016
1088	0.016
1089	0.015
1089	0.015
1090	0.014
1090	0.014
1090	0.013
1091	0.013
1091	0.013
1092	0.013
1092	0.013
1092	0.012
1093	0.011
1093	0.012
1094	0.012
1094	0.011
1095	0.011
1095	0.01
1095	0.011
1096	0.01
1096	0.009
1097	0.008
1097	0.008
1097	0.008
1098	0.007
1098	0.006
1099	0.005
1099	0.004
1100	0.003
1100	0.001
1100	0
1101	-0.001
1101	-0.002
1102	-0.004
1102	-0.005
1102	-0.006
1103	-0.007
1103	-0.007
1104	-0.007
1104	-0.007
1104	-0.008
1105	-0.008
1105	-0.011
1106	-0.012
1106	-0.013
1107	-0.015
1107	-0.015
1107	-0.016
1108	-0.017
1108	-0.018
1109	-0.019
1109	-0.02
1109	-0.023
1110	-0.021
1110	-0.024
1111	-0.024
1111	-0.025
