Data from reversibility-20sec_Absorbance__6382__000000000006382.txt Node

Date: Wed Dec 06 23:40:26 CET 2023
User: Marek
Spectrometer: MAYP115816
Trigger mode: 0
Integration Time (sec): 2.000000E-1
Scans to average: 10
Electric dark correction enabled: true
Nonlinearity correction enabled: true
Boxcar width: 5
XAxis mode: Wavelengths
Number of Pixels in Spectrum: 2068
>>>>>Begin Spectral Data<<<<<
199	-0.138
199	-0.115
200	-0.051
200	0.002
201	0.026
201	0.043
202	0.055
202	0.063
203	0.07
203	0.072
204	0.084
204	0.096
205	0.107
205	0.112
205	0.11
206	0.11
206	0.11
207	0.11
207	0.111
208	0.11
208	0.11
209	0.113
209	0.111
210	0.112
210	0.112
211	0.112
211	0.114
212	0.113
212	0.113
213	0.115
213	0.116
213	0.118
214	0.12
214	0.121
215	0.12
215	0.121
216	0.119
216	0.119
217	0.123
217	0.123
218	0.124
218	0.13
219	0.135
219	0.135
220	0.139
220	0.141
221	0.14
221	0.147
221	0.151
222	0.157
222	0.162
223	0.167
223	0.169
224	0.171
224	0.18
225	0.189
225	0.2
226	0.209
226	0.217
227	0.228
227	0.235
228	0.25
228	0.266
229	0.281
229	0.307
229	0.33
230	0.355
230	0.385
231	0.418
231	0.456
232	0.494
232	0.543
233	0.586
233	0.634
234	0.682
234	0.735
235	0.789
235	0.841
236	0.89
236	0.943
236	0.994
237	1.043
237	1.092
238	1.138
238	1.185
239	1.238
239	1.277
240	1.315
240	1.351
241	1.385
241	1.418
242	1.45
242	1.484
243	1.511
243	1.536
243	1.562
244	1.58
244	1.601
245	1.619
245	1.642
246	1.661
246	1.68
247	1.692
247	1.705
248	1.718
248	1.734
249	1.744
249	1.751
250	1.761
250	1.77
250	1.775
251	1.777
251	1.778
252	1.784
252	1.785
253	1.787
253	1.785
254	1.783
254	1.787
255	1.784
255	1.785
256	1.782
256	1.782
257	1.783
257	1.781
258	1.78
258	1.778
258	1.777
259	1.776
259	1.775
260	1.773
260	1.774
261	1.775
261	1.777
262	1.78
262	1.781
263	1.785
263	1.788
264	1.789
264	1.791
265	1.793
265	1.795
265	1.794
266	1.795
266	1.796
267	1.793
267	1.793
268	1.792
268	1.791
269	1.794
269	1.792
270	1.791
270	1.79
271	1.788
271	1.787
272	1.784
272	1.783
272	1.781
273	1.775
273	1.771
274	1.764
274	1.758
275	1.752
275	1.746
276	1.739
276	1.731
277	1.723
277	1.712
278	1.701
278	1.689
278	1.675
279	1.659
279	1.639
280	1.614
280	1.585
281	1.55
281	1.511
282	1.469
282	1.427
283	1.385
283	1.345
284	1.306
284	1.268
285	1.232
285	1.199
285	1.169
286	1.143
286	1.121
287	1.101
287	1.085
288	1.07
288	1.058
289	1.047
289	1.037
290	1.029
290	1.023
291	1.017
291	1.011
292	1.007
292	1.002
292	0.998
293	0.995
293	0.991
294	0.987
294	0.984
295	0.981
295	0.978
296	0.975
296	0.972
297	0.969
297	0.965
298	0.962
298	0.959
298	0.957
299	0.954
299	0.951
300	0.949
300	0.946
301	0.943
301	0.94
302	0.938
302	0.935
303	0.933
303	0.93
304	0.928
304	0.926
305	0.923
305	0.92
305	0.918
306	0.916
306	0.913
307	0.911
307	0.908
308	0.905
308	0.903
309	0.9
309	0.897
310	0.894
310	0.891
311	0.888
311	0.885
311	0.882
312	0.878
312	0.875
313	0.871
313	0.867
314	0.863
314	0.859
315	0.855
315	0.851
316	0.847
316	0.842
317	0.837
317	0.832
318	0.827
318	0.822
318	0.817
319	0.812
319	0.806
320	0.801
320	0.795
321	0.789
321	0.783
322	0.777
322	0.771
323	0.765
323	0.759
324	0.752
324	0.745
324	0.739
325	0.732
325	0.725
326	0.718
326	0.711
327	0.704
327	0.697
328	0.69
328	0.683
329	0.676
329	0.669
330	0.662
330	0.655
330	0.648
331	0.641
331	0.634
332	0.627
332	0.62
333	0.613
333	0.606
334	0.599
334	0.592
335	0.586
335	0.579
336	0.572
336	0.565
336	0.559
337	0.553
337	0.547
338	0.541
338	0.535
339	0.529
339	0.523
340	0.517
340	0.511
341	0.506
341	0.5
342	0.495
342	0.489
342	0.484
343	0.479
343	0.473
344	0.468
344	0.464
345	0.459
345	0.454
346	0.45
346	0.445
347	0.441
347	0.436
348	0.432
348	0.429
348	0.425
349	0.421
349	0.417
350	0.413
350	0.41
351	0.407
351	0.403
352	0.4
352	0.397
353	0.394
353	0.391
354	0.388
354	0.386
354	0.383
355	0.38
355	0.377
356	0.374
356	0.371
357	0.369
357	0.366
358	0.363
358	0.36
359	0.358
359	0.356
360	0.354
360	0.352
360	0.35
361	0.348
361	0.346
362	0.344
362	0.342
363	0.341
363	0.339
364	0.337
364	0.335
365	0.333
365	0.332
366	0.33
366	0.328
366	0.326
367	0.325
367	0.323
368	0.321
368	0.32
369	0.318
369	0.317
370	0.316
370	0.314
371	0.313
371	0.312
372	0.31
372	0.309
372	0.308
373	0.307
373	0.306
374	0.305
374	0.304
375	0.303
375	0.302
376	0.301
376	0.301
377	0.3
377	0.299
378	0.298
378	0.297
378	0.296
379	0.295
379	0.295
380	0.294
380	0.293
381	0.292
381	0.292
382	0.291
382	0.29
383	0.29
383	0.289
383	0.288
384	0.288
384	0.287
385	0.287
385	0.287
386	0.286
386	0.286
387	0.285
387	0.284
388	0.284
388	0.283
389	0.283
389	0.283
389	0.282
390	0.282
390	0.282
391	0.281
391	0.281
392	0.28
392	0.28
393	0.28
393	0.28
394	0.279
394	0.279
394	0.278
395	0.278
395	0.278
396	0.277
396	0.277
397	0.277
397	0.276
398	0.276
398	0.276
399	0.275
399	0.275
400	0.275
400	0.274
400	0.274
401	0.273
401	0.273
402	0.273
402	0.272
403	0.272
403	0.272
404	0.271
404	0.271
405	0.271
405	0.271
405	0.27
406	0.27
406	0.27
407	0.27
407	0.269
408	0.269
408	0.268
409	0.268
409	0.268
410	0.268
410	0.267
411	0.267
411	0.267
411	0.267
412	0.266
412	0.266
413	0.265
413	0.265
414	0.265
414	0.265
415	0.264
415	0.264
416	0.264
416	0.263
416	0.263
417	0.263
417	0.262
418	0.262
418	0.262
419	0.261
419	0.261
420	0.26
420	0.26
421	0.26
421	0.259
421	0.259
422	0.259
422	0.258
423	0.258
423	0.257
424	0.257
424	0.257
425	0.256
425	0.256
426	0.256
426	0.256
427	0.255
427	0.255
427	0.255
428	0.254
428	0.254
429	0.254
429	0.253
430	0.253
430	0.253
431	0.253
431	0.252
432	0.252
432	0.252
432	0.252
433	0.252
433	0.251
434	0.251
434	0.251
435	0.251
435	0.251
436	0.251
436	0.251
437	0.25
437	0.25
437	0.25
438	0.25
438	0.25
439	0.249
439	0.249
440	0.249
440	0.249
441	0.248
441	0.248
442	0.248
442	0.248
442	0.247
443	0.247
443	0.247
444	0.247
444	0.246
445	0.246
445	0.246
446	0.246
446	0.246
447	0.245
447	0.245
447	0.245
448	0.245
448	0.245
449	0.244
449	0.244
450	0.244
450	0.244
451	0.244
451	0.244
452	0.244
452	0.244
452	0.243
453	0.243
453	0.243
454	0.243
454	0.243
455	0.242
455	0.242
456	0.242
456	0.242
457	0.242
457	0.241
458	0.241
458	0.241
458	0.241
459	0.241
459	0.241
460	0.241
460	0.241
461	0.241
461	0.241
462	0.241
462	0.24
463	0.24
463	0.24
463	0.239
464	0.239
464	0.239
465	0.239
465	0.239
466	0.239
466	0.239
467	0.239
467	0.239
467	0.239
468	0.239
468	0.239
469	0.24
469	0.24
470	0.24
470	0.24
471	0.24
471	0.24
472	0.24
472	0.24
472	0.241
473	0.241
473	0.241
474	0.24
474	0.24
475	0.24
475	0.24
476	0.241
476	0.241
477	0.241
477	0.241
477	0.241
478	0.241
478	0.242
479	0.242
479	0.242
480	0.242
480	0.242
481	0.242
481	0.242
482	0.242
482	0.243
482	0.243
483	0.243
483	0.244
484	0.244
484	0.244
485	0.244
485	0.245
486	0.245
486	0.245
487	0.245
487	0.245
487	0.246
488	0.246
488	0.246
489	0.247
489	0.248
490	0.248
490	0.249
491	0.25
491	0.251
492	0.251
492	0.252
492	0.253
493	0.253
493	0.254
494	0.254
494	0.255
495	0.255
495	0.255
496	0.256
496	0.257
496	0.257
497	0.258
497	0.258
498	0.259
498	0.259
499	0.26
499	0.261
500	0.262
500	0.263
501	0.263
501	0.264
501	0.265
502	0.265
502	0.266
503	0.267
503	0.267
504	0.268
504	0.269
505	0.269
505	0.27
506	0.27
506	0.271
506	0.271
507	0.272
507	0.273
508	0.273
508	0.273
509	0.274
509	0.275
510	0.275
510	0.276
511	0.277
511	0.278
511	0.278
512	0.279
512	0.28
513	0.28
513	0.281
514	0.281
514	0.282
515	0.282
515	0.283
515	0.283
516	0.283
516	0.284
517	0.284
517	0.284
518	0.284
518	0.285
519	0.285
519	0.285
520	0.286
520	0.286
520	0.286
521	0.287
521	0.287
522	0.287
522	0.287
523	0.287
523	0.287
524	0.287
524	0.287
524	0.287
525	0.287
525	0.287
526	0.286
526	0.287
527	0.286
527	0.286
528	0.286
528	0.286
529	0.286
529	0.286
529	0.285
530	0.285
530	0.285
531	0.284
531	0.284
532	0.283
532	0.282
533	0.282
533	0.281
533	0.281
534	0.28
534	0.28
535	0.279
535	0.279
536	0.278
536	0.278
537	0.277
537	0.277
538	0.276
538	0.276
538	0.275
539	0.275
539	0.274
540	0.274
540	0.273
541	0.272
541	0.272
542	0.271
542	0.271
542	0.27
543	0.269
543	0.268
544	0.268
544	0.267
545	0.266
545	0.265
546	0.264
546	0.263
547	0.262
547	0.261
547	0.26
548	0.259
548	0.259
549	0.258
549	0.257
550	0.256
550	0.256
551	0.255
551	0.254
551	0.253
552	0.252
552	0.251
553	0.25
553	0.25
554	0.248
554	0.247
555	0.246
555	0.245
556	0.244
556	0.243
556	0.242
557	0.242
557	0.242
558	0.241
558	0.241
559	0.24
559	0.24
560	0.239
560	0.239
560	0.238
561	0.238
561	0.237
562	0.235
562	0.234
563	0.233
563	0.232
564	0.23
564	0.23
564	0.229
565	0.228
565	0.227
566	0.226
566	0.226
567	0.226
567	0.225
568	0.225
568	0.224
568	0.223
569	0.223
569	0.222
570	0.22
570	0.219
571	0.219
571	0.218
572	0.217
572	0.216
573	0.216
573	0.215
573	0.214
574	0.214
574	0.213
575	0.213
575	0.213
576	0.213
576	0.212
577	0.211
577	0.21
577	0.209
578	0.209
578	0.208
579	0.208
579	0.208
580	0.206
580	0.205
581	0.205
581	0.204
581	0.204
582	0.204
582	0.204
583	0.204
583	0.203
584	0.202
584	0.201
585	0.201
585	0.201
585	0.2
586	0.2
586	0.199
587	0.198
587	0.197
588	0.196
588	0.196
589	0.195
589	0.195
590	0.195
590	0.194
590	0.194
591	0.194
591	0.194
592	0.193
592	0.192
593	0.192
593	0.191
594	0.191
594	0.19
594	0.189
595	0.189
595	0.188
596	0.187
596	0.187
597	0.188
597	0.188
598	0.188
598	0.187
598	0.187
599	0.187
599	0.187
600	0.186
600	0.186
601	0.185
601	0.185
602	0.184
602	0.184
602	0.183
603	0.182
603	0.182
604	0.182
604	0.182
605	0.182
605	0.182
606	0.181
606	0.181
606	0.18
607	0.18
607	0.18
608	0.18
608	0.179
609	0.179
609	0.179
610	0.178
610	0.178
610	0.178
611	0.177
611	0.177
612	0.177
612	0.177
613	0.177
613	0.177
614	0.176
614	0.176
614	0.176
615	0.175
615	0.175
616	0.175
616	0.175
617	0.175
617	0.175
618	0.174
618	0.174
618	0.174
619	0.175
619	0.175
620	0.175
620	0.175
621	0.175
621	0.174
622	0.174
622	0.173
622	0.173
623	0.172
623	0.172
624	0.171
624	0.17
625	0.169
625	0.169
626	0.169
626	0.168
626	0.169
627	0.168
627	0.168
628	0.168
628	0.168
629	0.167
629	0.167
630	0.167
630	0.167
630	0.167
631	0.166
631	0.166
632	0.165
632	0.165
633	0.165
633	0.165
634	0.165
634	0.166
634	0.165
635	0.165
635	0.165
636	0.165
636	0.165
637	0.165
637	0.164
638	0.164
638	0.164
638	0.163
639	0.163
639	0.163
640	0.163
640	0.163
641	0.163
641	0.162
642	0.162
642	0.162
642	0.162
643	0.162
643	0.162
644	0.162
644	0.162
645	0.162
645	0.162
646	0.162
646	0.162
646	0.162
647	0.162
647	0.161
648	0.161
648	0.16
649	0.16
649	0.16
650	0.16
650	0.159
650	0.159
651	0.159
651	0.159
652	0.16
652	0.16
653	0.16
653	0.162
653	0.168
654	0.133
654	0.107
655	0.106
655	0.107
656	0.107
656	0.107
657	0.107
657	0.108
657	0.108
658	0.107
658	0.097
659	0.122
659	0.156
660	0.162
660	0.162
661	0.161
661	0.161
661	0.16
662	0.16
662	0.16
663	0.159
663	0.159
664	0.159
664	0.158
665	0.158
665	0.158
665	0.158
666	0.158
666	0.158
667	0.158
667	0.158
668	0.159
668	0.159
669	0.159
669	0.16
669	0.161
670	0.161
670	0.161
671	0.161
671	0.161
672	0.161
672	0.16
672	0.159
673	0.159
673	0.158
674	0.158
674	0.157
675	0.156
675	0.156
676	0.156
676	0.156
676	0.156
677	0.156
677	0.156
678	0.156
678	0.156
679	0.156
679	0.156
680	0.157
680	0.157
680	0.156
681	0.156
681	0.157
682	0.157
682	0.157
683	0.157
683	0.157
684	0.157
684	0.157
684	0.156
685	0.156
685	0.157
686	0.157
686	0.157
687	0.157
687	0.157
687	0.157
688	0.157
688	0.157
689	0.157
689	0.158
690	0.158
690	0.157
691	0.157
691	0.158
691	0.158
692	0.158
692	0.158
693	0.158
693	0.159
694	0.158
694	0.158
695	0.159
695	0.16
695	0.16
696	0.159
696	0.159
697	0.159
697	0.159
698	0.159
698	0.158
698	0.159
699	0.159
699	0.158
700	0.158
700	0.158
701	0.159
701	0.158
702	0.158
702	0.158
702	0.158
703	0.158
703	0.158
704	0.158
704	0.158
705	0.158
705	0.157
705	0.157
706	0.157
706	0.157
707	0.158
707	0.157
708	0.158
708	0.158
709	0.158
709	0.158
709	0.158
710	0.158
710	0.158
711	0.159
711	0.159
712	0.159
712	0.159
713	0.16
713	0.16
713	0.16
714	0.16
714	0.16
715	0.16
715	0.159
716	0.159
716	0.158
716	0.158
717	0.157
717	0.157
718	0.156
718	0.156
719	0.156
719	0.157
720	0.157
720	0.158
720	0.158
721	0.159
721	0.159
722	0.16
722	0.16
723	0.161
723	0.161
723	0.161
724	0.161
724	0.161
725	0.16
725	0.16
726	0.159
726	0.159
727	0.158
727	0.158
727	0.157
728	0.157
728	0.157
729	0.157
729	0.157
730	0.157
730	0.158
730	0.159
731	0.159
731	0.16
732	0.161
732	0.162
733	0.162
733	0.163
734	0.163
734	0.163
734	0.164
735	0.164
735	0.164
736	0.164
736	0.164
737	0.163
737	0.164
737	0.164
738	0.163
738	0.162
739	0.162
739	0.162
740	0.161
740	0.161
741	0.161
741	0.161
741	0.161
742	0.161
742	0.162
743	0.162
743	0.163
744	0.164
744	0.165
744	0.165
745	0.165
745	0.166
746	0.166
746	0.166
747	0.166
747	0.166
748	0.166
748	0.166
748	0.165
749	0.165
749	0.165
750	0.165
750	0.165
751	0.165
751	0.165
751	0.165
752	0.165
752	0.165
753	0.164
753	0.164
754	0.164
754	0.163
754	0.163
755	0.163
755	0.163
756	0.163
756	0.162
757	0.161
757	0.162
758	0.162
758	0.162
758	0.162
759	0.162
759	0.162
760	0.162
760	0.162
761	0.162
761	0.162
761	0.163
762	0.163
762	0.163
763	0.163
763	0.163
764	0.162
764	0.163
764	0.163
765	0.163
765	0.163
766	0.163
766	0.163
767	0.163
767	0.162
768	0.162
768	0.162
768	0.162
769	0.162
769	0.163
770	0.163
770	0.164
771	0.164
771	0.164
771	0.165
772	0.166
772	0.167
773	0.167
773	0.167
774	0.168
774	0.168
775	0.168
775	0.169
775	0.169
776	0.169
776	0.169
777	0.169
777	0.169
778	0.169
778	0.169
778	0.169
779	0.169
779	0.169
780	0.168
780	0.167
781	0.167
781	0.166
781	0.166
782	0.166
782	0.166
783	0.166
783	0.167
784	0.167
784	0.167
784	0.168
785	0.168
785	0.168
786	0.168
786	0.168
787	0.168
787	0.168
788	0.167
788	0.166
788	0.165
789	0.165
789	0.165
790	0.164
790	0.164
791	0.164
791	0.164
791	0.164
792	0.165
792	0.165
793	0.165
793	0.165
794	0.165
794	0.165
794	0.164
795	0.165
795	0.165
796	0.165
796	0.165
797	0.165
797	0.165
797	0.165
798	0.166
798	0.166
799	0.166
799	0.166
800	0.165
800	0.165
801	0.165
801	0.165
801	0.164
802	0.165
802	0.165
803	0.165
803	0.165
804	0.165
804	0.166
804	0.166
805	0.166
805	0.166
806	0.166
806	0.166
807	0.165
807	0.165
807	0.165
808	0.164
808	0.164
809	0.163
809	0.163
810	0.164
810	0.163
810	0.163
811	0.164
811	0.164
812	0.165
812	0.165
813	0.166
813	0.166
813	0.167
814	0.167
814	0.167
815	0.168
815	0.168
816	0.168
816	0.167
817	0.166
817	0.166
817	0.165
818	0.164
818	0.164
819	0.163
819	0.162
820	0.162
820	0.161
820	0.161
821	0.161
821	0.161
822	0.161
822	0.161
823	0.162
823	0.162
823	0.163
824	0.164
824	0.165
825	0.166
825	0.166
826	0.167
826	0.167
826	0.167
827	0.167
827	0.168
828	0.168
828	0.167
829	0.168
829	0.168
829	0.167
830	0.168
830	0.168
831	0.169
831	0.169
832	0.168
832	0.168
832	0.168
833	0.168
833	0.168
834	0.167
834	0.167
835	0.166
835	0.166
835	0.165
836	0.165
836	0.165
837	0.165
837	0.164
838	0.164
838	0.163
839	0.163
839	0.162
839	0.162
840	0.161
840	0.16
841	0.159
841	0.158
842	0.157
842	0.156
842	0.155
843	0.154
843	0.153
844	0.152
844	0.152
845	0.151
845	0.15
845	0.15
846	0.15
846	0.15
847	0.15
847	0.15
848	0.151
848	0.151
848	0.152
849	0.153
849	0.153
850	0.154
850	0.154
851	0.154
851	0.154
851	0.154
852	0.153
852	0.152
853	0.151
853	0.151
854	0.15
854	0.15
854	0.151
855	0.151
855	0.151
856	0.151
856	0.152
857	0.153
857	0.154
857	0.155
858	0.155
858	0.155
859	0.155
859	0.155
860	0.154
860	0.154
860	0.153
861	0.153
861	0.152
862	0.151
862	0.15
863	0.149
863	0.149
863	0.148
864	0.148
864	0.147
865	0.147
865	0.147
866	0.147
866	0.147
866	0.147
867	0.148
867	0.148
868	0.148
868	0.149
869	0.149
869	0.148
869	0.148
870	0.148
870	0.148
871	0.148
871	0.148
872	0.148
872	0.148
872	0.148
873	0.147
873	0.147
874	0.146
874	0.145
875	0.145
875	0.144
875	0.143
876	0.143
876	0.142
877	0.141
877	0.141
878	0.141
878	0.142
878	0.142
879	0.142
879	0.143
880	0.144
880	0.144
881	0.144
881	0.145
881	0.145
882	0.145
882	0.145
883	0.145
883	0.145
884	0.146
884	0.145
884	0.145
885	0.145
885	0.144
886	0.144
886	0.144
887	0.143
887	0.142
887	0.141
888	0.14
888	0.139
889	0.138
889	0.138
890	0.137
890	0.137
890	0.137
891	0.136
891	0.136
892	0.136
892	0.135
893	0.135
893	0.135
893	0.135
894	0.135
894	0.134
895	0.134
895	0.134
895	0.135
896	0.135
896	0.135
897	0.135
897	0.135
898	0.135
898	0.135
898	0.134
899	0.134
899	0.133
900	0.132
900	0.132
901	0.131
901	0.13
901	0.13
902	0.129
902	0.129
903	0.129
903	0.129
904	0.129
904	0.129
904	0.129
905	0.129
905	0.129
906	0.129
906	0.129
907	0.13
907	0.13
907	0.131
908	0.131
908	0.131
909	0.131
909	0.131
910	0.131
910	0.131
910	0.13
911	0.13
911	0.129
912	0.128
912	0.128
913	0.127
913	0.127
913	0.126
914	0.126
914	0.126
915	0.126
915	0.125
916	0.125
916	0.125
916	0.125
917	0.125
917	0.124
918	0.124
918	0.123
918	0.123
919	0.122
919	0.122
920	0.122
920	0.121
921	0.121
921	0.121
921	0.121
922	0.121
922	0.121
923	0.121
923	0.121
924	0.121
924	0.121
924	0.121
925	0.122
925	0.122
926	0.122
926	0.122
927	0.123
927	0.123
927	0.123
928	0.123
928	0.123
929	0.123
929	0.123
930	0.123
930	0.123
930	0.123
931	0.122
931	0.122
932	0.121
932	0.121
933	0.121
933	0.12
933	0.12
934	0.119
934	0.119
935	0.119
935	0.118
935	0.118
936	0.117
936	0.117
937	0.116
937	0.116
938	0.115
938	0.115
938	0.114
939	0.114
939	0.113
940	0.113
940	0.113
941	0.113
941	0.113
941	0.114
942	0.114
942	0.114
943	0.114
943	0.115
944	0.115
944	0.115
944	0.115
945	0.115
945	0.115
946	0.115
946	0.114
946	0.114
947	0.114
947	0.114
948	0.113
948	0.113
949	0.112
949	0.112
949	0.112
950	0.112
950	0.111
951	0.111
951	0.11
952	0.11
952	0.109
952	0.109
953	0.108
953	0.108
954	0.108
954	0.107
955	0.107
955	0.107
955	0.107
956	0.107
956	0.107
957	0.108
957	0.108
957	0.108
958	0.108
958	0.108
959	0.108
959	0.108
960	0.108
960	0.107
960	0.107
961	0.107
961	0.107
962	0.107
962	0.107
963	0.107
963	0.107
963	0.107
964	0.107
964	0.107
965	0.107
965	0.107
966	0.107
966	0.107
966	0.106
967	0.106
967	0.106
968	0.105
968	0.105
968	0.104
969	0.103
969	0.102
970	0.102
970	0.101
971	0.1
971	0.1
971	0.1
972	0.099
972	0.099
973	0.099
973	0.099
974	0.099
974	0.1
974	0.1
975	0.101
975	0.101
976	0.102
976	0.103
976	0.103
977	0.103
977	0.103
978	0.103
978	0.103
979	0.103
979	0.103
979	0.103
980	0.102
980	0.102
981	0.101
981	0.101
982	0.101
982	0.101
982	0.101
983	0.101
983	0.101
984	0.101
984	0.101
984	0.101
985	0.101
985	0.101
986	0.1
986	0.1
987	0.1
987	0.1
987	0.1
988	0.1
988	0.1
989	0.1
989	0.1
990	0.099
990	0.099
990	0.099
991	0.099
991	0.098
992	0.098
992	0.097
992	0.096
993	0.095
993	0.094
994	0.093
994	0.092
995	0.091
995	0.09
995	0.09
996	0.089
996	0.089
997	0.089
997	0.09
997	0.09
998	0.091
998	0.091
999	0.092
999	0.093
1000	0.094
1000	0.095
1000	0.095
1001	0.095
1001	0.095
1002	0.095
1002	0.095
1003	0.095
1003	0.094
1003	0.094
1004	0.093
1004	0.092
1005	0.091
1005	0.09
1005	0.089
1006	0.088
1006	0.088
1007	0.087
1007	0.086
1008	0.086
1008	0.086
1008	0.086
1009	0.086
1009	0.086
1010	0.086
1010	0.086
1010	0.086
1011	0.086
1011	0.086
1012	0.086
1012	0.086
1013	0.086
1013	0.085
1013	0.085
1014	0.085
1014	0.084
1015	0.084
1015	0.084
1016	0.083
1016	0.083
1016	0.083
1017	0.082
1017	0.082
1018	0.082
1018	0.081
1018	0.081
1019	0.081
1019	0.08
1020	0.08
1020	0.08
1021	0.08
1021	0.08
1021	0.08
1022	0.081
1022	0.081
1023	0.081
1023	0.082
1023	0.082
1024	0.083
1024	0.083
1025	0.083
1025	0.084
1026	0.084
1026	0.084
1026	0.084
1027	0.085
1027	0.085
1028	0.085
1028	0.085
1028	0.085
1029	0.085
1029	0.085
1030	0.085
1030	0.085
1031	0.085
1031	0.085
1031	0.085
1032	0.085
1032	0.086
1033	0.086
1033	0.086
1033	0.086
1034	0.086
1034	0.086
1035	0.086
1035	0.086
1036	0.086
1036	0.086
1036	0.086
1037	0.086
1037	0.086
1038	0.086
1038	0.086
1039	0.085
1039	0.085
1039	0.085
1040	0.085
1040	0.085
1041	0.084
1041	0.084
1041	0.084
1042	0.084
1042	0.083
1043	0.084
1043	0.083
1044	0.083
1044	0.083
1044	0.082
1045	0.082
1045	0.082
1046	0.082
1046	0.082
1046	0.082
1047	0.081
1047	0.081
1048	0.081
1048	0.081
1049	0.081
1049	0.081
1049	0.081
1050	0.081
1050	0.08
1051	0.08
1051	0.079
1051	0.079
1052	0.079
1052	0.078
1053	0.078
1053	0.077
1053	0.077
1054	0.076
1054	0.076
1055	0.076
1055	0.075
1056	0.074
1056	0.074
1056	0.073
1057	0.073
1057	0.072
1058	0.072
1058	0.071
1058	0.07
1059	0.069
1059	0.069
1060	0.069
1060	0.068
1061	0.068
1061	0.068
1061	0.068
1062	0.067
1062	0.067
1063	0.067
1063	0.067
1063	0.067
1064	0.066
1064	0.066
1065	0.066
1065	0.066
1066	0.066
1066	0.066
1066	0.066
1067	0.066
1067	0.066
1068	0.065
1068	0.066
1068	0.066
1069	0.066
1069	0.065
1070	0.065
1070	0.065
1071	0.064
1071	0.064
1071	0.064
1072	0.063
1072	0.063
1073	0.062
1073	0.062
1073	0.061
1074	0.062
1074	0.062
1075	0.062
1075	0.062
1076	0.062
1076	0.062
1076	0.063
1077	0.063
1077	0.063
1078	0.063
1078	0.063
1078	0.063
1079	0.062
1079	0.062
1080	0.061
1080	0.061
1080	0.06
1081	0.06
1081	0.059
1082	0.06
1082	0.06
1083	0.059
1083	0.059
1083	0.059
1084	0.059
1084	0.06
1085	0.059
1085	0.059
1085	0.059
1086	0.06
1086	0.06
1087	0.06
1087	0.06
1088	0.06
1088	0.06
1088	0.06
1089	0.059
1089	0.059
1090	0.059
1090	0.058
1090	0.057
1091	0.057
1091	0.056
1092	0.057
1092	0.056
1092	0.056
1093	0.055
1093	0.056
1094	0.056
1094	0.056
1095	0.056
1095	0.055
1095	0.055
1096	0.055
1096	0.054
1097	0.053
1097	0.053
1097	0.052
1098	0.05
1098	0.049
1099	0.048
1099	0.046
1100	0.045
1100	0.043
1100	0.042
1101	0.041
1101	0.04
1102	0.04
1102	0.039
1102	0.038
1103	0.037
1103	0.038
1104	0.037
1104	0.036
1104	0.036
1105	0.035
1105	0.033
1106	0.032
1106	0.031
1107	0.03
1107	0.029
1107	0.029
1108	0.028
1108	0.027
1109	0.026
1109	0.025
1109	0.025
1110	0.029
1110	0.027
1111	0.026
1111	0.024
