Data from reversibility-20sec_Absorbance__532__000000000000532.txt Node

Date: Tue Dec 05 15:10:25 CET 2023
User: Marek
Spectrometer: MAYP115816
Trigger mode: 0
Integration Time (sec): 2.000000E-1
Scans to average: 10
Electric dark correction enabled: true
Nonlinearity correction enabled: true
Boxcar width: 5
XAxis mode: Wavelengths
Number of Pixels in Spectrum: 2068
>>>>>Begin Spectral Data<<<<<
199	-0.236
199	-0.203
200	-0.132
200	-0.08
201	-0.048
201	-0.033
202	-0.019
202	-0.008
203	-0.001
203	0.002
204	0.016
204	0.029
205	0.041
205	0.046
205	0.045
206	0.044
206	0.044
207	0.045
207	0.044
208	0.042
208	0.042
209	0.044
209	0.041
210	0.041
210	0.04
211	0.039
211	0.04
212	0.04
212	0.043
213	0.046
213	0.047
213	0.049
214	0.051
214	0.053
215	0.053
215	0.055
216	0.057
216	0.057
217	0.061
217	0.065
218	0.065
218	0.069
219	0.073
219	0.074
220	0.078
220	0.079
221	0.082
221	0.084
221	0.089
222	0.093
222	0.094
223	0.1
223	0.105
224	0.109
224	0.117
225	0.128
225	0.141
226	0.148
226	0.16
227	0.171
227	0.179
228	0.195
228	0.208
229	0.226
229	0.25
229	0.271
230	0.291
230	0.318
231	0.351
231	0.389
232	0.424
232	0.468
233	0.511
233	0.562
234	0.61
234	0.659
235	0.71
235	0.764
236	0.818
236	0.868
236	0.917
237	0.97
237	1.016
238	1.061
238	1.103
239	1.151
239	1.193
240	1.235
240	1.27
241	1.304
241	1.339
242	1.371
242	1.403
243	1.433
243	1.462
243	1.486
244	1.508
244	1.53
245	1.548
245	1.569
246	1.585
246	1.601
247	1.615
247	1.63
248	1.644
248	1.656
249	1.667
249	1.674
250	1.682
250	1.69
250	1.695
251	1.701
251	1.703
252	1.708
252	1.709
253	1.712
253	1.71
254	1.709
254	1.71
255	1.709
255	1.708
256	1.707
256	1.706
257	1.707
257	1.706
258	1.704
258	1.703
258	1.703
259	1.703
259	1.703
260	1.702
260	1.703
261	1.703
261	1.704
262	1.705
262	1.706
263	1.709
263	1.709
264	1.709
264	1.709
265	1.71
265	1.711
265	1.712
266	1.711
266	1.712
267	1.71
267	1.71
268	1.709
268	1.708
269	1.709
269	1.707
270	1.707
270	1.706
271	1.703
271	1.702
272	1.698
272	1.695
272	1.692
273	1.687
273	1.683
274	1.678
274	1.674
275	1.667
275	1.662
276	1.657
276	1.65
277	1.645
277	1.636
278	1.626
278	1.615
278	1.603
279	1.589
279	1.572
280	1.552
280	1.527
281	1.498
281	1.465
282	1.431
282	1.395
283	1.359
283	1.324
284	1.289
284	1.255
285	1.222
285	1.193
285	1.166
286	1.142
286	1.121
287	1.102
287	1.086
288	1.072
288	1.06
289	1.05
289	1.041
290	1.034
290	1.027
291	1.021
291	1.016
292	1.011
292	1.007
292	1.003
293	1
293	0.997
294	0.994
294	0.991
295	0.988
295	0.986
296	0.983
296	0.98
297	0.977
297	0.975
298	0.972
298	0.97
298	0.967
299	0.964
299	0.962
300	0.959
300	0.956
301	0.954
301	0.952
302	0.949
302	0.947
303	0.945
303	0.942
304	0.94
304	0.938
305	0.936
305	0.933
305	0.931
306	0.929
306	0.926
307	0.924
307	0.922
308	0.919
308	0.917
309	0.914
309	0.911
310	0.909
310	0.906
311	0.903
311	0.9
311	0.896
312	0.893
312	0.89
313	0.886
313	0.883
314	0.879
314	0.875
315	0.87
315	0.866
316	0.862
316	0.858
317	0.853
317	0.848
318	0.843
318	0.838
318	0.833
319	0.828
319	0.823
320	0.818
320	0.812
321	0.807
321	0.801
322	0.795
322	0.789
323	0.783
323	0.777
324	0.77
324	0.764
324	0.758
325	0.751
325	0.745
326	0.738
326	0.732
327	0.725
327	0.718
328	0.712
328	0.705
329	0.699
329	0.692
330	0.685
330	0.678
330	0.671
331	0.665
331	0.658
332	0.651
332	0.644
333	0.637
333	0.631
334	0.624
334	0.618
335	0.611
335	0.605
336	0.598
336	0.592
336	0.585
337	0.58
337	0.573
338	0.567
338	0.561
339	0.556
339	0.55
340	0.544
340	0.539
341	0.533
341	0.528
342	0.522
342	0.517
342	0.512
343	0.507
343	0.502
344	0.497
344	0.493
345	0.488
345	0.484
346	0.479
346	0.475
347	0.471
347	0.467
348	0.463
348	0.459
348	0.455
349	0.452
349	0.448
350	0.445
350	0.441
351	0.438
351	0.434
352	0.431
352	0.428
353	0.425
353	0.423
354	0.42
354	0.417
354	0.414
355	0.411
355	0.408
356	0.405
356	0.402
357	0.399
357	0.396
358	0.393
358	0.391
359	0.389
359	0.386
360	0.384
360	0.382
360	0.38
361	0.379
361	0.377
362	0.375
362	0.374
363	0.372
363	0.37
364	0.368
364	0.366
365	0.364
365	0.362
366	0.361
366	0.359
366	0.357
367	0.355
367	0.354
368	0.352
368	0.35
369	0.349
369	0.347
370	0.346
370	0.344
371	0.343
371	0.341
372	0.34
372	0.338
372	0.337
373	0.336
373	0.334
374	0.333
374	0.332
375	0.331
375	0.33
376	0.329
376	0.328
377	0.327
377	0.326
378	0.325
378	0.324
378	0.323
379	0.322
379	0.321
380	0.32
380	0.319
381	0.318
381	0.317
382	0.316
382	0.315
383	0.314
383	0.314
383	0.313
384	0.312
384	0.311
385	0.31
385	0.31
386	0.309
386	0.309
387	0.308
387	0.307
388	0.307
388	0.306
389	0.305
389	0.305
389	0.304
390	0.304
390	0.303
391	0.302
391	0.302
392	0.301
392	0.301
393	0.3
393	0.3
394	0.299
394	0.298
394	0.298
395	0.298
395	0.297
396	0.296
396	0.296
397	0.295
397	0.294
398	0.294
398	0.294
399	0.293
399	0.293
400	0.292
400	0.292
400	0.291
401	0.291
401	0.29
402	0.29
402	0.289
403	0.289
403	0.288
404	0.288
404	0.288
405	0.287
405	0.287
405	0.287
406	0.286
406	0.286
407	0.285
407	0.285
408	0.285
408	0.284
409	0.284
409	0.283
410	0.282
410	0.282
411	0.282
411	0.281
411	0.281
412	0.281
412	0.281
413	0.28
413	0.28
414	0.28
414	0.28
415	0.279
415	0.279
416	0.279
416	0.278
416	0.278
417	0.277
417	0.277
418	0.277
418	0.276
419	0.276
419	0.276
420	0.275
420	0.275
421	0.275
421	0.274
421	0.274
422	0.274
422	0.274
423	0.273
423	0.273
424	0.273
424	0.273
425	0.272
425	0.272
426	0.272
426	0.271
427	0.271
427	0.271
427	0.271
428	0.271
428	0.27
429	0.27
429	0.27
430	0.27
430	0.27
431	0.27
431	0.269
432	0.27
432	0.269
432	0.269
433	0.269
433	0.269
434	0.269
434	0.268
435	0.268
435	0.268
436	0.268
436	0.268
437	0.267
437	0.267
437	0.267
438	0.267
438	0.267
439	0.267
439	0.267
440	0.267
440	0.267
441	0.267
441	0.266
442	0.266
442	0.267
442	0.266
443	0.266
443	0.266
444	0.266
444	0.266
445	0.266
445	0.266
446	0.266
446	0.266
447	0.266
447	0.266
447	0.266
448	0.266
448	0.266
449	0.266
449	0.266
450	0.266
450	0.266
451	0.266
451	0.266
452	0.266
452	0.266
452	0.266
453	0.266
453	0.266
454	0.266
454	0.266
455	0.266
455	0.266
456	0.266
456	0.266
457	0.266
457	0.266
458	0.266
458	0.266
458	0.266
459	0.266
459	0.267
460	0.267
460	0.267
461	0.267
461	0.267
462	0.267
462	0.268
463	0.268
463	0.268
463	0.268
464	0.268
464	0.268
465	0.268
465	0.269
466	0.269
466	0.269
467	0.27
467	0.27
467	0.27
468	0.27
468	0.271
469	0.271
469	0.272
470	0.272
470	0.273
471	0.273
471	0.273
472	0.274
472	0.274
472	0.275
473	0.275
473	0.276
474	0.276
474	0.277
475	0.277
475	0.278
476	0.279
476	0.279
477	0.28
477	0.281
477	0.282
478	0.283
478	0.283
479	0.284
479	0.285
480	0.286
480	0.287
481	0.287
481	0.288
482	0.289
482	0.29
482	0.291
483	0.292
483	0.293
484	0.294
484	0.295
485	0.296
485	0.296
486	0.297
486	0.298
487	0.299
487	0.3
487	0.301
488	0.302
488	0.303
489	0.304
489	0.306
490	0.308
490	0.309
491	0.311
491	0.312
492	0.314
492	0.315
492	0.316
493	0.318
493	0.319
494	0.321
494	0.322
495	0.324
495	0.325
496	0.327
496	0.328
496	0.33
497	0.331
497	0.333
498	0.335
498	0.336
499	0.338
499	0.34
500	0.341
500	0.343
501	0.345
501	0.347
501	0.348
502	0.35
502	0.351
503	0.353
503	0.354
504	0.356
504	0.357
505	0.358
505	0.36
506	0.361
506	0.363
506	0.364
507	0.366
507	0.367
508	0.369
508	0.37
509	0.372
509	0.373
510	0.374
510	0.375
511	0.377
511	0.378
511	0.379
512	0.38
512	0.382
513	0.383
513	0.384
514	0.385
514	0.386
515	0.387
515	0.388
515	0.389
516	0.39
516	0.391
517	0.391
517	0.392
518	0.393
518	0.393
519	0.393
519	0.393
520	0.393
520	0.394
520	0.393
521	0.393
521	0.393
522	0.393
522	0.393
523	0.393
523	0.393
524	0.392
524	0.392
524	0.392
525	0.392
525	0.391
526	0.391
526	0.391
527	0.39
527	0.389
528	0.388
528	0.387
529	0.386
529	0.385
529	0.384
530	0.382
530	0.381
531	0.38
531	0.378
532	0.377
532	0.375
533	0.373
533	0.372
533	0.371
534	0.369
534	0.368
535	0.366
535	0.365
536	0.363
536	0.361
537	0.359
537	0.357
538	0.355
538	0.353
538	0.351
539	0.349
539	0.347
540	0.344
540	0.342
541	0.34
541	0.337
542	0.335
542	0.333
542	0.33
543	0.328
543	0.325
544	0.323
544	0.321
545	0.319
545	0.317
546	0.314
546	0.312
547	0.309
547	0.307
547	0.304
548	0.302
548	0.3
549	0.297
549	0.295
550	0.292
550	0.289
551	0.287
551	0.284
551	0.281
552	0.279
552	0.276
553	0.274
553	0.272
554	0.269
554	0.267
555	0.264
555	0.262
556	0.259
556	0.257
556	0.255
557	0.253
557	0.251
558	0.25
558	0.247
559	0.245
559	0.243
560	0.241
560	0.239
560	0.237
561	0.235
561	0.233
562	0.231
562	0.228
563	0.225
563	0.223
564	0.221
564	0.218
564	0.216
565	0.214
565	0.212
566	0.21
566	0.208
567	0.206
567	0.205
568	0.203
568	0.201
568	0.2
569	0.198
569	0.196
570	0.194
570	0.192
571	0.191
571	0.189
572	0.187
572	0.186
573	0.184
573	0.182
573	0.181
574	0.179
574	0.178
575	0.177
575	0.176
576	0.174
576	0.173
577	0.171
577	0.17
577	0.168
578	0.167
578	0.166
579	0.165
579	0.164
580	0.162
580	0.16
581	0.158
581	0.157
581	0.156
582	0.156
582	0.155
583	0.154
583	0.153
584	0.151
584	0.149
585	0.147
585	0.146
585	0.145
586	0.144
586	0.142
587	0.141
587	0.14
588	0.138
588	0.137
589	0.136
589	0.135
590	0.135
590	0.134
590	0.133
591	0.133
591	0.131
592	0.13
592	0.129
593	0.128
593	0.127
594	0.126
594	0.125
594	0.124
595	0.124
595	0.122
596	0.121
596	0.121
597	0.121
597	0.12
598	0.119
598	0.119
598	0.118
599	0.117
599	0.117
600	0.116
600	0.115
601	0.114
601	0.114
602	0.113
602	0.112
602	0.111
603	0.11
603	0.11
604	0.11
604	0.109
605	0.109
605	0.108
606	0.108
606	0.107
606	0.106
607	0.105
607	0.105
608	0.104
608	0.102
609	0.101
609	0.101
610	0.1
610	0.099
610	0.099
611	0.098
611	0.098
612	0.097
612	0.097
613	0.097
613	0.096
614	0.095
614	0.094
614	0.094
615	0.094
615	0.093
616	0.093
616	0.092
617	0.092
617	0.091
618	0.091
618	0.091
618	0.09
619	0.09
619	0.09
620	0.09
620	0.09
621	0.089
621	0.088
622	0.088
622	0.087
622	0.087
623	0.086
623	0.085
624	0.085
624	0.084
625	0.084
625	0.083
626	0.083
626	0.082
626	0.082
627	0.081
627	0.081
628	0.08
628	0.079
629	0.079
629	0.078
630	0.078
630	0.077
630	0.077
631	0.077
631	0.077
632	0.076
632	0.076
633	0.076
633	0.076
634	0.077
634	0.077
634	0.077
635	0.077
635	0.076
636	0.076
636	0.076
637	0.076
637	0.075
638	0.075
638	0.074
638	0.074
639	0.073
639	0.073
640	0.073
640	0.072
641	0.072
641	0.072
642	0.071
642	0.071
642	0.07
643	0.07
643	0.07
644	0.07
644	0.069
645	0.069
645	0.069
646	0.068
646	0.068
646	0.068
647	0.068
647	0.068
648	0.067
648	0.066
649	0.066
649	0.066
650	0.065
650	0.065
650	0.065
651	0.065
651	0.065
652	0.064
652	0.064
653	0.064
653	0.066
653	0.071
654	0.058
654	0.048
655	0.046
655	0.046
656	0.046
656	0.046
657	0.046
657	0.046
657	0.046
658	0.045
658	0.039
659	0.048
659	0.06
660	0.063
660	0.063
661	0.063
661	0.062
661	0.062
662	0.062
662	0.061
663	0.061
663	0.06
664	0.06
664	0.059
665	0.059
665	0.059
665	0.059
666	0.059
666	0.059
667	0.059
667	0.059
668	0.059
668	0.059
669	0.059
669	0.059
669	0.059
670	0.059
670	0.058
671	0.057
671	0.057
672	0.056
672	0.055
672	0.055
673	0.054
673	0.054
674	0.054
674	0.053
675	0.053
675	0.053
676	0.054
676	0.054
676	0.054
677	0.055
677	0.055
678	0.055
678	0.054
679	0.054
679	0.054
680	0.054
680	0.054
680	0.054
681	0.054
681	0.055
682	0.055
682	0.055
683	0.056
683	0.056
684	0.057
684	0.056
684	0.056
685	0.056
685	0.056
686	0.055
686	0.055
687	0.054
687	0.053
687	0.053
688	0.052
688	0.052
689	0.052
689	0.052
690	0.052
690	0.051
691	0.051
691	0.052
691	0.052
692	0.052
692	0.052
693	0.053
693	0.053
694	0.053
694	0.052
695	0.053
695	0.054
695	0.054
696	0.053
696	0.053
697	0.053
697	0.053
698	0.052
698	0.052
698	0.052
699	0.052
699	0.052
700	0.051
700	0.051
701	0.052
701	0.051
702	0.051
702	0.051
702	0.051
703	0.05
703	0.05
704	0.049
704	0.049
705	0.049
705	0.048
705	0.048
706	0.047
706	0.047
707	0.047
707	0.047
708	0.047
708	0.047
709	0.047
709	0.047
709	0.046
710	0.046
710	0.046
711	0.046
711	0.046
712	0.046
712	0.046
713	0.046
713	0.046
713	0.046
714	0.045
714	0.045
715	0.045
715	0.045
716	0.044
716	0.044
716	0.043
717	0.043
717	0.042
718	0.042
718	0.041
719	0.042
719	0.042
720	0.042
720	0.042
720	0.042
721	0.043
721	0.043
722	0.044
722	0.044
723	0.044
723	0.044
723	0.044
724	0.043
724	0.043
725	0.042
725	0.041
726	0.04
726	0.04
727	0.039
727	0.039
727	0.039
728	0.038
728	0.038
729	0.039
729	0.039
730	0.039
730	0.039
730	0.039
731	0.039
731	0.039
732	0.039
732	0.039
733	0.039
733	0.038
734	0.038
734	0.038
734	0.038
735	0.038
735	0.038
736	0.037
736	0.037
737	0.037
737	0.037
737	0.036
738	0.035
738	0.035
739	0.034
739	0.034
740	0.033
740	0.033
741	0.033
741	0.032
741	0.032
742	0.032
742	0.032
743	0.033
743	0.034
744	0.035
744	0.035
744	0.036
745	0.036
745	0.036
746	0.036
746	0.036
747	0.036
747	0.036
748	0.036
748	0.036
748	0.035
749	0.034
749	0.034
750	0.034
750	0.033
751	0.032
751	0.032
751	0.032
752	0.031
752	0.03
753	0.03
753	0.03
754	0.03
754	0.03
754	0.03
755	0.031
755	0.031
756	0.03
756	0.029
757	0.029
757	0.028
758	0.028
758	0.028
758	0.027
759	0.028
759	0.027
760	0.027
760	0.027
761	0.027
761	0.028
761	0.028
762	0.028
762	0.029
763	0.029
763	0.028
764	0.028
764	0.028
764	0.028
765	0.027
765	0.027
766	0.026
766	0.026
767	0.025
767	0.024
768	0.023
768	0.023
768	0.023
769	0.023
769	0.023
770	0.023
770	0.023
771	0.023
771	0.023
771	0.023
772	0.023
772	0.023
773	0.023
773	0.023
774	0.023
774	0.023
775	0.023
775	0.023
775	0.022
776	0.022
776	0.022
777	0.022
777	0.022
778	0.022
778	0.022
778	0.022
779	0.022
779	0.022
780	0.022
780	0.022
781	0.022
781	0.022
781	0.022
782	0.022
782	0.022
783	0.022
783	0.022
784	0.022
784	0.021
784	0.021
785	0.021
785	0.021
786	0.021
786	0.021
787	0.021
787	0.021
788	0.02
788	0.02
788	0.019
789	0.019
789	0.019
790	0.019
790	0.019
791	0.018
791	0.018
791	0.017
792	0.018
792	0.018
793	0.017
793	0.017
794	0.016
794	0.016
794	0.015
795	0.015
795	0.015
796	0.015
796	0.015
797	0.015
797	0.014
797	0.015
798	0.015
798	0.015
799	0.015
799	0.015
800	0.015
800	0.014
801	0.014
801	0.014
801	0.013
802	0.014
802	0.014
803	0.014
803	0.014
804	0.015
804	0.015
804	0.016
805	0.016
805	0.016
806	0.017
806	0.017
807	0.017
807	0.017
807	0.017
808	0.018
808	0.018
809	0.018
809	0.018
810	0.018
810	0.018
810	0.018
811	0.018
811	0.018
812	0.019
812	0.019
813	0.019
813	0.019
813	0.019
814	0.019
814	0.019
815	0.019
815	0.019
816	0.019
816	0.018
817	0.018
817	0.018
817	0.018
818	0.017
818	0.017
819	0.017
819	0.016
820	0.016
820	0.016
820	0.015
821	0.015
821	0.015
822	0.015
822	0.015
823	0.015
823	0.015
823	0.016
824	0.017
824	0.018
825	0.018
825	0.019
826	0.019
826	0.019
826	0.019
827	0.019
827	0.019
828	0.018
828	0.018
829	0.017
829	0.017
829	0.016
830	0.016
830	0.016
831	0.017
831	0.017
832	0.017
832	0.017
832	0.017
833	0.017
833	0.017
834	0.017
834	0.017
835	0.017
835	0.017
835	0.017
836	0.017
836	0.017
837	0.017
837	0.017
838	0.016
838	0.016
839	0.015
839	0.014
839	0.013
840	0.012
840	0.011
841	0.01
841	0.009
842	0.008
842	0.007
842	0.007
843	0.007
843	0.007
844	0.007
844	0.007
845	0.007
845	0.007
845	0.006
846	0.006
846	0.006
847	0.006
847	0.007
848	0.007
848	0.008
848	0.008
849	0.009
849	0.01
850	0.01
850	0.011
851	0.011
851	0.012
851	0.012
852	0.012
852	0.011
853	0.011
853	0.01
854	0.01
854	0.01
854	0.011
855	0.011
855	0.011
856	0.011
856	0.011
857	0.011
857	0.012
857	0.012
858	0.011
858	0.011
859	0.01
859	0.009
860	0.008
860	0.007
860	0.006
861	0.006
861	0.005
862	0.004
862	0.003
863	0.003
863	0.002
863	0.002
864	0.002
864	0.002
865	0.002
865	0.002
866	0.002
866	0.002
866	0.002
867	0.003
867	0.003
868	0.003
868	0.004
869	0.004
869	0.004
869	0.004
870	0.004
870	0.004
871	0.004
871	0.005
872	0.005
872	0.005
872	0.006
873	0.006
873	0.005
874	0.005
874	0.006
875	0.006
875	0.006
875	0.006
876	0.006
876	0.006
877	0.006
877	0.007
878	0.007
878	0.008
878	0.009
879	0.009
879	0.01
880	0.01
880	0.01
881	0.009
881	0.009
881	0.008
882	0.007
882	0.006
883	0.005
883	0.004
884	0.003
884	0.003
884	0.002
885	0.001
885	0.001
886	0
886	0
887	-0
887	-0.001
887	-0.001
888	-0.001
888	-0.002
889	-0.002
889	-0.001
890	-0.001
890	-0.001
890	-0
891	-0
891	0.001
892	0.001
892	0.002
893	0.003
893	0.004
893	0.005
894	0.005
894	0.006
895	0.006
895	0.006
895	0.006
896	0.006
896	0.006
897	0.005
897	0.005
898	0.004
898	0.004
898	0.003
899	0.002
899	0.002
900	0.002
900	0.001
901	0.001
901	0.001
901	0.001
902	0.001
902	0.001
903	0
903	0
904	0
904	-0
904	-0.001
905	-0.001
905	-0.001
906	-0.002
906	-0.001
907	-0.001
907	-0.001
907	-0.001
908	-0.001
908	-0.001
909	-0.001
909	-0.001
910	-0.001
910	-0
910	-0
911	-0
911	-0
912	0
912	0.001
913	0.001
913	0.001
913	0.001
914	0.001
914	0.002
915	0.002
915	0.002
916	0.001
916	0.001
916	0
917	-0
917	-0.001
918	-0.002
918	-0.002
918	-0.003
919	-0.003
919	-0.003
920	-0.003
920	-0.003
921	-0.002
921	-0.001
921	-0.001
922	-0
922	0.001
923	0.002
923	0.003
924	0.004
924	0.004
924	0.005
925	0.005
925	0.006
926	0.006
926	0.006
927	0.005
927	0.005
927	0.004
928	0.004
928	0.004
929	0.003
929	0.003
930	0.002
930	0.002
930	0.002
931	0.002
931	0.002
932	0.002
932	0.001
933	0.001
933	0.001
933	0.001
934	0
934	-0
935	-0
935	-0.001
935	-0.001
936	-0.001
936	-0.002
937	-0.002
937	-0.002
938	-0.002
938	-0.002
938	-0.002
939	-0.002
939	-0.002
940	-0.001
940	-0.001
941	0
941	0.001
941	0.002
942	0.003
942	0.003
943	0.004
943	0.004
944	0.005
944	0.005
944	0.006
945	0.006
945	0.006
946	0.006
946	0.006
946	0.006
947	0.006
947	0.006
948	0.006
948	0.006
949	0.006
949	0.006
949	0.006
950	0.005
950	0.006
951	0.006
951	0.005
952	0.005
952	0.004
952	0.004
953	0.003
953	0.003
954	0.002
954	0.001
955	0
955	-0.001
955	-0.001
956	-0.001
956	-0.001
957	-0.001
957	-0.001
957	-0.001
958	-0.001
958	-0
959	0
959	0
960	0.001
960	0.001
960	0.001
961	0.001
961	0.001
962	0.001
962	0.001
963	0.001
963	0.001
963	0.001
964	0.002
964	0.002
965	0.002
965	0.002
966	0.003
966	0.003
966	0.003
967	0.004
967	0.004
968	0.005
968	0.005
968	0.005
969	0.005
969	0.005
970	0.005
970	0.004
971	0.004
971	0.004
971	0.004
972	0.003
972	0.003
973	0.003
973	0.003
974	0.003
974	0.003
974	0.003
975	0.004
975	0.004
976	0.005
976	0.005
976	0.005
977	0.005
977	0.004
978	0.004
978	0.003
979	0.003
979	0.002
979	0.002
980	0.001
980	0
981	-0.001
981	-0.001
982	-0.002
982	-0.002
982	-0.002
983	-0.003
983	-0.003
984	-0.004
984	-0.004
984	-0.004
985	-0.005
985	-0.005
986	-0.005
986	-0.005
987	-0.006
987	-0.006
987	-0.006
988	-0.006
988	-0.007
989	-0.007
989	-0.007
990	-0.007
990	-0.007
990	-0.007
991	-0.007
991	-0.007
992	-0.007
992	-0.007
992	-0.008
993	-0.008
993	-0.008
994	-0.008
994	-0.008
995	-0.008
995	-0.008
995	-0.007
996	-0.007
996	-0.006
997	-0.005
997	-0.005
997	-0.004
998	-0.003
998	-0.002
999	-0.001
999	0
1000	0.001
1000	0.002
1000	0.002
1001	0.003
1001	0.003
1002	0.003
1002	0.003
1003	0.002
1003	0.002
1003	0.001
1004	0.001
1004	0
1005	-0
1005	-0.001
1005	-0.001
1006	-0.002
1006	-0.002
1007	-0.002
1007	-0.003
1008	-0.003
1008	-0.003
1008	-0.003
1009	-0.002
1009	-0.002
1010	-0.002
1010	-0.002
1010	-0.002
1011	-0.002
1011	-0.002
1012	-0.002
1012	-0.001
1013	-0.001
1013	-0.001
1013	-0.001
1014	-0.002
1014	-0.002
1015	-0.002
1015	-0.001
1016	-0.001
1016	-0.001
1016	-0.001
1017	-0.002
1017	-0.002
1018	-0.001
1018	-0.002
1018	-0.002
1019	-0.001
1019	-0.001
1020	-0.001
1020	-0.001
1021	-0.001
1021	-0.001
1021	-0.001
1022	-0.001
1022	-0.001
1023	-0.001
1023	-0.001
1023	-0.001
1024	-0.001
1024	-0.002
1025	-0.002
1025	-0.003
1026	-0.004
1026	-0.004
1026	-0.005
1027	-0.005
1027	-0.006
1028	-0.006
1028	-0.007
1028	-0.007
1029	-0.007
1029	-0.007
1030	-0.007
1030	-0.007
1031	-0.007
1031	-0.007
1031	-0.007
1032	-0.007
1032	-0.007
1033	-0.007
1033	-0.007
1033	-0.007
1034	-0.007
1034	-0.008
1035	-0.008
1035	-0.009
1036	-0.009
1036	-0.009
1036	-0.01
1037	-0.01
1037	-0.01
1038	-0.01
1038	-0.01
1039	-0.01
1039	-0.01
1039	-0.01
1040	-0.01
1040	-0.009
1041	-0.009
1041	-0.009
1041	-0.008
1042	-0.008
1042	-0.007
1043	-0.007
1043	-0.007
1044	-0.006
1044	-0.006
1044	-0.006
1045	-0.005
1045	-0.005
1046	-0.004
1046	-0.004
1046	-0.003
1047	-0.003
1047	-0.002
1048	-0.002
1048	-0.002
1049	-0.001
1049	-0.001
1049	-0.001
1050	-0.002
1050	-0.002
1051	-0.003
1051	-0.003
1051	-0.004
1052	-0.004
1052	-0.005
1053	-0.005
1053	-0.006
1053	-0.007
1054	-0.007
1054	-0.008
1055	-0.008
1055	-0.008
1056	-0.008
1056	-0.008
1056	-0.009
1057	-0.009
1057	-0.009
1058	-0.01
1058	-0.01
1058	-0.011
1059	-0.011
1059	-0.012
1060	-0.012
1060	-0.013
1061	-0.014
1061	-0.014
1061	-0.014
1062	-0.014
1062	-0.015
1063	-0.015
1063	-0.015
1063	-0.015
1064	-0.016
1064	-0.016
1065	-0.016
1065	-0.016
1066	-0.016
1066	-0.016
1066	-0.016
1067	-0.016
1067	-0.017
1068	-0.017
1068	-0.017
1068	-0.017
1069	-0.017
1069	-0.018
1070	-0.018
1070	-0.018
1071	-0.019
1071	-0.019
1071	-0.02
1072	-0.02
1072	-0.021
1073	-0.021
1073	-0.021
1073	-0.022
1074	-0.021
1074	-0.021
1075	-0.021
1075	-0.02
1076	-0.02
1076	-0.019
1076	-0.019
1077	-0.018
1077	-0.018
1078	-0.018
1078	-0.017
1078	-0.016
1079	-0.016
1079	-0.016
1080	-0.016
1080	-0.016
1080	-0.015
1081	-0.015
1081	-0.015
1082	-0.014
1082	-0.014
1083	-0.014
1083	-0.014
1083	-0.014
1084	-0.014
1084	-0.014
1085	-0.015
1085	-0.015
1085	-0.016
1086	-0.016
1086	-0.017
1087	-0.017
1087	-0.018
1088	-0.018
1088	-0.019
1088	-0.018
1089	-0.019
1089	-0.02
1090	-0.02
1090	-0.02
1090	-0.021
1091	-0.021
1091	-0.021
1092	-0.021
1092	-0.02
1092	-0.02
1093	-0.021
1093	-0.02
1094	-0.019
1094	-0.02
1095	-0.02
1095	-0.02
1095	-0.02
1096	-0.021
1096	-0.021
1097	-0.022
1097	-0.022
1097	-0.021
1098	-0.022
1098	-0.023
1099	-0.023
1099	-0.024
1100	-0.024
1100	-0.025
1100	-0.026
1101	-0.027
1101	-0.028
1102	-0.029
1102	-0.03
1102	-0.032
1103	-0.032
1103	-0.033
1104	-0.033
1104	-0.034
1104	-0.034
1105	-0.035
1105	-0.036
1106	-0.036
1106	-0.037
1107	-0.038
1107	-0.038
1107	-0.04
1108	-0.04
1108	-0.041
1109	-0.041
1109	-0.042
1109	-0.043
1110	-0.041
1110	-0.044
1111	-0.046
1111	-0.043
