Data from reversibility-20sec_Absorbance__1881__000000000001881.txt Node

Date: Tue Dec 05 22:40:05 CET 2023
User: Marek
Spectrometer: MAYP115816
Trigger mode: 0
Integration Time (sec): 2.000000E-1
Scans to average: 10
Electric dark correction enabled: true
Nonlinearity correction enabled: true
Boxcar width: 5
XAxis mode: Wavelengths
Number of Pixels in Spectrum: 2068
>>>>>Begin Spectral Data<<<<<
199	-0.216
199	-0.179
200	-0.107
200	-0.05
201	-0.02
201	-0.006
202	0.007
202	0.017
203	0.023
203	0.025
204	0.043
204	0.058
205	0.072
205	0.078
205	0.076
206	0.078
206	0.077
207	0.079
207	0.078
208	0.079
208	0.08
209	0.08
209	0.075
210	0.072
210	0.072
211	0.071
211	0.071
212	0.069
212	0.072
213	0.076
213	0.077
213	0.076
214	0.079
214	0.081
215	0.086
215	0.087
216	0.086
216	0.085
217	0.089
217	0.089
218	0.086
218	0.091
219	0.097
219	0.098
220	0.1
220	0.099
221	0.099
221	0.103
221	0.108
222	0.116
222	0.117
223	0.122
223	0.123
224	0.127
224	0.135
225	0.146
225	0.157
226	0.165
226	0.176
227	0.187
227	0.194
228	0.209
228	0.227
229	0.245
229	0.268
229	0.291
230	0.312
230	0.341
231	0.374
231	0.414
232	0.452
232	0.497
233	0.544
233	0.592
234	0.641
234	0.693
235	0.747
235	0.8
236	0.852
236	0.906
236	0.959
237	1.013
237	1.062
238	1.11
238	1.158
239	1.212
239	1.255
240	1.299
240	1.341
241	1.38
241	1.417
242	1.453
242	1.489
243	1.524
243	1.554
243	1.584
244	1.608
244	1.635
245	1.657
245	1.681
246	1.703
246	1.724
247	1.74
247	1.757
248	1.774
248	1.792
249	1.805
249	1.815
250	1.825
250	1.835
250	1.845
251	1.852
251	1.856
252	1.865
252	1.869
253	1.872
253	1.872
254	1.876
254	1.878
255	1.878
255	1.88
256	1.882
256	1.883
257	1.886
257	1.885
258	1.886
258	1.888
258	1.889
259	1.889
259	1.89
260	1.892
260	1.896
261	1.898
261	1.902
262	1.906
262	1.909
263	1.916
263	1.919
264	1.921
264	1.926
265	1.931
265	1.932
265	1.934
266	1.936
266	1.936
267	1.933
267	1.936
268	1.937
268	1.939
269	1.943
269	1.942
270	1.941
270	1.942
271	1.94
271	1.941
272	1.94
272	1.94
272	1.936
273	1.93
273	1.923
274	1.916
274	1.909
275	1.901
275	1.895
276	1.886
276	1.878
277	1.873
277	1.864
278	1.853
278	1.841
278	1.827
279	1.811
279	1.789
280	1.763
280	1.728
281	1.688
281	1.643
282	1.596
282	1.55
283	1.505
283	1.461
284	1.419
284	1.378
285	1.34
285	1.306
285	1.275
286	1.249
286	1.226
287	1.206
287	1.189
288	1.174
288	1.161
289	1.15
289	1.141
290	1.133
290	1.126
291	1.12
291	1.114
292	1.109
292	1.105
292	1.1
293	1.096
293	1.093
294	1.089
294	1.086
295	1.083
295	1.08
296	1.077
296	1.074
297	1.071
297	1.068
298	1.066
298	1.063
298	1.06
299	1.057
299	1.055
300	1.052
300	1.05
301	1.047
301	1.045
302	1.042
302	1.04
303	1.038
303	1.036
304	1.033
304	1.031
305	1.029
305	1.026
305	1.023
306	1.021
306	1.018
307	1.016
307	1.013
308	1.01
308	1.008
309	1.005
309	1.002
310	0.999
310	0.996
311	0.993
311	0.99
311	0.986
312	0.983
312	0.979
313	0.975
313	0.971
314	0.968
314	0.964
315	0.959
315	0.955
316	0.951
316	0.946
317	0.941
317	0.937
318	0.932
318	0.927
318	0.921
319	0.916
319	0.91
320	0.904
320	0.898
321	0.892
321	0.886
322	0.879
322	0.873
323	0.866
323	0.86
324	0.853
324	0.846
324	0.839
325	0.832
325	0.825
326	0.818
326	0.811
327	0.804
327	0.797
328	0.79
328	0.783
329	0.776
329	0.769
330	0.762
330	0.755
330	0.748
331	0.74
331	0.733
332	0.726
332	0.719
333	0.712
333	0.705
334	0.698
334	0.691
335	0.685
335	0.677
336	0.671
336	0.664
336	0.657
337	0.65
337	0.644
338	0.638
338	0.631
339	0.625
339	0.619
340	0.613
340	0.607
341	0.601
341	0.595
342	0.59
342	0.584
342	0.579
343	0.573
343	0.568
344	0.563
344	0.558
345	0.553
345	0.549
346	0.544
346	0.54
347	0.535
347	0.531
348	0.526
348	0.522
348	0.518
349	0.514
349	0.51
350	0.507
350	0.503
351	0.499
351	0.496
352	0.493
352	0.49
353	0.486
353	0.483
354	0.48
354	0.477
354	0.474
355	0.471
355	0.468
356	0.466
356	0.462
357	0.46
357	0.457
358	0.454
358	0.451
359	0.449
359	0.447
360	0.444
360	0.442
360	0.44
361	0.438
361	0.436
362	0.434
362	0.432
363	0.43
363	0.429
364	0.427
364	0.425
365	0.422
365	0.42
366	0.419
366	0.417
366	0.415
367	0.413
367	0.411
368	0.409
368	0.407
369	0.405
369	0.404
370	0.402
370	0.401
371	0.399
371	0.398
372	0.396
372	0.395
372	0.394
373	0.393
373	0.392
374	0.391
374	0.389
375	0.388
375	0.387
376	0.386
376	0.385
377	0.384
377	0.383
378	0.382
378	0.381
378	0.38
379	0.379
379	0.378
380	0.377
380	0.376
381	0.375
381	0.374
382	0.373
382	0.373
383	0.372
383	0.371
383	0.37
384	0.369
384	0.369
385	0.368
385	0.367
386	0.366
386	0.366
387	0.365
387	0.364
388	0.364
388	0.363
389	0.362
389	0.362
389	0.361
390	0.361
390	0.36
391	0.36
391	0.359
392	0.359
392	0.358
393	0.358
393	0.357
394	0.356
394	0.356
394	0.355
395	0.355
395	0.354
396	0.354
396	0.353
397	0.353
397	0.352
398	0.352
398	0.351
399	0.351
399	0.35
400	0.35
400	0.349
400	0.349
401	0.349
401	0.348
402	0.348
402	0.348
403	0.347
403	0.347
404	0.346
404	0.346
405	0.345
405	0.345
405	0.345
406	0.344
406	0.344
407	0.343
407	0.343
408	0.342
408	0.342
409	0.341
409	0.341
410	0.341
410	0.34
411	0.34
411	0.339
411	0.339
412	0.339
412	0.338
413	0.338
413	0.338
414	0.337
414	0.337
415	0.337
415	0.336
416	0.336
416	0.335
416	0.334
417	0.334
417	0.334
418	0.333
418	0.333
419	0.333
419	0.332
420	0.332
420	0.331
421	0.331
421	0.331
421	0.33
422	0.33
422	0.329
423	0.329
423	0.328
424	0.328
424	0.327
425	0.327
425	0.327
426	0.327
426	0.326
427	0.326
427	0.326
427	0.326
428	0.325
428	0.325
429	0.325
429	0.325
430	0.324
430	0.324
431	0.324
431	0.323
432	0.323
432	0.323
432	0.323
433	0.322
433	0.322
434	0.322
434	0.322
435	0.321
435	0.321
436	0.321
436	0.321
437	0.321
437	0.32
437	0.32
438	0.32
438	0.32
439	0.32
439	0.32
440	0.319
440	0.319
441	0.319
441	0.319
442	0.319
442	0.318
442	0.318
443	0.318
443	0.318
444	0.317
444	0.317
445	0.317
445	0.317
446	0.316
446	0.316
447	0.316
447	0.316
447	0.315
448	0.315
448	0.315
449	0.315
449	0.315
450	0.315
450	0.315
451	0.315
451	0.315
452	0.315
452	0.315
452	0.315
453	0.315
453	0.314
454	0.315
454	0.314
455	0.314
455	0.314
456	0.313
456	0.313
457	0.313
457	0.313
458	0.313
458	0.313
458	0.312
459	0.312
459	0.312
460	0.312
460	0.312
461	0.312
461	0.312
462	0.312
462	0.312
463	0.312
463	0.312
463	0.312
464	0.312
464	0.312
465	0.311
465	0.311
466	0.311
466	0.311
467	0.311
467	0.311
467	0.311
468	0.311
468	0.311
469	0.311
469	0.311
470	0.312
470	0.312
471	0.312
471	0.312
472	0.312
472	0.313
472	0.313
473	0.313
473	0.314
474	0.314
474	0.314
475	0.314
475	0.314
476	0.314
476	0.315
477	0.315
477	0.315
477	0.316
478	0.316
478	0.317
479	0.317
479	0.318
480	0.318
480	0.319
481	0.319
481	0.319
482	0.32
482	0.32
482	0.32
483	0.321
483	0.322
484	0.323
484	0.323
485	0.323
485	0.324
486	0.324
486	0.325
487	0.325
487	0.326
487	0.327
488	0.327
488	0.328
489	0.328
489	0.33
490	0.331
490	0.332
491	0.333
491	0.334
492	0.335
492	0.336
492	0.337
493	0.338
493	0.339
494	0.339
494	0.34
495	0.341
495	0.342
496	0.343
496	0.344
496	0.345
497	0.346
497	0.347
498	0.348
498	0.349
499	0.35
499	0.351
500	0.352
500	0.353
501	0.355
501	0.355
501	0.356
502	0.357
502	0.358
503	0.359
503	0.36
504	0.361
504	0.362
505	0.363
505	0.364
506	0.365
506	0.366
506	0.367
507	0.367
507	0.369
508	0.369
508	0.371
509	0.371
509	0.372
510	0.373
510	0.374
511	0.375
511	0.376
511	0.377
512	0.378
512	0.379
513	0.38
513	0.38
514	0.381
514	0.382
515	0.383
515	0.383
515	0.384
516	0.385
516	0.386
517	0.386
517	0.386
518	0.387
518	0.387
519	0.387
519	0.386
520	0.387
520	0.387
520	0.387
521	0.387
521	0.387
522	0.387
522	0.387
523	0.387
523	0.388
524	0.388
524	0.388
524	0.388
525	0.388
525	0.387
526	0.387
526	0.387
527	0.386
527	0.386
528	0.386
528	0.385
529	0.385
529	0.384
529	0.383
530	0.382
530	0.382
531	0.381
531	0.38
532	0.379
532	0.378
533	0.378
533	0.377
533	0.376
534	0.375
534	0.374
535	0.373
535	0.373
536	0.372
536	0.371
537	0.37
537	0.369
538	0.368
538	0.366
538	0.365
539	0.364
539	0.364
540	0.362
540	0.361
541	0.359
541	0.358
542	0.357
542	0.355
542	0.354
543	0.353
543	0.351
544	0.349
544	0.348
545	0.346
545	0.345
546	0.344
546	0.343
547	0.341
547	0.339
547	0.338
548	0.337
548	0.335
549	0.334
549	0.333
550	0.331
550	0.33
551	0.328
551	0.327
551	0.325
552	0.324
552	0.323
553	0.321
553	0.32
554	0.319
554	0.317
555	0.315
555	0.314
556	0.312
556	0.311
556	0.31
557	0.308
557	0.308
558	0.307
558	0.305
559	0.304
559	0.303
560	0.301
560	0.3
560	0.298
561	0.298
561	0.297
562	0.295
562	0.293
563	0.292
563	0.29
564	0.289
564	0.288
564	0.287
565	0.286
565	0.285
566	0.284
566	0.282
567	0.281
567	0.281
568	0.28
568	0.279
568	0.278
569	0.278
569	0.276
570	0.275
570	0.274
571	0.273
571	0.271
572	0.27
572	0.269
573	0.268
573	0.266
573	0.265
574	0.264
574	0.263
575	0.262
575	0.261
576	0.26
576	0.259
577	0.258
577	0.257
577	0.256
578	0.255
578	0.254
579	0.254
579	0.253
580	0.252
580	0.251
581	0.249
581	0.248
581	0.248
582	0.248
582	0.247
583	0.247
583	0.246
584	0.245
584	0.243
585	0.243
585	0.242
585	0.241
586	0.24
586	0.24
587	0.238
587	0.237
588	0.236
588	0.236
589	0.235
589	0.234
590	0.234
590	0.234
590	0.234
591	0.233
591	0.232
592	0.232
592	0.231
593	0.23
593	0.229
594	0.228
594	0.227
594	0.226
595	0.226
595	0.225
596	0.224
596	0.224
597	0.224
597	0.224
598	0.223
598	0.223
598	0.222
599	0.222
599	0.221
600	0.22
600	0.219
601	0.219
601	0.218
602	0.217
602	0.216
602	0.216
603	0.215
603	0.215
604	0.215
604	0.215
605	0.214
605	0.214
606	0.214
606	0.213
606	0.212
607	0.212
607	0.211
608	0.211
608	0.21
609	0.209
609	0.208
610	0.208
610	0.207
610	0.207
611	0.207
611	0.207
612	0.207
612	0.207
613	0.207
613	0.207
614	0.207
614	0.206
614	0.206
615	0.206
615	0.205
616	0.205
616	0.204
617	0.204
617	0.203
618	0.203
618	0.202
618	0.202
619	0.202
619	0.202
620	0.202
620	0.202
621	0.201
621	0.201
622	0.2
622	0.2
622	0.199
623	0.198
623	0.198
624	0.197
624	0.197
625	0.196
625	0.196
626	0.196
626	0.195
626	0.195
627	0.195
627	0.195
628	0.195
628	0.194
629	0.194
629	0.193
630	0.193
630	0.192
630	0.192
631	0.192
631	0.192
632	0.191
632	0.191
633	0.191
633	0.191
634	0.191
634	0.192
634	0.191
635	0.191
635	0.191
636	0.191
636	0.19
637	0.19
637	0.189
638	0.189
638	0.189
638	0.188
639	0.188
639	0.187
640	0.187
640	0.187
641	0.186
641	0.186
642	0.186
642	0.186
642	0.186
643	0.186
643	0.186
644	0.186
644	0.186
645	0.186
645	0.186
646	0.186
646	0.185
646	0.185
647	0.185
647	0.184
648	0.183
648	0.183
649	0.182
649	0.182
650	0.182
650	0.182
650	0.183
651	0.183
651	0.182
652	0.182
652	0.182
653	0.183
653	0.185
653	0.192
654	0.151
654	0.121
655	0.121
655	0.121
656	0.121
656	0.121
657	0.122
657	0.122
657	0.122
658	0.12
658	0.109
659	0.138
659	0.177
660	0.182
660	0.182
661	0.181
661	0.181
661	0.181
662	0.18
662	0.18
663	0.179
663	0.179
664	0.179
664	0.178
665	0.178
665	0.178
665	0.178
666	0.178
666	0.178
667	0.178
667	0.178
668	0.179
668	0.179
669	0.179
669	0.179
669	0.18
670	0.179
670	0.179
671	0.179
671	0.178
672	0.178
672	0.177
672	0.177
673	0.176
673	0.176
674	0.176
674	0.176
675	0.175
675	0.175
676	0.176
676	0.176
676	0.176
677	0.176
677	0.176
678	0.175
678	0.175
679	0.175
679	0.175
680	0.175
680	0.175
680	0.174
681	0.175
681	0.175
682	0.176
682	0.176
683	0.177
683	0.178
684	0.178
684	0.179
684	0.178
685	0.179
685	0.179
686	0.179
686	0.178
687	0.178
687	0.178
687	0.177
688	0.177
688	0.177
689	0.177
689	0.177
690	0.177
690	0.177
691	0.177
691	0.177
691	0.178
692	0.178
692	0.178
693	0.178
693	0.179
694	0.178
694	0.178
695	0.179
695	0.18
695	0.18
696	0.18
696	0.179
697	0.179
697	0.179
698	0.178
698	0.178
698	0.178
699	0.178
699	0.178
700	0.177
700	0.178
701	0.178
701	0.178
702	0.179
702	0.179
702	0.179
703	0.179
703	0.179
704	0.178
704	0.178
705	0.178
705	0.177
705	0.177
706	0.176
706	0.176
707	0.176
707	0.176
708	0.176
708	0.176
709	0.176
709	0.176
709	0.175
710	0.175
710	0.175
711	0.175
711	0.175
712	0.175
712	0.174
713	0.174
713	0.174
713	0.174
714	0.174
714	0.174
715	0.174
715	0.174
716	0.174
716	0.174
716	0.173
717	0.173
717	0.172
718	0.172
718	0.172
719	0.172
719	0.172
720	0.173
720	0.174
720	0.174
721	0.175
721	0.175
722	0.176
722	0.176
723	0.177
723	0.177
723	0.177
724	0.177
724	0.177
725	0.177
725	0.176
726	0.176
726	0.175
727	0.175
727	0.174
727	0.174
728	0.174
728	0.174
729	0.174
729	0.174
730	0.174
730	0.174
730	0.174
731	0.175
731	0.176
732	0.176
732	0.176
733	0.176
733	0.176
734	0.176
734	0.177
734	0.177
735	0.177
735	0.177
736	0.176
736	0.176
737	0.176
737	0.176
737	0.177
738	0.176
738	0.175
739	0.175
739	0.175
740	0.174
740	0.174
741	0.173
741	0.173
741	0.172
742	0.172
742	0.172
743	0.173
743	0.173
744	0.174
744	0.175
744	0.175
745	0.176
745	0.176
746	0.177
746	0.177
747	0.178
747	0.178
748	0.179
748	0.179
748	0.179
749	0.178
749	0.178
750	0.178
750	0.178
751	0.177
751	0.177
751	0.177
752	0.176
752	0.175
753	0.175
753	0.174
754	0.174
754	0.174
754	0.174
755	0.174
755	0.175
756	0.174
756	0.173
757	0.173
757	0.173
758	0.172
758	0.172
758	0.172
759	0.172
759	0.172
760	0.172
760	0.171
761	0.172
761	0.173
761	0.173
762	0.174
762	0.175
763	0.175
763	0.175
764	0.175
764	0.175
764	0.175
765	0.175
765	0.175
766	0.175
766	0.175
767	0.174
767	0.173
768	0.173
768	0.172
768	0.172
769	0.172
769	0.172
770	0.172
770	0.172
771	0.172
771	0.172
771	0.172
772	0.172
772	0.172
773	0.172
773	0.172
774	0.172
774	0.172
775	0.172
775	0.172
775	0.172
776	0.172
776	0.172
777	0.172
777	0.172
778	0.171
778	0.171
778	0.17
779	0.17
779	0.17
780	0.17
780	0.169
781	0.169
781	0.169
781	0.169
782	0.169
782	0.169
783	0.169
783	0.17
784	0.17
784	0.17
784	0.17
785	0.17
785	0.17
786	0.17
786	0.17
787	0.17
787	0.17
788	0.17
788	0.169
788	0.169
789	0.169
789	0.169
790	0.169
790	0.168
791	0.168
791	0.167
791	0.167
792	0.168
792	0.167
793	0.167
793	0.167
794	0.167
794	0.166
794	0.166
795	0.166
795	0.167
796	0.167
796	0.167
797	0.167
797	0.167
797	0.167
798	0.166
798	0.165
799	0.165
799	0.164
800	0.163
800	0.162
801	0.162
801	0.161
801	0.161
802	0.161
802	0.162
803	0.162
803	0.163
804	0.163
804	0.164
804	0.165
805	0.164
805	0.164
806	0.164
806	0.164
807	0.163
807	0.162
807	0.162
808	0.161
808	0.161
809	0.16
809	0.16
810	0.159
810	0.159
810	0.159
811	0.159
811	0.159
812	0.159
812	0.159
813	0.159
813	0.159
813	0.159
814	0.16
814	0.16
815	0.16
815	0.16
816	0.16
816	0.159
817	0.159
817	0.159
817	0.158
818	0.158
818	0.158
819	0.157
819	0.156
820	0.155
820	0.155
820	0.154
821	0.154
821	0.154
822	0.153
822	0.153
823	0.153
823	0.152
823	0.152
824	0.152
824	0.152
825	0.152
825	0.152
826	0.152
826	0.151
826	0.151
827	0.151
827	0.15
828	0.15
828	0.15
829	0.149
829	0.149
829	0.149
830	0.149
830	0.149
831	0.15
831	0.15
832	0.149
832	0.15
832	0.15
833	0.149
833	0.149
834	0.149
834	0.149
835	0.148
835	0.148
835	0.148
836	0.148
836	0.148
837	0.148
837	0.148
838	0.148
838	0.147
839	0.146
839	0.145
839	0.144
840	0.143
840	0.141
841	0.14
841	0.139
842	0.138
842	0.137
842	0.137
843	0.136
843	0.136
844	0.135
844	0.135
845	0.134
845	0.134
845	0.134
846	0.134
846	0.134
847	0.134
847	0.134
848	0.134
848	0.134
848	0.135
849	0.135
849	0.135
850	0.135
850	0.135
851	0.135
851	0.135
851	0.135
852	0.134
852	0.133
853	0.133
853	0.132
854	0.131
854	0.131
854	0.131
855	0.131
855	0.131
856	0.13
856	0.13
857	0.131
857	0.131
857	0.131
858	0.13
858	0.13
859	0.129
859	0.128
860	0.127
860	0.126
860	0.124
861	0.123
861	0.122
862	0.121
862	0.12
863	0.12
863	0.119
863	0.119
864	0.12
864	0.12
865	0.12
865	0.12
866	0.12
866	0.119
866	0.119
867	0.119
867	0.119
868	0.118
868	0.118
869	0.118
869	0.117
869	0.117
870	0.117
870	0.117
871	0.117
871	0.118
872	0.118
872	0.119
872	0.119
873	0.119
873	0.119
874	0.119
874	0.119
875	0.119
875	0.118
875	0.118
876	0.118
876	0.118
877	0.118
877	0.118
878	0.118
878	0.118
878	0.119
879	0.119
879	0.119
880	0.119
880	0.119
881	0.119
881	0.118
881	0.118
882	0.117
882	0.116
883	0.115
883	0.114
884	0.113
884	0.112
884	0.111
885	0.11
885	0.109
886	0.109
886	0.108
887	0.108
887	0.107
887	0.107
888	0.106
888	0.106
889	0.106
889	0.106
890	0.106
890	0.106
890	0.106
891	0.107
891	0.107
892	0.108
892	0.108
893	0.109
893	0.11
893	0.11
894	0.11
894	0.11
895	0.11
895	0.111
895	0.11
896	0.11
896	0.11
897	0.109
897	0.108
898	0.107
898	0.107
898	0.106
899	0.105
899	0.105
900	0.104
900	0.104
901	0.103
901	0.103
901	0.103
902	0.103
902	0.103
903	0.102
903	0.102
904	0.102
904	0.102
904	0.101
905	0.101
905	0.101
906	0.101
906	0.101
907	0.101
907	0.101
907	0.101
908	0.101
908	0.101
909	0.101
909	0.101
910	0.101
910	0.101
910	0.101
911	0.101
911	0.101
912	0.101
912	0.101
913	0.101
913	0.1
913	0.1
914	0.1
914	0.1
915	0.1
915	0.099
916	0.099
916	0.098
916	0.098
917	0.097
917	0.096
918	0.095
918	0.095
918	0.094
919	0.093
919	0.093
920	0.092
920	0.092
921	0.092
921	0.092
921	0.091
922	0.091
922	0.092
923	0.092
923	0.092
924	0.093
924	0.093
924	0.093
925	0.093
925	0.093
926	0.093
926	0.093
927	0.093
927	0.093
927	0.092
928	0.092
928	0.092
929	0.092
929	0.091
930	0.091
930	0.091
930	0.09
931	0.09
931	0.09
932	0.09
932	0.089
933	0.089
933	0.089
933	0.088
934	0.087
934	0.087
935	0.087
935	0.086
935	0.086
936	0.085
936	0.085
937	0.085
937	0.085
938	0.085
938	0.085
938	0.085
939	0.085
939	0.085
940	0.085
940	0.085
941	0.085
941	0.085
941	0.086
942	0.086
942	0.086
943	0.087
943	0.087
944	0.087
944	0.087
944	0.087
945	0.087
945	0.087
946	0.087
946	0.087
946	0.087
947	0.087
947	0.087
948	0.087
948	0.087
949	0.087
949	0.087
949	0.086
950	0.086
950	0.086
951	0.086
951	0.086
952	0.086
952	0.085
952	0.085
953	0.085
953	0.085
954	0.084
954	0.084
955	0.083
955	0.083
955	0.082
956	0.082
956	0.082
957	0.082
957	0.082
957	0.082
958	0.082
958	0.082
959	0.082
959	0.082
960	0.082
960	0.083
960	0.083
961	0.083
961	0.083
962	0.083
962	0.083
963	0.083
963	0.083
963	0.082
964	0.082
964	0.082
965	0.082
965	0.082
966	0.082
966	0.082
966	0.081
967	0.081
967	0.081
968	0.081
968	0.081
968	0.08
969	0.08
969	0.08
970	0.079
970	0.079
971	0.079
971	0.078
971	0.078
972	0.078
972	0.078
973	0.078
973	0.078
974	0.078
974	0.079
974	0.079
975	0.079
975	0.08
976	0.08
976	0.08
976	0.081
977	0.081
977	0.081
978	0.081
978	0.081
979	0.08
979	0.08
979	0.08
980	0.08
980	0.079
981	0.079
981	0.079
982	0.079
982	0.078
982	0.078
983	0.077
983	0.077
984	0.076
984	0.075
984	0.074
985	0.073
985	0.072
986	0.071
986	0.07
987	0.069
987	0.068
987	0.068
988	0.067
988	0.067
989	0.066
989	0.066
990	0.065
990	0.065
990	0.065
991	0.065
991	0.065
992	0.065
992	0.064
992	0.064
993	0.064
993	0.064
994	0.064
994	0.064
995	0.064
995	0.064
995	0.065
996	0.065
996	0.066
997	0.067
997	0.067
997	0.068
998	0.069
998	0.07
999	0.071
999	0.072
1000	0.073
1000	0.074
1000	0.075
1001	0.075
1001	0.076
1002	0.076
1002	0.077
1003	0.077
1003	0.077
1003	0.076
1004	0.076
1004	0.075
1005	0.075
1005	0.074
1005	0.073
1006	0.073
1006	0.072
1007	0.072
1007	0.071
1008	0.071
1008	0.071
1008	0.071
1009	0.071
1009	0.07
1010	0.07
1010	0.07
1010	0.07
1011	0.07
1011	0.069
1012	0.069
1012	0.069
1013	0.069
1013	0.069
1013	0.069
1014	0.068
1014	0.068
1015	0.068
1015	0.068
1016	0.068
1016	0.067
1016	0.067
1017	0.066
1017	0.066
1018	0.066
1018	0.065
1018	0.065
1019	0.065
1019	0.064
1020	0.064
1020	0.064
1021	0.065
1021	0.065
1021	0.066
1022	0.066
1022	0.066
1023	0.067
1023	0.067
1023	0.067
1024	0.067
1024	0.067
1025	0.066
1025	0.066
1026	0.065
1026	0.065
1026	0.064
1027	0.063
1027	0.063
1028	0.062
1028	0.062
1028	0.061
1029	0.061
1029	0.061
1030	0.061
1030	0.061
1031	0.061
1031	0.061
1031	0.061
1032	0.061
1032	0.061
1033	0.061
1033	0.061
1033	0.061
1034	0.061
1034	0.061
1035	0.061
1035	0.061
1036	0.061
1036	0.061
1036	0.061
1037	0.061
1037	0.061
1038	0.061
1038	0.061
1039	0.061
1039	0.061
1039	0.061
1040	0.062
1040	0.062
1041	0.062
1041	0.062
1041	0.062
1042	0.062
1042	0.062
1043	0.061
1043	0.061
1044	0.061
1044	0.061
1044	0.061
1045	0.061
1045	0.061
1046	0.061
1046	0.061
1046	0.062
1047	0.062
1047	0.063
1048	0.063
1048	0.064
1049	0.064
1049	0.064
1049	0.064
1050	0.063
1050	0.063
1051	0.062
1051	0.062
1051	0.061
1052	0.06
1052	0.059
1053	0.058
1053	0.057
1053	0.056
1054	0.055
1054	0.055
1055	0.055
1055	0.054
1056	0.054
1056	0.054
1056	0.053
1057	0.053
1057	0.052
1058	0.052
1058	0.051
1058	0.051
1059	0.05
1059	0.05
1060	0.05
1060	0.049
1061	0.049
1061	0.049
1061	0.049
1062	0.049
1062	0.049
1063	0.049
1063	0.049
1063	0.048
1064	0.048
1064	0.048
1065	0.048
1065	0.048
1066	0.048
1066	0.048
1066	0.048
1067	0.047
1067	0.048
1068	0.048
1068	0.048
1068	0.048
1069	0.047
1069	0.047
1070	0.046
1070	0.046
1071	0.045
1071	0.045
1071	0.044
1072	0.043
1072	0.043
1073	0.042
1073	0.041
1073	0.041
1074	0.041
1074	0.041
1075	0.041
1075	0.041
1076	0.041
1076	0.042
1076	0.042
1077	0.042
1077	0.042
1078	0.042
1078	0.042
1078	0.042
1079	0.042
1079	0.042
1080	0.042
1080	0.043
1080	0.043
1081	0.043
1081	0.043
1082	0.043
1082	0.044
1083	0.043
1083	0.043
1083	0.044
1084	0.043
1084	0.043
1085	0.043
1085	0.042
1085	0.042
1086	0.042
1086	0.041
1087	0.04
1087	0.04
1088	0.04
1088	0.039
1088	0.039
1089	0.038
1089	0.038
1090	0.037
1090	0.037
1090	0.036
1091	0.036
1091	0.036
1092	0.036
1092	0.037
1092	0.037
1093	0.036
1093	0.037
1094	0.036
1094	0.036
1095	0.036
1095	0.035
1095	0.035
1096	0.034
1096	0.033
1097	0.032
1097	0.032
1097	0.031
1098	0.031
1098	0.03
1099	0.029
1099	0.027
1100	0.027
1100	0.026
1100	0.026
1101	0.025
1101	0.024
1102	0.024
1102	0.022
1102	0.021
1103	0.02
1103	0.02
1104	0.02
1104	0.019
1104	0.018
1105	0.017
1105	0.015
1106	0.014
1106	0.012
1107	0.01
1107	0.01
1107	0.009
1108	0.009
1108	0.007
1109	0.005
1109	0.004
1109	0.004
1110	0.005
1110	0.004
1111	0.005
1111	0.007
