Data from reversibility-20sec_Absorbance__2481__000000000002481.txt Node

Date: Wed Dec 06 02:00:06 CET 2023
User: Marek
Spectrometer: MAYP115816
Trigger mode: 0
Integration Time (sec): 2.000000E-1
Scans to average: 10
Electric dark correction enabled: true
Nonlinearity correction enabled: true
Boxcar width: 5
XAxis mode: Wavelengths
Number of Pixels in Spectrum: 2068
>>>>>Begin Spectral Data<<<<<
199	-0.156
199	-0.123
200	-0.056
200	-0.007
201	0.023
201	0.041
202	0.057
202	0.069
203	0.078
203	0.082
204	0.095
204	0.108
205	0.124
205	0.129
205	0.131
206	0.133
206	0.134
207	0.137
207	0.135
208	0.133
208	0.133
209	0.136
209	0.136
210	0.134
210	0.136
211	0.134
211	0.133
212	0.128
212	0.128
213	0.132
213	0.132
213	0.131
214	0.133
214	0.137
215	0.138
215	0.138
216	0.141
216	0.141
217	0.148
217	0.15
218	0.149
218	0.156
219	0.162
219	0.164
220	0.165
220	0.165
221	0.167
221	0.171
221	0.175
222	0.181
222	0.184
223	0.192
223	0.193
224	0.195
224	0.201
225	0.209
225	0.223
226	0.228
226	0.237
227	0.249
227	0.255
228	0.269
228	0.284
229	0.3
229	0.324
229	0.348
230	0.374
230	0.401
231	0.434
231	0.472
232	0.508
232	0.555
233	0.603
233	0.649
234	0.7
234	0.752
235	0.805
235	0.858
236	0.911
236	0.967
236	1.022
237	1.076
237	1.124
238	1.174
238	1.226
239	1.28
239	1.326
240	1.369
240	1.409
241	1.446
241	1.48
242	1.513
242	1.552
243	1.588
243	1.617
243	1.644
244	1.663
244	1.688
245	1.708
245	1.734
246	1.758
246	1.781
247	1.795
247	1.807
248	1.823
248	1.839
249	1.85
249	1.862
250	1.87
250	1.88
250	1.883
251	1.889
251	1.891
252	1.899
252	1.901
253	1.904
253	1.901
254	1.9
254	1.902
255	1.903
255	1.904
256	1.908
256	1.906
257	1.909
257	1.907
258	1.908
258	1.908
258	1.91
259	1.914
259	1.913
260	1.913
260	1.917
261	1.916
261	1.922
262	1.926
262	1.93
263	1.937
263	1.941
264	1.945
264	1.947
265	1.952
265	1.954
265	1.956
266	1.959
266	1.961
267	1.96
267	1.963
268	1.963
268	1.966
269	1.969
269	1.97
270	1.971
270	1.972
271	1.97
271	1.969
272	1.965
272	1.964
272	1.957
273	1.95
273	1.939
274	1.929
274	1.921
275	1.911
275	1.904
276	1.895
276	1.888
277	1.88
277	1.868
278	1.857
278	1.843
278	1.827
279	1.808
279	1.782
280	1.751
280	1.712
281	1.667
281	1.618
282	1.567
282	1.519
283	1.471
283	1.425
284	1.382
284	1.339
285	1.3
285	1.265
285	1.235
286	1.207
286	1.184
287	1.164
287	1.147
288	1.132
288	1.12
289	1.109
289	1.1
290	1.093
290	1.086
291	1.08
291	1.075
292	1.07
292	1.066
292	1.062
293	1.058
293	1.055
294	1.052
294	1.049
295	1.046
295	1.043
296	1.04
296	1.037
297	1.034
297	1.032
298	1.029
298	1.027
298	1.024
299	1.021
299	1.019
300	1.016
300	1.013
301	1.011
301	1.009
302	1.007
302	1.005
303	1.003
303	1
304	0.998
304	0.996
305	0.994
305	0.991
305	0.989
306	0.987
306	0.985
307	0.982
307	0.98
308	0.977
308	0.975
309	0.972
309	0.97
310	0.967
310	0.964
311	0.961
311	0.958
311	0.954
312	0.951
312	0.948
313	0.944
313	0.94
314	0.936
314	0.932
315	0.928
315	0.923
316	0.919
316	0.915
317	0.91
317	0.906
318	0.901
318	0.896
318	0.89
319	0.885
319	0.879
320	0.874
320	0.868
321	0.862
321	0.855
322	0.849
322	0.843
323	0.836
323	0.83
324	0.823
324	0.816
324	0.81
325	0.803
325	0.796
326	0.789
326	0.782
327	0.775
327	0.768
328	0.761
328	0.754
329	0.746
329	0.739
330	0.732
330	0.725
330	0.718
331	0.711
331	0.704
332	0.697
332	0.69
333	0.682
333	0.675
334	0.668
334	0.661
335	0.655
335	0.648
336	0.641
336	0.634
336	0.628
337	0.621
337	0.615
338	0.609
338	0.602
339	0.596
339	0.59
340	0.584
340	0.578
341	0.573
341	0.567
342	0.561
342	0.556
342	0.551
343	0.545
343	0.54
344	0.535
344	0.53
345	0.525
345	0.52
346	0.516
346	0.511
347	0.507
347	0.503
348	0.499
348	0.495
348	0.491
349	0.487
349	0.483
350	0.479
350	0.476
351	0.473
351	0.469
352	0.466
352	0.463
353	0.46
353	0.457
354	0.454
354	0.451
354	0.448
355	0.445
355	0.442
356	0.439
356	0.436
357	0.433
357	0.43
358	0.428
358	0.425
359	0.423
359	0.42
360	0.418
360	0.416
360	0.414
361	0.412
361	0.41
362	0.408
362	0.407
363	0.405
363	0.403
364	0.401
364	0.399
365	0.397
365	0.395
366	0.393
366	0.392
366	0.39
367	0.388
367	0.386
368	0.385
368	0.383
369	0.381
369	0.38
370	0.378
370	0.377
371	0.376
371	0.374
372	0.373
372	0.372
372	0.371
373	0.37
373	0.369
374	0.368
374	0.367
375	0.366
375	0.365
376	0.364
376	0.363
377	0.362
377	0.36
378	0.359
378	0.358
378	0.357
379	0.357
379	0.356
380	0.355
380	0.354
381	0.353
381	0.352
382	0.352
382	0.351
383	0.351
383	0.35
383	0.349
384	0.349
384	0.348
385	0.347
385	0.347
386	0.346
386	0.346
387	0.345
387	0.344
388	0.344
388	0.343
389	0.343
389	0.342
389	0.342
390	0.342
390	0.341
391	0.341
391	0.34
392	0.34
392	0.339
393	0.339
393	0.338
394	0.338
394	0.337
394	0.337
395	0.336
395	0.336
396	0.335
396	0.335
397	0.334
397	0.334
398	0.333
398	0.333
399	0.333
399	0.332
400	0.332
400	0.332
400	0.331
401	0.331
401	0.331
402	0.33
402	0.33
403	0.329
403	0.329
404	0.329
404	0.328
405	0.328
405	0.328
405	0.327
406	0.327
406	0.326
407	0.326
407	0.325
408	0.325
408	0.325
409	0.324
409	0.324
410	0.323
410	0.323
411	0.323
411	0.322
411	0.322
412	0.322
412	0.322
413	0.321
413	0.321
414	0.321
414	0.32
415	0.32
415	0.32
416	0.319
416	0.319
416	0.318
417	0.318
417	0.318
418	0.317
418	0.317
419	0.316
419	0.316
420	0.315
420	0.315
421	0.315
421	0.314
421	0.314
422	0.314
422	0.313
423	0.313
423	0.313
424	0.312
424	0.312
425	0.312
425	0.311
426	0.311
426	0.31
427	0.31
427	0.31
427	0.309
428	0.309
428	0.309
429	0.308
429	0.308
430	0.308
430	0.308
431	0.307
431	0.307
432	0.307
432	0.307
432	0.307
433	0.307
433	0.306
434	0.306
434	0.306
435	0.306
435	0.306
436	0.306
436	0.306
437	0.305
437	0.305
437	0.305
438	0.304
438	0.304
439	0.304
439	0.304
440	0.303
440	0.303
441	0.302
441	0.302
442	0.302
442	0.302
442	0.302
443	0.301
443	0.301
444	0.301
444	0.3
445	0.3
445	0.3
446	0.3
446	0.299
447	0.299
447	0.299
447	0.299
448	0.299
448	0.298
449	0.298
449	0.298
450	0.298
450	0.298
451	0.297
451	0.297
452	0.297
452	0.297
452	0.297
453	0.297
453	0.297
454	0.297
454	0.296
455	0.296
455	0.296
456	0.296
456	0.295
457	0.295
457	0.295
458	0.295
458	0.294
458	0.294
459	0.294
459	0.294
460	0.294
460	0.294
461	0.293
461	0.293
462	0.293
462	0.293
463	0.293
463	0.293
463	0.293
464	0.292
464	0.292
465	0.292
465	0.292
466	0.292
466	0.292
467	0.292
467	0.292
467	0.292
468	0.292
468	0.291
469	0.292
469	0.292
470	0.292
470	0.292
471	0.293
471	0.293
472	0.293
472	0.293
472	0.293
473	0.293
473	0.293
474	0.293
474	0.293
475	0.293
475	0.293
476	0.293
476	0.293
477	0.293
477	0.293
477	0.293
478	0.293
478	0.293
479	0.293
479	0.294
480	0.294
480	0.294
481	0.294
481	0.294
482	0.294
482	0.295
482	0.295
483	0.295
483	0.296
484	0.296
484	0.296
485	0.296
485	0.296
486	0.296
486	0.297
487	0.297
487	0.297
487	0.298
488	0.298
488	0.298
489	0.298
489	0.3
490	0.3
490	0.301
491	0.302
491	0.302
492	0.303
492	0.304
492	0.304
493	0.305
493	0.306
494	0.307
494	0.307
495	0.308
495	0.308
496	0.309
496	0.31
496	0.31
497	0.311
497	0.311
498	0.312
498	0.312
499	0.313
499	0.313
500	0.314
500	0.315
501	0.316
501	0.316
501	0.316
502	0.317
502	0.318
503	0.319
503	0.319
504	0.32
504	0.321
505	0.321
505	0.322
506	0.323
506	0.323
506	0.324
507	0.325
507	0.326
508	0.326
508	0.327
509	0.327
509	0.328
510	0.329
510	0.329
511	0.33
511	0.331
511	0.332
512	0.333
512	0.333
513	0.334
513	0.334
514	0.335
514	0.336
515	0.336
515	0.336
515	0.336
516	0.337
516	0.337
517	0.338
517	0.338
518	0.338
518	0.339
519	0.339
519	0.339
520	0.34
520	0.34
520	0.34
521	0.341
521	0.341
522	0.341
522	0.341
523	0.341
523	0.341
524	0.341
524	0.341
524	0.341
525	0.342
525	0.342
526	0.342
526	0.342
527	0.342
527	0.342
528	0.342
528	0.341
529	0.341
529	0.341
529	0.341
530	0.34
530	0.34
531	0.34
531	0.339
532	0.339
532	0.338
533	0.337
533	0.337
533	0.337
534	0.336
534	0.336
535	0.335
535	0.335
536	0.335
536	0.335
537	0.334
537	0.334
538	0.333
538	0.332
538	0.332
539	0.331
539	0.331
540	0.33
540	0.33
541	0.329
541	0.328
542	0.328
542	0.327
542	0.326
543	0.326
543	0.325
544	0.325
544	0.324
545	0.323
545	0.322
546	0.322
546	0.321
547	0.32
547	0.319
547	0.318
548	0.317
548	0.316
549	0.315
549	0.315
550	0.314
550	0.314
551	0.312
551	0.312
551	0.311
552	0.31
552	0.31
553	0.309
553	0.308
554	0.307
554	0.306
555	0.305
555	0.303
556	0.303
556	0.302
556	0.301
557	0.301
557	0.3
558	0.3
558	0.299
559	0.298
559	0.298
560	0.297
560	0.297
560	0.296
561	0.296
561	0.295
562	0.294
562	0.293
563	0.292
563	0.291
564	0.29
564	0.289
564	0.289
565	0.288
565	0.287
566	0.287
566	0.286
567	0.285
567	0.285
568	0.284
568	0.284
568	0.283
569	0.283
569	0.282
570	0.281
570	0.28
571	0.279
571	0.278
572	0.277
572	0.276
573	0.276
573	0.275
573	0.275
574	0.274
574	0.274
575	0.273
575	0.274
576	0.273
576	0.272
577	0.271
577	0.271
577	0.27
578	0.269
578	0.269
579	0.268
579	0.268
580	0.267
580	0.266
581	0.265
581	0.265
581	0.264
582	0.264
582	0.264
583	0.264
583	0.264
584	0.263
584	0.261
585	0.261
585	0.26
585	0.259
586	0.259
586	0.258
587	0.257
587	0.257
588	0.256
588	0.255
589	0.255
589	0.255
590	0.254
590	0.254
590	0.255
591	0.254
591	0.254
592	0.253
592	0.252
593	0.252
593	0.251
594	0.251
594	0.25
594	0.249
595	0.249
595	0.248
596	0.248
596	0.248
597	0.249
597	0.249
598	0.248
598	0.248
598	0.248
599	0.248
599	0.247
600	0.246
600	0.246
601	0.245
601	0.245
602	0.244
602	0.243
602	0.242
603	0.242
603	0.242
604	0.242
604	0.241
605	0.241
605	0.241
606	0.241
606	0.24
606	0.24
607	0.24
607	0.239
608	0.239
608	0.238
609	0.237
609	0.237
610	0.236
610	0.236
610	0.236
611	0.236
611	0.236
612	0.236
612	0.236
613	0.236
613	0.236
614	0.236
614	0.235
614	0.235
615	0.235
615	0.235
616	0.235
616	0.234
617	0.234
617	0.234
618	0.234
618	0.234
618	0.234
619	0.234
619	0.235
620	0.235
620	0.234
621	0.234
621	0.233
622	0.232
622	0.232
622	0.231
623	0.23
623	0.23
624	0.229
624	0.228
625	0.228
625	0.227
626	0.227
626	0.227
626	0.227
627	0.227
627	0.226
628	0.226
628	0.226
629	0.226
629	0.225
630	0.225
630	0.225
630	0.225
631	0.225
631	0.225
632	0.225
632	0.225
633	0.224
633	0.224
634	0.225
634	0.225
634	0.225
635	0.224
635	0.224
636	0.224
636	0.224
637	0.223
637	0.223
638	0.222
638	0.222
638	0.221
639	0.22
639	0.22
640	0.22
640	0.22
641	0.22
641	0.219
642	0.219
642	0.219
642	0.22
643	0.22
643	0.22
644	0.22
644	0.22
645	0.22
645	0.22
646	0.22
646	0.219
646	0.219
647	0.219
647	0.218
648	0.218
648	0.217
649	0.217
649	0.217
650	0.218
650	0.217
650	0.218
651	0.218
651	0.218
652	0.218
652	0.218
653	0.219
653	0.22
653	0.226
654	0.176
654	0.14
655	0.142
655	0.142
656	0.143
656	0.143
657	0.143
657	0.143
657	0.144
658	0.142
658	0.131
659	0.166
659	0.215
660	0.219
660	0.219
661	0.218
661	0.218
661	0.217
662	0.217
662	0.216
663	0.216
663	0.215
664	0.215
664	0.215
665	0.215
665	0.216
665	0.216
666	0.216
666	0.216
667	0.217
667	0.218
668	0.218
668	0.218
669	0.218
669	0.218
669	0.219
670	0.219
670	0.218
671	0.218
671	0.218
672	0.218
672	0.217
672	0.217
673	0.217
673	0.217
674	0.217
674	0.216
675	0.216
675	0.216
676	0.216
676	0.216
676	0.216
677	0.217
677	0.217
678	0.216
678	0.216
679	0.216
679	0.216
680	0.216
680	0.216
680	0.216
681	0.216
681	0.217
682	0.217
682	0.217
683	0.217
683	0.218
684	0.218
684	0.218
684	0.218
685	0.218
685	0.218
686	0.218
686	0.217
687	0.217
687	0.217
687	0.217
688	0.217
688	0.216
689	0.217
689	0.217
690	0.217
690	0.217
691	0.218
691	0.218
691	0.218
692	0.219
692	0.219
693	0.22
693	0.22
694	0.22
694	0.22
695	0.22
695	0.221
695	0.221
696	0.221
696	0.22
697	0.22
697	0.22
698	0.219
698	0.219
698	0.219
699	0.219
699	0.218
700	0.218
700	0.218
701	0.218
701	0.218
702	0.218
702	0.219
702	0.219
703	0.219
703	0.219
704	0.219
704	0.219
705	0.219
705	0.219
705	0.219
706	0.219
706	0.219
707	0.219
707	0.219
708	0.219
708	0.219
709	0.219
709	0.218
709	0.218
710	0.218
710	0.218
711	0.218
711	0.218
712	0.218
712	0.218
713	0.218
713	0.219
713	0.219
714	0.219
714	0.219
715	0.219
715	0.219
716	0.219
716	0.219
716	0.218
717	0.218
717	0.217
718	0.217
718	0.216
719	0.217
719	0.217
720	0.217
720	0.217
720	0.217
721	0.217
721	0.217
722	0.218
722	0.218
723	0.219
723	0.219
723	0.22
724	0.22
724	0.22
725	0.219
725	0.219
726	0.219
726	0.218
727	0.218
727	0.218
727	0.217
728	0.217
728	0.216
729	0.217
729	0.217
730	0.217
730	0.218
730	0.218
731	0.219
731	0.22
732	0.22
732	0.221
733	0.221
733	0.221
734	0.221
734	0.221
734	0.221
735	0.221
735	0.22
736	0.219
736	0.218
737	0.217
737	0.217
737	0.216
738	0.215
738	0.215
739	0.214
739	0.214
740	0.214
740	0.214
741	0.215
741	0.215
741	0.216
742	0.216
742	0.217
743	0.218
743	0.218
744	0.219
744	0.219
744	0.219
745	0.219
745	0.219
746	0.219
746	0.219
747	0.219
747	0.219
748	0.22
748	0.22
748	0.22
749	0.221
749	0.221
750	0.222
750	0.222
751	0.223
751	0.223
751	0.223
752	0.223
752	0.222
753	0.222
753	0.221
754	0.221
754	0.221
754	0.22
755	0.22
755	0.22
756	0.219
756	0.218
757	0.217
757	0.217
758	0.217
758	0.217
758	0.217
759	0.218
759	0.218
760	0.218
760	0.218
761	0.219
761	0.22
761	0.221
762	0.221
762	0.222
763	0.223
763	0.223
764	0.224
764	0.224
764	0.224
765	0.224
765	0.224
766	0.224
766	0.224
767	0.223
767	0.222
768	0.221
768	0.221
768	0.221
769	0.22
769	0.22
770	0.22
770	0.22
771	0.22
771	0.22
771	0.22
772	0.221
772	0.221
773	0.221
773	0.222
774	0.222
774	0.223
775	0.223
775	0.223
775	0.223
776	0.223
776	0.224
777	0.224
777	0.224
778	0.224
778	0.224
778	0.223
779	0.224
779	0.223
780	0.222
780	0.222
781	0.222
781	0.222
781	0.222
782	0.222
782	0.222
783	0.222
783	0.222
784	0.222
784	0.222
784	0.222
785	0.222
785	0.222
786	0.222
786	0.222
787	0.222
787	0.222
788	0.222
788	0.222
788	0.222
789	0.222
789	0.222
790	0.222
790	0.222
791	0.223
791	0.223
791	0.223
792	0.224
792	0.224
793	0.224
793	0.224
794	0.224
794	0.224
794	0.224
795	0.225
795	0.225
796	0.225
796	0.225
797	0.225
797	0.225
797	0.225
798	0.225
798	0.225
799	0.225
799	0.225
800	0.224
800	0.223
801	0.223
801	0.222
801	0.222
802	0.222
802	0.222
803	0.222
803	0.222
804	0.222
804	0.222
804	0.222
805	0.223
805	0.223
806	0.223
806	0.224
807	0.224
807	0.224
807	0.224
808	0.224
808	0.224
809	0.223
809	0.223
810	0.224
810	0.224
810	0.224
811	0.224
811	0.224
812	0.225
812	0.225
813	0.226
813	0.226
813	0.226
814	0.227
814	0.227
815	0.227
815	0.227
816	0.226
816	0.226
817	0.225
817	0.225
817	0.224
818	0.224
818	0.224
819	0.224
819	0.223
820	0.223
820	0.223
820	0.223
821	0.223
821	0.223
822	0.223
822	0.223
823	0.223
823	0.223
823	0.224
824	0.225
824	0.225
825	0.226
825	0.226
826	0.226
826	0.225
826	0.225
827	0.225
827	0.225
828	0.225
828	0.224
829	0.224
829	0.223
829	0.223
830	0.223
830	0.223
831	0.224
831	0.224
832	0.224
832	0.224
832	0.224
833	0.224
833	0.224
834	0.224
834	0.224
835	0.224
835	0.224
835	0.224
836	0.224
836	0.225
837	0.225
837	0.225
838	0.225
838	0.225
839	0.224
839	0.224
839	0.223
840	0.222
840	0.221
841	0.219
841	0.218
842	0.217
842	0.216
842	0.215
843	0.215
843	0.214
844	0.213
844	0.213
845	0.213
845	0.213
845	0.213
846	0.213
846	0.213
847	0.213
847	0.213
848	0.214
848	0.214
848	0.214
849	0.214
849	0.215
850	0.215
850	0.215
851	0.215
851	0.215
851	0.214
852	0.213
852	0.213
853	0.212
853	0.212
854	0.212
854	0.212
854	0.212
855	0.213
855	0.213
856	0.214
856	0.214
857	0.214
857	0.215
857	0.215
858	0.215
858	0.215
859	0.214
859	0.213
860	0.212
860	0.211
860	0.21
861	0.209
861	0.208
862	0.207
862	0.206
863	0.205
863	0.205
863	0.204
864	0.204
864	0.203
865	0.203
865	0.203
866	0.202
866	0.202
866	0.202
867	0.202
867	0.202
868	0.202
868	0.202
869	0.202
869	0.202
869	0.202
870	0.201
870	0.201
871	0.201
871	0.201
872	0.201
872	0.201
872	0.201
873	0.201
873	0.2
874	0.2
874	0.199
875	0.199
875	0.198
875	0.198
876	0.197
876	0.197
877	0.197
877	0.197
878	0.197
878	0.197
878	0.198
879	0.198
879	0.198
880	0.199
880	0.199
881	0.199
881	0.199
881	0.199
882	0.199
882	0.198
883	0.198
883	0.197
884	0.196
884	0.196
884	0.195
885	0.194
885	0.194
886	0.193
886	0.192
887	0.192
887	0.191
887	0.19
888	0.19
888	0.189
889	0.189
889	0.188
890	0.188
890	0.188
890	0.187
891	0.187
891	0.187
892	0.187
892	0.187
893	0.187
893	0.187
893	0.186
894	0.186
894	0.186
895	0.186
895	0.185
895	0.185
896	0.185
896	0.184
897	0.184
897	0.183
898	0.182
898	0.182
898	0.181
899	0.181
899	0.18
900	0.18
900	0.18
901	0.18
901	0.18
901	0.18
902	0.179
902	0.179
903	0.179
903	0.178
904	0.178
904	0.177
904	0.177
905	0.177
905	0.176
906	0.176
906	0.176
907	0.176
907	0.177
907	0.177
908	0.178
908	0.178
909	0.178
909	0.178
910	0.178
910	0.178
910	0.177
911	0.177
911	0.176
912	0.176
912	0.175
913	0.175
913	0.174
913	0.174
914	0.173
914	0.173
915	0.173
915	0.172
916	0.172
916	0.171
916	0.171
917	0.17
917	0.17
918	0.169
918	0.168
918	0.167
919	0.166
919	0.165
920	0.165
920	0.164
921	0.163
921	0.162
921	0.161
922	0.161
922	0.16
923	0.16
923	0.16
924	0.16
924	0.16
924	0.16
925	0.16
925	0.16
926	0.16
926	0.16
927	0.161
927	0.161
927	0.161
928	0.161
928	0.161
929	0.161
929	0.161
930	0.16
930	0.16
930	0.16
931	0.16
931	0.16
932	0.16
932	0.16
933	0.16
933	0.16
933	0.16
934	0.16
934	0.159
935	0.159
935	0.159
935	0.158
936	0.158
936	0.157
937	0.157
937	0.156
938	0.156
938	0.155
938	0.155
939	0.154
939	0.154
940	0.153
940	0.153
941	0.153
941	0.152
941	0.152
942	0.152
942	0.152
943	0.152
943	0.152
944	0.152
944	0.152
944	0.152
945	0.152
945	0.151
946	0.151
946	0.151
946	0.151
947	0.151
947	0.151
948	0.151
948	0.15
949	0.15
949	0.15
949	0.149
950	0.149
950	0.148
951	0.148
951	0.146
952	0.145
952	0.144
952	0.143
953	0.142
953	0.141
954	0.14
954	0.139
955	0.138
955	0.138
955	0.137
956	0.137
956	0.137
957	0.137
957	0.137
957	0.137
958	0.137
958	0.137
959	0.137
959	0.137
960	0.137
960	0.136
960	0.136
961	0.136
961	0.136
962	0.135
962	0.135
963	0.135
963	0.134
963	0.134
964	0.134
964	0.135
965	0.135
965	0.135
966	0.136
966	0.136
966	0.137
967	0.137
967	0.138
968	0.139
968	0.139
968	0.139
969	0.139
969	0.139
970	0.139
970	0.139
971	0.139
971	0.138
971	0.138
972	0.138
972	0.137
973	0.137
973	0.137
974	0.137
974	0.137
974	0.137
975	0.137
975	0.137
976	0.137
976	0.138
976	0.138
977	0.137
977	0.137
978	0.137
978	0.137
979	0.137
979	0.137
979	0.136
980	0.136
980	0.135
981	0.134
981	0.134
982	0.133
982	0.132
982	0.132
983	0.131
983	0.13
984	0.129
984	0.128
984	0.127
985	0.126
985	0.125
986	0.125
986	0.124
987	0.124
987	0.123
987	0.123
988	0.123
988	0.122
989	0.122
989	0.122
990	0.121
990	0.121
990	0.121
991	0.12
991	0.12
992	0.119
992	0.119
992	0.118
993	0.118
993	0.117
994	0.116
994	0.116
995	0.115
995	0.115
995	0.115
996	0.115
996	0.115
997	0.116
997	0.116
997	0.117
998	0.118
998	0.118
999	0.119
999	0.12
1000	0.12
1000	0.121
1000	0.121
1001	0.122
1001	0.122
1002	0.122
1002	0.121
1003	0.121
1003	0.121
1003	0.12
1004	0.119
1004	0.118
1005	0.117
1005	0.116
1005	0.115
1006	0.114
1006	0.114
1007	0.113
1007	0.113
1008	0.113
1008	0.112
1008	0.112
1009	0.113
1009	0.113
1010	0.113
1010	0.113
1010	0.113
1011	0.113
1011	0.113
1012	0.113
1012	0.113
1013	0.113
1013	0.113
1013	0.112
1014	0.112
1014	0.112
1015	0.111
1015	0.111
1016	0.111
1016	0.11
1016	0.11
1017	0.11
1017	0.109
1018	0.109
1018	0.109
1018	0.109
1019	0.109
1019	0.109
1020	0.108
1020	0.108
1021	0.108
1021	0.109
1021	0.109
1022	0.108
1022	0.108
1023	0.108
1023	0.108
1023	0.108
1024	0.108
1024	0.108
1025	0.108
1025	0.107
1026	0.107
1026	0.106
1026	0.106
1027	0.105
1027	0.104
1028	0.104
1028	0.104
1028	0.103
1029	0.103
1029	0.103
1030	0.103
1030	0.103
1031	0.103
1031	0.103
1031	0.103
1032	0.103
1032	0.103
1033	0.103
1033	0.104
1033	0.104
1034	0.104
1034	0.104
1035	0.103
1035	0.103
1036	0.103
1036	0.103
1036	0.103
1037	0.103
1037	0.103
1038	0.103
1038	0.103
1039	0.103
1039	0.103
1039	0.104
1040	0.104
1040	0.104
1041	0.105
1041	0.105
1041	0.105
1042	0.106
1042	0.106
1043	0.106
1043	0.106
1044	0.106
1044	0.106
1044	0.106
1045	0.107
1045	0.107
1046	0.107
1046	0.108
1046	0.108
1047	0.108
1047	0.108
1048	0.109
1048	0.11
1049	0.11
1049	0.111
1049	0.111
1050	0.111
1050	0.111
1051	0.111
1051	0.11
1051	0.11
1052	0.11
1052	0.109
1053	0.108
1053	0.107
1053	0.106
1054	0.105
1054	0.104
1055	0.103
1055	0.102
1056	0.102
1056	0.101
1056	0.1
1057	0.099
1057	0.098
1058	0.097
1058	0.096
1058	0.095
1059	0.094
1059	0.093
1060	0.092
1060	0.092
1061	0.091
1061	0.091
1061	0.09
1062	0.09
1062	0.09
1063	0.09
1063	0.089
1063	0.089
1064	0.089
1064	0.088
1065	0.088
1065	0.088
1066	0.087
1066	0.087
1066	0.087
1067	0.086
1067	0.086
1068	0.086
1068	0.085
1068	0.085
1069	0.085
1069	0.084
1070	0.083
1070	0.083
1071	0.082
1071	0.081
1071	0.081
1072	0.08
1072	0.079
1073	0.079
1073	0.078
1073	0.078
1074	0.078
1074	0.079
1075	0.079
1075	0.079
1076	0.08
1076	0.08
1076	0.08
1077	0.081
1077	0.081
1078	0.081
1078	0.081
1078	0.081
1079	0.081
1079	0.082
1080	0.081
1080	0.082
1080	0.082
1081	0.082
1081	0.082
1082	0.083
1082	0.083
1083	0.083
1083	0.083
1083	0.083
1084	0.082
1084	0.083
1085	0.082
1085	0.081
1085	0.081
1086	0.081
1086	0.08
1087	0.079
1087	0.078
1088	0.078
1088	0.077
1088	0.077
1089	0.076
1089	0.076
1090	0.075
1090	0.074
1090	0.073
1091	0.073
1091	0.073
1092	0.073
1092	0.072
1092	0.072
1093	0.071
1093	0.071
1094	0.072
1094	0.071
1095	0.071
1095	0.071
1095	0.07
1096	0.07
1096	0.069
1097	0.069
1097	0.069
1097	0.068
1098	0.068
1098	0.066
1099	0.066
1099	0.065
1100	0.064
1100	0.063
1100	0.062
1101	0.062
1101	0.061
1102	0.061
1102	0.06
1102	0.059
1103	0.059
1103	0.058
1104	0.058
1104	0.058
1104	0.058
1105	0.057
1105	0.055
1106	0.053
1106	0.053
1107	0.051
1107	0.05
1107	0.05
1108	0.048
1108	0.047
1109	0.046
1109	0.045
1109	0.044
1110	0.047
1110	0.047
1111	0.044
1111	0.047
