Data from reversibility-20sec_Absorbance__2944__000000000002944.txt Node

Date: Wed Dec 06 04:34:25 CET 2023
User: Marek
Spectrometer: MAYP115816
Trigger mode: 0
Integration Time (sec): 2.000000E-1
Scans to average: 10
Electric dark correction enabled: true
Nonlinearity correction enabled: true
Boxcar width: 5
XAxis mode: Wavelengths
Number of Pixels in Spectrum: 2068
>>>>>Begin Spectral Data<<<<<
199	-0.173
199	-0.132
200	-0.059
200	-0.006
201	0.025
201	0.044
202	0.056
202	0.06
203	0.065
203	0.069
204	0.082
204	0.097
205	0.108
205	0.114
205	0.113
206	0.109
206	0.106
207	0.108
207	0.11
208	0.111
208	0.108
209	0.11
209	0.109
210	0.11
210	0.11
211	0.109
211	0.111
212	0.111
212	0.114
213	0.116
213	0.118
213	0.12
214	0.125
214	0.126
215	0.126
215	0.123
216	0.123
216	0.126
217	0.129
217	0.128
218	0.126
218	0.129
219	0.134
219	0.133
220	0.137
220	0.137
221	0.138
221	0.142
221	0.146
222	0.152
222	0.154
223	0.162
223	0.165
224	0.171
224	0.18
225	0.189
225	0.198
226	0.209
226	0.221
227	0.232
227	0.244
228	0.263
228	0.281
229	0.298
229	0.321
229	0.345
230	0.371
230	0.402
231	0.435
231	0.473
232	0.51
232	0.552
233	0.594
233	0.641
234	0.693
234	0.748
235	0.802
235	0.852
236	0.905
236	0.962
236	1.015
237	1.07
237	1.123
238	1.172
238	1.223
239	1.271
239	1.313
240	1.354
240	1.396
241	1.432
241	1.47
242	1.504
242	1.54
243	1.572
243	1.602
243	1.63
244	1.655
244	1.68
245	1.701
245	1.724
246	1.748
246	1.767
247	1.783
247	1.798
248	1.815
248	1.831
249	1.84
249	1.85
250	1.861
250	1.873
250	1.88
251	1.886
251	1.891
252	1.901
252	1.904
253	1.909
253	1.908
254	1.91
254	1.917
255	1.915
255	1.919
256	1.921
256	1.921
257	1.924
257	1.924
258	1.925
258	1.924
258	1.929
259	1.931
259	1.93
260	1.932
260	1.933
261	1.936
261	1.941
262	1.943
262	1.945
263	1.951
263	1.954
264	1.958
264	1.96
265	1.962
265	1.966
265	1.967
266	1.968
266	1.97
267	1.97
267	1.972
268	1.972
268	1.972
269	1.973
269	1.974
270	1.975
270	1.974
271	1.972
271	1.975
272	1.971
272	1.971
272	1.967
273	1.959
273	1.953
274	1.947
274	1.941
275	1.933
275	1.926
276	1.92
276	1.912
277	1.903
277	1.893
278	1.882
278	1.869
278	1.857
279	1.84
279	1.82
280	1.793
280	1.76
281	1.722
281	1.681
282	1.637
282	1.593
283	1.55
283	1.506
284	1.465
284	1.425
285	1.388
285	1.354
285	1.323
286	1.296
286	1.272
287	1.25
287	1.233
288	1.217
288	1.204
289	1.193
289	1.182
290	1.174
290	1.166
291	1.159
291	1.153
292	1.147
292	1.143
292	1.138
293	1.133
293	1.129
294	1.125
294	1.121
295	1.118
295	1.115
296	1.111
296	1.108
297	1.104
297	1.101
298	1.098
298	1.095
298	1.092
299	1.089
299	1.086
300	1.082
300	1.079
301	1.076
301	1.074
302	1.07
302	1.068
303	1.065
303	1.062
304	1.06
304	1.057
305	1.054
305	1.052
305	1.049
306	1.046
306	1.043
307	1.041
307	1.037
308	1.034
308	1.032
309	1.029
309	1.026
310	1.023
310	1.02
311	1.016
311	1.013
311	1.009
312	1.005
312	1.002
313	0.998
313	0.994
314	0.99
314	0.985
315	0.981
315	0.976
316	0.972
316	0.967
317	0.962
317	0.957
318	0.952
318	0.947
318	0.941
319	0.935
319	0.93
320	0.924
320	0.918
321	0.912
321	0.905
322	0.899
322	0.892
323	0.886
323	0.879
324	0.873
324	0.866
324	0.859
325	0.852
325	0.845
326	0.838
326	0.831
327	0.824
327	0.817
328	0.81
328	0.803
329	0.795
329	0.788
330	0.781
330	0.774
330	0.767
331	0.76
331	0.753
332	0.745
332	0.738
333	0.731
333	0.724
334	0.717
334	0.711
335	0.704
335	0.697
336	0.69
336	0.683
336	0.676
337	0.67
337	0.664
338	0.657
338	0.651
339	0.645
339	0.638
340	0.633
340	0.627
341	0.621
341	0.615
342	0.609
342	0.604
342	0.599
343	0.593
343	0.588
344	0.583
344	0.578
345	0.573
345	0.569
346	0.564
346	0.56
347	0.555
347	0.551
348	0.547
348	0.543
348	0.539
349	0.535
349	0.531
350	0.527
350	0.524
351	0.52
351	0.517
352	0.513
352	0.51
353	0.507
353	0.504
354	0.501
354	0.498
354	0.495
355	0.492
355	0.489
356	0.486
356	0.483
357	0.48
357	0.477
358	0.475
358	0.472
359	0.469
359	0.466
360	0.464
360	0.462
360	0.46
361	0.457
361	0.455
362	0.454
362	0.452
363	0.45
363	0.448
364	0.446
364	0.444
365	0.442
365	0.44
366	0.438
366	0.436
366	0.434
367	0.432
367	0.43
368	0.429
368	0.427
369	0.425
369	0.423
370	0.422
370	0.42
371	0.418
371	0.417
372	0.415
372	0.414
372	0.413
373	0.412
373	0.41
374	0.409
374	0.408
375	0.407
375	0.406
376	0.405
376	0.403
377	0.402
377	0.401
378	0.399
378	0.398
378	0.397
379	0.396
379	0.395
380	0.395
380	0.394
381	0.392
381	0.392
382	0.391
382	0.39
383	0.389
383	0.389
383	0.388
384	0.387
384	0.386
385	0.385
385	0.385
386	0.384
386	0.383
387	0.382
387	0.382
388	0.381
388	0.38
389	0.38
389	0.379
389	0.379
390	0.378
390	0.377
391	0.377
391	0.376
392	0.376
392	0.375
393	0.375
393	0.374
394	0.374
394	0.373
394	0.372
395	0.372
395	0.371
396	0.371
396	0.37
397	0.37
397	0.369
398	0.369
398	0.368
399	0.368
399	0.367
400	0.367
400	0.366
400	0.366
401	0.365
401	0.364
402	0.364
402	0.363
403	0.363
403	0.362
404	0.362
404	0.361
405	0.36
405	0.36
405	0.36
406	0.359
406	0.359
407	0.359
407	0.358
408	0.358
408	0.357
409	0.357
409	0.357
410	0.356
410	0.355
411	0.355
411	0.355
411	0.354
412	0.354
412	0.353
413	0.353
413	0.353
414	0.352
414	0.352
415	0.352
415	0.352
416	0.351
416	0.351
416	0.35
417	0.35
417	0.35
418	0.35
418	0.349
419	0.349
419	0.348
420	0.348
420	0.347
421	0.346
421	0.346
421	0.346
422	0.345
422	0.345
423	0.344
423	0.344
424	0.343
424	0.343
425	0.343
425	0.342
426	0.342
426	0.342
427	0.341
427	0.341
427	0.341
428	0.34
428	0.34
429	0.34
429	0.339
430	0.339
430	0.339
431	0.339
431	0.339
432	0.339
432	0.339
432	0.338
433	0.338
433	0.338
434	0.338
434	0.338
435	0.338
435	0.337
436	0.337
436	0.337
437	0.336
437	0.336
437	0.336
438	0.336
438	0.336
439	0.335
439	0.335
440	0.335
440	0.335
441	0.334
441	0.334
442	0.334
442	0.334
442	0.334
443	0.333
443	0.333
444	0.333
444	0.333
445	0.333
445	0.333
446	0.333
446	0.333
447	0.332
447	0.332
447	0.332
448	0.332
448	0.332
449	0.332
449	0.331
450	0.331
450	0.331
451	0.331
451	0.331
452	0.331
452	0.331
452	0.331
453	0.331
453	0.331
454	0.331
454	0.331
455	0.33
455	0.33
456	0.33
456	0.33
457	0.33
457	0.33
458	0.33
458	0.33
458	0.33
459	0.331
459	0.331
460	0.331
460	0.331
461	0.331
461	0.331
462	0.332
462	0.332
463	0.332
463	0.331
463	0.331
464	0.331
464	0.331
465	0.331
465	0.331
466	0.331
466	0.331
467	0.331
467	0.331
467	0.331
468	0.332
468	0.332
469	0.333
469	0.333
470	0.334
470	0.334
471	0.334
471	0.335
472	0.335
472	0.335
472	0.336
473	0.336
473	0.337
474	0.337
474	0.337
475	0.337
475	0.338
476	0.338
476	0.339
477	0.339
477	0.34
477	0.341
478	0.341
478	0.341
479	0.342
479	0.343
480	0.344
480	0.344
481	0.345
481	0.345
482	0.346
482	0.347
482	0.348
483	0.349
483	0.35
484	0.35
484	0.351
485	0.351
485	0.352
486	0.352
486	0.353
487	0.354
487	0.355
487	0.356
488	0.357
488	0.357
489	0.358
489	0.36
490	0.362
490	0.363
491	0.365
491	0.366
492	0.367
492	0.368
492	0.37
493	0.371
493	0.373
494	0.374
494	0.376
495	0.377
495	0.378
496	0.38
496	0.381
496	0.383
497	0.384
497	0.385
498	0.387
498	0.388
499	0.389
499	0.39
500	0.392
500	0.394
501	0.395
501	0.396
501	0.397
502	0.398
502	0.399
503	0.401
503	0.402
504	0.403
504	0.405
505	0.406
505	0.407
506	0.409
506	0.41
506	0.411
507	0.413
507	0.414
508	0.415
508	0.417
509	0.418
509	0.419
510	0.42
510	0.421
511	0.423
511	0.424
511	0.425
512	0.426
512	0.427
513	0.428
513	0.429
514	0.43
514	0.431
515	0.432
515	0.433
515	0.433
516	0.434
516	0.435
517	0.436
517	0.436
518	0.436
518	0.437
519	0.437
519	0.437
520	0.438
520	0.438
520	0.438
521	0.438
521	0.438
522	0.438
522	0.438
523	0.438
523	0.438
524	0.438
524	0.438
524	0.437
525	0.437
525	0.437
526	0.436
526	0.435
527	0.435
527	0.435
528	0.434
528	0.433
529	0.432
529	0.431
529	0.43
530	0.428
530	0.427
531	0.426
531	0.425
532	0.423
532	0.422
533	0.42
533	0.419
533	0.418
534	0.416
534	0.415
535	0.413
535	0.411
536	0.41
536	0.408
537	0.406
537	0.404
538	0.402
538	0.4
538	0.398
539	0.397
539	0.395
540	0.393
540	0.391
541	0.389
541	0.388
542	0.386
542	0.384
542	0.382
543	0.38
543	0.378
544	0.375
544	0.373
545	0.371
545	0.369
546	0.367
546	0.365
547	0.362
547	0.359
547	0.357
548	0.355
548	0.353
549	0.35
549	0.348
550	0.346
550	0.343
551	0.341
551	0.339
551	0.336
552	0.334
552	0.332
553	0.33
553	0.329
554	0.326
554	0.324
555	0.322
555	0.319
556	0.317
556	0.315
556	0.313
557	0.311
557	0.309
558	0.307
558	0.305
559	0.303
559	0.302
560	0.3
560	0.298
560	0.297
561	0.295
561	0.293
562	0.291
562	0.288
563	0.286
563	0.284
564	0.282
564	0.28
564	0.278
565	0.276
565	0.274
566	0.272
566	0.27
567	0.269
567	0.267
568	0.266
568	0.264
568	0.262
569	0.26
569	0.259
570	0.257
570	0.255
571	0.253
571	0.252
572	0.25
572	0.249
573	0.247
573	0.246
573	0.244
574	0.243
574	0.242
575	0.241
575	0.24
576	0.239
576	0.237
577	0.235
577	0.234
577	0.233
578	0.232
578	0.231
579	0.23
579	0.229
580	0.227
580	0.225
581	0.224
581	0.222
581	0.222
582	0.221
582	0.22
583	0.219
583	0.218
584	0.216
584	0.214
585	0.213
585	0.212
585	0.211
586	0.21
586	0.209
587	0.208
587	0.206
588	0.205
588	0.204
589	0.204
589	0.203
590	0.202
590	0.202
590	0.201
591	0.201
591	0.199
592	0.198
592	0.197
593	0.196
593	0.195
594	0.193
594	0.192
594	0.191
595	0.19
595	0.189
596	0.188
596	0.188
597	0.188
597	0.187
598	0.187
598	0.186
598	0.186
599	0.186
599	0.185
600	0.184
600	0.183
601	0.183
601	0.182
602	0.181
602	0.18
602	0.179
603	0.178
603	0.178
604	0.178
604	0.177
605	0.177
605	0.176
606	0.176
606	0.174
606	0.174
607	0.173
607	0.172
608	0.172
608	0.171
609	0.17
609	0.17
610	0.169
610	0.168
610	0.168
611	0.168
611	0.167
612	0.167
612	0.167
613	0.167
613	0.167
614	0.166
614	0.165
614	0.165
615	0.165
615	0.164
616	0.164
616	0.163
617	0.163
617	0.162
618	0.162
618	0.161
618	0.161
619	0.161
619	0.161
620	0.161
620	0.161
621	0.16
621	0.16
622	0.159
622	0.159
622	0.158
623	0.157
623	0.157
624	0.156
624	0.155
625	0.154
625	0.154
626	0.153
626	0.153
626	0.152
627	0.152
627	0.152
628	0.151
628	0.151
629	0.151
629	0.15
630	0.15
630	0.15
630	0.15
631	0.149
631	0.149
632	0.149
632	0.148
633	0.148
633	0.148
634	0.148
634	0.148
634	0.148
635	0.147
635	0.147
636	0.147
636	0.146
637	0.146
637	0.145
638	0.145
638	0.144
638	0.143
639	0.142
639	0.142
640	0.142
640	0.141
641	0.141
641	0.141
642	0.14
642	0.141
642	0.141
643	0.141
643	0.141
644	0.141
644	0.141
645	0.141
645	0.141
646	0.141
646	0.141
646	0.141
647	0.14
647	0.14
648	0.14
648	0.139
649	0.139
649	0.139
650	0.138
650	0.138
650	0.138
651	0.138
651	0.138
652	0.137
652	0.137
653	0.138
653	0.139
653	0.145
654	0.115
654	0.093
655	0.092
655	0.092
656	0.092
656	0.092
657	0.093
657	0.093
657	0.093
658	0.092
658	0.083
659	0.104
659	0.131
660	0.136
660	0.136
661	0.135
661	0.135
661	0.134
662	0.133
662	0.132
663	0.132
663	0.132
664	0.131
664	0.131
665	0.131
665	0.131
665	0.131
666	0.131
666	0.131
667	0.131
667	0.132
668	0.132
668	0.132
669	0.132
669	0.132
669	0.132
670	0.133
670	0.132
671	0.132
671	0.132
672	0.131
672	0.131
672	0.13
673	0.13
673	0.13
674	0.13
674	0.129
675	0.129
675	0.129
676	0.129
676	0.13
676	0.13
677	0.13
677	0.13
678	0.13
678	0.129
679	0.129
679	0.128
680	0.128
680	0.128
680	0.127
681	0.126
681	0.126
682	0.126
682	0.126
683	0.127
683	0.127
684	0.127
684	0.127
684	0.127
685	0.127
685	0.127
686	0.127
686	0.127
687	0.126
687	0.126
687	0.126
688	0.126
688	0.126
689	0.126
689	0.127
690	0.126
690	0.126
691	0.126
691	0.127
691	0.127
692	0.126
692	0.126
693	0.126
693	0.126
694	0.126
694	0.125
695	0.126
695	0.126
695	0.126
696	0.125
696	0.125
697	0.125
697	0.125
698	0.125
698	0.124
698	0.124
699	0.124
699	0.124
700	0.123
700	0.123
701	0.123
701	0.123
702	0.122
702	0.122
702	0.122
703	0.121
703	0.121
704	0.121
704	0.121
705	0.121
705	0.121
705	0.12
706	0.12
706	0.12
707	0.12
707	0.12
708	0.12
708	0.12
709	0.119
709	0.119
709	0.118
710	0.118
710	0.118
711	0.118
711	0.118
712	0.118
712	0.118
713	0.118
713	0.118
713	0.118
714	0.118
714	0.118
715	0.118
715	0.117
716	0.117
716	0.117
716	0.116
717	0.116
717	0.116
718	0.115
718	0.115
719	0.115
719	0.115
720	0.115
720	0.115
720	0.115
721	0.115
721	0.116
722	0.116
722	0.116
723	0.116
723	0.116
723	0.115
724	0.115
724	0.115
725	0.114
725	0.113
726	0.112
726	0.112
727	0.111
727	0.111
727	0.111
728	0.111
728	0.11
729	0.111
729	0.111
730	0.111
730	0.111
730	0.112
731	0.112
731	0.112
732	0.113
732	0.113
733	0.112
733	0.112
734	0.112
734	0.112
734	0.112
735	0.112
735	0.111
736	0.11
736	0.11
737	0.11
737	0.109
737	0.108
738	0.108
738	0.107
739	0.107
739	0.106
740	0.106
740	0.106
741	0.106
741	0.106
741	0.106
742	0.106
742	0.106
743	0.107
743	0.107
744	0.107
744	0.107
744	0.107
745	0.106
745	0.106
746	0.106
746	0.105
747	0.105
747	0.105
748	0.105
748	0.105
748	0.105
749	0.105
749	0.106
750	0.106
750	0.106
751	0.106
751	0.106
751	0.106
752	0.106
752	0.105
753	0.104
753	0.104
754	0.103
754	0.102
754	0.102
755	0.102
755	0.101
756	0.101
756	0.1
757	0.099
757	0.099
758	0.099
758	0.099
758	0.099
759	0.099
759	0.098
760	0.098
760	0.098
761	0.098
761	0.099
761	0.099
762	0.099
762	0.099
763	0.099
763	0.099
764	0.098
764	0.098
764	0.098
765	0.098
765	0.097
766	0.097
766	0.097
767	0.097
767	0.096
768	0.095
768	0.095
768	0.095
769	0.095
769	0.095
770	0.095
770	0.095
771	0.095
771	0.095
771	0.095
772	0.095
772	0.095
773	0.095
773	0.095
774	0.095
774	0.095
775	0.095
775	0.095
775	0.095
776	0.095
776	0.095
777	0.095
777	0.094
778	0.094
778	0.093
778	0.093
779	0.092
779	0.091
780	0.09
780	0.09
781	0.089
781	0.089
781	0.089
782	0.088
782	0.088
783	0.088
783	0.089
784	0.088
784	0.089
784	0.089
785	0.089
785	0.089
786	0.089
786	0.089
787	0.089
787	0.088
788	0.088
788	0.088
788	0.087
789	0.087
789	0.087
790	0.086
790	0.086
791	0.086
791	0.085
791	0.085
792	0.085
792	0.085
793	0.084
793	0.084
794	0.083
794	0.083
794	0.083
795	0.083
795	0.083
796	0.083
796	0.083
797	0.083
797	0.083
797	0.084
798	0.084
798	0.084
799	0.084
799	0.084
800	0.084
800	0.083
801	0.083
801	0.083
801	0.082
802	0.082
802	0.082
803	0.081
803	0.081
804	0.081
804	0.082
804	0.082
805	0.082
805	0.082
806	0.082
806	0.082
807	0.082
807	0.082
807	0.082
808	0.082
808	0.081
809	0.081
809	0.081
810	0.081
810	0.081
810	0.081
811	0.081
811	0.081
812	0.081
812	0.081
813	0.081
813	0.082
813	0.082
814	0.082
814	0.083
815	0.083
815	0.083
816	0.082
816	0.082
817	0.081
817	0.081
817	0.08
818	0.08
818	0.08
819	0.079
819	0.078
820	0.078
820	0.077
820	0.077
821	0.077
821	0.077
822	0.077
822	0.077
823	0.077
823	0.077
823	0.078
824	0.079
824	0.08
825	0.081
825	0.082
826	0.082
826	0.082
826	0.082
827	0.082
827	0.082
828	0.081
828	0.081
829	0.08
829	0.08
829	0.079
830	0.079
830	0.08
831	0.08
831	0.08
832	0.08
832	0.081
832	0.081
833	0.081
833	0.081
834	0.08
834	0.08
835	0.079
835	0.079
835	0.078
836	0.077
836	0.077
837	0.076
837	0.076
838	0.076
838	0.075
839	0.075
839	0.074
839	0.074
840	0.073
840	0.072
841	0.072
841	0.071
842	0.07
842	0.07
842	0.07
843	0.07
843	0.07
844	0.07
844	0.07
845	0.071
845	0.071
845	0.072
846	0.072
846	0.072
847	0.073
847	0.073
848	0.073
848	0.073
848	0.073
849	0.072
849	0.072
850	0.071
850	0.071
851	0.07
851	0.07
851	0.069
852	0.068
852	0.068
853	0.068
853	0.067
854	0.068
854	0.068
854	0.069
855	0.07
855	0.071
856	0.072
856	0.072
857	0.073
857	0.074
857	0.074
858	0.074
858	0.074
859	0.073
859	0.073
860	0.072
860	0.071
860	0.07
861	0.069
861	0.068
862	0.067
862	0.066
863	0.065
863	0.065
863	0.065
864	0.065
864	0.064
865	0.065
865	0.065
866	0.065
866	0.065
866	0.065
867	0.065
867	0.065
868	0.065
868	0.065
869	0.065
869	0.065
869	0.064
870	0.063
870	0.062
871	0.062
871	0.062
872	0.062
872	0.061
872	0.061
873	0.061
873	0.061
874	0.061
874	0.061
875	0.061
875	0.061
875	0.061
876	0.061
876	0.061
877	0.062
877	0.062
878	0.062
878	0.063
878	0.063
879	0.064
879	0.064
880	0.065
880	0.065
881	0.065
881	0.066
881	0.066
882	0.066
882	0.066
883	0.066
883	0.066
884	0.065
884	0.065
884	0.065
885	0.065
885	0.065
886	0.064
886	0.064
887	0.063
887	0.063
887	0.062
888	0.061
888	0.061
889	0.06
889	0.06
890	0.059
890	0.059
890	0.059
891	0.059
891	0.059
892	0.059
892	0.059
893	0.059
893	0.06
893	0.06
894	0.06
894	0.06
895	0.061
895	0.061
895	0.061
896	0.061
896	0.061
897	0.06
897	0.06
898	0.06
898	0.059
898	0.059
899	0.059
899	0.058
900	0.058
900	0.058
901	0.058
901	0.058
901	0.058
902	0.058
902	0.058
903	0.058
903	0.058
904	0.058
904	0.058
904	0.058
905	0.058
905	0.058
906	0.058
906	0.058
907	0.059
907	0.06
907	0.06
908	0.06
908	0.061
909	0.061
909	0.062
910	0.062
910	0.062
910	0.062
911	0.062
911	0.062
912	0.062
912	0.062
913	0.062
913	0.062
913	0.061
914	0.061
914	0.061
915	0.061
915	0.061
916	0.061
916	0.06
916	0.06
917	0.059
917	0.059
918	0.059
918	0.058
918	0.058
919	0.058
919	0.057
920	0.057
920	0.057
921	0.057
921	0.056
921	0.056
922	0.056
922	0.055
923	0.055
923	0.055
924	0.055
924	0.055
924	0.055
925	0.056
925	0.055
926	0.055
926	0.056
927	0.056
927	0.055
927	0.056
928	0.056
928	0.056
929	0.056
929	0.057
930	0.057
930	0.057
930	0.058
931	0.058
931	0.059
932	0.059
932	0.06
933	0.06
933	0.06
933	0.06
934	0.059
934	0.059
935	0.059
935	0.058
935	0.058
936	0.058
936	0.057
937	0.057
937	0.056
938	0.056
938	0.056
938	0.056
939	0.055
939	0.055
940	0.055
940	0.055
941	0.054
941	0.054
941	0.054
942	0.054
942	0.054
943	0.055
943	0.055
944	0.055
944	0.055
944	0.056
945	0.056
945	0.057
946	0.057
946	0.058
946	0.058
947	0.059
947	0.059
948	0.059
948	0.059
949	0.06
949	0.06
949	0.06
950	0.06
950	0.059
951	0.059
951	0.058
952	0.058
952	0.057
952	0.056
953	0.055
953	0.055
954	0.054
954	0.053
955	0.052
955	0.051
955	0.051
956	0.051
956	0.051
957	0.051
957	0.051
957	0.051
958	0.051
958	0.051
959	0.052
959	0.052
960	0.052
960	0.052
960	0.052
961	0.053
961	0.053
962	0.053
962	0.052
963	0.052
963	0.052
963	0.052
964	0.052
964	0.053
965	0.053
965	0.053
966	0.054
966	0.054
966	0.055
967	0.055
967	0.056
968	0.057
968	0.057
968	0.057
969	0.057
969	0.057
970	0.057
970	0.057
971	0.057
971	0.057
971	0.057
972	0.057
972	0.057
973	0.056
973	0.056
974	0.056
974	0.056
974	0.056
975	0.056
975	0.056
976	0.056
976	0.056
976	0.056
977	0.056
977	0.056
978	0.056
978	0.056
979	0.056
979	0.056
979	0.056
980	0.056
980	0.056
981	0.056
981	0.056
982	0.056
982	0.056
982	0.056
983	0.056
983	0.056
984	0.056
984	0.056
984	0.055
985	0.055
985	0.055
986	0.055
986	0.054
987	0.054
987	0.054
987	0.053
988	0.053
988	0.053
989	0.052
989	0.052
990	0.051
990	0.051
990	0.05
991	0.05
991	0.05
992	0.049
992	0.048
992	0.048
993	0.047
993	0.047
994	0.046
994	0.046
995	0.046
995	0.046
995	0.046
996	0.046
996	0.047
997	0.047
997	0.048
997	0.049
998	0.05
998	0.051
999	0.051
999	0.052
1000	0.053
1000	0.054
1000	0.054
1001	0.054
1001	0.054
1002	0.054
1002	0.053
1003	0.052
1003	0.051
1003	0.05
1004	0.049
1004	0.048
1005	0.047
1005	0.046
1005	0.045
1006	0.044
1006	0.043
1007	0.043
1007	0.043
1008	0.043
1008	0.043
1008	0.043
1009	0.044
1009	0.044
1010	0.044
1010	0.045
1010	0.045
1011	0.045
1011	0.045
1012	0.045
1012	0.045
1013	0.046
1013	0.045
1013	0.045
1014	0.045
1014	0.045
1015	0.045
1015	0.045
1016	0.045
1016	0.044
1016	0.044
1017	0.044
1017	0.044
1018	0.044
1018	0.043
1018	0.043
1019	0.043
1019	0.043
1020	0.043
1020	0.043
1021	0.043
1021	0.043
1021	0.043
1022	0.044
1022	0.044
1023	0.044
1023	0.044
1023	0.044
1024	0.044
1024	0.044
1025	0.044
1025	0.044
1026	0.044
1026	0.044
1026	0.044
1027	0.043
1027	0.043
1028	0.043
1028	0.043
1028	0.043
1029	0.043
1029	0.043
1030	0.043
1030	0.044
1031	0.044
1031	0.044
1031	0.045
1032	0.045
1032	0.045
1033	0.045
1033	0.045
1033	0.046
1034	0.045
1034	0.045
1035	0.045
1035	0.044
1036	0.044
1036	0.044
1036	0.044
1037	0.044
1037	0.043
1038	0.043
1038	0.043
1039	0.043
1039	0.043
1039	0.043
1040	0.044
1040	0.044
1041	0.044
1041	0.044
1041	0.045
1042	0.045
1042	0.046
1043	0.046
1043	0.046
1044	0.047
1044	0.047
1044	0.048
1045	0.048
1045	0.048
1046	0.049
1046	0.049
1046	0.05
1047	0.05
1047	0.051
1048	0.051
1048	0.052
1049	0.052
1049	0.052
1049	0.052
1050	0.053
1050	0.053
1051	0.053
1051	0.053
1051	0.053
1052	0.052
1052	0.052
1053	0.051
1053	0.051
1053	0.05
1054	0.05
1054	0.049
1055	0.049
1055	0.048
1056	0.048
1056	0.047
1056	0.046
1057	0.046
1057	0.045
1058	0.044
1058	0.044
1058	0.043
1059	0.042
1059	0.041
1060	0.041
1060	0.04
1061	0.04
1061	0.04
1061	0.039
1062	0.039
1062	0.039
1063	0.039
1063	0.039
1063	0.038
1064	0.038
1064	0.038
1065	0.038
1065	0.037
1066	0.038
1066	0.038
1066	0.037
1067	0.037
1067	0.037
1068	0.037
1068	0.037
1068	0.037
1069	0.037
1069	0.036
1070	0.036
1070	0.035
1071	0.034
1071	0.034
1071	0.033
1072	0.033
1072	0.033
1073	0.032
1073	0.032
1073	0.031
1074	0.032
1074	0.032
1075	0.032
1075	0.032
1076	0.033
1076	0.034
1076	0.034
1077	0.034
1077	0.035
1078	0.035
1078	0.036
1078	0.036
1079	0.036
1079	0.037
1080	0.037
1080	0.037
1080	0.037
1081	0.037
1081	0.037
1082	0.037
1082	0.037
1083	0.037
1083	0.037
1083	0.037
1084	0.037
1084	0.038
1085	0.037
1085	0.038
1085	0.038
1086	0.038
1086	0.037
1087	0.037
1087	0.036
1088	0.036
1088	0.036
1088	0.035
1089	0.035
1089	0.034
1090	0.033
1090	0.033
1090	0.032
1091	0.032
1091	0.032
1092	0.033
1092	0.033
1092	0.033
1093	0.032
1093	0.032
1094	0.032
1094	0.032
1095	0.032
1095	0.032
1095	0.032
1096	0.031
1096	0.031
1097	0.03
1097	0.03
1097	0.03
1098	0.03
1098	0.03
1099	0.029
1099	0.028
1100	0.028
1100	0.028
1100	0.027
1101	0.027
1101	0.026
1102	0.026
1102	0.025
1102	0.024
1103	0.024
1103	0.024
1104	0.024
1104	0.023
1104	0.022
1105	0.021
1105	0.02
1106	0.018
1106	0.017
1107	0.016
1107	0.016
1107	0.015
1108	0.015
1108	0.013
1109	0.013
1109	0.012
1109	0.012
1110	0.014
1110	0.015
1111	0.015
1111	0.014
