Data from reversibility-20sec_Absorbance__1089__000000000001089.txt Node

Date: Tue Dec 05 18:16:06 CET 2023
User: Marek
Spectrometer: MAYP115816
Trigger mode: 0
Integration Time (sec): 2.000000E-1
Scans to average: 10
Electric dark correction enabled: true
Nonlinearity correction enabled: true
Boxcar width: 5
XAxis mode: Wavelengths
Number of Pixels in Spectrum: 2068
>>>>>Begin Spectral Data<<<<<
199	-0.229
199	-0.199
200	-0.127
200	-0.074
201	-0.041
201	-0.023
202	-0.007
202	0.004
203	0.01
203	0.014
204	0.028
204	0.041
205	0.056
205	0.063
205	0.062
206	0.061
206	0.059
207	0.06
207	0.057
208	0.055
208	0.056
209	0.057
209	0.054
210	0.052
210	0.052
211	0.051
211	0.054
212	0.055
212	0.056
213	0.06
213	0.063
213	0.061
214	0.065
214	0.068
215	0.071
215	0.07
216	0.075
216	0.074
217	0.077
217	0.079
218	0.077
218	0.082
219	0.087
219	0.088
220	0.093
220	0.093
221	0.095
221	0.099
221	0.104
222	0.107
222	0.112
223	0.12
223	0.123
224	0.128
224	0.137
225	0.143
225	0.155
226	0.164
226	0.172
227	0.183
227	0.194
228	0.208
228	0.222
229	0.239
229	0.261
229	0.285
230	0.312
230	0.341
231	0.375
231	0.417
232	0.453
232	0.497
233	0.542
233	0.591
234	0.637
234	0.691
235	0.741
235	0.793
236	0.848
236	0.902
236	0.955
237	1.008
237	1.06
238	1.112
238	1.161
239	1.216
239	1.262
240	1.306
240	1.346
241	1.386
241	1.423
242	1.459
242	1.497
243	1.531
243	1.561
243	1.593
244	1.619
244	1.647
245	1.671
245	1.697
246	1.719
246	1.742
247	1.758
247	1.776
248	1.794
248	1.814
249	1.828
249	1.842
250	1.854
250	1.868
250	1.878
251	1.885
251	1.889
252	1.901
252	1.908
253	1.916
253	1.918
254	1.922
254	1.928
255	1.929
255	1.932
256	1.937
256	1.94
257	1.947
257	1.948
258	1.95
258	1.952
258	1.953
259	1.955
259	1.957
260	1.957
260	1.96
261	1.959
261	1.965
262	1.967
262	1.969
263	1.976
263	1.977
264	1.979
264	1.983
265	1.985
265	1.99
265	1.993
266	1.997
266	2
267	2.001
267	2.004
268	2.005
268	2.007
269	2.011
269	2.011
270	2.014
270	2.015
271	2.013
271	2.015
272	2.011
272	2.013
272	2.009
273	2.002
273	1.997
274	1.993
274	1.987
275	1.979
275	1.974
276	1.967
276	1.96
277	1.953
277	1.942
278	1.932
278	1.922
278	1.909
279	1.894
279	1.874
280	1.85
280	1.819
281	1.783
281	1.742
282	1.698
282	1.655
283	1.611
283	1.568
284	1.527
284	1.487
285	1.45
285	1.415
285	1.384
286	1.356
286	1.332
287	1.311
287	1.293
288	1.277
288	1.263
289	1.251
289	1.241
290	1.231
290	1.223
291	1.216
291	1.21
292	1.205
292	1.2
292	1.195
293	1.19
293	1.186
294	1.182
294	1.178
295	1.175
295	1.172
296	1.168
296	1.165
297	1.162
297	1.159
298	1.155
298	1.152
298	1.149
299	1.147
299	1.144
300	1.14
300	1.137
301	1.134
301	1.132
302	1.128
302	1.126
303	1.123
303	1.12
304	1.118
304	1.115
305	1.112
305	1.109
305	1.107
306	1.104
306	1.101
307	1.098
307	1.095
308	1.092
308	1.089
309	1.086
309	1.083
310	1.079
310	1.076
311	1.072
311	1.069
311	1.065
312	1.061
312	1.057
313	1.054
313	1.049
314	1.045
314	1.041
315	1.036
315	1.031
316	1.026
316	1.022
317	1.016
317	1.011
318	1.006
318	1
318	0.995
319	0.989
319	0.983
320	0.977
320	0.971
321	0.965
321	0.958
322	0.952
322	0.945
323	0.938
323	0.932
324	0.925
324	0.919
324	0.911
325	0.904
325	0.897
326	0.89
326	0.882
327	0.875
327	0.869
328	0.861
328	0.854
329	0.846
329	0.839
330	0.832
330	0.825
330	0.817
331	0.81
331	0.803
332	0.796
332	0.788
333	0.781
333	0.774
334	0.767
334	0.76
335	0.752
335	0.745
336	0.738
336	0.731
336	0.724
337	0.717
337	0.711
338	0.704
338	0.698
339	0.692
339	0.685
340	0.679
340	0.674
341	0.668
341	0.662
342	0.656
342	0.651
342	0.645
343	0.64
343	0.635
344	0.629
344	0.624
345	0.619
345	0.614
346	0.609
346	0.605
347	0.6
347	0.595
348	0.591
348	0.587
348	0.583
349	0.578
349	0.574
350	0.571
350	0.567
351	0.563
351	0.56
352	0.556
352	0.553
353	0.55
353	0.547
354	0.543
354	0.54
354	0.537
355	0.534
355	0.531
356	0.528
356	0.525
357	0.521
357	0.518
358	0.515
358	0.512
359	0.509
359	0.507
360	0.505
360	0.502
360	0.5
361	0.497
361	0.495
362	0.494
362	0.492
363	0.49
363	0.487
364	0.485
364	0.483
365	0.481
365	0.478
366	0.476
366	0.475
366	0.473
367	0.47
367	0.468
368	0.467
368	0.465
369	0.463
369	0.461
370	0.46
370	0.458
371	0.456
371	0.455
372	0.453
372	0.451
372	0.45
373	0.448
373	0.446
374	0.445
374	0.444
375	0.443
375	0.441
376	0.44
376	0.439
377	0.438
377	0.436
378	0.435
378	0.434
378	0.433
379	0.432
379	0.43
380	0.429
380	0.428
381	0.427
381	0.426
382	0.425
382	0.424
383	0.423
383	0.422
383	0.421
384	0.42
384	0.419
385	0.418
385	0.418
386	0.417
386	0.416
387	0.415
387	0.414
388	0.413
388	0.413
389	0.412
389	0.411
389	0.411
390	0.41
390	0.409
391	0.408
391	0.408
392	0.407
392	0.407
393	0.406
393	0.405
394	0.404
394	0.404
394	0.403
395	0.402
395	0.401
396	0.401
396	0.4
397	0.399
397	0.398
398	0.398
398	0.397
399	0.396
399	0.396
400	0.395
400	0.395
400	0.394
401	0.394
401	0.393
402	0.393
402	0.392
403	0.391
403	0.391
404	0.39
404	0.39
405	0.389
405	0.389
405	0.388
406	0.387
406	0.386
407	0.386
407	0.385
408	0.385
408	0.384
409	0.384
409	0.383
410	0.382
410	0.382
411	0.381
411	0.381
411	0.38
412	0.38
412	0.379
413	0.379
413	0.378
414	0.378
414	0.378
415	0.377
415	0.377
416	0.377
416	0.376
416	0.375
417	0.375
417	0.374
418	0.374
418	0.374
419	0.373
419	0.373
420	0.372
420	0.372
421	0.371
421	0.371
421	0.371
422	0.37
422	0.37
423	0.369
423	0.369
424	0.368
424	0.368
425	0.367
425	0.367
426	0.367
426	0.366
427	0.366
427	0.366
427	0.365
428	0.365
428	0.364
429	0.364
429	0.363
430	0.363
430	0.363
431	0.362
431	0.362
432	0.362
432	0.362
432	0.361
433	0.361
433	0.361
434	0.361
434	0.361
435	0.361
435	0.36
436	0.36
436	0.36
437	0.36
437	0.36
437	0.359
438	0.359
438	0.359
439	0.359
439	0.359
440	0.358
440	0.358
441	0.358
441	0.358
442	0.358
442	0.358
442	0.358
443	0.357
443	0.357
444	0.357
444	0.357
445	0.357
445	0.357
446	0.357
446	0.356
447	0.356
447	0.356
447	0.356
448	0.356
448	0.355
449	0.355
449	0.355
450	0.355
450	0.355
451	0.355
451	0.355
452	0.355
452	0.355
452	0.355
453	0.355
453	0.355
454	0.355
454	0.355
455	0.355
455	0.355
456	0.355
456	0.355
457	0.355
457	0.355
458	0.355
458	0.355
458	0.355
459	0.355
459	0.355
460	0.355
460	0.355
461	0.355
461	0.355
462	0.355
462	0.355
463	0.355
463	0.355
463	0.355
464	0.355
464	0.355
465	0.356
465	0.356
466	0.356
466	0.356
467	0.357
467	0.357
467	0.357
468	0.358
468	0.358
469	0.358
469	0.359
470	0.359
470	0.359
471	0.36
471	0.36
472	0.36
472	0.361
472	0.361
473	0.362
473	0.363
474	0.363
474	0.363
475	0.364
475	0.365
476	0.365
476	0.366
477	0.367
477	0.367
477	0.368
478	0.369
478	0.37
479	0.371
479	0.371
480	0.372
480	0.373
481	0.373
481	0.374
482	0.375
482	0.376
482	0.376
483	0.377
483	0.378
484	0.379
484	0.38
485	0.381
485	0.382
486	0.382
486	0.383
487	0.384
487	0.385
487	0.387
488	0.388
488	0.389
489	0.39
489	0.392
490	0.393
490	0.395
491	0.396
491	0.398
492	0.399
492	0.4
492	0.402
493	0.403
493	0.405
494	0.407
494	0.408
495	0.41
495	0.411
496	0.413
496	0.415
496	0.416
497	0.418
497	0.419
498	0.421
498	0.422
499	0.424
499	0.426
500	0.427
500	0.429
501	0.431
501	0.432
501	0.433
502	0.435
502	0.436
503	0.438
503	0.439
504	0.441
504	0.442
505	0.444
505	0.445
506	0.447
506	0.448
506	0.45
507	0.451
507	0.453
508	0.454
508	0.456
509	0.457
509	0.458
510	0.46
510	0.461
511	0.463
511	0.464
511	0.465
512	0.467
512	0.468
513	0.469
513	0.47
514	0.471
514	0.472
515	0.473
515	0.474
515	0.474
516	0.475
516	0.476
517	0.477
517	0.477
518	0.478
518	0.478
519	0.478
519	0.478
520	0.479
520	0.479
520	0.479
521	0.479
521	0.479
522	0.478
522	0.478
523	0.478
523	0.478
524	0.478
524	0.478
524	0.477
525	0.476
525	0.476
526	0.475
526	0.475
527	0.474
527	0.473
528	0.472
528	0.471
529	0.469
529	0.468
529	0.467
530	0.466
530	0.464
531	0.462
531	0.461
532	0.459
532	0.457
533	0.456
533	0.454
533	0.452
534	0.45
534	0.449
535	0.447
535	0.445
536	0.443
536	0.441
537	0.439
537	0.437
538	0.435
538	0.432
538	0.43
539	0.428
539	0.426
540	0.423
540	0.421
541	0.418
541	0.415
542	0.413
542	0.41
542	0.407
543	0.404
543	0.402
544	0.399
544	0.396
545	0.394
545	0.391
546	0.388
546	0.386
547	0.383
547	0.38
547	0.377
548	0.375
548	0.373
549	0.37
549	0.367
550	0.365
550	0.362
551	0.359
551	0.356
551	0.353
552	0.35
552	0.348
553	0.345
553	0.342
554	0.34
554	0.336
555	0.334
555	0.331
556	0.328
556	0.325
556	0.323
557	0.321
557	0.318
558	0.316
558	0.313
559	0.311
559	0.308
560	0.306
560	0.304
560	0.301
561	0.299
561	0.297
562	0.294
562	0.291
563	0.289
563	0.286
564	0.283
564	0.281
564	0.279
565	0.277
565	0.275
566	0.272
566	0.27
567	0.268
567	0.266
568	0.264
568	0.263
568	0.261
569	0.259
569	0.257
570	0.255
570	0.253
571	0.251
571	0.249
572	0.247
572	0.245
573	0.243
573	0.241
573	0.239
574	0.237
574	0.236
575	0.234
575	0.233
576	0.232
576	0.23
577	0.228
577	0.226
577	0.225
578	0.223
578	0.222
579	0.221
579	0.22
580	0.218
580	0.216
581	0.214
581	0.212
581	0.211
582	0.21
582	0.209
583	0.209
583	0.207
584	0.205
584	0.203
585	0.201
585	0.2
585	0.198
586	0.197
586	0.195
587	0.194
587	0.192
588	0.19
588	0.189
589	0.188
589	0.187
590	0.186
590	0.185
590	0.185
591	0.184
591	0.183
592	0.181
592	0.18
593	0.179
593	0.178
594	0.177
594	0.176
594	0.175
595	0.174
595	0.173
596	0.171
596	0.171
597	0.171
597	0.171
598	0.17
598	0.169
598	0.168
599	0.168
599	0.167
600	0.166
600	0.165
601	0.164
601	0.163
602	0.161
602	0.16
602	0.159
603	0.158
603	0.157
604	0.157
604	0.156
605	0.156
605	0.155
606	0.154
606	0.153
606	0.152
607	0.152
607	0.151
608	0.15
608	0.149
609	0.148
609	0.147
610	0.146
610	0.145
610	0.145
611	0.144
611	0.144
612	0.143
612	0.143
613	0.143
613	0.142
614	0.141
614	0.14
614	0.139
615	0.139
615	0.138
616	0.137
616	0.137
617	0.136
617	0.135
618	0.135
618	0.134
618	0.134
619	0.134
619	0.134
620	0.134
620	0.134
621	0.133
621	0.132
622	0.131
622	0.131
622	0.13
623	0.129
623	0.128
624	0.128
624	0.127
625	0.126
625	0.126
626	0.125
626	0.125
626	0.124
627	0.124
627	0.123
628	0.123
628	0.122
629	0.122
629	0.121
630	0.12
630	0.12
630	0.119
631	0.119
631	0.118
632	0.118
632	0.117
633	0.117
633	0.117
634	0.117
634	0.117
634	0.116
635	0.116
635	0.115
636	0.115
636	0.115
637	0.114
637	0.114
638	0.113
638	0.113
638	0.112
639	0.111
639	0.11
640	0.11
640	0.109
641	0.109
641	0.109
642	0.108
642	0.108
642	0.108
643	0.108
643	0.108
644	0.108
644	0.108
645	0.108
645	0.108
646	0.107
646	0.107
646	0.106
647	0.106
647	0.105
648	0.104
648	0.104
649	0.103
649	0.103
650	0.103
650	0.102
650	0.102
651	0.102
651	0.102
652	0.102
652	0.102
653	0.102
653	0.104
653	0.111
654	0.089
654	0.072
655	0.071
655	0.071
656	0.071
656	0.071
657	0.071
657	0.071
657	0.07
658	0.069
658	0.06
659	0.075
659	0.094
660	0.099
660	0.098
661	0.098
661	0.097
661	0.096
662	0.096
662	0.095
663	0.095
663	0.094
664	0.094
664	0.093
665	0.093
665	0.092
665	0.092
666	0.092
666	0.092
667	0.092
667	0.092
668	0.092
668	0.092
669	0.092
669	0.092
669	0.092
670	0.093
670	0.092
671	0.092
671	0.092
672	0.091
672	0.091
672	0.091
673	0.09
673	0.09
674	0.09
674	0.089
675	0.088
675	0.088
676	0.088
676	0.087
676	0.087
677	0.086
677	0.086
678	0.086
678	0.085
679	0.085
679	0.085
680	0.085
680	0.085
680	0.085
681	0.085
681	0.085
682	0.085
682	0.085
683	0.086
683	0.086
684	0.087
684	0.086
684	0.086
685	0.086
685	0.086
686	0.086
686	0.086
687	0.085
687	0.085
687	0.085
688	0.084
688	0.084
689	0.084
689	0.084
690	0.084
690	0.084
691	0.084
691	0.084
691	0.084
692	0.084
692	0.084
693	0.085
693	0.085
694	0.085
694	0.084
695	0.085
695	0.086
695	0.086
696	0.085
696	0.085
697	0.085
697	0.084
698	0.083
698	0.083
698	0.083
699	0.083
699	0.082
700	0.081
700	0.081
701	0.081
701	0.081
702	0.081
702	0.08
702	0.08
703	0.08
703	0.08
704	0.079
704	0.079
705	0.078
705	0.077
705	0.077
706	0.076
706	0.076
707	0.076
707	0.076
708	0.076
708	0.076
709	0.076
709	0.075
709	0.075
710	0.075
710	0.075
711	0.075
711	0.075
712	0.075
712	0.074
713	0.074
713	0.075
713	0.075
714	0.075
714	0.075
715	0.075
715	0.074
716	0.074
716	0.074
716	0.074
717	0.073
717	0.073
718	0.072
718	0.072
719	0.072
719	0.071
720	0.071
720	0.071
720	0.071
721	0.071
721	0.072
722	0.072
722	0.072
723	0.072
723	0.072
723	0.072
724	0.072
724	0.071
725	0.071
725	0.07
726	0.07
726	0.069
727	0.069
727	0.069
727	0.069
728	0.068
728	0.068
729	0.069
729	0.069
730	0.068
730	0.069
730	0.069
731	0.069
731	0.069
732	0.069
732	0.069
733	0.068
733	0.068
734	0.068
734	0.068
734	0.068
735	0.068
735	0.068
736	0.067
736	0.067
737	0.067
737	0.067
737	0.067
738	0.067
738	0.066
739	0.066
739	0.065
740	0.065
740	0.064
741	0.064
741	0.064
741	0.063
742	0.062
742	0.062
743	0.063
743	0.063
744	0.064
744	0.064
744	0.064
745	0.064
745	0.064
746	0.064
746	0.065
747	0.065
747	0.066
748	0.066
748	0.066
748	0.066
749	0.066
749	0.066
750	0.066
750	0.066
751	0.066
751	0.066
751	0.066
752	0.065
752	0.065
753	0.065
753	0.065
754	0.065
754	0.065
754	0.065
755	0.065
755	0.065
756	0.064
756	0.063
757	0.062
757	0.062
758	0.062
758	0.062
758	0.061
759	0.061
759	0.061
760	0.06
760	0.06
761	0.06
761	0.061
761	0.061
762	0.061
762	0.062
763	0.062
763	0.061
764	0.061
764	0.06
764	0.06
765	0.059
765	0.059
766	0.058
766	0.058
767	0.057
767	0.056
768	0.054
768	0.054
768	0.053
769	0.053
769	0.053
770	0.053
770	0.053
771	0.053
771	0.053
771	0.054
772	0.054
772	0.055
773	0.056
773	0.056
774	0.056
774	0.057
775	0.057
775	0.057
775	0.057
776	0.057
776	0.058
777	0.058
777	0.058
778	0.057
778	0.057
778	0.057
779	0.057
779	0.056
780	0.055
780	0.054
781	0.054
781	0.053
781	0.053
782	0.052
782	0.052
783	0.052
783	0.052
784	0.052
784	0.052
784	0.053
785	0.053
785	0.053
786	0.053
786	0.053
787	0.053
787	0.053
788	0.052
788	0.052
788	0.051
789	0.051
789	0.051
790	0.051
790	0.051
791	0.051
791	0.05
791	0.051
792	0.052
792	0.052
793	0.052
793	0.052
794	0.052
794	0.052
794	0.052
795	0.052
795	0.052
796	0.052
796	0.052
797	0.051
797	0.051
797	0.051
798	0.05
798	0.05
799	0.05
799	0.049
800	0.049
800	0.048
801	0.048
801	0.048
801	0.048
802	0.048
802	0.049
803	0.049
803	0.049
804	0.05
804	0.05
804	0.05
805	0.05
805	0.05
806	0.05
806	0.05
807	0.05
807	0.049
807	0.049
808	0.049
808	0.049
809	0.048
809	0.048
810	0.049
810	0.049
810	0.049
811	0.049
811	0.049
812	0.05
812	0.05
813	0.05
813	0.05
813	0.05
814	0.05
814	0.05
815	0.051
815	0.051
816	0.051
816	0.05
817	0.05
817	0.05
817	0.049
818	0.049
818	0.049
819	0.048
819	0.047
820	0.047
820	0.046
820	0.046
821	0.046
821	0.046
822	0.046
822	0.046
823	0.046
823	0.046
823	0.047
824	0.047
824	0.048
825	0.049
825	0.049
826	0.05
826	0.049
826	0.049
827	0.05
827	0.049
828	0.049
828	0.049
829	0.049
829	0.049
829	0.049
830	0.049
830	0.049
831	0.05
831	0.05
832	0.05
832	0.051
832	0.051
833	0.051
833	0.051
834	0.051
834	0.052
835	0.052
835	0.052
835	0.052
836	0.052
836	0.053
837	0.053
837	0.052
838	0.052
838	0.051
839	0.05
839	0.049
839	0.048
840	0.047
840	0.045
841	0.044
841	0.043
842	0.042
842	0.041
842	0.041
843	0.041
843	0.04
844	0.04
844	0.04
845	0.04
845	0.04
845	0.04
846	0.04
846	0.039
847	0.04
847	0.04
848	0.041
848	0.041
848	0.042
849	0.042
849	0.043
850	0.043
850	0.044
851	0.044
851	0.044
851	0.044
852	0.044
852	0.044
853	0.043
853	0.043
854	0.043
854	0.043
854	0.044
855	0.044
855	0.045
856	0.045
856	0.045
857	0.045
857	0.046
857	0.046
858	0.046
858	0.045
859	0.044
859	0.043
860	0.042
860	0.041
860	0.04
861	0.039
861	0.039
862	0.037
862	0.036
863	0.036
863	0.035
863	0.035
864	0.035
864	0.035
865	0.035
865	0.035
866	0.036
866	0.036
866	0.036
867	0.036
867	0.036
868	0.036
868	0.036
869	0.036
869	0.036
869	0.036
870	0.036
870	0.036
871	0.036
871	0.037
872	0.037
872	0.038
872	0.038
873	0.039
873	0.039
874	0.039
874	0.039
875	0.039
875	0.039
875	0.039
876	0.039
876	0.039
877	0.039
877	0.04
878	0.041
878	0.042
878	0.043
879	0.045
879	0.046
880	0.047
880	0.047
881	0.048
881	0.048
881	0.048
882	0.047
882	0.046
883	0.045
883	0.044
884	0.043
884	0.042
884	0.041
885	0.04
885	0.038
886	0.038
886	0.037
887	0.037
887	0.036
887	0.036
888	0.035
888	0.035
889	0.035
889	0.035
890	0.035
890	0.035
890	0.035
891	0.035
891	0.036
892	0.036
892	0.037
893	0.038
893	0.038
893	0.039
894	0.039
894	0.04
895	0.04
895	0.04
895	0.04
896	0.04
896	0.04
897	0.04
897	0.039
898	0.039
898	0.038
898	0.038
899	0.037
899	0.037
900	0.037
900	0.037
901	0.038
901	0.038
901	0.039
902	0.039
902	0.04
903	0.04
903	0.04
904	0.04
904	0.039
904	0.039
905	0.039
905	0.039
906	0.039
906	0.039
907	0.04
907	0.04
907	0.041
908	0.041
908	0.042
909	0.043
909	0.043
910	0.043
910	0.044
910	0.043
911	0.043
911	0.043
912	0.042
912	0.042
913	0.041
913	0.041
913	0.041
914	0.04
914	0.04
915	0.04
915	0.039
916	0.039
916	0.039
916	0.038
917	0.038
917	0.037
918	0.036
918	0.036
918	0.035
919	0.034
919	0.034
920	0.034
920	0.034
921	0.034
921	0.034
921	0.034
922	0.034
922	0.035
923	0.035
923	0.035
924	0.036
924	0.036
924	0.036
925	0.037
925	0.037
926	0.037
926	0.037
927	0.037
927	0.037
927	0.037
928	0.037
928	0.037
929	0.037
929	0.038
930	0.038
930	0.038
930	0.038
931	0.038
931	0.039
932	0.039
932	0.039
933	0.039
933	0.039
933	0.039
934	0.039
934	0.038
935	0.038
935	0.038
935	0.038
936	0.038
936	0.038
937	0.038
937	0.038
938	0.038
938	0.037
938	0.037
939	0.037
939	0.037
940	0.037
940	0.038
941	0.038
941	0.038
941	0.038
942	0.039
942	0.039
943	0.039
943	0.039
944	0.039
944	0.039
944	0.039
945	0.039
945	0.039
946	0.039
946	0.039
946	0.038
947	0.038
947	0.038
948	0.038
948	0.038
949	0.038
949	0.038
949	0.038
950	0.038
950	0.038
951	0.038
951	0.038
952	0.037
952	0.037
952	0.037
953	0.037
953	0.036
954	0.036
954	0.036
955	0.035
955	0.035
955	0.035
956	0.036
956	0.037
957	0.037
957	0.038
957	0.039
958	0.039
958	0.04
959	0.041
959	0.041
960	0.041
960	0.041
960	0.041
961	0.041
961	0.041
962	0.04
962	0.04
963	0.04
963	0.039
963	0.039
964	0.038
964	0.038
965	0.038
965	0.038
966	0.039
966	0.039
966	0.039
967	0.04
967	0.04
968	0.041
968	0.041
968	0.041
969	0.041
969	0.041
970	0.041
970	0.041
971	0.041
971	0.04
971	0.04
972	0.04
972	0.04
973	0.04
973	0.04
974	0.04
974	0.04
974	0.04
975	0.041
975	0.041
976	0.041
976	0.042
976	0.042
977	0.042
977	0.041
978	0.041
978	0.041
979	0.041
979	0.041
979	0.041
980	0.041
980	0.04
981	0.04
981	0.04
982	0.04
982	0.04
982	0.04
983	0.04
983	0.04
984	0.04
984	0.04
984	0.039
985	0.039
985	0.039
986	0.039
986	0.038
987	0.038
987	0.037
987	0.037
988	0.037
988	0.036
989	0.036
989	0.036
990	0.036
990	0.036
990	0.036
991	0.036
991	0.035
992	0.035
992	0.034
992	0.034
993	0.034
993	0.033
994	0.032
994	0.032
995	0.031
995	0.031
995	0.031
996	0.031
996	0.031
997	0.031
997	0.032
997	0.032
998	0.033
998	0.034
999	0.035
999	0.036
1000	0.037
1000	0.038
1000	0.038
1001	0.039
1001	0.039
1002	0.039
1002	0.039
1003	0.039
1003	0.039
1003	0.038
1004	0.038
1004	0.037
1005	0.037
1005	0.037
1005	0.037
1006	0.036
1006	0.036
1007	0.036
1007	0.036
1008	0.036
1008	0.036
1008	0.036
1009	0.036
1009	0.036
1010	0.035
1010	0.036
1010	0.035
1011	0.035
1011	0.035
1012	0.035
1012	0.034
1013	0.034
1013	0.034
1013	0.033
1014	0.033
1014	0.033
1015	0.032
1015	0.032
1016	0.032
1016	0.032
1016	0.031
1017	0.031
1017	0.031
1018	0.031
1018	0.031
1018	0.031
1019	0.031
1019	0.031
1020	0.031
1020	0.031
1021	0.031
1021	0.031
1021	0.031
1022	0.031
1022	0.031
1023	0.032
1023	0.032
1023	0.032
1024	0.032
1024	0.032
1025	0.032
1025	0.032
1026	0.032
1026	0.032
1026	0.031
1027	0.031
1027	0.031
1028	0.031
1028	0.03
1028	0.03
1029	0.03
1029	0.03
1030	0.03
1030	0.03
1031	0.03
1031	0.03
1031	0.03
1032	0.03
1032	0.031
1033	0.031
1033	0.031
1033	0.031
1034	0.031
1034	0.03
1035	0.03
1035	0.03
1036	0.03
1036	0.03
1036	0.031
1037	0.031
1037	0.031
1038	0.031
1038	0.032
1039	0.032
1039	0.033
1039	0.033
1040	0.034
1040	0.034
1041	0.034
1041	0.034
1041	0.034
1042	0.034
1042	0.034
1043	0.034
1043	0.034
1044	0.034
1044	0.033
1044	0.033
1045	0.033
1045	0.033
1046	0.033
1046	0.034
1046	0.034
1047	0.035
1047	0.035
1048	0.036
1048	0.037
1049	0.037
1049	0.037
1049	0.037
1050	0.037
1050	0.037
1051	0.037
1051	0.036
1051	0.035
1052	0.035
1052	0.034
1053	0.033
1053	0.032
1053	0.031
1054	0.03
1054	0.03
1055	0.029
1055	0.029
1056	0.028
1056	0.028
1056	0.027
1057	0.027
1057	0.026
1058	0.026
1058	0.025
1058	0.024
1059	0.024
1059	0.024
1060	0.023
1060	0.023
1061	0.022
1061	0.022
1061	0.022
1062	0.022
1062	0.023
1063	0.023
1063	0.023
1063	0.023
1064	0.023
1064	0.023
1065	0.023
1065	0.023
1066	0.024
1066	0.024
1066	0.024
1067	0.023
1067	0.023
1068	0.023
1068	0.023
1068	0.023
1069	0.023
1069	0.022
1070	0.022
1070	0.021
1071	0.02
1071	0.02
1071	0.019
1072	0.018
1072	0.017
1073	0.017
1073	0.016
1073	0.016
1074	0.016
1074	0.016
1075	0.017
1075	0.017
1076	0.017
1076	0.018
1076	0.019
1077	0.019
1077	0.019
1078	0.019
1078	0.02
1078	0.02
1079	0.02
1079	0.019
1080	0.019
1080	0.019
1080	0.018
1081	0.018
1081	0.018
1082	0.019
1082	0.019
1083	0.019
1083	0.018
1083	0.019
1084	0.018
1084	0.019
1085	0.019
1085	0.019
1085	0.019
1086	0.019
1086	0.018
1087	0.018
1087	0.017
1088	0.017
1088	0.017
1088	0.017
1089	0.016
1089	0.016
1090	0.015
1090	0.015
1090	0.014
1091	0.014
1091	0.014
1092	0.015
1092	0.016
1092	0.015
1093	0.014
1093	0.015
1094	0.015
1094	0.015
1095	0.015
1095	0.014
1095	0.014
1096	0.014
1096	0.013
1097	0.012
1097	0.011
1097	0.01
1098	0.009
1098	0.008
1099	0.007
1099	0.006
1100	0.005
1100	0.004
1100	0.002
1101	0.001
1101	-0
1102	-0
1102	-0.002
1102	-0.002
1103	-0.003
1103	-0.003
1104	-0.004
1104	-0.004
1104	-0.005
1105	-0.005
1105	-0.006
1106	-0.007
1106	-0.01
1107	-0.009
1107	-0.011
1107	-0.011
1108	-0.012
1108	-0.013
1109	-0.014
1109	-0.014
1109	-0.014
1110	-0.013
1110	-0.014
1111	-0.013
1111	-0.014
