Data from reversibility-20sec_Absorbance__4989__000000000004989.txt Node

Date: Wed Dec 06 15:56:06 CET 2023
User: Marek
Spectrometer: MAYP115816
Trigger mode: 0
Integration Time (sec): 2.000000E-1
Scans to average: 10
Electric dark correction enabled: true
Nonlinearity correction enabled: true
Boxcar width: 5
XAxis mode: Wavelengths
Number of Pixels in Spectrum: 2068
>>>>>Begin Spectral Data<<<<<
199	-0.198
199	-0.167
200	-0.1
200	-0.052
201	-0.022
201	-0.007
202	0.006
202	0.015
203	0.023
203	0.025
204	0.041
204	0.056
205	0.068
205	0.073
205	0.073
206	0.073
206	0.074
207	0.075
207	0.075
208	0.072
208	0.072
209	0.073
209	0.069
210	0.07
210	0.069
211	0.071
211	0.074
212	0.072
212	0.071
213	0.073
213	0.076
213	0.076
214	0.08
214	0.083
215	0.083
215	0.086
216	0.085
216	0.083
217	0.088
217	0.092
218	0.091
218	0.095
219	0.098
219	0.098
220	0.101
220	0.103
221	0.1
221	0.102
221	0.108
222	0.115
222	0.117
223	0.126
223	0.129
224	0.136
224	0.144
225	0.151
225	0.16
226	0.17
226	0.181
227	0.19
227	0.201
228	0.219
228	0.232
229	0.25
229	0.272
229	0.294
230	0.32
230	0.35
231	0.382
231	0.421
232	0.457
232	0.499
233	0.54
233	0.589
234	0.639
234	0.691
235	0.744
235	0.793
236	0.846
236	0.9
236	0.95
237	1.004
237	1.055
238	1.101
238	1.149
239	1.196
239	1.24
240	1.282
240	1.32
241	1.354
241	1.389
242	1.421
242	1.453
243	1.481
243	1.508
243	1.533
244	1.555
244	1.575
245	1.594
245	1.619
246	1.639
246	1.655
247	1.673
247	1.687
248	1.701
248	1.716
249	1.725
249	1.732
250	1.74
250	1.748
250	1.751
251	1.756
251	1.759
252	1.763
252	1.765
253	1.767
253	1.765
254	1.764
254	1.766
255	1.767
255	1.766
256	1.766
256	1.765
257	1.766
257	1.764
258	1.763
258	1.763
258	1.765
259	1.765
259	1.764
260	1.763
260	1.765
261	1.765
261	1.768
262	1.77
262	1.77
263	1.771
263	1.771
264	1.771
264	1.771
265	1.772
265	1.774
265	1.775
266	1.774
266	1.774
267	1.771
267	1.773
268	1.773
268	1.773
269	1.775
269	1.774
270	1.774
270	1.772
271	1.77
271	1.769
272	1.766
272	1.766
272	1.764
273	1.76
273	1.756
274	1.752
274	1.748
275	1.743
275	1.737
276	1.73
276	1.724
277	1.716
277	1.706
278	1.695
278	1.684
278	1.672
279	1.658
279	1.641
280	1.621
280	1.598
281	1.569
281	1.536
282	1.503
282	1.467
283	1.431
283	1.395
284	1.36
284	1.325
285	1.292
285	1.261
285	1.233
286	1.208
286	1.186
287	1.167
287	1.15
288	1.135
288	1.123
289	1.112
289	1.102
290	1.094
290	1.086
291	1.079
291	1.074
292	1.068
292	1.063
292	1.059
293	1.054
293	1.05
294	1.046
294	1.043
295	1.039
295	1.035
296	1.032
296	1.028
297	1.025
297	1.022
298	1.018
298	1.015
298	1.012
299	1.009
299	1.006
300	1.003
300	1
301	0.997
301	0.995
302	0.992
302	0.989
303	0.986
303	0.984
304	0.981
304	0.978
305	0.976
305	0.973
305	0.97
306	0.968
306	0.965
307	0.962
307	0.959
308	0.956
308	0.954
309	0.95
309	0.947
310	0.944
310	0.942
311	0.938
311	0.935
311	0.932
312	0.928
312	0.924
313	0.921
313	0.917
314	0.913
314	0.909
315	0.905
315	0.9
316	0.896
316	0.891
317	0.886
317	0.881
318	0.877
318	0.871
318	0.866
319	0.861
319	0.855
320	0.85
320	0.844
321	0.839
321	0.833
322	0.826
322	0.82
323	0.814
323	0.808
324	0.801
324	0.795
324	0.788
325	0.782
325	0.775
326	0.768
326	0.762
327	0.755
327	0.748
328	0.741
328	0.734
329	0.727
329	0.72
330	0.713
330	0.706
330	0.699
331	0.692
331	0.686
332	0.679
332	0.672
333	0.665
333	0.659
334	0.652
334	0.645
335	0.639
335	0.632
336	0.625
336	0.619
336	0.612
337	0.606
337	0.6
338	0.594
338	0.588
339	0.582
339	0.576
340	0.57
340	0.565
341	0.559
341	0.554
342	0.548
342	0.543
342	0.537
343	0.532
343	0.527
344	0.523
344	0.518
345	0.513
345	0.508
346	0.504
346	0.499
347	0.495
347	0.491
348	0.487
348	0.483
348	0.479
349	0.475
349	0.471
350	0.468
350	0.464
351	0.461
351	0.458
352	0.455
352	0.452
353	0.449
353	0.446
354	0.443
354	0.44
354	0.437
355	0.434
355	0.431
356	0.428
356	0.425
357	0.421
357	0.419
358	0.416
358	0.413
359	0.411
359	0.409
360	0.407
360	0.405
360	0.402
361	0.4
361	0.399
362	0.397
362	0.395
363	0.394
363	0.392
364	0.389
364	0.387
365	0.385
365	0.383
366	0.381
366	0.38
366	0.378
367	0.376
367	0.375
368	0.373
368	0.371
369	0.37
369	0.368
370	0.367
370	0.365
371	0.364
371	0.363
372	0.361
372	0.36
372	0.359
373	0.358
373	0.357
374	0.355
374	0.354
375	0.353
375	0.352
376	0.351
376	0.35
377	0.349
377	0.348
378	0.347
378	0.346
378	0.345
379	0.344
379	0.343
380	0.342
380	0.341
381	0.34
381	0.339
382	0.338
382	0.338
383	0.337
383	0.336
383	0.336
384	0.335
384	0.334
385	0.334
385	0.333
386	0.332
386	0.332
387	0.331
387	0.331
388	0.33
388	0.329
389	0.329
389	0.328
389	0.328
390	0.327
390	0.326
391	0.326
391	0.325
392	0.325
392	0.325
393	0.324
393	0.324
394	0.323
394	0.323
394	0.322
395	0.322
395	0.322
396	0.321
396	0.32
397	0.32
397	0.319
398	0.319
398	0.318
399	0.318
399	0.317
400	0.317
400	0.317
400	0.316
401	0.316
401	0.316
402	0.315
402	0.315
403	0.314
403	0.314
404	0.313
404	0.313
405	0.313
405	0.312
405	0.312
406	0.311
406	0.311
407	0.31
407	0.31
408	0.31
408	0.309
409	0.309
409	0.309
410	0.308
410	0.308
411	0.308
411	0.307
411	0.307
412	0.307
412	0.306
413	0.306
413	0.306
414	0.305
414	0.305
415	0.304
415	0.304
416	0.304
416	0.303
416	0.303
417	0.302
417	0.302
418	0.302
418	0.301
419	0.301
419	0.3
420	0.3
420	0.3
421	0.299
421	0.299
421	0.299
422	0.298
422	0.298
423	0.298
423	0.297
424	0.297
424	0.296
425	0.296
425	0.296
426	0.296
426	0.296
427	0.295
427	0.295
427	0.295
428	0.294
428	0.294
429	0.294
429	0.294
430	0.293
430	0.293
431	0.293
431	0.293
432	0.293
432	0.293
432	0.292
433	0.292
433	0.292
434	0.292
434	0.292
435	0.292
435	0.292
436	0.291
436	0.291
437	0.291
437	0.291
437	0.291
438	0.29
438	0.29
439	0.29
439	0.29
440	0.289
440	0.289
441	0.289
441	0.289
442	0.289
442	0.288
442	0.288
443	0.288
443	0.288
444	0.288
444	0.288
445	0.288
445	0.288
446	0.288
446	0.288
447	0.287
447	0.287
447	0.287
448	0.287
448	0.287
449	0.287
449	0.287
450	0.287
450	0.287
451	0.287
451	0.287
452	0.287
452	0.287
452	0.287
453	0.287
453	0.287
454	0.288
454	0.288
455	0.287
455	0.287
456	0.287
456	0.287
457	0.287
457	0.287
458	0.287
458	0.287
458	0.286
459	0.286
459	0.286
460	0.286
460	0.286
461	0.286
461	0.286
462	0.286
462	0.286
463	0.286
463	0.286
463	0.287
464	0.287
464	0.286
465	0.287
465	0.287
466	0.287
466	0.287
467	0.287
467	0.288
467	0.288
468	0.288
468	0.288
469	0.288
469	0.289
470	0.289
470	0.29
471	0.29
471	0.29
472	0.291
472	0.291
472	0.292
473	0.292
473	0.293
474	0.293
474	0.293
475	0.294
475	0.294
476	0.295
476	0.295
477	0.296
477	0.296
477	0.296
478	0.297
478	0.297
479	0.298
479	0.299
480	0.299
480	0.3
481	0.3
481	0.301
482	0.302
482	0.302
482	0.303
483	0.304
483	0.305
484	0.306
484	0.306
485	0.307
485	0.307
486	0.308
486	0.309
487	0.31
487	0.31
487	0.311
488	0.312
488	0.313
489	0.314
489	0.315
490	0.317
490	0.318
491	0.319
491	0.32
492	0.321
492	0.322
492	0.323
493	0.324
493	0.326
494	0.327
494	0.329
495	0.33
495	0.331
496	0.333
496	0.334
496	0.335
497	0.337
497	0.338
498	0.339
498	0.341
499	0.342
499	0.343
500	0.345
500	0.346
501	0.347
501	0.348
501	0.349
502	0.351
502	0.352
503	0.353
503	0.354
504	0.355
504	0.357
505	0.358
505	0.359
506	0.36
506	0.361
506	0.363
507	0.364
507	0.365
508	0.366
508	0.367
509	0.368
509	0.369
510	0.37
510	0.371
511	0.373
511	0.374
511	0.375
512	0.376
512	0.377
513	0.378
513	0.379
514	0.38
514	0.381
515	0.382
515	0.382
515	0.383
516	0.384
516	0.385
517	0.385
517	0.386
518	0.386
518	0.387
519	0.387
519	0.387
520	0.387
520	0.388
520	0.388
521	0.387
521	0.387
522	0.387
522	0.387
523	0.386
523	0.386
524	0.386
524	0.386
524	0.385
525	0.385
525	0.384
526	0.384
526	0.383
527	0.383
527	0.382
528	0.382
528	0.381
529	0.38
529	0.379
529	0.378
530	0.377
530	0.376
531	0.375
531	0.374
532	0.373
532	0.372
533	0.371
533	0.369
533	0.368
534	0.366
534	0.365
535	0.364
535	0.362
536	0.361
536	0.359
537	0.357
537	0.356
538	0.354
538	0.352
538	0.351
539	0.349
539	0.348
540	0.346
540	0.344
541	0.342
541	0.34
542	0.338
542	0.336
542	0.334
543	0.332
543	0.33
544	0.328
544	0.326
545	0.324
545	0.322
546	0.32
546	0.318
547	0.315
547	0.314
547	0.311
548	0.31
548	0.308
549	0.306
549	0.304
550	0.302
550	0.299
551	0.297
551	0.294
551	0.292
552	0.29
552	0.288
553	0.286
553	0.284
554	0.282
554	0.28
555	0.278
555	0.276
556	0.274
556	0.272
556	0.271
557	0.269
557	0.268
558	0.266
558	0.265
559	0.263
559	0.261
560	0.259
560	0.258
560	0.256
561	0.254
561	0.252
562	0.25
562	0.248
563	0.246
563	0.244
564	0.241
564	0.24
564	0.238
565	0.236
565	0.235
566	0.233
566	0.231
567	0.23
567	0.228
568	0.227
568	0.225
568	0.224
569	0.223
569	0.221
570	0.219
570	0.217
571	0.216
571	0.214
572	0.213
572	0.211
573	0.21
573	0.209
573	0.208
574	0.206
574	0.205
575	0.204
575	0.203
576	0.202
576	0.2
577	0.199
577	0.197
577	0.196
578	0.195
578	0.194
579	0.193
579	0.192
580	0.191
580	0.189
581	0.187
581	0.186
581	0.186
582	0.185
582	0.185
583	0.184
583	0.183
584	0.181
584	0.179
585	0.178
585	0.177
585	0.176
586	0.174
586	0.173
587	0.172
587	0.171
588	0.17
588	0.169
589	0.168
589	0.167
590	0.167
590	0.166
590	0.166
591	0.166
591	0.165
592	0.164
592	0.163
593	0.162
593	0.162
594	0.161
594	0.16
594	0.159
595	0.158
595	0.157
596	0.156
596	0.155
597	0.156
597	0.156
598	0.155
598	0.154
598	0.154
599	0.153
599	0.152
600	0.152
600	0.151
601	0.15
601	0.15
602	0.149
602	0.148
602	0.147
603	0.146
603	0.146
604	0.146
604	0.145
605	0.145
605	0.144
606	0.143
606	0.142
606	0.142
607	0.141
607	0.14
608	0.14
608	0.139
609	0.138
609	0.138
610	0.138
610	0.137
610	0.137
611	0.137
611	0.137
612	0.136
612	0.136
613	0.136
613	0.136
614	0.135
614	0.134
614	0.133
615	0.133
615	0.132
616	0.132
616	0.131
617	0.131
617	0.13
618	0.13
618	0.13
618	0.129
619	0.129
619	0.129
620	0.129
620	0.129
621	0.128
621	0.128
622	0.127
622	0.127
622	0.126
623	0.125
623	0.124
624	0.124
624	0.123
625	0.122
625	0.121
626	0.121
626	0.12
626	0.12
627	0.12
627	0.119
628	0.119
628	0.118
629	0.118
629	0.118
630	0.118
630	0.118
630	0.118
631	0.118
631	0.118
632	0.117
632	0.117
633	0.117
633	0.117
634	0.117
634	0.117
634	0.117
635	0.116
635	0.116
636	0.115
636	0.115
637	0.114
637	0.114
638	0.113
638	0.113
638	0.112
639	0.112
639	0.111
640	0.112
640	0.112
641	0.112
641	0.112
642	0.112
642	0.112
642	0.113
643	0.113
643	0.113
644	0.113
644	0.113
645	0.112
645	0.112
646	0.111
646	0.111
646	0.111
647	0.11
647	0.11
648	0.109
648	0.108
649	0.108
649	0.107
650	0.107
650	0.107
650	0.107
651	0.107
651	0.107
652	0.106
652	0.106
653	0.106
653	0.108
653	0.114
654	0.092
654	0.074
655	0.072
655	0.072
656	0.072
656	0.072
657	0.073
657	0.073
657	0.073
658	0.072
658	0.064
659	0.08
659	0.101
660	0.106
660	0.107
661	0.106
661	0.106
661	0.106
662	0.106
662	0.105
663	0.105
663	0.105
664	0.104
664	0.104
665	0.104
665	0.103
665	0.104
666	0.104
666	0.104
667	0.104
667	0.104
668	0.105
668	0.105
669	0.105
669	0.105
669	0.105
670	0.105
670	0.105
671	0.104
671	0.103
672	0.103
672	0.102
672	0.101
673	0.101
673	0.101
674	0.1
674	0.099
675	0.099
675	0.099
676	0.099
676	0.099
676	0.099
677	0.098
677	0.098
678	0.098
678	0.097
679	0.097
679	0.097
680	0.097
680	0.097
680	0.096
681	0.096
681	0.096
682	0.097
682	0.097
683	0.097
683	0.098
684	0.098
684	0.098
684	0.097
685	0.098
685	0.098
686	0.098
686	0.098
687	0.098
687	0.097
687	0.098
688	0.097
688	0.097
689	0.098
689	0.098
690	0.098
690	0.097
691	0.097
691	0.097
691	0.097
692	0.097
692	0.096
693	0.096
693	0.096
694	0.095
694	0.095
695	0.096
695	0.097
695	0.097
696	0.097
696	0.097
697	0.098
697	0.098
698	0.098
698	0.098
698	0.098
699	0.098
699	0.097
700	0.097
700	0.096
701	0.096
701	0.095
702	0.095
702	0.094
702	0.094
703	0.093
703	0.093
704	0.092
704	0.092
705	0.093
705	0.093
705	0.093
706	0.093
706	0.094
707	0.094
707	0.094
708	0.095
708	0.095
709	0.095
709	0.095
709	0.095
710	0.094
710	0.094
711	0.094
711	0.094
712	0.094
712	0.093
713	0.093
713	0.093
713	0.092
714	0.091
714	0.091
715	0.091
715	0.09
716	0.089
716	0.089
716	0.088
717	0.088
717	0.087
718	0.087
718	0.087
719	0.087
719	0.087
720	0.087
720	0.088
720	0.088
721	0.088
721	0.088
722	0.089
722	0.089
723	0.089
723	0.089
723	0.089
724	0.089
724	0.089
725	0.088
725	0.088
726	0.088
726	0.087
727	0.087
727	0.087
727	0.087
728	0.086
728	0.086
729	0.086
729	0.086
730	0.086
730	0.086
730	0.086
731	0.086
731	0.087
732	0.088
732	0.088
733	0.088
733	0.089
734	0.089
734	0.09
734	0.091
735	0.091
735	0.091
736	0.091
736	0.091
737	0.09
737	0.09
737	0.09
738	0.089
738	0.088
739	0.087
739	0.086
740	0.085
740	0.085
741	0.085
741	0.085
741	0.084
742	0.084
742	0.085
743	0.085
743	0.086
744	0.086
744	0.087
744	0.087
745	0.087
745	0.087
746	0.087
746	0.087
747	0.086
747	0.085
748	0.084
748	0.084
748	0.083
749	0.082
749	0.082
750	0.081
750	0.081
751	0.08
751	0.08
751	0.08
752	0.079
752	0.079
753	0.078
753	0.078
754	0.078
754	0.078
754	0.078
755	0.079
755	0.079
756	0.079
756	0.078
757	0.078
757	0.078
758	0.078
758	0.078
758	0.078
759	0.078
759	0.078
760	0.078
760	0.078
761	0.078
761	0.079
761	0.079
762	0.079
762	0.08
763	0.08
763	0.079
764	0.079
764	0.078
764	0.078
765	0.077
765	0.077
766	0.076
766	0.076
767	0.075
767	0.074
768	0.073
768	0.073
768	0.074
769	0.074
769	0.074
770	0.074
770	0.075
771	0.075
771	0.076
771	0.076
772	0.077
772	0.078
773	0.078
773	0.078
774	0.078
774	0.078
775	0.077
775	0.077
775	0.077
776	0.076
776	0.076
777	0.076
777	0.075
778	0.075
778	0.075
778	0.074
779	0.074
779	0.073
780	0.072
780	0.072
781	0.072
781	0.071
781	0.071
782	0.071
782	0.071
783	0.071
783	0.071
784	0.072
784	0.072
784	0.072
785	0.073
785	0.073
786	0.073
786	0.074
787	0.074
787	0.074
788	0.073
788	0.073
788	0.072
789	0.071
789	0.071
790	0.07
790	0.069
791	0.069
791	0.068
791	0.067
792	0.067
792	0.066
793	0.065
793	0.065
794	0.064
794	0.064
794	0.063
795	0.063
795	0.064
796	0.064
796	0.064
797	0.064
797	0.064
797	0.065
798	0.066
798	0.066
799	0.066
799	0.067
800	0.066
800	0.066
801	0.065
801	0.065
801	0.064
802	0.064
802	0.064
803	0.064
803	0.064
804	0.064
804	0.064
804	0.064
805	0.064
805	0.064
806	0.064
806	0.064
807	0.065
807	0.064
807	0.065
808	0.064
808	0.064
809	0.064
809	0.064
810	0.064
810	0.064
810	0.064
811	0.064
811	0.064
812	0.065
812	0.065
813	0.064
813	0.064
813	0.064
814	0.064
814	0.064
815	0.065
815	0.065
816	0.064
816	0.064
817	0.063
817	0.063
817	0.063
818	0.062
818	0.063
819	0.063
819	0.062
820	0.062
820	0.062
820	0.062
821	0.063
821	0.063
822	0.063
822	0.063
823	0.063
823	0.062
823	0.063
824	0.063
824	0.063
825	0.064
825	0.064
826	0.064
826	0.064
826	0.064
827	0.064
827	0.065
828	0.065
828	0.065
829	0.065
829	0.065
829	0.065
830	0.065
830	0.066
831	0.066
831	0.066
832	0.066
832	0.065
832	0.065
833	0.065
833	0.064
834	0.064
834	0.064
835	0.063
835	0.062
835	0.062
836	0.061
836	0.061
837	0.06
837	0.06
838	0.059
838	0.059
839	0.058
839	0.057
839	0.057
840	0.056
840	0.056
841	0.055
841	0.055
842	0.054
842	0.054
842	0.053
843	0.052
843	0.052
844	0.051
844	0.05
845	0.049
845	0.048
845	0.048
846	0.047
846	0.046
847	0.046
847	0.046
848	0.046
848	0.047
848	0.047
849	0.048
849	0.049
850	0.049
850	0.05
851	0.05
851	0.051
851	0.051
852	0.051
852	0.051
853	0.051
853	0.052
854	0.052
854	0.053
854	0.053
855	0.054
855	0.054
856	0.055
856	0.055
857	0.056
857	0.056
857	0.057
858	0.056
858	0.056
859	0.055
859	0.054
860	0.053
860	0.053
860	0.052
861	0.051
861	0.051
862	0.05
862	0.049
863	0.049
863	0.048
863	0.048
864	0.048
864	0.048
865	0.048
865	0.049
866	0.049
866	0.049
866	0.049
867	0.05
867	0.051
868	0.051
868	0.052
869	0.052
869	0.052
869	0.051
870	0.051
870	0.051
871	0.051
871	0.05
872	0.05
872	0.05
872	0.05
873	0.049
873	0.049
874	0.049
874	0.049
875	0.049
875	0.049
875	0.049
876	0.049
876	0.05
877	0.05
877	0.05
878	0.05
878	0.05
878	0.051
879	0.051
879	0.051
880	0.051
880	0.05
881	0.05
881	0.05
881	0.05
882	0.05
882	0.05
883	0.049
883	0.05
884	0.05
884	0.05
884	0.05
885	0.05
885	0.05
886	0.049
886	0.049
887	0.048
887	0.048
887	0.047
888	0.046
888	0.045
889	0.044
889	0.044
890	0.044
890	0.044
890	0.044
891	0.044
891	0.043
892	0.043
892	0.043
893	0.043
893	0.043
893	0.042
894	0.042
894	0.041
895	0.041
895	0.041
895	0.041
896	0.041
896	0.042
897	0.042
897	0.043
898	0.044
898	0.045
898	0.045
899	0.046
899	0.047
900	0.047
900	0.047
901	0.047
901	0.047
901	0.047
902	0.047
902	0.046
903	0.046
903	0.045
904	0.045
904	0.044
904	0.044
905	0.044
905	0.043
906	0.043
906	0.043
907	0.043
907	0.044
907	0.044
908	0.044
908	0.044
909	0.044
909	0.044
910	0.043
910	0.043
910	0.043
911	0.043
911	0.043
912	0.043
912	0.043
913	0.043
913	0.043
913	0.043
914	0.043
914	0.043
915	0.044
915	0.044
916	0.044
916	0.044
916	0.044
917	0.043
917	0.043
918	0.043
918	0.043
918	0.043
919	0.043
919	0.043
920	0.043
920	0.043
921	0.043
921	0.043
921	0.044
922	0.044
922	0.044
923	0.045
923	0.046
924	0.046
924	0.047
924	0.047
925	0.048
925	0.048
926	0.049
926	0.049
927	0.049
927	0.049
927	0.049
928	0.049
928	0.049
929	0.048
929	0.048
930	0.047
930	0.047
930	0.046
931	0.045
931	0.045
932	0.045
932	0.044
933	0.044
933	0.044
933	0.043
934	0.043
934	0.043
935	0.043
935	0.042
935	0.042
936	0.042
936	0.041
937	0.041
937	0.041
938	0.041
938	0.041
938	0.04
939	0.041
939	0.041
940	0.041
940	0.041
941	0.042
941	0.042
941	0.042
942	0.042
942	0.042
943	0.042
943	0.042
944	0.042
944	0.043
944	0.043
945	0.043
945	0.043
946	0.043
946	0.043
946	0.043
947	0.043
947	0.043
948	0.043
948	0.043
949	0.043
949	0.042
949	0.042
950	0.042
950	0.042
951	0.042
951	0.042
952	0.042
952	0.041
952	0.041
953	0.041
953	0.041
954	0.041
954	0.04
955	0.04
955	0.039
955	0.039
956	0.039
956	0.039
957	0.039
957	0.039
957	0.039
958	0.039
958	0.039
959	0.039
959	0.039
960	0.039
960	0.039
960	0.039
961	0.039
961	0.039
962	0.039
962	0.039
963	0.04
963	0.04
963	0.04
964	0.04
964	0.041
965	0.041
965	0.041
966	0.042
966	0.042
966	0.042
967	0.042
967	0.042
968	0.042
968	0.042
968	0.042
969	0.041
969	0.041
970	0.041
970	0.04
971	0.039
971	0.039
971	0.038
972	0.038
972	0.037
973	0.037
973	0.037
974	0.037
974	0.037
974	0.037
975	0.037
975	0.037
976	0.038
976	0.038
976	0.038
977	0.038
977	0.038
978	0.038
978	0.038
979	0.037
979	0.037
979	0.037
980	0.037
980	0.036
981	0.035
981	0.035
982	0.035
982	0.034
982	0.035
983	0.034
983	0.034
984	0.034
984	0.034
984	0.034
985	0.034
985	0.035
986	0.035
986	0.035
987	0.035
987	0.035
987	0.035
988	0.035
988	0.035
989	0.035
989	0.035
990	0.035
990	0.035
990	0.035
991	0.035
991	0.035
992	0.034
992	0.034
992	0.034
993	0.033
993	0.032
994	0.032
994	0.031
995	0.031
995	0.03
995	0.03
996	0.03
996	0.03
997	0.03
997	0.03
997	0.031
998	0.032
998	0.033
999	0.034
999	0.035
1000	0.036
1000	0.037
1000	0.037
1001	0.038
1001	0.038
1002	0.038
1002	0.038
1003	0.037
1003	0.037
1003	0.036
1004	0.035
1004	0.034
1005	0.033
1005	0.032
1005	0.031
1006	0.03
1006	0.03
1007	0.03
1007	0.029
1008	0.029
1008	0.029
1008	0.03
1009	0.03
1009	0.03
1010	0.03
1010	0.03
1010	0.03
1011	0.03
1011	0.029
1012	0.029
1012	0.029
1013	0.028
1013	0.028
1013	0.027
1014	0.026
1014	0.026
1015	0.025
1015	0.026
1016	0.026
1016	0.026
1016	0.026
1017	0.026
1017	0.026
1018	0.026
1018	0.027
1018	0.027
1019	0.028
1019	0.028
1020	0.028
1020	0.028
1021	0.029
1021	0.029
1021	0.03
1022	0.03
1022	0.03
1023	0.031
1023	0.031
1023	0.031
1024	0.031
1024	0.031
1025	0.031
1025	0.031
1026	0.032
1026	0.032
1026	0.032
1027	0.032
1027	0.032
1028	0.033
1028	0.033
1028	0.033
1029	0.033
1029	0.033
1030	0.034
1030	0.034
1031	0.034
1031	0.034
1031	0.034
1032	0.034
1032	0.034
1033	0.034
1033	0.034
1033	0.034
1034	0.034
1034	0.034
1035	0.033
1035	0.033
1036	0.033
1036	0.032
1036	0.032
1037	0.032
1037	0.032
1038	0.031
1038	0.031
1039	0.031
1039	0.031
1039	0.031
1040	0.031
1040	0.031
1041	0.031
1041	0.031
1041	0.031
1042	0.031
1042	0.031
1043	0.031
1043	0.031
1044	0.031
1044	0.031
1044	0.031
1045	0.032
1045	0.032
1046	0.032
1046	0.033
1046	0.033
1047	0.033
1047	0.034
1048	0.034
1048	0.034
1049	0.034
1049	0.034
1049	0.034
1050	0.034
1050	0.034
1051	0.034
1051	0.033
1051	0.033
1052	0.032
1052	0.032
1053	0.031
1053	0.031
1053	0.03
1054	0.03
1054	0.029
1055	0.029
1055	0.029
1056	0.028
1056	0.028
1056	0.028
1057	0.027
1057	0.027
1058	0.026
1058	0.026
1058	0.025
1059	0.025
1059	0.025
1060	0.025
1060	0.024
1061	0.024
1061	0.024
1061	0.024
1062	0.024
1062	0.024
1063	0.024
1063	0.024
1063	0.024
1064	0.023
1064	0.023
1065	0.023
1065	0.023
1066	0.023
1066	0.023
1066	0.022
1067	0.022
1067	0.022
1068	0.022
1068	0.022
1068	0.022
1069	0.021
1069	0.021
1070	0.021
1070	0.02
1071	0.02
1071	0.02
1071	0.02
1072	0.019
1072	0.019
1073	0.019
1073	0.019
1073	0.019
1074	0.019
1074	0.019
1075	0.019
1075	0.019
1076	0.02
1076	0.02
1076	0.02
1077	0.02
1077	0.02
1078	0.02
1078	0.02
1078	0.02
1079	0.02
1079	0.02
1080	0.019
1080	0.019
1080	0.019
1081	0.019
1081	0.019
1082	0.019
1082	0.02
1083	0.02
1083	0.019
1083	0.019
1084	0.02
1084	0.02
1085	0.02
1085	0.02
1085	0.02
1086	0.021
1086	0.02
1087	0.02
1087	0.02
1088	0.02
1088	0.021
1088	0.021
1089	0.021
1089	0.021
1090	0.02
1090	0.019
1090	0.019
1091	0.019
1091	0.019
1092	0.019
1092	0.019
1092	0.019
1093	0.018
1093	0.019
1094	0.019
1094	0.019
1095	0.019
1095	0.018
1095	0.018
1096	0.017
1096	0.017
1097	0.016
1097	0.015
1097	0.014
1098	0.014
1098	0.012
1099	0.012
1099	0.01
1100	0.01
1100	0.009
1100	0.008
1101	0.007
1101	0.005
1102	0.004
1102	0.003
1102	0.001
1103	0
1103	-0
1104	-0.001
1104	-0.002
1104	-0.003
1105	-0.004
1105	-0.006
1106	-0.007
1106	-0.008
1107	-0.01
1107	-0.01
1107	-0.01
1108	-0.012
1108	-0.013
1109	-0.015
1109	-0.015
1109	-0.016
1110	-0.015
1110	-0.016
1111	-0.017
1111	-0.015
