Data from reversibility-20sec_Absorbance__4948__000000000004948.txt Node

Date: Wed Dec 06 15:42:26 CET 2023
User: Marek
Spectrometer: MAYP115816
Trigger mode: 0
Integration Time (sec): 2.000000E-1
Scans to average: 10
Electric dark correction enabled: true
Nonlinearity correction enabled: true
Boxcar width: 5
XAxis mode: Wavelengths
Number of Pixels in Spectrum: 2068
>>>>>Begin Spectral Data<<<<<
199	-0.163
199	-0.132
200	-0.066
200	-0.008
201	0.018
201	0.033
202	0.047
202	0.056
203	0.063
203	0.068
204	0.082
204	0.095
205	0.108
205	0.115
205	0.113
206	0.113
206	0.115
207	0.116
207	0.117
208	0.118
208	0.117
209	0.12
209	0.116
210	0.116
210	0.118
211	0.119
211	0.121
212	0.119
212	0.12
213	0.121
213	0.119
213	0.12
214	0.124
214	0.129
215	0.129
215	0.126
216	0.127
216	0.127
217	0.13
217	0.131
218	0.131
218	0.135
219	0.14
219	0.138
220	0.139
220	0.139
221	0.138
221	0.14
221	0.146
222	0.152
222	0.156
223	0.162
223	0.164
224	0.167
224	0.175
225	0.184
225	0.197
226	0.21
226	0.22
227	0.229
227	0.24
228	0.258
228	0.271
229	0.29
229	0.314
229	0.335
230	0.358
230	0.385
231	0.415
231	0.451
232	0.487
232	0.528
233	0.568
233	0.617
234	0.665
234	0.715
235	0.769
235	0.824
236	0.877
236	0.93
236	0.984
237	1.038
237	1.086
238	1.134
238	1.18
239	1.23
239	1.273
240	1.313
240	1.351
241	1.386
241	1.418
242	1.45
242	1.481
243	1.512
243	1.536
243	1.563
244	1.584
244	1.606
245	1.625
245	1.646
246	1.664
246	1.683
247	1.694
247	1.706
248	1.72
248	1.736
249	1.746
249	1.753
250	1.762
250	1.77
250	1.773
251	1.777
251	1.781
252	1.786
252	1.788
253	1.787
253	1.783
254	1.782
254	1.784
255	1.78
255	1.782
256	1.781
256	1.778
257	1.777
257	1.775
258	1.774
258	1.776
258	1.777
259	1.776
259	1.775
260	1.777
260	1.776
261	1.777
261	1.781
262	1.783
262	1.783
263	1.788
263	1.789
264	1.79
264	1.792
265	1.793
265	1.793
265	1.793
266	1.793
266	1.794
267	1.793
267	1.795
268	1.794
268	1.794
269	1.795
269	1.792
270	1.792
270	1.791
271	1.79
271	1.789
272	1.786
272	1.784
272	1.782
273	1.774
273	1.769
274	1.763
274	1.758
275	1.75
275	1.744
276	1.735
276	1.728
277	1.721
277	1.712
278	1.7
278	1.688
278	1.674
279	1.658
279	1.638
280	1.613
280	1.582
281	1.548
281	1.51
282	1.469
282	1.427
283	1.386
283	1.346
284	1.307
284	1.269
285	1.233
285	1.201
285	1.172
286	1.146
286	1.124
287	1.104
287	1.088
288	1.074
288	1.062
289	1.052
289	1.043
290	1.035
290	1.028
291	1.022
291	1.017
292	1.013
292	1.008
292	1.004
293	1
293	0.997
294	0.994
294	0.99
295	0.987
295	0.984
296	0.981
296	0.978
297	0.975
297	0.972
298	0.969
298	0.966
298	0.964
299	0.961
299	0.958
300	0.955
300	0.953
301	0.95
301	0.948
302	0.945
302	0.943
303	0.941
303	0.938
304	0.936
304	0.934
305	0.931
305	0.929
305	0.927
306	0.924
306	0.922
307	0.92
307	0.917
308	0.915
308	0.912
309	0.909
309	0.907
310	0.904
310	0.901
311	0.898
311	0.895
311	0.892
312	0.888
312	0.885
313	0.881
313	0.877
314	0.873
314	0.87
315	0.866
315	0.861
316	0.857
316	0.853
317	0.848
317	0.843
318	0.838
318	0.833
318	0.828
319	0.823
319	0.818
320	0.812
320	0.806
321	0.801
321	0.794
322	0.788
322	0.782
323	0.776
323	0.769
324	0.763
324	0.757
324	0.75
325	0.743
325	0.737
326	0.73
326	0.723
327	0.716
327	0.71
328	0.703
328	0.696
329	0.689
329	0.682
330	0.675
330	0.668
330	0.662
331	0.654
331	0.648
332	0.641
332	0.634
333	0.627
333	0.62
334	0.614
334	0.607
335	0.6
335	0.594
336	0.587
336	0.581
336	0.574
337	0.568
337	0.562
338	0.555
338	0.549
339	0.543
339	0.537
340	0.532
340	0.526
341	0.52
341	0.515
342	0.51
342	0.505
342	0.499
343	0.494
343	0.489
344	0.484
344	0.479
345	0.475
345	0.47
346	0.466
346	0.461
347	0.457
347	0.453
348	0.449
348	0.445
348	0.441
349	0.437
349	0.434
350	0.43
350	0.427
351	0.423
351	0.42
352	0.417
352	0.414
353	0.411
353	0.408
354	0.405
354	0.403
354	0.4
355	0.397
355	0.393
356	0.391
356	0.388
357	0.385
357	0.382
358	0.379
358	0.377
359	0.374
359	0.372
360	0.37
360	0.368
360	0.367
361	0.365
361	0.363
362	0.362
362	0.36
363	0.358
363	0.357
364	0.354
364	0.353
365	0.351
365	0.349
366	0.347
366	0.346
366	0.344
367	0.342
367	0.341
368	0.339
368	0.337
369	0.336
369	0.334
370	0.333
370	0.332
371	0.33
371	0.329
372	0.328
372	0.327
372	0.325
373	0.324
373	0.323
374	0.322
374	0.321
375	0.32
375	0.319
376	0.319
376	0.317
377	0.316
377	0.315
378	0.315
378	0.314
378	0.313
379	0.312
379	0.312
380	0.311
380	0.31
381	0.309
381	0.308
382	0.308
382	0.307
383	0.307
383	0.306
383	0.306
384	0.305
384	0.304
385	0.304
385	0.303
386	0.303
386	0.302
387	0.302
387	0.301
388	0.301
388	0.3
389	0.3
389	0.299
389	0.299
390	0.299
390	0.298
391	0.298
391	0.297
392	0.297
392	0.297
393	0.296
393	0.296
394	0.295
394	0.295
394	0.295
395	0.294
395	0.294
396	0.294
396	0.293
397	0.292
397	0.292
398	0.292
398	0.291
399	0.291
399	0.29
400	0.29
400	0.29
400	0.289
401	0.289
401	0.289
402	0.289
402	0.289
403	0.288
403	0.288
404	0.288
404	0.288
405	0.288
405	0.287
405	0.287
406	0.286
406	0.286
407	0.286
407	0.285
408	0.285
408	0.285
409	0.284
409	0.284
410	0.284
410	0.283
411	0.283
411	0.283
411	0.282
412	0.282
412	0.282
413	0.281
413	0.281
414	0.281
414	0.281
415	0.28
415	0.28
416	0.279
416	0.279
416	0.278
417	0.278
417	0.278
418	0.278
418	0.277
419	0.277
419	0.276
420	0.276
420	0.275
421	0.275
421	0.275
421	0.275
422	0.275
422	0.274
423	0.274
423	0.274
424	0.273
424	0.273
425	0.272
425	0.272
426	0.272
426	0.271
427	0.271
427	0.271
427	0.271
428	0.27
428	0.27
429	0.27
429	0.27
430	0.269
430	0.269
431	0.269
431	0.269
432	0.269
432	0.269
432	0.268
433	0.268
433	0.268
434	0.267
434	0.267
435	0.267
435	0.267
436	0.266
436	0.266
437	0.266
437	0.265
437	0.265
438	0.265
438	0.265
439	0.265
439	0.265
440	0.265
440	0.264
441	0.264
441	0.264
442	0.264
442	0.264
442	0.264
443	0.263
443	0.263
444	0.263
444	0.263
445	0.263
445	0.263
446	0.262
446	0.262
447	0.262
447	0.262
447	0.262
448	0.262
448	0.261
449	0.261
449	0.261
450	0.261
450	0.26
451	0.26
451	0.26
452	0.26
452	0.26
452	0.26
453	0.26
453	0.26
454	0.26
454	0.26
455	0.259
455	0.259
456	0.259
456	0.259
457	0.259
457	0.258
458	0.258
458	0.258
458	0.258
459	0.258
459	0.258
460	0.258
460	0.258
461	0.258
461	0.257
462	0.257
462	0.257
463	0.257
463	0.257
463	0.256
464	0.256
464	0.256
465	0.256
465	0.256
466	0.256
466	0.256
467	0.256
467	0.256
467	0.256
468	0.256
468	0.256
469	0.256
469	0.256
470	0.257
470	0.257
471	0.257
471	0.257
472	0.257
472	0.257
472	0.257
473	0.257
473	0.257
474	0.257
474	0.257
475	0.257
475	0.258
476	0.258
476	0.258
477	0.258
477	0.258
477	0.259
478	0.259
478	0.259
479	0.259
479	0.26
480	0.26
480	0.26
481	0.26
481	0.26
482	0.26
482	0.261
482	0.261
483	0.262
483	0.263
484	0.263
484	0.263
485	0.263
485	0.264
486	0.264
486	0.264
487	0.265
487	0.265
487	0.265
488	0.266
488	0.266
489	0.266
489	0.267
490	0.268
490	0.268
491	0.269
491	0.27
492	0.27
492	0.271
492	0.272
493	0.272
493	0.273
494	0.274
494	0.275
495	0.275
495	0.276
496	0.277
496	0.278
496	0.279
497	0.279
497	0.28
498	0.28
498	0.281
499	0.282
499	0.283
500	0.284
500	0.284
501	0.285
501	0.286
501	0.286
502	0.287
502	0.288
503	0.288
503	0.289
504	0.29
504	0.291
505	0.291
505	0.292
506	0.293
506	0.293
506	0.294
507	0.295
507	0.296
508	0.296
508	0.297
509	0.297
509	0.298
510	0.299
510	0.299
511	0.3
511	0.301
511	0.302
512	0.303
512	0.303
513	0.304
513	0.305
514	0.306
514	0.306
515	0.307
515	0.307
515	0.308
516	0.308
516	0.309
517	0.31
517	0.31
518	0.31
518	0.31
519	0.31
519	0.311
520	0.311
520	0.311
520	0.311
521	0.311
521	0.311
522	0.311
522	0.311
523	0.311
523	0.311
524	0.311
524	0.311
524	0.311
525	0.312
525	0.311
526	0.311
526	0.312
527	0.311
527	0.311
528	0.311
528	0.311
529	0.311
529	0.31
529	0.31
530	0.31
530	0.309
531	0.309
531	0.308
532	0.308
532	0.307
533	0.307
533	0.306
533	0.306
534	0.305
534	0.304
535	0.304
535	0.303
536	0.303
536	0.302
537	0.301
537	0.301
538	0.3
538	0.299
538	0.298
539	0.297
539	0.297
540	0.296
540	0.295
541	0.294
541	0.293
542	0.292
542	0.291
542	0.29
543	0.29
543	0.289
544	0.288
544	0.287
545	0.286
545	0.286
546	0.285
546	0.284
547	0.283
547	0.282
547	0.281
548	0.28
548	0.279
549	0.278
549	0.278
550	0.276
550	0.275
551	0.274
551	0.273
551	0.272
552	0.271
552	0.27
553	0.269
553	0.268
554	0.267
554	0.265
555	0.264
555	0.263
556	0.262
556	0.261
556	0.26
557	0.26
557	0.259
558	0.259
558	0.258
559	0.258
559	0.257
560	0.256
560	0.256
560	0.255
561	0.255
561	0.253
562	0.252
562	0.251
563	0.249
563	0.248
564	0.247
564	0.246
564	0.245
565	0.244
565	0.244
566	0.243
566	0.242
567	0.241
567	0.241
568	0.24
568	0.239
568	0.239
569	0.238
569	0.237
570	0.236
570	0.235
571	0.234
571	0.233
572	0.232
572	0.231
573	0.231
573	0.23
573	0.229
574	0.228
574	0.228
575	0.228
575	0.227
576	0.227
576	0.226
577	0.225
577	0.224
577	0.224
578	0.223
578	0.222
579	0.222
579	0.222
580	0.221
580	0.22
581	0.219
581	0.218
581	0.218
582	0.218
582	0.217
583	0.217
583	0.217
584	0.215
584	0.214
585	0.213
585	0.213
585	0.212
586	0.212
586	0.211
587	0.21
587	0.209
588	0.208
588	0.208
589	0.207
589	0.207
590	0.207
590	0.207
590	0.207
591	0.207
591	0.206
592	0.206
592	0.205
593	0.205
593	0.204
594	0.204
594	0.203
594	0.202
595	0.201
595	0.201
596	0.2
596	0.2
597	0.2
597	0.2
598	0.199
598	0.199
598	0.199
599	0.198
599	0.198
600	0.197
600	0.197
601	0.196
601	0.196
602	0.195
602	0.195
602	0.194
603	0.194
603	0.194
604	0.194
604	0.194
605	0.194
605	0.194
606	0.193
606	0.193
606	0.192
607	0.192
607	0.192
608	0.191
608	0.19
609	0.19
609	0.19
610	0.189
610	0.189
610	0.189
611	0.189
611	0.189
612	0.189
612	0.189
613	0.188
613	0.188
614	0.187
614	0.187
614	0.187
615	0.186
615	0.186
616	0.185
616	0.185
617	0.185
617	0.184
618	0.184
618	0.183
618	0.183
619	0.183
619	0.183
620	0.183
620	0.183
621	0.183
621	0.182
622	0.182
622	0.182
622	0.181
623	0.181
623	0.18
624	0.18
624	0.179
625	0.179
625	0.178
626	0.178
626	0.178
626	0.178
627	0.178
627	0.178
628	0.177
628	0.177
629	0.177
629	0.176
630	0.176
630	0.176
630	0.176
631	0.176
631	0.176
632	0.176
632	0.175
633	0.175
633	0.176
634	0.176
634	0.176
634	0.176
635	0.176
635	0.175
636	0.174
636	0.174
637	0.174
637	0.173
638	0.172
638	0.172
638	0.171
639	0.171
639	0.17
640	0.17
640	0.17
641	0.17
641	0.171
642	0.171
642	0.171
642	0.171
643	0.171
643	0.172
644	0.172
644	0.171
645	0.171
645	0.171
646	0.171
646	0.171
646	0.171
647	0.17
647	0.17
648	0.17
648	0.169
649	0.169
649	0.169
650	0.169
650	0.168
650	0.168
651	0.168
651	0.168
652	0.168
652	0.168
653	0.168
653	0.17
653	0.176
654	0.139
654	0.111
655	0.111
655	0.112
656	0.112
656	0.112
657	0.113
657	0.113
657	0.113
658	0.112
658	0.102
659	0.129
659	0.165
660	0.17
660	0.17
661	0.17
661	0.169
661	0.169
662	0.168
662	0.168
663	0.168
663	0.168
664	0.167
664	0.167
665	0.167
665	0.167
665	0.167
666	0.168
666	0.168
667	0.168
667	0.168
668	0.168
668	0.168
669	0.168
669	0.168
669	0.168
670	0.168
670	0.168
671	0.168
671	0.167
672	0.167
672	0.166
672	0.166
673	0.166
673	0.166
674	0.166
674	0.165
675	0.165
675	0.165
676	0.165
676	0.165
676	0.165
677	0.165
677	0.165
678	0.165
678	0.165
679	0.164
679	0.164
680	0.164
680	0.164
680	0.164
681	0.164
681	0.164
682	0.164
682	0.164
683	0.165
683	0.165
684	0.165
684	0.165
684	0.165
685	0.165
685	0.165
686	0.165
686	0.165
687	0.165
687	0.165
687	0.165
688	0.165
688	0.165
689	0.165
689	0.166
690	0.166
690	0.165
691	0.165
691	0.166
691	0.166
692	0.165
692	0.165
693	0.165
693	0.165
694	0.165
694	0.165
695	0.166
695	0.167
695	0.167
696	0.167
696	0.167
697	0.167
697	0.167
698	0.167
698	0.167
698	0.167
699	0.167
699	0.166
700	0.166
700	0.166
701	0.165
701	0.165
702	0.164
702	0.164
702	0.164
703	0.164
703	0.164
704	0.164
704	0.164
705	0.164
705	0.164
705	0.164
706	0.165
706	0.165
707	0.166
707	0.166
708	0.167
708	0.167
709	0.168
709	0.168
709	0.168
710	0.168
710	0.168
711	0.169
711	0.169
712	0.169
712	0.168
713	0.168
713	0.168
713	0.168
714	0.167
714	0.167
715	0.167
715	0.166
716	0.165
716	0.164
716	0.163
717	0.163
717	0.163
718	0.162
718	0.162
719	0.163
719	0.164
720	0.164
720	0.165
720	0.166
721	0.166
721	0.167
722	0.168
722	0.168
723	0.168
723	0.169
723	0.169
724	0.169
724	0.169
725	0.168
725	0.168
726	0.167
726	0.167
727	0.167
727	0.166
727	0.166
728	0.166
728	0.166
729	0.167
729	0.166
730	0.167
730	0.167
730	0.168
731	0.168
731	0.169
732	0.17
732	0.17
733	0.17
733	0.171
734	0.171
734	0.172
734	0.172
735	0.173
735	0.173
736	0.173
736	0.173
737	0.173
737	0.173
737	0.173
738	0.173
738	0.172
739	0.172
739	0.171
740	0.17
740	0.17
741	0.17
741	0.17
741	0.17
742	0.17
742	0.17
743	0.171
743	0.172
744	0.173
744	0.173
744	0.174
745	0.174
745	0.174
746	0.175
746	0.175
747	0.175
747	0.174
748	0.174
748	0.174
748	0.173
749	0.172
749	0.172
750	0.172
750	0.172
751	0.172
751	0.172
751	0.172
752	0.172
752	0.171
753	0.171
753	0.171
754	0.171
754	0.17
754	0.171
755	0.171
755	0.17
756	0.17
756	0.169
757	0.169
757	0.169
758	0.169
758	0.169
758	0.17
759	0.17
759	0.17
760	0.169
760	0.17
761	0.17
761	0.171
761	0.171
762	0.171
762	0.171
763	0.172
763	0.171
764	0.171
764	0.172
764	0.172
765	0.172
765	0.172
766	0.172
766	0.172
767	0.172
767	0.171
768	0.171
768	0.171
768	0.171
769	0.172
769	0.172
770	0.173
770	0.173
771	0.173
771	0.174
771	0.174
772	0.174
772	0.175
773	0.175
773	0.175
774	0.175
774	0.175
775	0.175
775	0.175
775	0.174
776	0.174
776	0.174
777	0.175
777	0.175
778	0.175
778	0.175
778	0.175
779	0.175
779	0.175
780	0.174
780	0.174
781	0.174
781	0.174
781	0.174
782	0.174
782	0.174
783	0.175
783	0.176
784	0.176
784	0.176
784	0.177
785	0.177
785	0.177
786	0.178
786	0.178
787	0.178
787	0.177
788	0.177
788	0.176
788	0.175
789	0.174
789	0.174
790	0.173
790	0.172
791	0.171
791	0.17
791	0.169
792	0.17
792	0.169
793	0.169
793	0.168
794	0.168
794	0.168
794	0.168
795	0.168
795	0.169
796	0.17
796	0.17
797	0.17
797	0.17
797	0.171
798	0.171
798	0.172
799	0.172
799	0.172
800	0.172
800	0.171
801	0.171
801	0.171
801	0.171
802	0.17
802	0.17
803	0.17
803	0.17
804	0.17
804	0.17
804	0.17
805	0.17
805	0.17
806	0.17
806	0.17
807	0.17
807	0.17
807	0.171
808	0.171
808	0.171
809	0.171
809	0.171
810	0.171
810	0.171
810	0.171
811	0.171
811	0.171
812	0.171
812	0.171
813	0.171
813	0.171
813	0.172
814	0.172
814	0.173
815	0.173
815	0.173
816	0.173
816	0.173
817	0.172
817	0.172
817	0.172
818	0.172
818	0.171
819	0.171
819	0.17
820	0.169
820	0.169
820	0.169
821	0.169
821	0.169
822	0.168
822	0.169
823	0.169
823	0.169
823	0.169
824	0.17
824	0.17
825	0.171
825	0.172
826	0.172
826	0.172
826	0.172
827	0.172
827	0.172
828	0.172
828	0.171
829	0.171
829	0.171
829	0.171
830	0.171
830	0.171
831	0.172
831	0.172
832	0.171
832	0.172
832	0.172
833	0.172
833	0.172
834	0.171
834	0.171
835	0.17
835	0.17
835	0.169
836	0.169
836	0.169
837	0.168
837	0.168
838	0.167
838	0.166
839	0.166
839	0.165
839	0.164
840	0.163
840	0.162
841	0.161
841	0.16
842	0.159
842	0.158
842	0.157
843	0.157
843	0.156
844	0.156
844	0.155
845	0.155
845	0.154
845	0.154
846	0.154
846	0.154
847	0.154
847	0.154
848	0.154
848	0.154
848	0.154
849	0.154
849	0.154
850	0.155
850	0.155
851	0.155
851	0.155
851	0.155
852	0.155
852	0.155
853	0.155
853	0.155
854	0.155
854	0.155
854	0.155
855	0.156
855	0.156
856	0.156
856	0.157
857	0.157
857	0.158
857	0.158
858	0.158
858	0.158
859	0.157
859	0.157
860	0.156
860	0.155
860	0.155
861	0.154
861	0.153
862	0.152
862	0.151
863	0.15
863	0.15
863	0.149
864	0.149
864	0.149
865	0.149
865	0.149
866	0.149
866	0.148
866	0.149
867	0.149
867	0.149
868	0.15
868	0.15
869	0.15
869	0.15
869	0.149
870	0.149
870	0.149
871	0.148
871	0.148
872	0.148
872	0.147
872	0.147
873	0.146
873	0.146
874	0.145
874	0.145
875	0.145
875	0.144
875	0.144
876	0.144
876	0.144
877	0.144
877	0.144
878	0.144
878	0.144
878	0.144
879	0.144
879	0.144
880	0.144
880	0.144
881	0.144
881	0.143
881	0.143
882	0.143
882	0.142
883	0.142
883	0.142
884	0.142
884	0.142
884	0.141
885	0.141
885	0.141
886	0.141
886	0.14
887	0.139
887	0.139
887	0.138
888	0.136
888	0.135
889	0.134
889	0.134
890	0.133
890	0.133
890	0.132
891	0.132
891	0.131
892	0.131
892	0.131
893	0.131
893	0.13
893	0.13
894	0.13
894	0.13
895	0.13
895	0.13
895	0.13
896	0.13
896	0.131
897	0.131
897	0.131
898	0.131
898	0.132
898	0.132
899	0.132
899	0.132
900	0.131
900	0.131
901	0.13
901	0.13
901	0.129
902	0.129
902	0.128
903	0.128
903	0.127
904	0.127
904	0.126
904	0.126
905	0.125
905	0.125
906	0.125
906	0.125
907	0.125
907	0.125
907	0.125
908	0.125
908	0.125
909	0.124
909	0.124
910	0.124
910	0.124
910	0.124
911	0.124
911	0.123
912	0.122
912	0.122
913	0.121
913	0.121
913	0.121
914	0.12
914	0.12
915	0.12
915	0.12
916	0.12
916	0.12
916	0.12
917	0.12
917	0.121
918	0.121
918	0.121
918	0.121
919	0.121
919	0.121
920	0.121
920	0.121
921	0.121
921	0.12
921	0.12
922	0.12
922	0.12
923	0.119
923	0.12
924	0.12
924	0.12
924	0.12
925	0.121
925	0.121
926	0.121
926	0.122
927	0.122
927	0.122
927	0.122
928	0.122
928	0.121
929	0.12
929	0.12
930	0.119
930	0.118
930	0.117
931	0.116
931	0.115
932	0.115
932	0.114
933	0.114
933	0.113
933	0.113
934	0.112
934	0.112
935	0.112
935	0.111
935	0.111
936	0.11
936	0.11
937	0.11
937	0.109
938	0.109
938	0.109
938	0.109
939	0.108
939	0.108
940	0.108
940	0.108
941	0.108
941	0.108
941	0.109
942	0.109
942	0.109
943	0.109
943	0.108
944	0.108
944	0.108
944	0.108
945	0.108
945	0.108
946	0.108
946	0.108
946	0.108
947	0.108
947	0.108
948	0.107
948	0.107
949	0.107
949	0.106
949	0.106
950	0.105
950	0.105
951	0.105
951	0.104
952	0.103
952	0.103
952	0.102
953	0.102
953	0.101
954	0.101
954	0.101
955	0.1
955	0.1
955	0.1
956	0.1
956	0.101
957	0.101
957	0.101
957	0.101
958	0.101
958	0.101
959	0.101
959	0.101
960	0.101
960	0.101
960	0.101
961	0.101
961	0.101
962	0.1
962	0.1
963	0.1
963	0.099
963	0.099
964	0.099
964	0.099
965	0.099
965	0.098
966	0.098
966	0.097
966	0.097
967	0.097
967	0.097
968	0.097
968	0.096
968	0.096
969	0.095
969	0.095
970	0.095
970	0.094
971	0.094
971	0.093
971	0.093
972	0.092
972	0.091
973	0.09
973	0.09
974	0.089
974	0.089
974	0.089
975	0.089
975	0.089
976	0.089
976	0.089
976	0.089
977	0.089
977	0.089
978	0.089
978	0.089
979	0.089
979	0.089
979	0.089
980	0.089
980	0.088
981	0.088
981	0.088
982	0.088
982	0.088
982	0.088
983	0.088
983	0.088
984	0.088
984	0.089
984	0.089
985	0.089
985	0.089
986	0.089
986	0.089
987	0.089
987	0.089
987	0.089
988	0.089
988	0.089
989	0.089
989	0.089
990	0.089
990	0.09
990	0.09
991	0.089
991	0.089
992	0.089
992	0.089
992	0.088
993	0.087
993	0.086
994	0.085
994	0.085
995	0.084
995	0.083
995	0.083
996	0.083
996	0.083
997	0.083
997	0.084
997	0.085
998	0.085
998	0.086
999	0.087
999	0.088
1000	0.088
1000	0.089
1000	0.089
1001	0.09
1001	0.09
1002	0.089
1002	0.089
1003	0.089
1003	0.088
1003	0.088
1004	0.087
1004	0.087
1005	0.086
1005	0.086
1005	0.085
1006	0.085
1006	0.084
1007	0.084
1007	0.083
1008	0.083
1008	0.083
1008	0.082
1009	0.082
1009	0.082
1010	0.081
1010	0.081
1010	0.081
1011	0.081
1011	0.08
1012	0.08
1012	0.08
1013	0.079
1013	0.079
1013	0.078
1014	0.078
1014	0.078
1015	0.077
1015	0.077
1016	0.077
1016	0.077
1016	0.076
1017	0.076
1017	0.076
1018	0.075
1018	0.075
1018	0.075
1019	0.074
1019	0.074
1020	0.074
1020	0.074
1021	0.074
1021	0.074
1021	0.074
1022	0.074
1022	0.075
1023	0.075
1023	0.076
1023	0.076
1024	0.077
1024	0.077
1025	0.077
1025	0.077
1026	0.077
1026	0.078
1026	0.078
1027	0.078
1027	0.078
1028	0.077
1028	0.077
1028	0.077
1029	0.077
1029	0.077
1030	0.077
1030	0.077
1031	0.077
1031	0.077
1031	0.077
1032	0.077
1032	0.078
1033	0.078
1033	0.078
1033	0.078
1034	0.078
1034	0.077
1035	0.077
1035	0.077
1036	0.077
1036	0.077
1036	0.077
1037	0.077
1037	0.077
1038	0.077
1038	0.077
1039	0.077
1039	0.077
1039	0.077
1040	0.077
1040	0.077
1041	0.077
1041	0.077
1041	0.077
1042	0.076
1042	0.076
1043	0.076
1043	0.076
1044	0.076
1044	0.076
1044	0.076
1045	0.075
1045	0.075
1046	0.075
1046	0.075
1046	0.076
1047	0.075
1047	0.075
1048	0.075
1048	0.075
1049	0.075
1049	0.074
1049	0.074
1050	0.073
1050	0.072
1051	0.072
1051	0.071
1051	0.07
1052	0.07
1052	0.069
1053	0.069
1053	0.068
1053	0.068
1054	0.068
1054	0.068
1055	0.068
1055	0.067
1056	0.067
1056	0.067
1056	0.066
1057	0.066
1057	0.065
1058	0.064
1058	0.063
1058	0.063
1059	0.062
1059	0.062
1060	0.061
1060	0.06
1061	0.06
1061	0.06
1061	0.059
1062	0.059
1062	0.059
1063	0.059
1063	0.059
1063	0.059
1064	0.058
1064	0.059
1065	0.058
1065	0.058
1066	0.059
1066	0.059
1066	0.059
1067	0.059
1067	0.059
1068	0.059
1068	0.059
1068	0.059
1069	0.059
1069	0.059
1070	0.058
1070	0.058
1071	0.057
1071	0.057
1071	0.057
1072	0.057
1072	0.056
1073	0.056
1073	0.055
1073	0.055
1074	0.055
1074	0.055
1075	0.055
1075	0.055
1076	0.055
1076	0.055
1076	0.055
1077	0.055
1077	0.055
1078	0.054
1078	0.054
1078	0.054
1079	0.054
1079	0.054
1080	0.053
1080	0.052
1080	0.052
1081	0.052
1081	0.051
1082	0.051
1082	0.051
1083	0.051
1083	0.05
1083	0.05
1084	0.05
1084	0.051
1085	0.051
1085	0.051
1085	0.052
1086	0.052
1086	0.052
1087	0.052
1087	0.052
1088	0.052
1088	0.052
1088	0.053
1089	0.052
1089	0.051
1090	0.051
1090	0.05
1090	0.049
1091	0.049
1091	0.049
1092	0.049
1092	0.049
1092	0.049
1093	0.048
1093	0.048
1094	0.048
1094	0.048
1095	0.049
1095	0.049
1095	0.049
1096	0.048
1096	0.047
1097	0.046
1097	0.044
1097	0.044
1098	0.043
1098	0.041
1099	0.039
1099	0.038
1100	0.037
1100	0.036
1100	0.035
1101	0.034
1101	0.032
1102	0.032
1102	0.031
1102	0.03
1103	0.03
1103	0.029
1104	0.029
1104	0.029
1104	0.028
1105	0.027
1105	0.025
1106	0.024
1106	0.023
1107	0.023
1107	0.022
1107	0.022
1108	0.021
1108	0.02
1109	0.019
1109	0.017
1109	0.017
1110	0.019
1110	0.018
1111	0.019
1111	0.015
