Data from reversibility-20sec_Absorbance__2037__000000000002037.txt Node

Date: Tue Dec 05 23:32:07 CET 2023
User: Marek
Spectrometer: MAYP115816
Trigger mode: 0
Integration Time (sec): 2.000000E-1
Scans to average: 10
Electric dark correction enabled: true
Nonlinearity correction enabled: true
Boxcar width: 5
XAxis mode: Wavelengths
Number of Pixels in Spectrum: 2068
>>>>>Begin Spectral Data<<<<<
199	-0.203
199	-0.167
200	-0.105
200	-0.053
201	-0.019
201	-0.004
202	0.011
202	0.022
203	0.025
203	0.03
204	0.044
204	0.055
205	0.067
205	0.074
205	0.074
206	0.074
206	0.074
207	0.073
207	0.071
208	0.072
208	0.071
209	0.072
209	0.07
210	0.07
210	0.069
211	0.07
211	0.068
212	0.066
212	0.07
213	0.072
213	0.075
213	0.075
214	0.079
214	0.085
215	0.086
215	0.085
216	0.084
216	0.082
217	0.087
217	0.086
218	0.085
218	0.089
219	0.094
219	0.092
220	0.092
220	0.092
221	0.092
221	0.098
221	0.104
222	0.109
222	0.114
223	0.119
223	0.122
224	0.126
224	0.137
225	0.146
225	0.158
226	0.17
226	0.18
227	0.189
227	0.2
228	0.215
228	0.231
229	0.248
229	0.271
229	0.294
230	0.319
230	0.348
231	0.382
231	0.42
232	0.462
232	0.504
233	0.548
233	0.598
234	0.648
234	0.701
235	0.753
235	0.806
236	0.859
236	0.912
236	0.964
237	1.016
237	1.067
238	1.118
238	1.166
239	1.219
239	1.265
240	1.307
240	1.348
241	1.387
241	1.422
242	1.457
242	1.492
243	1.524
243	1.554
243	1.581
244	1.604
244	1.629
245	1.649
245	1.672
246	1.693
246	1.714
247	1.731
247	1.749
248	1.768
248	1.783
249	1.799
249	1.811
250	1.821
250	1.836
250	1.846
251	1.856
251	1.864
252	1.875
252	1.877
253	1.883
253	1.883
254	1.886
254	1.889
255	1.891
255	1.893
256	1.893
256	1.891
257	1.893
257	1.891
258	1.894
258	1.895
258	1.898
259	1.899
259	1.902
260	1.903
260	1.905
261	1.908
261	1.914
262	1.919
262	1.923
263	1.93
263	1.932
264	1.936
264	1.938
265	1.94
265	1.942
265	1.945
266	1.946
266	1.949
267	1.946
267	1.948
268	1.948
268	1.949
269	1.952
269	1.954
270	1.953
270	1.953
271	1.951
271	1.952
272	1.948
272	1.949
272	1.946
273	1.94
273	1.935
274	1.928
274	1.923
275	1.917
275	1.911
276	1.903
276	1.895
277	1.888
277	1.877
278	1.866
278	1.856
278	1.842
279	1.826
279	1.804
280	1.779
280	1.749
281	1.714
281	1.673
282	1.63
282	1.588
283	1.545
283	1.503
284	1.463
284	1.424
285	1.387
285	1.353
285	1.324
286	1.297
286	1.274
287	1.254
287	1.235
288	1.22
288	1.207
289	1.195
289	1.186
290	1.178
290	1.17
291	1.163
291	1.158
292	1.152
292	1.147
292	1.143
293	1.139
293	1.135
294	1.132
294	1.128
295	1.125
295	1.121
296	1.118
296	1.115
297	1.112
297	1.109
298	1.105
298	1.102
298	1.099
299	1.096
299	1.093
300	1.09
300	1.088
301	1.085
301	1.082
302	1.079
302	1.077
303	1.074
303	1.072
304	1.069
304	1.067
305	1.064
305	1.061
305	1.058
306	1.056
306	1.053
307	1.05
307	1.047
308	1.045
308	1.041
309	1.038
309	1.036
310	1.032
310	1.029
311	1.026
311	1.023
311	1.019
312	1.016
312	1.012
313	1.008
313	1.004
314	1
314	0.995
315	0.991
315	0.986
316	0.982
316	0.977
317	0.972
317	0.967
318	0.961
318	0.956
318	0.95
319	0.945
319	0.939
320	0.934
320	0.927
321	0.921
321	0.915
322	0.909
322	0.902
323	0.896
323	0.889
324	0.883
324	0.876
324	0.869
325	0.862
325	0.855
326	0.848
326	0.841
327	0.834
327	0.827
328	0.82
328	0.813
329	0.806
329	0.799
330	0.791
330	0.784
330	0.777
331	0.77
331	0.763
332	0.755
332	0.748
333	0.741
333	0.734
334	0.727
334	0.72
335	0.713
335	0.706
336	0.7
336	0.693
336	0.686
337	0.68
337	0.673
338	0.667
338	0.661
339	0.654
339	0.648
340	0.642
340	0.637
341	0.631
341	0.625
342	0.62
342	0.614
342	0.609
343	0.603
343	0.598
344	0.593
344	0.588
345	0.583
345	0.578
346	0.573
346	0.569
347	0.564
347	0.56
348	0.555
348	0.552
348	0.547
349	0.543
349	0.539
350	0.536
350	0.532
351	0.529
351	0.525
352	0.522
352	0.519
353	0.516
353	0.513
354	0.51
354	0.507
354	0.504
355	0.501
355	0.498
356	0.495
356	0.492
357	0.489
357	0.486
358	0.483
358	0.48
359	0.478
359	0.475
360	0.473
360	0.471
360	0.468
361	0.466
361	0.464
362	0.463
362	0.46
363	0.458
363	0.457
364	0.454
364	0.452
365	0.45
365	0.448
366	0.446
366	0.444
366	0.443
367	0.441
367	0.439
368	0.437
368	0.435
369	0.434
369	0.432
370	0.43
370	0.429
371	0.427
371	0.426
372	0.424
372	0.423
372	0.421
373	0.42
373	0.419
374	0.417
374	0.416
375	0.415
375	0.413
376	0.412
376	0.411
377	0.41
377	0.409
378	0.407
378	0.406
378	0.405
379	0.404
379	0.403
380	0.402
380	0.401
381	0.4
381	0.399
382	0.398
382	0.398
383	0.397
383	0.396
383	0.395
384	0.394
384	0.394
385	0.393
385	0.392
386	0.391
386	0.391
387	0.39
387	0.389
388	0.388
388	0.387
389	0.387
389	0.386
389	0.385
390	0.385
390	0.384
391	0.383
391	0.383
392	0.383
392	0.382
393	0.382
393	0.381
394	0.381
394	0.38
394	0.379
395	0.379
395	0.378
396	0.378
396	0.377
397	0.376
397	0.375
398	0.375
398	0.374
399	0.373
399	0.373
400	0.372
400	0.372
400	0.371
401	0.371
401	0.37
402	0.37
402	0.37
403	0.369
403	0.369
404	0.368
404	0.368
405	0.367
405	0.367
405	0.366
406	0.366
406	0.365
407	0.365
407	0.364
408	0.364
408	0.363
409	0.363
409	0.362
410	0.362
410	0.361
411	0.361
411	0.361
411	0.36
412	0.36
412	0.36
413	0.359
413	0.359
414	0.358
414	0.358
415	0.358
415	0.357
416	0.357
416	0.356
416	0.356
417	0.355
417	0.355
418	0.355
418	0.354
419	0.354
419	0.353
420	0.353
420	0.352
421	0.352
421	0.352
421	0.351
422	0.351
422	0.35
423	0.35
423	0.349
424	0.349
424	0.349
425	0.348
425	0.348
426	0.348
426	0.347
427	0.347
427	0.347
427	0.346
428	0.346
428	0.346
429	0.345
429	0.345
430	0.345
430	0.345
431	0.344
431	0.344
432	0.344
432	0.344
432	0.343
433	0.343
433	0.343
434	0.343
434	0.342
435	0.342
435	0.342
436	0.342
436	0.342
437	0.342
437	0.341
437	0.341
438	0.341
438	0.341
439	0.341
439	0.341
440	0.34
440	0.34
441	0.34
441	0.339
442	0.339
442	0.339
442	0.339
443	0.339
443	0.339
444	0.338
444	0.338
445	0.338
445	0.338
446	0.338
446	0.338
447	0.338
447	0.338
447	0.337
448	0.338
448	0.337
449	0.337
449	0.337
450	0.337
450	0.337
451	0.337
451	0.337
452	0.337
452	0.337
452	0.337
453	0.337
453	0.337
454	0.337
454	0.336
455	0.336
455	0.336
456	0.336
456	0.336
457	0.336
457	0.336
458	0.336
458	0.336
458	0.336
459	0.336
459	0.336
460	0.336
460	0.336
461	0.336
461	0.336
462	0.336
462	0.336
463	0.336
463	0.336
463	0.336
464	0.336
464	0.336
465	0.336
465	0.336
466	0.336
466	0.336
467	0.337
467	0.337
467	0.337
468	0.337
468	0.337
469	0.337
469	0.338
470	0.338
470	0.338
471	0.339
471	0.339
472	0.34
472	0.34
472	0.34
473	0.341
473	0.342
474	0.342
474	0.342
475	0.343
475	0.343
476	0.343
476	0.344
477	0.344
477	0.345
477	0.345
478	0.346
478	0.346
479	0.347
479	0.348
480	0.349
480	0.35
481	0.35
481	0.351
482	0.351
482	0.352
482	0.353
483	0.354
483	0.355
484	0.356
484	0.356
485	0.357
485	0.357
486	0.358
486	0.359
487	0.36
487	0.36
487	0.361
488	0.362
488	0.363
489	0.364
489	0.366
490	0.367
490	0.368
491	0.37
491	0.371
492	0.372
492	0.374
492	0.375
493	0.376
493	0.378
494	0.379
494	0.381
495	0.382
495	0.384
496	0.385
496	0.387
496	0.388
497	0.389
497	0.39
498	0.392
498	0.393
499	0.394
499	0.395
500	0.397
500	0.399
501	0.4
501	0.401
501	0.402
502	0.404
502	0.405
503	0.407
503	0.408
504	0.41
504	0.411
505	0.412
505	0.413
506	0.415
506	0.416
506	0.417
507	0.419
507	0.42
508	0.421
508	0.423
509	0.424
509	0.425
510	0.426
510	0.428
511	0.429
511	0.43
511	0.432
512	0.433
512	0.433
513	0.434
513	0.435
514	0.436
514	0.437
515	0.438
515	0.439
515	0.439
516	0.44
516	0.441
517	0.441
517	0.442
518	0.443
518	0.443
519	0.443
519	0.443
520	0.444
520	0.444
520	0.444
521	0.444
521	0.444
522	0.444
522	0.443
523	0.443
523	0.443
524	0.443
524	0.442
524	0.442
525	0.442
525	0.441
526	0.441
526	0.44
527	0.44
527	0.439
528	0.438
528	0.438
529	0.437
529	0.436
529	0.434
530	0.433
530	0.432
531	0.431
531	0.429
532	0.428
532	0.427
533	0.425
533	0.424
533	0.423
534	0.421
534	0.42
535	0.419
535	0.417
536	0.416
536	0.414
537	0.412
537	0.41
538	0.409
538	0.406
538	0.405
539	0.403
539	0.401
540	0.399
540	0.397
541	0.395
541	0.393
542	0.391
542	0.389
542	0.387
543	0.384
543	0.382
544	0.38
544	0.378
545	0.376
545	0.373
546	0.371
546	0.369
547	0.367
547	0.364
547	0.362
548	0.36
548	0.358
549	0.356
549	0.354
550	0.352
550	0.35
551	0.347
551	0.345
551	0.342
552	0.34
552	0.338
553	0.335
553	0.333
554	0.331
554	0.329
555	0.326
555	0.324
556	0.321
556	0.319
556	0.317
557	0.315
557	0.314
558	0.312
558	0.31
559	0.309
559	0.307
560	0.305
560	0.303
560	0.301
561	0.3
561	0.298
562	0.296
562	0.293
563	0.291
563	0.289
564	0.287
564	0.285
564	0.283
565	0.281
565	0.28
566	0.278
566	0.276
567	0.274
567	0.273
568	0.271
568	0.27
568	0.268
569	0.267
569	0.266
570	0.264
570	0.262
571	0.26
571	0.259
572	0.257
572	0.255
573	0.254
573	0.252
573	0.25
574	0.249
574	0.247
575	0.246
575	0.245
576	0.244
576	0.242
577	0.24
577	0.239
577	0.238
578	0.237
578	0.235
579	0.235
579	0.234
580	0.232
580	0.231
581	0.229
581	0.228
581	0.227
582	0.226
582	0.226
583	0.225
583	0.224
584	0.222
584	0.22
585	0.219
585	0.218
585	0.217
586	0.215
586	0.214
587	0.213
587	0.211
588	0.21
588	0.209
589	0.208
589	0.207
590	0.207
590	0.206
590	0.206
591	0.205
591	0.204
592	0.203
592	0.202
593	0.201
593	0.201
594	0.2
594	0.199
594	0.198
595	0.197
595	0.196
596	0.194
596	0.194
597	0.194
597	0.194
598	0.193
598	0.192
598	0.192
599	0.191
599	0.19
600	0.189
600	0.189
601	0.188
601	0.187
602	0.186
602	0.185
602	0.184
603	0.184
603	0.183
604	0.183
604	0.182
605	0.182
605	0.182
606	0.181
606	0.18
606	0.179
607	0.179
607	0.178
608	0.178
608	0.177
609	0.176
609	0.175
610	0.174
610	0.174
610	0.173
611	0.173
611	0.173
612	0.172
612	0.172
613	0.172
613	0.171
614	0.171
614	0.17
614	0.169
615	0.169
615	0.169
616	0.168
616	0.168
617	0.167
617	0.167
618	0.167
618	0.167
618	0.167
619	0.166
619	0.167
620	0.167
620	0.166
621	0.165
621	0.165
622	0.164
622	0.163
622	0.162
623	0.161
623	0.161
624	0.16
624	0.159
625	0.159
625	0.159
626	0.158
626	0.158
626	0.158
627	0.157
627	0.157
628	0.156
628	0.156
629	0.155
629	0.155
630	0.154
630	0.153
630	0.153
631	0.153
631	0.153
632	0.153
632	0.152
633	0.152
633	0.152
634	0.152
634	0.152
634	0.152
635	0.151
635	0.15
636	0.15
636	0.15
637	0.149
637	0.149
638	0.148
638	0.148
638	0.148
639	0.147
639	0.147
640	0.147
640	0.147
641	0.146
641	0.146
642	0.146
642	0.145
642	0.145
643	0.145
643	0.145
644	0.145
644	0.144
645	0.144
645	0.144
646	0.144
646	0.143
646	0.143
647	0.143
647	0.142
648	0.142
648	0.141
649	0.141
649	0.141
650	0.141
650	0.141
650	0.141
651	0.141
651	0.141
652	0.141
652	0.141
653	0.142
653	0.143
653	0.15
654	0.119
654	0.096
655	0.095
655	0.095
656	0.095
656	0.095
657	0.095
657	0.095
657	0.095
658	0.094
658	0.084
659	0.106
659	0.134
660	0.139
660	0.139
661	0.139
661	0.138
661	0.137
662	0.137
662	0.136
663	0.136
663	0.135
664	0.134
664	0.134
665	0.133
665	0.133
665	0.133
666	0.133
666	0.134
667	0.134
667	0.134
668	0.134
668	0.135
669	0.135
669	0.135
669	0.135
670	0.135
670	0.135
671	0.135
671	0.134
672	0.134
672	0.133
672	0.133
673	0.133
673	0.132
674	0.132
674	0.131
675	0.131
675	0.131
676	0.131
676	0.131
676	0.13
677	0.13
677	0.13
678	0.13
678	0.129
679	0.129
679	0.129
680	0.129
680	0.129
680	0.128
681	0.129
681	0.129
682	0.13
682	0.13
683	0.13
683	0.131
684	0.132
684	0.131
684	0.131
685	0.131
685	0.131
686	0.131
686	0.131
687	0.13
687	0.13
687	0.129
688	0.129
688	0.128
689	0.128
689	0.129
690	0.128
690	0.128
691	0.128
691	0.128
691	0.129
692	0.129
692	0.129
693	0.129
693	0.13
694	0.129
694	0.129
695	0.13
695	0.131
695	0.131
696	0.13
696	0.13
697	0.13
697	0.129
698	0.129
698	0.128
698	0.128
699	0.128
699	0.128
700	0.127
700	0.128
701	0.128
701	0.128
702	0.128
702	0.128
702	0.129
703	0.128
703	0.128
704	0.128
704	0.128
705	0.127
705	0.126
705	0.126
706	0.126
706	0.126
707	0.125
707	0.125
708	0.126
708	0.125
709	0.125
709	0.125
709	0.124
710	0.123
710	0.123
711	0.123
711	0.122
712	0.122
712	0.121
713	0.121
713	0.121
713	0.121
714	0.121
714	0.121
715	0.121
715	0.12
716	0.12
716	0.12
716	0.12
717	0.119
717	0.119
718	0.118
718	0.118
719	0.118
719	0.118
720	0.118
720	0.118
720	0.119
721	0.119
721	0.119
722	0.12
722	0.119
723	0.12
723	0.12
723	0.12
724	0.119
724	0.119
725	0.118
725	0.117
726	0.117
726	0.116
727	0.116
727	0.115
727	0.115
728	0.115
728	0.115
729	0.115
729	0.115
730	0.115
730	0.115
730	0.115
731	0.116
731	0.116
732	0.116
732	0.117
733	0.116
733	0.116
734	0.116
734	0.116
734	0.116
735	0.116
735	0.116
736	0.115
736	0.114
737	0.114
737	0.114
737	0.113
738	0.112
738	0.111
739	0.111
739	0.11
740	0.11
740	0.109
741	0.109
741	0.108
741	0.108
742	0.108
742	0.108
743	0.108
743	0.109
744	0.109
744	0.109
744	0.11
745	0.11
745	0.11
746	0.11
746	0.11
747	0.11
747	0.11
748	0.11
748	0.11
748	0.11
749	0.109
749	0.109
750	0.109
750	0.109
751	0.109
751	0.109
751	0.109
752	0.108
752	0.108
753	0.107
753	0.107
754	0.106
754	0.106
754	0.106
755	0.105
755	0.105
756	0.104
756	0.103
757	0.103
757	0.103
758	0.102
758	0.102
758	0.102
759	0.102
759	0.101
760	0.101
760	0.1
761	0.101
761	0.101
761	0.101
762	0.101
762	0.101
763	0.101
763	0.101
764	0.101
764	0.101
764	0.101
765	0.1
765	0.1
766	0.1
766	0.1
767	0.099
767	0.098
768	0.097
768	0.097
768	0.097
769	0.096
769	0.096
770	0.095
770	0.095
771	0.095
771	0.095
771	0.095
772	0.095
772	0.095
773	0.095
773	0.095
774	0.095
774	0.095
775	0.096
775	0.096
775	0.095
776	0.095
776	0.095
777	0.095
777	0.095
778	0.095
778	0.094
778	0.094
779	0.094
779	0.093
780	0.093
780	0.092
781	0.092
781	0.092
781	0.092
782	0.092
782	0.092
783	0.092
783	0.092
784	0.092
784	0.091
784	0.092
785	0.091
785	0.091
786	0.091
786	0.091
787	0.09
787	0.09
788	0.089
788	0.089
788	0.088
789	0.088
789	0.088
790	0.088
790	0.088
791	0.088
791	0.088
791	0.088
792	0.088
792	0.088
793	0.088
793	0.088
794	0.088
794	0.088
794	0.088
795	0.088
795	0.088
796	0.088
796	0.088
797	0.088
797	0.088
797	0.088
798	0.088
798	0.087
799	0.087
799	0.086
800	0.085
800	0.084
801	0.084
801	0.083
801	0.083
802	0.082
802	0.082
803	0.083
803	0.083
804	0.083
804	0.084
804	0.084
805	0.084
805	0.083
806	0.083
806	0.083
807	0.083
807	0.082
807	0.082
808	0.081
808	0.081
809	0.08
809	0.08
810	0.079
810	0.079
810	0.079
811	0.079
811	0.079
812	0.08
812	0.08
813	0.08
813	0.08
813	0.081
814	0.081
814	0.082
815	0.082
815	0.082
816	0.082
816	0.081
817	0.081
817	0.08
817	0.08
818	0.08
818	0.079
819	0.079
819	0.078
820	0.078
820	0.078
820	0.077
821	0.078
821	0.078
822	0.077
822	0.077
823	0.077
823	0.077
823	0.077
824	0.077
824	0.078
825	0.078
825	0.078
826	0.078
826	0.077
826	0.077
827	0.076
827	0.076
828	0.076
828	0.075
829	0.075
829	0.075
829	0.074
830	0.074
830	0.074
831	0.075
831	0.075
832	0.075
832	0.075
832	0.075
833	0.075
833	0.075
834	0.075
834	0.075
835	0.075
835	0.076
835	0.076
836	0.076
836	0.077
837	0.077
837	0.077
838	0.077
838	0.077
839	0.076
839	0.075
839	0.075
840	0.073
840	0.072
841	0.071
841	0.07
842	0.069
842	0.068
842	0.068
843	0.067
843	0.067
844	0.066
844	0.066
845	0.066
845	0.066
845	0.066
846	0.066
846	0.066
847	0.066
847	0.066
848	0.067
848	0.067
848	0.067
849	0.068
849	0.068
850	0.068
850	0.069
851	0.069
851	0.069
851	0.069
852	0.068
852	0.068
853	0.067
853	0.066
854	0.066
854	0.066
854	0.066
855	0.066
855	0.066
856	0.067
856	0.067
857	0.068
857	0.069
857	0.069
858	0.069
858	0.069
859	0.068
859	0.067
860	0.066
860	0.065
860	0.064
861	0.063
861	0.062
862	0.061
862	0.06
863	0.059
863	0.059
863	0.059
864	0.059
864	0.059
865	0.06
865	0.06
866	0.06
866	0.06
866	0.06
867	0.06
867	0.06
868	0.06
868	0.06
869	0.059
869	0.059
869	0.059
870	0.058
870	0.058
871	0.059
871	0.059
872	0.06
872	0.06
872	0.06
873	0.061
873	0.061
874	0.061
874	0.061
875	0.061
875	0.061
875	0.061
876	0.061
876	0.06
877	0.06
877	0.061
878	0.061
878	0.061
878	0.062
879	0.063
879	0.063
880	0.063
880	0.064
881	0.064
881	0.064
881	0.063
882	0.063
882	0.062
883	0.062
883	0.061
884	0.06
884	0.06
884	0.059
885	0.059
885	0.058
886	0.058
886	0.057
887	0.057
887	0.057
887	0.056
888	0.056
888	0.056
889	0.055
889	0.055
890	0.056
890	0.056
890	0.056
891	0.056
891	0.057
892	0.057
892	0.058
893	0.058
893	0.059
893	0.059
894	0.06
894	0.06
895	0.06
895	0.06
895	0.06
896	0.06
896	0.06
897	0.059
897	0.058
898	0.058
898	0.057
898	0.057
899	0.056
899	0.056
900	0.055
900	0.055
901	0.055
901	0.055
901	0.055
902	0.055
902	0.055
903	0.055
903	0.055
904	0.056
904	0.056
904	0.055
905	0.055
905	0.055
906	0.055
906	0.055
907	0.056
907	0.056
907	0.056
908	0.056
908	0.056
909	0.056
909	0.057
910	0.057
910	0.057
910	0.057
911	0.057
911	0.057
912	0.058
912	0.058
913	0.058
913	0.058
913	0.058
914	0.058
914	0.058
915	0.058
915	0.058
916	0.058
916	0.057
916	0.056
917	0.055
917	0.055
918	0.054
918	0.053
918	0.052
919	0.052
919	0.051
920	0.051
920	0.05
921	0.05
921	0.05
921	0.05
922	0.05
922	0.05
923	0.05
923	0.05
924	0.05
924	0.05
924	0.05
925	0.051
925	0.051
926	0.051
926	0.051
927	0.051
927	0.051
927	0.051
928	0.051
928	0.05
929	0.05
929	0.05
930	0.05
930	0.05
930	0.049
931	0.049
931	0.049
932	0.049
932	0.049
933	0.049
933	0.049
933	0.049
934	0.048
934	0.048
935	0.048
935	0.048
935	0.048
936	0.048
936	0.048
937	0.048
937	0.049
938	0.049
938	0.049
938	0.05
939	0.05
939	0.05
940	0.05
940	0.05
941	0.051
941	0.051
941	0.052
942	0.052
942	0.052
943	0.053
943	0.053
944	0.053
944	0.053
944	0.054
945	0.054
945	0.054
946	0.054
946	0.054
946	0.054
947	0.054
947	0.054
948	0.054
948	0.054
949	0.054
949	0.054
949	0.053
950	0.053
950	0.053
951	0.053
951	0.052
952	0.052
952	0.051
952	0.051
953	0.051
953	0.05
954	0.05
954	0.049
955	0.049
955	0.048
955	0.048
956	0.048
956	0.048
957	0.048
957	0.048
957	0.048
958	0.048
958	0.048
959	0.048
959	0.049
960	0.049
960	0.05
960	0.05
961	0.05
961	0.05
962	0.05
962	0.05
963	0.051
963	0.051
963	0.051
964	0.051
964	0.051
965	0.051
965	0.051
966	0.051
966	0.051
966	0.051
967	0.051
967	0.051
968	0.051
968	0.05
968	0.05
969	0.05
969	0.05
970	0.05
970	0.049
971	0.049
971	0.049
971	0.049
972	0.049
972	0.05
973	0.05
973	0.05
974	0.05
974	0.051
974	0.051
975	0.052
975	0.052
976	0.052
976	0.053
976	0.053
977	0.053
977	0.053
978	0.053
978	0.053
979	0.054
979	0.053
979	0.053
980	0.053
980	0.052
981	0.052
981	0.051
982	0.051
982	0.05
982	0.05
983	0.049
983	0.048
984	0.047
984	0.046
984	0.045
985	0.045
985	0.044
986	0.043
986	0.043
987	0.042
987	0.042
987	0.042
988	0.042
988	0.041
989	0.041
989	0.041
990	0.04
990	0.04
990	0.04
991	0.04
991	0.039
992	0.039
992	0.039
992	0.038
993	0.038
993	0.038
994	0.038
994	0.038
995	0.039
995	0.039
995	0.039
996	0.04
996	0.04
997	0.041
997	0.042
997	0.043
998	0.044
998	0.045
999	0.046
999	0.047
1000	0.049
1000	0.05
1000	0.05
1001	0.051
1001	0.052
1002	0.052
1002	0.052
1003	0.053
1003	0.052
1003	0.052
1004	0.051
1004	0.051
1005	0.05
1005	0.05
1005	0.049
1006	0.048
1006	0.048
1007	0.047
1007	0.046
1008	0.046
1008	0.045
1008	0.045
1009	0.045
1009	0.045
1010	0.044
1010	0.044
1010	0.044
1011	0.044
1011	0.043
1012	0.043
1012	0.043
1013	0.043
1013	0.043
1013	0.043
1014	0.043
1014	0.043
1015	0.043
1015	0.043
1016	0.043
1016	0.043
1016	0.043
1017	0.043
1017	0.043
1018	0.043
1018	0.043
1018	0.042
1019	0.043
1019	0.042
1020	0.042
1020	0.043
1021	0.043
1021	0.043
1021	0.044
1022	0.044
1022	0.044
1023	0.044
1023	0.044
1023	0.044
1024	0.044
1024	0.043
1025	0.043
1025	0.043
1026	0.042
1026	0.041
1026	0.041
1027	0.04
1027	0.039
1028	0.039
1028	0.038
1028	0.038
1029	0.038
1029	0.038
1030	0.038
1030	0.038
1031	0.039
1031	0.039
1031	0.039
1032	0.04
1032	0.04
1033	0.04
1033	0.041
1033	0.041
1034	0.041
1034	0.041
1035	0.041
1035	0.041
1036	0.041
1036	0.041
1036	0.041
1037	0.041
1037	0.041
1038	0.041
1038	0.041
1039	0.041
1039	0.041
1039	0.041
1040	0.042
1040	0.042
1041	0.042
1041	0.042
1041	0.042
1042	0.043
1042	0.043
1043	0.043
1043	0.043
1044	0.043
1044	0.042
1044	0.043
1045	0.043
1045	0.043
1046	0.043
1046	0.043
1046	0.044
1047	0.044
1047	0.044
1048	0.045
1048	0.045
1049	0.045
1049	0.045
1049	0.045
1050	0.044
1050	0.043
1051	0.043
1051	0.042
1051	0.041
1052	0.04
1052	0.039
1053	0.038
1053	0.037
1053	0.036
1054	0.036
1054	0.035
1055	0.035
1055	0.035
1056	0.034
1056	0.034
1056	0.034
1057	0.033
1057	0.033
1058	0.033
1058	0.032
1058	0.032
1059	0.031
1059	0.031
1060	0.031
1060	0.03
1061	0.03
1061	0.029
1061	0.03
1062	0.03
1062	0.03
1063	0.03
1063	0.029
1063	0.029
1064	0.029
1064	0.029
1065	0.029
1065	0.029
1066	0.029
1066	0.029
1066	0.028
1067	0.028
1067	0.029
1068	0.028
1068	0.029
1068	0.028
1069	0.028
1069	0.028
1070	0.027
1070	0.027
1071	0.026
1071	0.026
1071	0.025
1072	0.024
1072	0.024
1073	0.023
1073	0.023
1073	0.023
1074	0.023
1074	0.023
1075	0.023
1075	0.023
1076	0.023
1076	0.024
1076	0.024
1077	0.025
1077	0.025
1078	0.025
1078	0.025
1078	0.025
1079	0.026
1079	0.026
1080	0.026
1080	0.026
1080	0.027
1081	0.027
1081	0.027
1082	0.028
1082	0.029
1083	0.028
1083	0.029
1083	0.029
1084	0.029
1084	0.029
1085	0.029
1085	0.028
1085	0.028
1086	0.028
1086	0.027
1087	0.026
1087	0.025
1088	0.025
1088	0.024
1088	0.024
1089	0.023
1089	0.022
1090	0.021
1090	0.021
1090	0.02
1091	0.02
1091	0.02
1092	0.021
1092	0.021
1092	0.021
1093	0.02
1093	0.021
1094	0.02
1094	0.02
1095	0.02
1095	0.02
1095	0.02
1096	0.019
1096	0.018
1097	0.018
1097	0.017
1097	0.017
1098	0.016
1098	0.015
1099	0.014
1099	0.013
1100	0.012
1100	0.011
1100	0.011
1101	0.01
1101	0.009
1102	0.008
1102	0.007
1102	0.006
1103	0.006
1103	0.006
1104	0.007
1104	0.007
1104	0.006
1105	0.005
1105	0.003
1106	0.002
1106	0.002
1107	0
1107	-0
1107	-0.002
1108	-0.003
1108	-0.005
1109	-0.007
1109	-0.009
1109	-0.008
1110	-0.007
1110	-0.009
1111	-0.01
1111	-0.01
