Data from reversibility-20sec_Absorbance__7701__000000000007701.txt Node

Date: Thu Dec 07 07:00:06 CET 2023
User: Marek
Spectrometer: MAYP115816
Trigger mode: 0
Integration Time (sec): 2.000000E-1
Scans to average: 10
Electric dark correction enabled: true
Nonlinearity correction enabled: true
Boxcar width: 5
XAxis mode: Wavelengths
Number of Pixels in Spectrum: 2068
>>>>>Begin Spectral Data<<<<<
199	-0.105
199	-0.081
200	-0.019
200	0.028
201	0.057
201	0.072
202	0.082
202	0.09
203	0.095
203	0.099
204	0.113
204	0.126
205	0.138
205	0.141
205	0.14
206	0.137
206	0.137
207	0.138
207	0.138
208	0.141
208	0.137
209	0.138
209	0.136
210	0.137
210	0.14
211	0.143
211	0.148
212	0.145
212	0.146
213	0.15
213	0.151
213	0.152
214	0.156
214	0.158
215	0.16
215	0.158
216	0.157
216	0.156
217	0.163
217	0.165
218	0.162
218	0.165
219	0.17
219	0.169
220	0.174
220	0.172
221	0.175
221	0.179
221	0.185
222	0.19
222	0.195
223	0.205
223	0.212
224	0.22
224	0.228
225	0.236
225	0.246
226	0.256
226	0.268
227	0.277
227	0.287
228	0.303
228	0.316
229	0.33
229	0.352
229	0.375
230	0.398
230	0.43
231	0.462
231	0.496
232	0.532
232	0.575
233	0.619
233	0.663
234	0.716
234	0.771
235	0.823
235	0.875
236	0.925
236	0.976
236	1.027
237	1.078
237	1.124
238	1.169
238	1.216
239	1.26
239	1.3
240	1.34
240	1.379
241	1.413
241	1.445
242	1.476
242	1.51
243	1.539
243	1.565
243	1.588
244	1.609
244	1.629
245	1.647
245	1.669
246	1.688
246	1.704
247	1.716
247	1.728
248	1.74
248	1.753
249	1.763
249	1.77
250	1.774
250	1.779
250	1.781
251	1.786
251	1.791
252	1.796
252	1.796
253	1.797
253	1.794
254	1.794
254	1.794
255	1.794
255	1.795
256	1.794
256	1.792
257	1.791
257	1.789
258	1.79
258	1.79
258	1.791
259	1.789
259	1.79
260	1.789
260	1.79
261	1.79
261	1.792
262	1.795
262	1.797
263	1.8
263	1.801
264	1.8
264	1.802
265	1.801
265	1.803
265	1.804
266	1.804
266	1.803
267	1.8
267	1.799
268	1.797
268	1.797
269	1.798
269	1.797
270	1.797
270	1.794
271	1.791
271	1.79
272	1.788
272	1.785
272	1.783
273	1.778
273	1.772
274	1.767
274	1.762
275	1.755
275	1.75
276	1.744
276	1.736
277	1.728
277	1.718
278	1.707
278	1.695
278	1.681
279	1.665
279	1.646
280	1.623
280	1.595
281	1.561
281	1.524
282	1.485
282	1.444
283	1.403
283	1.363
284	1.324
284	1.286
285	1.249
285	1.216
285	1.186
286	1.16
286	1.137
287	1.116
287	1.098
288	1.083
288	1.07
289	1.059
289	1.048
290	1.04
290	1.032
291	1.026
291	1.02
292	1.014
292	1.01
292	1.005
293	1.001
293	0.997
294	0.993
294	0.99
295	0.986
295	0.983
296	0.98
296	0.976
297	0.973
297	0.969
298	0.966
298	0.963
298	0.96
299	0.957
299	0.954
300	0.951
300	0.948
301	0.945
301	0.942
302	0.939
302	0.937
303	0.935
303	0.932
304	0.929
304	0.927
305	0.924
305	0.922
305	0.919
306	0.916
306	0.914
307	0.911
307	0.908
308	0.905
308	0.903
309	0.9
309	0.897
310	0.894
310	0.891
311	0.888
311	0.884
311	0.881
312	0.878
312	0.874
313	0.871
313	0.867
314	0.863
314	0.859
315	0.855
315	0.85
316	0.846
316	0.841
317	0.837
317	0.832
318	0.827
318	0.821
318	0.816
319	0.81
319	0.805
320	0.799
320	0.793
321	0.787
321	0.781
322	0.774
322	0.768
323	0.761
323	0.754
324	0.748
324	0.741
324	0.735
325	0.728
325	0.721
326	0.714
326	0.707
327	0.7
327	0.693
328	0.686
328	0.679
329	0.672
329	0.665
330	0.657
330	0.65
330	0.643
331	0.636
331	0.628
332	0.621
332	0.614
333	0.607
333	0.6
334	0.593
334	0.586
335	0.58
335	0.573
336	0.566
336	0.559
336	0.553
337	0.546
337	0.54
338	0.534
338	0.527
339	0.521
339	0.515
340	0.509
340	0.503
341	0.497
341	0.492
342	0.486
342	0.481
342	0.475
343	0.47
343	0.464
344	0.459
344	0.454
345	0.449
345	0.444
346	0.44
346	0.435
347	0.431
347	0.426
348	0.422
348	0.418
348	0.414
349	0.411
349	0.407
350	0.403
350	0.4
351	0.396
351	0.393
352	0.39
352	0.387
353	0.384
353	0.381
354	0.378
354	0.375
354	0.372
355	0.369
355	0.366
356	0.363
356	0.36
357	0.357
357	0.354
358	0.351
358	0.349
359	0.346
359	0.344
360	0.342
360	0.34
360	0.338
361	0.336
361	0.334
362	0.333
362	0.331
363	0.329
363	0.328
364	0.325
364	0.324
365	0.322
365	0.32
366	0.318
366	0.316
366	0.314
367	0.313
367	0.311
368	0.309
368	0.308
369	0.306
369	0.305
370	0.304
370	0.302
371	0.301
371	0.3
372	0.299
372	0.297
372	0.296
373	0.295
373	0.294
374	0.293
374	0.292
375	0.291
375	0.29
376	0.289
376	0.288
377	0.287
377	0.286
378	0.285
378	0.284
378	0.283
379	0.282
379	0.282
380	0.281
380	0.28
381	0.279
381	0.279
382	0.278
382	0.278
383	0.277
383	0.277
383	0.276
384	0.276
384	0.275
385	0.275
385	0.274
386	0.274
386	0.273
387	0.273
387	0.273
388	0.272
388	0.272
389	0.272
389	0.271
389	0.271
390	0.27
390	0.27
391	0.269
391	0.269
392	0.269
392	0.268
393	0.267
393	0.267
394	0.267
394	0.267
394	0.266
395	0.266
395	0.266
396	0.265
396	0.265
397	0.265
397	0.264
398	0.264
398	0.264
399	0.263
399	0.263
400	0.262
400	0.262
400	0.262
401	0.261
401	0.261
402	0.261
402	0.26
403	0.26
403	0.26
404	0.259
404	0.259
405	0.259
405	0.258
405	0.258
406	0.258
406	0.258
407	0.257
407	0.257
408	0.257
408	0.257
409	0.256
409	0.256
410	0.256
410	0.256
411	0.255
411	0.255
411	0.255
412	0.255
412	0.254
413	0.254
413	0.254
414	0.254
414	0.253
415	0.253
415	0.253
416	0.252
416	0.252
416	0.251
417	0.251
417	0.251
418	0.251
418	0.25
419	0.25
419	0.249
420	0.249
420	0.248
421	0.248
421	0.247
421	0.247
422	0.246
422	0.246
423	0.246
423	0.245
424	0.245
424	0.245
425	0.245
425	0.245
426	0.245
426	0.244
427	0.244
427	0.244
427	0.243
428	0.243
428	0.242
429	0.242
429	0.241
430	0.241
430	0.241
431	0.241
431	0.24
432	0.24
432	0.24
432	0.24
433	0.24
433	0.24
434	0.24
434	0.24
435	0.24
435	0.24
436	0.239
436	0.239
437	0.239
437	0.239
437	0.238
438	0.238
438	0.238
439	0.238
439	0.237
440	0.237
440	0.237
441	0.236
441	0.236
442	0.236
442	0.236
442	0.235
443	0.235
443	0.235
444	0.235
444	0.235
445	0.235
445	0.235
446	0.234
446	0.234
447	0.234
447	0.234
447	0.233
448	0.234
448	0.233
449	0.233
449	0.233
450	0.233
450	0.233
451	0.233
451	0.233
452	0.233
452	0.233
452	0.233
453	0.232
453	0.232
454	0.232
454	0.232
455	0.231
455	0.231
456	0.231
456	0.231
457	0.231
457	0.23
458	0.23
458	0.23
458	0.23
459	0.23
459	0.23
460	0.23
460	0.23
461	0.229
461	0.229
462	0.229
462	0.229
463	0.229
463	0.229
463	0.229
464	0.228
464	0.228
465	0.228
465	0.228
466	0.228
466	0.228
467	0.228
467	0.228
467	0.228
468	0.228
468	0.228
469	0.228
469	0.228
470	0.229
470	0.229
471	0.229
471	0.229
472	0.229
472	0.229
472	0.229
473	0.229
473	0.229
474	0.229
474	0.229
475	0.228
475	0.228
476	0.229
476	0.229
477	0.229
477	0.229
477	0.229
478	0.229
478	0.23
479	0.23
479	0.23
480	0.23
480	0.231
481	0.231
481	0.231
482	0.231
482	0.231
482	0.232
483	0.232
483	0.232
484	0.232
484	0.232
485	0.233
485	0.233
486	0.232
486	0.233
487	0.233
487	0.233
487	0.233
488	0.233
488	0.234
489	0.234
489	0.235
490	0.236
490	0.237
491	0.238
491	0.238
492	0.239
492	0.24
492	0.24
493	0.241
493	0.242
494	0.242
494	0.243
495	0.243
495	0.244
496	0.244
496	0.245
496	0.245
497	0.246
497	0.246
498	0.246
498	0.247
499	0.248
499	0.248
500	0.249
500	0.25
501	0.251
501	0.251
501	0.251
502	0.252
502	0.252
503	0.253
503	0.254
504	0.254
504	0.255
505	0.255
505	0.256
506	0.257
506	0.257
506	0.258
507	0.259
507	0.26
508	0.26
508	0.261
509	0.261
509	0.261
510	0.262
510	0.262
511	0.263
511	0.264
511	0.264
512	0.265
512	0.265
513	0.266
513	0.266
514	0.267
514	0.267
515	0.268
515	0.268
515	0.268
516	0.269
516	0.269
517	0.27
517	0.27
518	0.271
518	0.271
519	0.271
519	0.271
520	0.271
520	0.271
520	0.271
521	0.271
521	0.271
522	0.271
522	0.271
523	0.272
523	0.272
524	0.272
524	0.272
524	0.272
525	0.273
525	0.273
526	0.273
526	0.273
527	0.273
527	0.273
528	0.272
528	0.272
529	0.271
529	0.271
529	0.27
530	0.27
530	0.269
531	0.269
531	0.269
532	0.268
532	0.267
533	0.267
533	0.267
533	0.266
534	0.266
534	0.266
535	0.265
535	0.265
536	0.264
536	0.263
537	0.263
537	0.262
538	0.261
538	0.26
538	0.26
539	0.259
539	0.259
540	0.258
540	0.257
541	0.257
541	0.256
542	0.255
542	0.255
542	0.254
543	0.253
543	0.253
544	0.252
544	0.251
545	0.25
545	0.249
546	0.248
546	0.247
547	0.246
547	0.245
547	0.244
548	0.244
548	0.243
549	0.242
549	0.242
550	0.241
550	0.24
551	0.239
551	0.239
551	0.238
552	0.237
552	0.236
553	0.235
553	0.235
554	0.234
554	0.233
555	0.232
555	0.231
556	0.23
556	0.229
556	0.228
557	0.228
557	0.228
558	0.227
558	0.226
559	0.226
559	0.225
560	0.225
560	0.224
560	0.223
561	0.223
561	0.222
562	0.221
562	0.22
563	0.219
563	0.218
564	0.217
564	0.216
564	0.215
565	0.215
565	0.214
566	0.213
566	0.213
567	0.212
567	0.212
568	0.211
568	0.21
568	0.21
569	0.209
569	0.208
570	0.207
570	0.206
571	0.205
571	0.204
572	0.203
572	0.202
573	0.202
573	0.201
573	0.2
574	0.199
574	0.199
575	0.199
575	0.199
576	0.198
576	0.197
577	0.196
577	0.196
577	0.195
578	0.194
578	0.194
579	0.194
579	0.194
580	0.193
580	0.192
581	0.191
581	0.191
581	0.19
582	0.19
582	0.19
583	0.19
583	0.189
584	0.188
584	0.186
585	0.186
585	0.186
585	0.185
586	0.185
586	0.185
587	0.184
587	0.184
588	0.183
588	0.183
589	0.183
589	0.183
590	0.182
590	0.182
590	0.182
591	0.182
591	0.181
592	0.18
592	0.179
593	0.178
593	0.178
594	0.177
594	0.177
594	0.176
595	0.175
595	0.175
596	0.174
596	0.174
597	0.175
597	0.175
598	0.174
598	0.174
598	0.174
599	0.173
599	0.173
600	0.172
600	0.172
601	0.172
601	0.172
602	0.171
602	0.17
602	0.17
603	0.17
603	0.17
604	0.17
604	0.17
605	0.17
605	0.17
606	0.169
606	0.168
606	0.168
607	0.168
607	0.167
608	0.167
608	0.166
609	0.165
609	0.164
610	0.164
610	0.163
610	0.163
611	0.163
611	0.163
612	0.163
612	0.164
613	0.164
613	0.164
614	0.164
614	0.164
614	0.164
615	0.164
615	0.163
616	0.163
616	0.163
617	0.163
617	0.163
618	0.163
618	0.163
618	0.162
619	0.162
619	0.162
620	0.162
620	0.162
621	0.162
621	0.161
622	0.161
622	0.16
622	0.159
623	0.159
623	0.158
624	0.158
624	0.157
625	0.157
625	0.157
626	0.156
626	0.156
626	0.156
627	0.157
627	0.157
628	0.157
628	0.157
629	0.156
629	0.156
630	0.156
630	0.155
630	0.156
631	0.155
631	0.155
632	0.154
632	0.154
633	0.153
633	0.153
634	0.153
634	0.153
634	0.153
635	0.153
635	0.153
636	0.153
636	0.153
637	0.153
637	0.153
638	0.153
638	0.153
638	0.152
639	0.152
639	0.152
640	0.152
640	0.151
641	0.151
641	0.151
642	0.151
642	0.151
642	0.151
643	0.151
643	0.151
644	0.151
644	0.151
645	0.151
645	0.151
646	0.151
646	0.151
646	0.151
647	0.151
647	0.151
648	0.15
648	0.15
649	0.149
649	0.149
650	0.149
650	0.149
650	0.15
651	0.149
651	0.149
652	0.15
652	0.15
653	0.15
653	0.152
653	0.157
654	0.124
654	0.1
655	0.099
655	0.099
656	0.099
656	0.1
657	0.1
657	0.1
657	0.1
658	0.099
658	0.091
659	0.114
659	0.145
660	0.15
660	0.15
661	0.15
661	0.15
661	0.149
662	0.149
662	0.149
663	0.148
663	0.148
664	0.148
664	0.147
665	0.147
665	0.147
665	0.147
666	0.147
666	0.147
667	0.148
667	0.148
668	0.148
668	0.148
669	0.148
669	0.149
669	0.149
670	0.149
670	0.149
671	0.149
671	0.148
672	0.148
672	0.147
672	0.147
673	0.146
673	0.146
674	0.146
674	0.145
675	0.145
675	0.145
676	0.146
676	0.146
676	0.146
677	0.146
677	0.147
678	0.147
678	0.147
679	0.147
679	0.147
680	0.147
680	0.147
680	0.147
681	0.147
681	0.148
682	0.148
682	0.148
683	0.148
683	0.149
684	0.149
684	0.148
684	0.148
685	0.148
685	0.148
686	0.148
686	0.148
687	0.148
687	0.148
687	0.148
688	0.148
688	0.148
689	0.149
689	0.15
690	0.149
690	0.149
691	0.149
691	0.149
691	0.149
692	0.149
692	0.149
693	0.15
693	0.15
694	0.15
694	0.15
695	0.151
695	0.151
695	0.152
696	0.152
696	0.152
697	0.152
697	0.152
698	0.152
698	0.152
698	0.152
699	0.152
699	0.151
700	0.15
700	0.15
701	0.15
701	0.149
702	0.149
702	0.148
702	0.147
703	0.147
703	0.146
704	0.146
704	0.145
705	0.146
705	0.146
705	0.146
706	0.146
706	0.146
707	0.147
707	0.147
708	0.148
708	0.148
709	0.148
709	0.148
709	0.148
710	0.148
710	0.148
711	0.149
711	0.149
712	0.149
712	0.149
713	0.149
713	0.148
713	0.148
714	0.148
714	0.148
715	0.147
715	0.147
716	0.146
716	0.146
716	0.145
717	0.145
717	0.145
718	0.145
718	0.145
719	0.146
719	0.147
720	0.148
720	0.148
720	0.149
721	0.15
721	0.151
722	0.152
722	0.152
723	0.153
723	0.153
723	0.153
724	0.152
724	0.152
725	0.151
725	0.15
726	0.149
726	0.149
727	0.148
727	0.148
727	0.148
728	0.147
728	0.148
729	0.148
729	0.148
730	0.148
730	0.149
730	0.149
731	0.15
731	0.15
732	0.151
732	0.151
733	0.151
733	0.151
734	0.151
734	0.151
734	0.152
735	0.152
735	0.152
736	0.151
736	0.151
737	0.15
737	0.15
737	0.15
738	0.15
738	0.15
739	0.15
739	0.15
740	0.15
740	0.15
741	0.151
741	0.151
741	0.152
742	0.152
742	0.153
743	0.154
743	0.154
744	0.154
744	0.155
744	0.154
745	0.154
745	0.154
746	0.154
746	0.154
747	0.154
747	0.154
748	0.154
748	0.154
748	0.154
749	0.154
749	0.155
750	0.155
750	0.155
751	0.156
751	0.156
751	0.156
752	0.156
752	0.155
753	0.155
753	0.154
754	0.154
754	0.153
754	0.153
755	0.153
755	0.152
756	0.152
756	0.151
757	0.151
757	0.151
758	0.151
758	0.151
758	0.151
759	0.151
759	0.151
760	0.151
760	0.151
761	0.151
761	0.151
761	0.152
762	0.152
762	0.152
763	0.152
763	0.152
764	0.152
764	0.152
764	0.152
765	0.151
765	0.151
766	0.151
766	0.151
767	0.151
767	0.15
768	0.15
768	0.15
768	0.151
769	0.151
769	0.151
770	0.151
770	0.152
771	0.152
771	0.152
771	0.152
772	0.152
772	0.153
773	0.153
773	0.153
774	0.153
774	0.153
775	0.154
775	0.154
775	0.155
776	0.155
776	0.156
777	0.157
777	0.157
778	0.157
778	0.157
778	0.156
779	0.156
779	0.155
780	0.153
780	0.152
781	0.151
781	0.15
781	0.149
782	0.148
782	0.147
783	0.147
783	0.147
784	0.147
784	0.148
784	0.148
785	0.149
785	0.149
786	0.15
786	0.15
787	0.151
787	0.151
788	0.151
788	0.151
788	0.151
789	0.151
789	0.151
790	0.151
790	0.151
791	0.151
791	0.151
791	0.151
792	0.151
792	0.151
793	0.15
793	0.15
794	0.15
794	0.149
794	0.149
795	0.149
795	0.149
796	0.149
796	0.149
797	0.149
797	0.149
797	0.149
798	0.149
798	0.15
799	0.15
799	0.15
800	0.15
800	0.149
801	0.15
801	0.15
801	0.15
802	0.15
802	0.151
803	0.151
803	0.152
804	0.152
804	0.153
804	0.153
805	0.153
805	0.153
806	0.153
806	0.152
807	0.152
807	0.152
807	0.152
808	0.151
808	0.151
809	0.151
809	0.15
810	0.15
810	0.15
810	0.15
811	0.15
811	0.151
812	0.151
812	0.151
813	0.151
813	0.151
813	0.152
814	0.152
814	0.152
815	0.152
815	0.152
816	0.152
816	0.151
817	0.151
817	0.151
817	0.15
818	0.149
818	0.149
819	0.149
819	0.148
820	0.147
820	0.147
820	0.146
821	0.146
821	0.146
822	0.146
822	0.145
823	0.145
823	0.145
823	0.145
824	0.146
824	0.147
825	0.148
825	0.149
826	0.149
826	0.15
826	0.151
827	0.151
827	0.152
828	0.152
828	0.153
829	0.153
829	0.153
829	0.153
830	0.153
830	0.154
831	0.155
831	0.155
832	0.154
832	0.155
832	0.154
833	0.154
833	0.154
834	0.153
834	0.153
835	0.152
835	0.151
835	0.151
836	0.15
836	0.15
837	0.149
837	0.149
838	0.148
838	0.147
839	0.146
839	0.145
839	0.144
840	0.143
840	0.143
841	0.141
841	0.14
842	0.14
842	0.139
842	0.138
843	0.137
843	0.137
844	0.136
844	0.136
845	0.136
845	0.135
845	0.135
846	0.135
846	0.135
847	0.136
847	0.136
848	0.137
848	0.137
848	0.137
849	0.136
849	0.136
850	0.136
850	0.135
851	0.135
851	0.135
851	0.134
852	0.134
852	0.133
853	0.133
853	0.134
854	0.134
854	0.135
854	0.136
855	0.137
855	0.139
856	0.14
856	0.141
857	0.142
857	0.143
857	0.144
858	0.144
858	0.144
859	0.144
859	0.144
860	0.143
860	0.143
860	0.142
861	0.141
861	0.14
862	0.139
862	0.138
863	0.138
863	0.137
863	0.137
864	0.136
864	0.136
865	0.136
865	0.136
866	0.136
866	0.136
866	0.136
867	0.136
867	0.136
868	0.137
868	0.137
869	0.137
869	0.136
869	0.136
870	0.136
870	0.136
871	0.136
871	0.136
872	0.136
872	0.135
872	0.135
873	0.135
873	0.134
874	0.134
874	0.134
875	0.133
875	0.133
875	0.133
876	0.133
876	0.132
877	0.132
877	0.132
878	0.132
878	0.131
878	0.132
879	0.131
879	0.131
880	0.131
880	0.131
881	0.131
881	0.131
881	0.131
882	0.131
882	0.131
883	0.131
883	0.131
884	0.131
884	0.132
884	0.132
885	0.131
885	0.131
886	0.131
886	0.131
887	0.13
887	0.13
887	0.129
888	0.129
888	0.129
889	0.129
889	0.129
890	0.129
890	0.129
890	0.129
891	0.129
891	0.13
892	0.129
892	0.129
893	0.129
893	0.129
893	0.128
894	0.128
894	0.127
895	0.127
895	0.126
895	0.126
896	0.127
896	0.127
897	0.127
897	0.127
898	0.127
898	0.127
898	0.127
899	0.127
899	0.127
900	0.127
900	0.127
901	0.127
901	0.126
901	0.126
902	0.125
902	0.125
903	0.125
903	0.124
904	0.124
904	0.123
904	0.123
905	0.122
905	0.122
906	0.121
906	0.121
907	0.121
907	0.121
907	0.121
908	0.121
908	0.12
909	0.12
909	0.12
910	0.12
910	0.12
910	0.119
911	0.119
911	0.118
912	0.118
912	0.118
913	0.117
913	0.117
913	0.116
914	0.116
914	0.116
915	0.115
915	0.115
916	0.115
916	0.114
916	0.114
917	0.113
917	0.113
918	0.112
918	0.112
918	0.111
919	0.111
919	0.111
920	0.11
920	0.11
921	0.11
921	0.11
921	0.11
922	0.11
922	0.11
923	0.11
923	0.111
924	0.111
924	0.111
924	0.111
925	0.112
925	0.112
926	0.112
926	0.113
927	0.113
927	0.114
927	0.114
928	0.114
928	0.114
929	0.115
929	0.115
930	0.115
930	0.115
930	0.115
931	0.115
931	0.115
932	0.114
932	0.114
933	0.114
933	0.113
933	0.112
934	0.111
934	0.11
935	0.11
935	0.109
935	0.109
936	0.108
936	0.107
937	0.107
937	0.107
938	0.106
938	0.105
938	0.105
939	0.104
939	0.103
940	0.103
940	0.103
941	0.102
941	0.102
941	0.103
942	0.103
942	0.103
943	0.104
943	0.104
944	0.104
944	0.105
944	0.105
945	0.106
945	0.106
946	0.107
946	0.107
946	0.107
947	0.108
947	0.108
948	0.108
948	0.108
949	0.107
949	0.107
949	0.106
950	0.105
950	0.105
951	0.104
951	0.103
952	0.102
952	0.101
952	0.1
953	0.099
953	0.098
954	0.098
954	0.097
955	0.097
955	0.097
955	0.097
956	0.098
956	0.098
957	0.099
957	0.1
957	0.1
958	0.101
958	0.102
959	0.102
959	0.103
960	0.103
960	0.103
960	0.103
961	0.103
961	0.103
962	0.102
962	0.102
963	0.102
963	0.101
963	0.101
964	0.1
964	0.1
965	0.099
965	0.099
966	0.099
966	0.099
966	0.099
967	0.1
967	0.1
968	0.1
968	0.101
968	0.101
969	0.1
969	0.1
970	0.099
970	0.099
971	0.098
971	0.097
971	0.097
972	0.096
972	0.096
973	0.095
973	0.095
974	0.095
974	0.094
974	0.095
975	0.095
975	0.095
976	0.096
976	0.096
976	0.096
977	0.097
977	0.097
978	0.097
978	0.098
979	0.098
979	0.098
979	0.099
980	0.099
980	0.099
981	0.099
981	0.099
982	0.099
982	0.099
982	0.099
983	0.098
983	0.098
984	0.098
984	0.097
984	0.097
985	0.096
985	0.096
986	0.095
986	0.095
987	0.094
987	0.094
987	0.093
988	0.093
988	0.092
989	0.092
989	0.092
990	0.091
990	0.091
990	0.09
991	0.09
991	0.09
992	0.089
992	0.089
992	0.088
993	0.087
993	0.086
994	0.085
994	0.085
995	0.084
995	0.084
995	0.083
996	0.083
996	0.083
997	0.083
997	0.084
997	0.084
998	0.084
998	0.085
999	0.085
999	0.086
1000	0.086
1000	0.086
1000	0.086
1001	0.086
1001	0.087
1002	0.087
1002	0.087
1003	0.087
1003	0.086
1003	0.086
1004	0.086
1004	0.086
1005	0.085
1005	0.085
1005	0.085
1006	0.085
1006	0.084
1007	0.084
1007	0.084
1008	0.083
1008	0.083
1008	0.083
1009	0.083
1009	0.082
1010	0.082
1010	0.082
1010	0.082
1011	0.081
1011	0.081
1012	0.08
1012	0.08
1013	0.08
1013	0.079
1013	0.079
1014	0.078
1014	0.078
1015	0.077
1015	0.077
1016	0.077
1016	0.077
1016	0.078
1017	0.078
1017	0.078
1018	0.078
1018	0.078
1018	0.078
1019	0.078
1019	0.078
1020	0.078
1020	0.079
1021	0.079
1021	0.079
1021	0.08
1022	0.08
1022	0.081
1023	0.081
1023	0.081
1023	0.081
1024	0.081
1024	0.081
1025	0.081
1025	0.081
1026	0.081
1026	0.081
1026	0.081
1027	0.081
1027	0.081
1028	0.081
1028	0.081
1028	0.081
1029	0.082
1029	0.082
1030	0.082
1030	0.082
1031	0.082
1031	0.082
1031	0.082
1032	0.082
1032	0.082
1033	0.082
1033	0.082
1033	0.083
1034	0.083
1034	0.083
1035	0.083
1035	0.083
1036	0.082
1036	0.082
1036	0.083
1037	0.082
1037	0.082
1038	0.082
1038	0.082
1039	0.082
1039	0.081
1039	0.081
1040	0.081
1040	0.08
1041	0.08
1041	0.08
1041	0.08
1042	0.08
1042	0.08
1043	0.079
1043	0.079
1044	0.079
1044	0.079
1044	0.079
1045	0.079
1045	0.079
1046	0.078
1046	0.078
1046	0.078
1047	0.077
1047	0.077
1048	0.077
1048	0.077
1049	0.077
1049	0.077
1049	0.077
1050	0.076
1050	0.076
1051	0.075
1051	0.075
1051	0.075
1052	0.074
1052	0.074
1053	0.073
1053	0.072
1053	0.071
1054	0.07
1054	0.07
1055	0.07
1055	0.069
1056	0.069
1056	0.069
1056	0.068
1057	0.068
1057	0.067
1058	0.067
1058	0.067
1058	0.067
1059	0.066
1059	0.066
1060	0.066
1060	0.066
1061	0.065
1061	0.065
1061	0.065
1062	0.066
1062	0.066
1063	0.066
1063	0.066
1063	0.066
1064	0.066
1064	0.066
1065	0.066
1065	0.067
1066	0.067
1066	0.067
1066	0.067
1067	0.067
1067	0.066
1068	0.066
1068	0.066
1068	0.066
1069	0.065
1069	0.065
1070	0.064
1070	0.064
1071	0.063
1071	0.063
1071	0.063
1072	0.063
1072	0.062
1073	0.062
1073	0.061
1073	0.061
1074	0.061
1074	0.061
1075	0.061
1075	0.061
1076	0.061
1076	0.062
1076	0.062
1077	0.062
1077	0.063
1078	0.063
1078	0.063
1078	0.063
1079	0.064
1079	0.064
1080	0.063
1080	0.063
1080	0.063
1081	0.063
1081	0.064
1082	0.064
1082	0.065
1083	0.065
1083	0.065
1083	0.065
1084	0.065
1084	0.065
1085	0.065
1085	0.066
1085	0.066
1086	0.066
1086	0.065
1087	0.065
1087	0.065
1088	0.065
1088	0.064
1088	0.064
1089	0.063
1089	0.062
1090	0.061
1090	0.06
1090	0.059
1091	0.059
1091	0.058
1092	0.058
1092	0.057
1092	0.057
1093	0.057
1093	0.057
1094	0.057
1094	0.056
1095	0.056
1095	0.056
1095	0.056
1096	0.056
1096	0.055
1097	0.054
1097	0.053
1097	0.053
1098	0.052
1098	0.051
1099	0.05
1099	0.049
1100	0.048
1100	0.047
1100	0.046
1101	0.045
1101	0.046
1102	0.045
1102	0.045
1102	0.043
1103	0.044
1103	0.044
1104	0.043
1104	0.044
1104	0.044
1105	0.044
1105	0.043
1106	0.042
1106	0.041
1107	0.041
1107	0.042
1107	0.041
1108	0.041
1108	0.04
1109	0.037
1109	0.037
1109	0.038
1110	0.039
1110	0.038
1111	0.037
1111	0.035
