Data from reversibility-20sec_Absorbance__305__000000000000305.txt Node

Date: Tue Dec 05 13:54:45 CET 2023
User: Marek
Spectrometer: MAYP115816
Trigger mode: 0
Integration Time (sec): 2.000000E-1
Scans to average: 10
Electric dark correction enabled: true
Nonlinearity correction enabled: true
Boxcar width: 5
XAxis mode: Wavelengths
Number of Pixels in Spectrum: 2068
>>>>>Begin Spectral Data<<<<<
199	-0.227
199	-0.198
200	-0.132
200	-0.08
201	-0.053
201	-0.04
202	-0.026
202	-0.017
203	-0.008
203	-0.004
204	0.011
204	0.023
205	0.034
205	0.04
205	0.039
206	0.038
206	0.04
207	0.041
207	0.04
208	0.037
208	0.036
209	0.037
209	0.035
210	0.037
210	0.039
211	0.039
211	0.043
212	0.045
212	0.046
213	0.049
213	0.054
213	0.052
214	0.056
214	0.058
215	0.06
215	0.059
216	0.061
216	0.06
217	0.061
217	0.065
218	0.062
218	0.063
219	0.071
219	0.071
220	0.076
220	0.076
221	0.077
221	0.08
221	0.083
222	0.087
222	0.088
223	0.096
223	0.103
224	0.108
224	0.117
225	0.124
225	0.137
226	0.146
226	0.157
227	0.171
227	0.182
228	0.199
228	0.216
229	0.234
229	0.256
229	0.276
230	0.3
230	0.328
231	0.361
231	0.398
232	0.431
232	0.475
233	0.518
233	0.566
234	0.611
234	0.661
235	0.713
235	0.764
236	0.813
236	0.864
236	0.916
237	0.967
237	1.014
238	1.06
238	1.105
239	1.153
239	1.197
240	1.237
240	1.274
241	1.308
241	1.343
242	1.373
242	1.406
243	1.435
243	1.458
243	1.482
244	1.504
244	1.523
245	1.539
245	1.563
246	1.582
246	1.597
247	1.609
247	1.621
248	1.636
248	1.651
249	1.66
249	1.67
250	1.679
250	1.688
250	1.692
251	1.698
251	1.702
252	1.708
252	1.711
253	1.712
253	1.711
254	1.711
254	1.713
255	1.711
255	1.711
256	1.71
256	1.707
257	1.706
257	1.705
258	1.704
258	1.703
258	1.702
259	1.702
259	1.7
260	1.699
260	1.7
261	1.699
261	1.701
262	1.703
262	1.701
263	1.704
263	1.704
264	1.704
264	1.704
265	1.706
265	1.706
265	1.706
266	1.706
266	1.705
267	1.704
267	1.705
268	1.703
268	1.703
269	1.704
269	1.703
270	1.702
270	1.702
271	1.699
271	1.698
272	1.696
272	1.694
272	1.691
273	1.687
273	1.682
274	1.679
274	1.674
275	1.668
275	1.662
276	1.656
276	1.649
277	1.643
277	1.633
278	1.624
278	1.612
278	1.6
279	1.587
279	1.57
280	1.55
280	1.525
281	1.497
281	1.465
282	1.43
282	1.395
283	1.359
283	1.323
284	1.288
284	1.254
285	1.222
285	1.192
285	1.165
286	1.141
286	1.119
287	1.101
287	1.085
288	1.071
288	1.06
289	1.05
289	1.041
290	1.033
290	1.027
291	1.021
291	1.016
292	1.012
292	1.008
292	1.004
293	1
293	0.997
294	0.993
294	0.99
295	0.988
295	0.985
296	0.983
296	0.98
297	0.977
297	0.974
298	0.972
298	0.969
298	0.967
299	0.965
299	0.962
300	0.959
300	0.957
301	0.955
301	0.952
302	0.95
302	0.948
303	0.946
303	0.944
304	0.942
304	0.94
305	0.937
305	0.935
305	0.933
306	0.931
306	0.928
307	0.926
307	0.924
308	0.921
308	0.918
309	0.915
309	0.913
310	0.91
310	0.907
311	0.904
311	0.901
311	0.898
312	0.894
312	0.891
313	0.887
313	0.884
314	0.88
314	0.876
315	0.872
315	0.868
316	0.864
316	0.859
317	0.855
317	0.85
318	0.845
318	0.84
318	0.835
319	0.83
319	0.825
320	0.819
320	0.813
321	0.808
321	0.802
322	0.796
322	0.79
323	0.784
323	0.778
324	0.771
324	0.765
324	0.759
325	0.752
325	0.746
326	0.739
326	0.733
327	0.726
327	0.72
328	0.713
328	0.707
329	0.7
329	0.693
330	0.686
330	0.68
330	0.673
331	0.666
331	0.66
332	0.653
332	0.646
333	0.639
333	0.633
334	0.626
334	0.619
335	0.613
335	0.606
336	0.599
336	0.593
336	0.586
337	0.58
337	0.574
338	0.568
338	0.562
339	0.556
339	0.551
340	0.545
340	0.54
341	0.534
341	0.529
342	0.524
342	0.518
342	0.513
343	0.509
343	0.504
344	0.499
344	0.494
345	0.49
345	0.485
346	0.481
346	0.476
347	0.472
347	0.468
348	0.464
348	0.46
348	0.456
349	0.453
349	0.449
350	0.446
350	0.442
351	0.439
351	0.436
352	0.433
352	0.43
353	0.427
353	0.424
354	0.421
354	0.418
354	0.415
355	0.412
355	0.409
356	0.406
356	0.404
357	0.401
357	0.398
358	0.396
358	0.393
359	0.391
359	0.388
360	0.386
360	0.384
360	0.382
361	0.38
361	0.378
362	0.377
362	0.375
363	0.373
363	0.371
364	0.369
364	0.367
365	0.365
365	0.363
366	0.362
366	0.36
366	0.358
367	0.356
367	0.354
368	0.353
368	0.351
369	0.349
369	0.348
370	0.346
370	0.345
371	0.343
371	0.342
372	0.341
372	0.339
372	0.338
373	0.337
373	0.336
374	0.335
374	0.334
375	0.332
375	0.331
376	0.33
376	0.329
377	0.328
377	0.327
378	0.326
378	0.325
378	0.324
379	0.323
379	0.322
380	0.321
380	0.32
381	0.319
381	0.318
382	0.317
382	0.317
383	0.316
383	0.315
383	0.314
384	0.313
384	0.312
385	0.312
385	0.311
386	0.31
386	0.31
387	0.309
387	0.308
388	0.307
388	0.307
389	0.306
389	0.306
389	0.305
390	0.304
390	0.304
391	0.303
391	0.303
392	0.302
392	0.302
393	0.301
393	0.301
394	0.3
394	0.3
394	0.299
395	0.298
395	0.298
396	0.297
396	0.296
397	0.296
397	0.295
398	0.295
398	0.294
399	0.294
399	0.293
400	0.293
400	0.292
400	0.292
401	0.291
401	0.291
402	0.291
402	0.29
403	0.29
403	0.289
404	0.289
404	0.289
405	0.288
405	0.288
405	0.287
406	0.287
406	0.287
407	0.286
407	0.286
408	0.285
408	0.285
409	0.284
409	0.284
410	0.283
410	0.283
411	0.283
411	0.282
411	0.282
412	0.282
412	0.281
413	0.281
413	0.28
414	0.28
414	0.28
415	0.28
415	0.279
416	0.279
416	0.279
416	0.278
417	0.278
417	0.278
418	0.278
418	0.277
419	0.277
419	0.277
420	0.276
420	0.276
421	0.276
421	0.276
421	0.275
422	0.275
422	0.275
423	0.274
423	0.274
424	0.274
424	0.274
425	0.273
425	0.273
426	0.273
426	0.272
427	0.272
427	0.272
427	0.272
428	0.271
428	0.271
429	0.271
429	0.271
430	0.271
430	0.271
431	0.271
431	0.27
432	0.27
432	0.27
432	0.27
433	0.27
433	0.27
434	0.269
434	0.269
435	0.269
435	0.269
436	0.269
436	0.269
437	0.268
437	0.268
437	0.268
438	0.268
438	0.268
439	0.268
439	0.268
440	0.268
440	0.268
441	0.267
441	0.267
442	0.267
442	0.267
442	0.267
443	0.267
443	0.267
444	0.267
444	0.267
445	0.267
445	0.267
446	0.267
446	0.267
447	0.267
447	0.266
447	0.266
448	0.266
448	0.266
449	0.266
449	0.266
450	0.267
450	0.267
451	0.267
451	0.267
452	0.267
452	0.267
452	0.267
453	0.267
453	0.267
454	0.267
454	0.267
455	0.267
455	0.267
456	0.267
456	0.267
457	0.267
457	0.267
458	0.267
458	0.267
458	0.267
459	0.267
459	0.267
460	0.267
460	0.268
461	0.268
461	0.268
462	0.268
462	0.268
463	0.268
463	0.268
463	0.269
464	0.269
464	0.269
465	0.269
465	0.269
466	0.27
466	0.27
467	0.27
467	0.271
467	0.271
468	0.271
468	0.272
469	0.272
469	0.272
470	0.273
470	0.273
471	0.274
471	0.274
472	0.275
472	0.275
472	0.276
473	0.276
473	0.277
474	0.278
474	0.278
475	0.279
475	0.279
476	0.28
476	0.281
477	0.282
477	0.282
477	0.283
478	0.284
478	0.284
479	0.285
479	0.286
480	0.286
480	0.287
481	0.288
481	0.289
482	0.289
482	0.29
482	0.291
483	0.292
483	0.293
484	0.294
484	0.295
485	0.296
485	0.297
486	0.298
486	0.299
487	0.3
487	0.301
487	0.302
488	0.303
488	0.304
489	0.305
489	0.307
490	0.309
490	0.31
491	0.312
491	0.313
492	0.315
492	0.316
492	0.317
493	0.319
493	0.32
494	0.322
494	0.323
495	0.324
495	0.326
496	0.328
496	0.33
496	0.331
497	0.332
497	0.334
498	0.335
498	0.337
499	0.338
499	0.34
500	0.342
500	0.344
501	0.345
501	0.346
501	0.348
502	0.35
502	0.351
503	0.353
503	0.355
504	0.356
504	0.358
505	0.359
505	0.36
506	0.362
506	0.364
506	0.365
507	0.367
507	0.368
508	0.37
508	0.371
509	0.372
509	0.374
510	0.375
510	0.377
511	0.378
511	0.38
511	0.381
512	0.382
512	0.383
513	0.384
513	0.385
514	0.386
514	0.388
515	0.388
515	0.389
515	0.39
516	0.391
516	0.391
517	0.392
517	0.393
518	0.393
518	0.394
519	0.394
519	0.394
520	0.394
520	0.395
520	0.395
521	0.395
521	0.395
522	0.395
522	0.395
523	0.395
523	0.394
524	0.394
524	0.394
524	0.394
525	0.393
525	0.393
526	0.392
526	0.391
527	0.391
527	0.39
528	0.389
528	0.388
529	0.387
529	0.386
529	0.385
530	0.384
530	0.383
531	0.381
531	0.38
532	0.378
532	0.376
533	0.375
533	0.373
533	0.372
534	0.37
534	0.368
535	0.367
535	0.365
536	0.363
536	0.361
537	0.359
537	0.357
538	0.355
538	0.353
538	0.351
539	0.35
539	0.348
540	0.346
540	0.343
541	0.341
541	0.339
542	0.337
542	0.334
542	0.332
543	0.33
543	0.327
544	0.325
544	0.322
545	0.32
545	0.318
546	0.316
546	0.313
547	0.311
547	0.308
547	0.306
548	0.304
548	0.301
549	0.299
549	0.296
550	0.294
550	0.291
551	0.288
551	0.285
551	0.283
552	0.28
552	0.278
553	0.275
553	0.273
554	0.27
554	0.268
555	0.266
555	0.263
556	0.261
556	0.259
556	0.257
557	0.255
557	0.253
558	0.251
558	0.249
559	0.246
559	0.244
560	0.242
560	0.24
560	0.238
561	0.236
561	0.233
562	0.231
562	0.229
563	0.226
563	0.224
564	0.222
564	0.219
564	0.217
565	0.216
565	0.214
566	0.212
566	0.209
567	0.208
567	0.206
568	0.205
568	0.203
568	0.201
569	0.2
569	0.198
570	0.196
570	0.194
571	0.192
571	0.191
572	0.189
572	0.187
573	0.185
573	0.184
573	0.182
574	0.181
574	0.179
575	0.178
575	0.177
576	0.176
576	0.174
577	0.172
577	0.171
577	0.17
578	0.169
578	0.167
579	0.166
579	0.165
580	0.163
580	0.162
581	0.16
581	0.159
581	0.158
582	0.157
582	0.156
583	0.155
583	0.154
584	0.152
584	0.15
585	0.149
585	0.148
585	0.146
586	0.145
586	0.143
587	0.142
587	0.14
588	0.139
588	0.138
589	0.137
589	0.137
590	0.136
590	0.135
590	0.135
591	0.134
591	0.133
592	0.132
592	0.131
593	0.13
593	0.129
594	0.128
594	0.127
594	0.126
595	0.125
595	0.124
596	0.123
596	0.123
597	0.123
597	0.122
598	0.121
598	0.121
598	0.12
599	0.119
599	0.119
600	0.118
600	0.117
601	0.116
601	0.116
602	0.114
602	0.114
602	0.113
603	0.112
603	0.112
604	0.111
604	0.111
605	0.11
605	0.11
606	0.109
606	0.108
606	0.108
607	0.107
607	0.106
608	0.106
608	0.105
609	0.104
609	0.103
610	0.102
610	0.101
610	0.101
611	0.1
611	0.1
612	0.099
612	0.099
613	0.099
613	0.098
614	0.097
614	0.096
614	0.096
615	0.096
615	0.095
616	0.095
616	0.094
617	0.094
617	0.093
618	0.093
618	0.093
618	0.092
619	0.092
619	0.092
620	0.092
620	0.092
621	0.092
621	0.091
622	0.09
622	0.09
622	0.089
623	0.088
623	0.088
624	0.088
624	0.087
625	0.086
625	0.086
626	0.085
626	0.085
626	0.084
627	0.084
627	0.083
628	0.082
628	0.082
629	0.081
629	0.08
630	0.079
630	0.079
630	0.078
631	0.078
631	0.078
632	0.078
632	0.078
633	0.078
633	0.078
634	0.078
634	0.078
634	0.078
635	0.078
635	0.078
636	0.078
636	0.077
637	0.077
637	0.077
638	0.076
638	0.076
638	0.075
639	0.075
639	0.074
640	0.074
640	0.074
641	0.073
641	0.073
642	0.072
642	0.072
642	0.072
643	0.071
643	0.071
644	0.071
644	0.071
645	0.07
645	0.07
646	0.07
646	0.07
646	0.07
647	0.07
647	0.07
648	0.069
648	0.068
649	0.068
649	0.068
650	0.067
650	0.067
650	0.067
651	0.066
651	0.066
652	0.066
652	0.065
653	0.065
653	0.067
653	0.072
654	0.058
654	0.048
655	0.047
655	0.047
656	0.047
656	0.047
657	0.047
657	0.048
657	0.048
658	0.047
658	0.041
659	0.051
659	0.063
660	0.066
660	0.066
661	0.065
661	0.065
661	0.064
662	0.064
662	0.064
663	0.063
663	0.063
664	0.062
664	0.062
665	0.062
665	0.062
665	0.062
666	0.062
666	0.062
667	0.061
667	0.061
668	0.061
668	0.061
669	0.061
669	0.061
669	0.061
670	0.06
670	0.06
671	0.059
671	0.059
672	0.058
672	0.057
672	0.057
673	0.057
673	0.057
674	0.056
674	0.056
675	0.056
675	0.056
676	0.056
676	0.057
676	0.057
677	0.057
677	0.057
678	0.056
678	0.056
679	0.056
679	0.056
680	0.056
680	0.056
680	0.055
681	0.056
681	0.056
682	0.057
682	0.057
683	0.058
683	0.058
684	0.058
684	0.058
684	0.058
685	0.058
685	0.058
686	0.058
686	0.057
687	0.056
687	0.056
687	0.056
688	0.055
688	0.055
689	0.055
689	0.055
690	0.055
690	0.054
691	0.054
691	0.054
691	0.055
692	0.055
692	0.055
693	0.055
693	0.055
694	0.055
694	0.055
695	0.055
695	0.056
695	0.056
696	0.056
696	0.056
697	0.055
697	0.055
698	0.055
698	0.054
698	0.054
699	0.054
699	0.054
700	0.054
700	0.054
701	0.054
701	0.054
702	0.054
702	0.054
702	0.054
703	0.053
703	0.053
704	0.052
704	0.052
705	0.051
705	0.051
705	0.05
706	0.05
706	0.05
707	0.049
707	0.049
708	0.049
708	0.049
709	0.049
709	0.049
709	0.049
710	0.049
710	0.049
711	0.049
711	0.049
712	0.049
712	0.049
713	0.049
713	0.049
713	0.048
714	0.048
714	0.048
715	0.048
715	0.048
716	0.047
716	0.047
716	0.046
717	0.046
717	0.045
718	0.045
718	0.044
719	0.044
719	0.044
720	0.044
720	0.044
720	0.045
721	0.045
721	0.045
722	0.046
722	0.046
723	0.046
723	0.046
723	0.046
724	0.046
724	0.045
725	0.045
725	0.044
726	0.043
726	0.043
727	0.042
727	0.042
727	0.041
728	0.041
728	0.041
729	0.041
729	0.041
730	0.041
730	0.041
730	0.042
731	0.042
731	0.042
732	0.042
732	0.042
733	0.042
733	0.041
734	0.041
734	0.041
734	0.041
735	0.041
735	0.041
736	0.04
736	0.04
737	0.039
737	0.039
737	0.039
738	0.038
738	0.037
739	0.036
739	0.036
740	0.035
740	0.035
741	0.035
741	0.035
741	0.035
742	0.035
742	0.035
743	0.036
743	0.037
744	0.038
744	0.038
744	0.038
745	0.038
745	0.038
746	0.039
746	0.039
747	0.039
747	0.039
748	0.038
748	0.038
748	0.037
749	0.037
749	0.036
750	0.036
750	0.035
751	0.035
751	0.035
751	0.034
752	0.034
752	0.033
753	0.033
753	0.033
754	0.033
754	0.033
754	0.033
755	0.033
755	0.033
756	0.032
756	0.031
757	0.031
757	0.03
758	0.03
758	0.03
758	0.029
759	0.029
759	0.029
760	0.029
760	0.029
761	0.03
761	0.03
761	0.031
762	0.031
762	0.031
763	0.032
763	0.031
764	0.031
764	0.031
764	0.031
765	0.03
765	0.029
766	0.029
766	0.029
767	0.028
767	0.027
768	0.026
768	0.026
768	0.026
769	0.025
769	0.025
770	0.025
770	0.025
771	0.025
771	0.025
771	0.025
772	0.025
772	0.025
773	0.024
773	0.024
774	0.024
774	0.024
775	0.024
775	0.024
775	0.024
776	0.024
776	0.024
777	0.024
777	0.024
778	0.024
778	0.024
778	0.024
779	0.024
779	0.024
780	0.024
780	0.024
781	0.024
781	0.024
781	0.024
782	0.024
782	0.024
783	0.024
783	0.024
784	0.024
784	0.024
784	0.024
785	0.024
785	0.024
786	0.024
786	0.024
787	0.024
787	0.024
788	0.023
788	0.023
788	0.023
789	0.022
789	0.022
790	0.022
790	0.022
791	0.021
791	0.021
791	0.02
792	0.02
792	0.02
793	0.019
793	0.019
794	0.018
794	0.017
794	0.017
795	0.016
795	0.016
796	0.016
796	0.016
797	0.016
797	0.016
797	0.016
798	0.016
798	0.017
799	0.017
799	0.017
800	0.017
800	0.017
801	0.016
801	0.016
801	0.016
802	0.016
802	0.016
803	0.016
803	0.016
804	0.017
804	0.017
804	0.018
805	0.018
805	0.018
806	0.018
806	0.019
807	0.019
807	0.019
807	0.019
808	0.019
808	0.019
809	0.019
809	0.019
810	0.019
810	0.019
810	0.019
811	0.019
811	0.02
812	0.02
812	0.02
813	0.02
813	0.02
813	0.02
814	0.02
814	0.019
815	0.019
815	0.019
816	0.019
816	0.019
817	0.018
817	0.018
817	0.018
818	0.018
818	0.018
819	0.018
819	0.018
820	0.017
820	0.017
820	0.017
821	0.017
821	0.016
822	0.016
822	0.016
823	0.016
823	0.016
823	0.016
824	0.017
824	0.018
825	0.019
825	0.019
826	0.019
826	0.019
826	0.019
827	0.02
827	0.02
828	0.019
828	0.019
829	0.018
829	0.018
829	0.018
830	0.018
830	0.018
831	0.019
831	0.019
832	0.019
832	0.019
832	0.019
833	0.019
833	0.018
834	0.018
834	0.018
835	0.018
835	0.018
835	0.017
836	0.017
836	0.018
837	0.017
837	0.017
838	0.017
838	0.016
839	0.016
839	0.015
839	0.014
840	0.013
840	0.012
841	0.011
841	0.01
842	0.009
842	0.009
842	0.009
843	0.009
843	0.009
844	0.009
844	0.009
845	0.009
845	0.009
845	0.009
846	0.008
846	0.008
847	0.008
847	0.008
848	0.008
848	0.009
848	0.009
849	0.01
849	0.01
850	0.011
850	0.011
851	0.011
851	0.012
851	0.012
852	0.011
852	0.011
853	0.011
853	0.01
854	0.01
854	0.011
854	0.011
855	0.012
855	0.012
856	0.012
856	0.013
857	0.013
857	0.014
857	0.014
858	0.014
858	0.013
859	0.013
859	0.012
860	0.011
860	0.01
860	0.009
861	0.008
861	0.008
862	0.007
862	0.007
863	0.006
863	0.006
863	0.006
864	0.006
864	0.006
865	0.006
865	0.006
866	0.006
866	0.006
866	0.006
867	0.006
867	0.006
868	0.007
868	0.007
869	0.007
869	0.007
869	0.007
870	0.007
870	0.007
871	0.008
871	0.008
872	0.009
872	0.009
872	0.009
873	0.009
873	0.009
874	0.009
874	0.009
875	0.009
875	0.009
875	0.009
876	0.009
876	0.009
877	0.009
877	0.009
878	0.01
878	0.01
878	0.011
879	0.011
879	0.012
880	0.012
880	0.011
881	0.011
881	0.01
881	0.01
882	0.009
882	0.008
883	0.007
883	0.006
884	0.005
884	0.004
884	0.003
885	0.003
885	0.002
886	0.001
886	0.001
887	0
887	-0
887	-0.001
888	-0.001
888	-0.002
889	-0.002
889	-0.002
890	-0.002
890	-0.002
890	-0.001
891	-0.001
891	-0
892	0.001
892	0.002
893	0.002
893	0.004
893	0.004
894	0.005
894	0.006
895	0.006
895	0.006
895	0.007
896	0.006
896	0.006
897	0.006
897	0.005
898	0.004
898	0.004
898	0.003
899	0.003
899	0.003
900	0.003
900	0.003
901	0.002
901	0.002
901	0.002
902	0.002
902	0.002
903	0.002
903	0.002
904	0.002
904	0.002
904	0.001
905	0.001
905	0.001
906	0.001
906	0.001
907	0.001
907	0.001
907	0.001
908	0.001
908	0.001
909	0.002
909	0.002
910	0.002
910	0.002
910	0.002
911	0.002
911	0.002
912	0.003
912	0.003
913	0.003
913	0.003
913	0.003
914	0.003
914	0.003
915	0.003
915	0.003
916	0.002
916	0.002
916	0.001
917	0
917	-0
918	-0.001
918	-0.001
918	-0.002
919	-0.002
919	-0.002
920	-0.001
920	-0.001
921	-0
921	0.001
921	0.001
922	0.002
922	0.003
923	0.004
923	0.005
924	0.005
924	0.006
924	0.006
925	0.006
925	0.007
926	0.006
926	0.006
927	0.006
927	0.006
927	0.006
928	0.005
928	0.005
929	0.005
929	0.005
930	0.004
930	0.004
930	0.004
931	0.003
931	0.003
932	0.003
932	0.003
933	0.003
933	0.002
933	0.002
934	0.002
934	0.001
935	0.001
935	0.001
935	0.001
936	0
936	0
937	0
937	-0
938	-0
938	-0
938	0
939	0
939	0.001
940	0.001
940	0.002
941	0.002
941	0.003
941	0.004
942	0.004
942	0.005
943	0.005
943	0.006
944	0.006
944	0.007
944	0.007
945	0.007
945	0.007
946	0.007
946	0.007
946	0.007
947	0.007
947	0.007
948	0.007
948	0.007
949	0.006
949	0.006
949	0.006
950	0.006
950	0.006
951	0.006
951	0.006
952	0.005
952	0.005
952	0.004
953	0.004
953	0.003
954	0.003
954	0.002
955	0.001
955	0
955	-0
956	-0.001
956	-0.001
957	-0.001
957	-0.001
957	-0.001
958	-0.001
958	-0.001
959	-0.001
959	-0.001
960	-0.001
960	-0.001
960	-0
961	-0
961	-0
962	-0
962	0
963	0
963	0
963	0.001
964	0.001
964	0.001
965	0.002
965	0.002
966	0.003
966	0.003
966	0.003
967	0.004
967	0.005
968	0.005
968	0.005
968	0.005
969	0.005
969	0.005
970	0.005
970	0.005
971	0.005
971	0.004
971	0.004
972	0.004
972	0.004
973	0.003
973	0.003
974	0.004
974	0.004
974	0.005
975	0.005
975	0.005
976	0.006
976	0.006
976	0.006
977	0.006
977	0.006
978	0.005
978	0.005
979	0.004
979	0.004
979	0.003
980	0.002
980	0.002
981	0.001
981	0
982	-0
982	-0.001
982	-0.001
983	-0.001
983	-0.002
984	-0.002
984	-0.003
984	-0.003
985	-0.003
985	-0.004
986	-0.004
986	-0.004
987	-0.004
987	-0.004
987	-0.005
988	-0.005
988	-0.005
989	-0.005
989	-0.005
990	-0.005
990	-0.005
990	-0.005
991	-0.005
991	-0.005
992	-0.005
992	-0.005
992	-0.005
993	-0.005
993	-0.005
994	-0.005
994	-0.005
995	-0.005
995	-0.005
995	-0.005
996	-0.004
996	-0.004
997	-0.003
997	-0.002
997	-0.001
998	0
998	0.001
999	0.002
999	0.003
1000	0.004
1000	0.005
1000	0.005
1001	0.005
1001	0.006
1002	0.005
1002	0.005
1003	0.005
1003	0.004
1003	0.003
1004	0.003
1004	0.002
1005	0.001
1005	0.001
1005	-0
1006	-0.001
1006	-0.001
1007	-0.001
1007	-0.001
1008	-0.001
1008	-0.001
1008	-0.001
1009	-0.001
1009	-0.001
1010	-0
1010	-0
1010	0
1011	0
1011	-0
1012	0
1012	-0
1013	-0
1013	-0
1013	-0.001
1014	-0.001
1014	-0.001
1015	-0.001
1015	-0.001
1016	-0.001
1016	-0.001
1016	-0.002
1017	-0.002
1017	-0.002
1018	-0.002
1018	-0.002
1018	-0.002
1019	-0.002
1019	-0.002
1020	-0.002
1020	-0.002
1021	-0.002
1021	-0.002
1021	-0.001
1022	-0.001
1022	-0.001
1023	-0.001
1023	-0.001
1023	-0.001
1024	-0.002
1024	-0.002
1025	-0.003
1025	-0.003
1026	-0.004
1026	-0.005
1026	-0.005
1027	-0.006
1027	-0.006
1028	-0.007
1028	-0.007
1028	-0.007
1029	-0.008
1029	-0.008
1030	-0.008
1030	-0.008
1031	-0.008
1031	-0.008
1031	-0.008
1032	-0.008
1032	-0.008
1033	-0.008
1033	-0.008
1033	-0.008
1034	-0.009
1034	-0.009
1035	-0.009
1035	-0.01
1036	-0.01
1036	-0.011
1036	-0.011
1037	-0.011
1037	-0.012
1038	-0.012
1038	-0.012
1039	-0.012
1039	-0.012
1039	-0.012
1040	-0.011
1040	-0.011
1041	-0.01
1041	-0.01
1041	-0.01
1042	-0.009
1042	-0.009
1043	-0.008
1043	-0.008
1044	-0.007
1044	-0.007
1044	-0.007
1045	-0.006
1045	-0.005
1046	-0.005
1046	-0.004
1046	-0.004
1047	-0.003
1047	-0.003
1048	-0.002
1048	-0.002
1049	-0.002
1049	-0.001
1049	-0.002
1050	-0.002
1050	-0.002
1051	-0.003
1051	-0.003
1051	-0.003
1052	-0.004
1052	-0.004
1053	-0.005
1053	-0.006
1053	-0.007
1054	-0.007
1054	-0.007
1055	-0.007
1055	-0.008
1056	-0.008
1056	-0.008
1056	-0.009
1057	-0.009
1057	-0.009
1058	-0.009
1058	-0.01
1058	-0.011
1059	-0.011
1059	-0.011
1060	-0.011
1060	-0.012
1061	-0.012
1061	-0.013
1061	-0.013
1062	-0.014
1062	-0.014
1063	-0.014
1063	-0.015
1063	-0.015
1064	-0.016
1064	-0.016
1065	-0.017
1065	-0.017
1066	-0.017
1066	-0.017
1066	-0.017
1067	-0.018
1067	-0.018
1068	-0.018
1068	-0.018
1068	-0.018
1069	-0.018
1069	-0.019
1070	-0.019
1070	-0.019
1071	-0.02
1071	-0.02
1071	-0.02
1072	-0.02
1072	-0.02
1073	-0.021
1073	-0.021
1073	-0.021
1074	-0.02
1074	-0.02
1075	-0.02
1075	-0.02
1076	-0.019
1076	-0.018
1076	-0.018
1077	-0.017
1077	-0.017
1078	-0.016
1078	-0.015
1078	-0.015
1079	-0.015
1079	-0.014
1080	-0.014
1080	-0.014
1080	-0.014
1081	-0.014
1081	-0.013
1082	-0.013
1082	-0.013
1083	-0.013
1083	-0.013
1083	-0.013
1084	-0.014
1084	-0.013
1085	-0.014
1085	-0.014
1085	-0.014
1086	-0.015
1086	-0.016
1087	-0.017
1087	-0.018
1088	-0.018
1088	-0.018
1088	-0.018
1089	-0.019
1089	-0.02
1090	-0.02
1090	-0.021
1090	-0.021
1091	-0.021
1091	-0.021
1092	-0.021
1092	-0.021
1092	-0.021
1093	-0.021
1093	-0.021
1094	-0.021
1094	-0.021
1095	-0.02
1095	-0.02
1095	-0.021
1096	-0.021
1096	-0.022
1097	-0.022
1097	-0.023
1097	-0.023
1098	-0.023
1098	-0.024
1099	-0.025
1099	-0.026
1100	-0.027
1100	-0.028
1100	-0.028
1101	-0.028
1101	-0.029
1102	-0.029
1102	-0.031
1102	-0.032
1103	-0.032
1103	-0.033
1104	-0.033
1104	-0.033
1104	-0.033
1105	-0.034
1105	-0.035
1106	-0.037
1106	-0.039
1107	-0.039
1107	-0.039
1107	-0.039
1108	-0.041
1108	-0.042
1109	-0.043
1109	-0.044
1109	-0.044
1110	-0.045
1110	-0.044
1111	-0.041
1111	-0.043
