Data from reversibility-20sec_Absorbance__7207__000000000007207.txt Node

Date: Thu Dec 07 04:15:25 CET 2023
User: Marek
Spectrometer: MAYP115816
Trigger mode: 0
Integration Time (sec): 2.000000E-1
Scans to average: 10
Electric dark correction enabled: true
Nonlinearity correction enabled: true
Boxcar width: 5
XAxis mode: Wavelengths
Number of Pixels in Spectrum: 2068
>>>>>Begin Spectral Data<<<<<
199	-0.144
199	-0.128
200	-0.064
200	-0.018
201	0.015
201	0.037
202	0.046
202	0.055
203	0.063
203	0.068
204	0.081
204	0.093
205	0.108
205	0.114
205	0.115
206	0.115
206	0.112
207	0.116
207	0.117
208	0.117
208	0.117
209	0.117
209	0.115
210	0.113
210	0.113
211	0.115
211	0.116
212	0.116
212	0.118
213	0.121
213	0.121
213	0.121
214	0.125
214	0.129
215	0.13
215	0.132
216	0.131
216	0.129
217	0.133
217	0.132
218	0.132
218	0.136
219	0.141
219	0.142
220	0.146
220	0.148
221	0.149
221	0.154
221	0.159
222	0.163
222	0.169
223	0.173
223	0.177
224	0.183
224	0.191
225	0.197
225	0.205
226	0.215
226	0.224
227	0.232
227	0.246
228	0.259
228	0.279
229	0.294
229	0.316
229	0.338
230	0.364
230	0.397
231	0.43
231	0.469
232	0.506
232	0.549
233	0.592
233	0.639
234	0.69
234	0.743
235	0.797
235	0.851
236	0.899
236	0.952
236	1.003
237	1.057
237	1.106
238	1.156
238	1.201
239	1.246
239	1.286
240	1.324
240	1.358
241	1.395
241	1.431
242	1.461
242	1.494
243	1.521
243	1.547
243	1.57
244	1.592
244	1.613
245	1.633
245	1.655
246	1.673
246	1.69
247	1.704
247	1.717
248	1.73
248	1.743
249	1.753
249	1.759
250	1.769
250	1.778
250	1.782
251	1.786
251	1.788
252	1.793
252	1.794
253	1.797
253	1.797
254	1.797
254	1.8
255	1.799
255	1.799
256	1.8
256	1.799
257	1.8
257	1.798
258	1.798
258	1.798
258	1.797
259	1.797
259	1.796
260	1.795
260	1.795
261	1.794
261	1.796
262	1.8
262	1.801
263	1.804
263	1.803
264	1.806
264	1.807
265	1.807
265	1.807
265	1.808
266	1.809
266	1.809
267	1.807
267	1.807
268	1.806
268	1.807
269	1.806
269	1.805
270	1.806
270	1.805
271	1.801
271	1.8
272	1.798
272	1.795
272	1.793
273	1.788
273	1.782
274	1.777
274	1.773
275	1.765
275	1.76
276	1.753
276	1.747
277	1.74
277	1.73
278	1.719
278	1.708
278	1.694
279	1.679
279	1.661
280	1.64
280	1.613
281	1.582
281	1.548
282	1.509
282	1.471
283	1.432
283	1.393
284	1.357
284	1.32
285	1.285
285	1.253
285	1.223
286	1.197
286	1.174
287	1.153
287	1.136
288	1.12
288	1.108
289	1.096
289	1.086
290	1.078
290	1.07
291	1.064
291	1.058
292	1.052
292	1.047
292	1.043
293	1.039
293	1.034
294	1.031
294	1.027
295	1.023
295	1.02
296	1.016
296	1.012
297	1.009
297	1.006
298	1.002
298	0.999
298	0.996
299	0.993
299	0.99
300	0.987
300	0.983
301	0.98
301	0.978
302	0.975
302	0.973
303	0.97
303	0.967
304	0.964
304	0.962
305	0.959
305	0.956
305	0.953
306	0.951
306	0.948
307	0.946
307	0.943
308	0.94
308	0.937
309	0.934
309	0.931
310	0.928
310	0.925
311	0.922
311	0.918
311	0.915
312	0.911
312	0.907
313	0.903
313	0.899
314	0.895
314	0.891
315	0.887
315	0.883
316	0.878
316	0.873
317	0.868
317	0.863
318	0.858
318	0.853
318	0.848
319	0.842
319	0.837
320	0.831
320	0.825
321	0.818
321	0.812
322	0.806
322	0.8
323	0.793
323	0.787
324	0.78
324	0.774
324	0.767
325	0.76
325	0.753
326	0.746
326	0.739
327	0.732
327	0.725
328	0.718
328	0.711
329	0.704
329	0.697
330	0.69
330	0.683
330	0.676
331	0.668
331	0.661
332	0.654
332	0.647
333	0.64
333	0.633
334	0.626
334	0.619
335	0.612
335	0.605
336	0.599
336	0.592
336	0.585
337	0.579
337	0.572
338	0.566
338	0.56
339	0.554
339	0.548
340	0.542
340	0.536
341	0.53
341	0.524
342	0.519
342	0.513
342	0.508
343	0.503
343	0.498
344	0.492
344	0.488
345	0.483
345	0.478
346	0.473
346	0.469
347	0.464
347	0.46
348	0.456
348	0.452
348	0.448
349	0.444
349	0.44
350	0.437
350	0.433
351	0.43
351	0.426
352	0.423
352	0.42
353	0.417
353	0.414
354	0.411
354	0.408
354	0.405
355	0.402
355	0.399
356	0.396
356	0.393
357	0.39
357	0.387
358	0.384
358	0.381
359	0.379
359	0.377
360	0.374
360	0.372
360	0.37
361	0.368
361	0.366
362	0.365
362	0.363
363	0.361
363	0.359
364	0.357
364	0.355
365	0.353
365	0.352
366	0.35
366	0.348
366	0.346
367	0.344
367	0.343
368	0.341
368	0.339
369	0.338
369	0.336
370	0.335
370	0.333
371	0.332
371	0.33
372	0.329
372	0.328
372	0.327
373	0.326
373	0.325
374	0.324
374	0.323
375	0.322
375	0.321
376	0.32
376	0.319
377	0.318
377	0.317
378	0.316
378	0.315
378	0.314
379	0.313
379	0.312
380	0.311
380	0.31
381	0.309
381	0.308
382	0.308
382	0.307
383	0.306
383	0.306
383	0.305
384	0.304
384	0.304
385	0.303
385	0.303
386	0.302
386	0.302
387	0.301
387	0.301
388	0.3
388	0.3
389	0.299
389	0.299
389	0.298
390	0.298
390	0.297
391	0.297
391	0.297
392	0.296
392	0.296
393	0.295
393	0.295
394	0.294
394	0.294
394	0.293
395	0.293
395	0.292
396	0.292
396	0.291
397	0.291
397	0.29
398	0.29
398	0.29
399	0.289
399	0.289
400	0.289
400	0.288
400	0.288
401	0.287
401	0.287
402	0.287
402	0.286
403	0.286
403	0.285
404	0.285
404	0.284
405	0.284
405	0.284
405	0.284
406	0.283
406	0.283
407	0.282
407	0.282
408	0.282
408	0.282
409	0.281
409	0.281
410	0.281
410	0.28
411	0.28
411	0.28
411	0.28
412	0.28
412	0.279
413	0.279
413	0.278
414	0.278
414	0.278
415	0.277
415	0.277
416	0.277
416	0.276
416	0.276
417	0.275
417	0.275
418	0.275
418	0.275
419	0.274
419	0.274
420	0.273
420	0.273
421	0.272
421	0.272
421	0.272
422	0.271
422	0.271
423	0.271
423	0.27
424	0.27
424	0.27
425	0.27
425	0.269
426	0.269
426	0.269
427	0.268
427	0.268
427	0.268
428	0.267
428	0.267
429	0.267
429	0.266
430	0.266
430	0.265
431	0.265
431	0.265
432	0.265
432	0.265
432	0.264
433	0.264
433	0.264
434	0.264
434	0.264
435	0.264
435	0.264
436	0.263
436	0.263
437	0.263
437	0.263
437	0.263
438	0.262
438	0.262
439	0.262
439	0.261
440	0.261
440	0.26
441	0.26
441	0.26
442	0.259
442	0.259
442	0.259
443	0.259
443	0.259
444	0.259
444	0.259
445	0.259
445	0.259
446	0.258
446	0.258
447	0.258
447	0.258
447	0.258
448	0.258
448	0.258
449	0.258
449	0.257
450	0.257
450	0.257
451	0.257
451	0.257
452	0.257
452	0.257
452	0.257
453	0.257
453	0.257
454	0.257
454	0.257
455	0.257
455	0.256
456	0.256
456	0.256
457	0.256
457	0.256
458	0.256
458	0.256
458	0.255
459	0.255
459	0.255
460	0.255
460	0.255
461	0.255
461	0.255
462	0.255
462	0.255
463	0.255
463	0.255
463	0.255
464	0.255
464	0.255
465	0.255
465	0.255
466	0.255
466	0.255
467	0.255
467	0.256
467	0.256
468	0.256
468	0.256
469	0.256
469	0.257
470	0.257
470	0.257
471	0.257
471	0.258
472	0.258
472	0.258
472	0.258
473	0.259
473	0.259
474	0.259
474	0.259
475	0.259
475	0.26
476	0.26
476	0.26
477	0.26
477	0.261
477	0.261
478	0.261
478	0.262
479	0.262
479	0.263
480	0.263
480	0.263
481	0.264
481	0.264
482	0.264
482	0.265
482	0.265
483	0.265
483	0.266
484	0.266
484	0.267
485	0.267
485	0.267
486	0.268
486	0.268
487	0.269
487	0.27
487	0.27
488	0.271
488	0.271
489	0.272
489	0.274
490	0.275
490	0.275
491	0.276
491	0.277
492	0.278
492	0.279
492	0.28
493	0.281
493	0.282
494	0.283
494	0.284
495	0.284
495	0.285
496	0.286
496	0.287
496	0.288
497	0.289
497	0.29
498	0.291
498	0.292
499	0.293
499	0.294
500	0.296
500	0.297
501	0.298
501	0.298
501	0.299
502	0.3
502	0.301
503	0.302
503	0.303
504	0.304
504	0.305
505	0.306
505	0.307
506	0.307
506	0.308
506	0.31
507	0.31
507	0.311
508	0.312
508	0.313
509	0.314
509	0.315
510	0.315
510	0.316
511	0.317
511	0.318
511	0.318
512	0.319
512	0.32
513	0.32
513	0.321
514	0.322
514	0.322
515	0.323
515	0.324
515	0.324
516	0.325
516	0.326
517	0.326
517	0.327
518	0.327
518	0.327
519	0.328
519	0.328
520	0.328
520	0.329
520	0.329
521	0.329
521	0.329
522	0.329
522	0.329
523	0.329
523	0.329
524	0.328
524	0.328
524	0.328
525	0.328
525	0.327
526	0.327
526	0.327
527	0.326
527	0.326
528	0.325
528	0.325
529	0.324
529	0.324
529	0.323
530	0.322
530	0.322
531	0.321
531	0.32
532	0.319
532	0.318
533	0.318
533	0.317
533	0.315
534	0.314
534	0.313
535	0.312
535	0.312
536	0.311
536	0.309
537	0.308
537	0.307
538	0.306
538	0.304
538	0.303
539	0.302
539	0.301
540	0.3
540	0.299
541	0.297
541	0.296
542	0.295
542	0.293
542	0.292
543	0.29
543	0.289
544	0.288
544	0.286
545	0.285
545	0.283
546	0.282
546	0.28
547	0.278
547	0.276
547	0.275
548	0.273
548	0.272
549	0.27
549	0.269
550	0.267
550	0.265
551	0.264
551	0.262
551	0.261
552	0.26
552	0.258
553	0.257
553	0.255
554	0.254
554	0.252
555	0.25
555	0.249
556	0.247
556	0.246
556	0.244
557	0.243
557	0.242
558	0.241
558	0.24
559	0.239
559	0.238
560	0.237
560	0.236
560	0.234
561	0.233
561	0.232
562	0.23
562	0.229
563	0.227
563	0.225
564	0.224
564	0.222
564	0.221
565	0.219
565	0.218
566	0.217
566	0.216
567	0.215
567	0.214
568	0.213
568	0.211
568	0.21
569	0.209
569	0.208
570	0.206
570	0.205
571	0.203
571	0.202
572	0.201
572	0.2
573	0.199
573	0.198
573	0.197
574	0.196
574	0.195
575	0.194
575	0.193
576	0.193
576	0.191
577	0.19
577	0.189
577	0.188
578	0.187
578	0.186
579	0.185
579	0.185
580	0.184
580	0.183
581	0.182
581	0.181
581	0.181
582	0.18
582	0.18
583	0.179
583	0.178
584	0.177
584	0.175
585	0.174
585	0.174
585	0.173
586	0.172
586	0.172
587	0.171
587	0.17
588	0.169
588	0.168
589	0.168
589	0.167
590	0.167
590	0.166
590	0.166
591	0.166
591	0.165
592	0.164
592	0.163
593	0.162
593	0.161
594	0.161
594	0.16
594	0.159
595	0.158
595	0.157
596	0.156
596	0.156
597	0.156
597	0.156
598	0.156
598	0.156
598	0.156
599	0.155
599	0.155
600	0.154
600	0.153
601	0.153
601	0.152
602	0.152
602	0.151
602	0.15
603	0.149
603	0.149
604	0.149
604	0.149
605	0.149
605	0.148
606	0.148
606	0.147
606	0.146
607	0.145
607	0.145
608	0.144
608	0.144
609	0.143
609	0.142
610	0.142
610	0.141
610	0.141
611	0.141
611	0.141
612	0.141
612	0.141
613	0.141
613	0.14
614	0.14
614	0.14
614	0.14
615	0.139
615	0.139
616	0.139
616	0.139
617	0.138
617	0.138
618	0.138
618	0.138
618	0.137
619	0.137
619	0.137
620	0.137
620	0.137
621	0.136
621	0.136
622	0.135
622	0.134
622	0.134
623	0.133
623	0.133
624	0.133
624	0.132
625	0.132
625	0.132
626	0.132
626	0.131
626	0.132
627	0.132
627	0.131
628	0.131
628	0.131
629	0.131
629	0.131
630	0.13
630	0.13
630	0.13
631	0.129
631	0.129
632	0.128
632	0.128
633	0.127
633	0.127
634	0.127
634	0.127
634	0.127
635	0.126
635	0.125
636	0.125
636	0.125
637	0.124
637	0.124
638	0.124
638	0.123
638	0.123
639	0.122
639	0.122
640	0.122
640	0.121
641	0.121
641	0.121
642	0.121
642	0.121
642	0.121
643	0.121
643	0.121
644	0.122
644	0.122
645	0.122
645	0.122
646	0.122
646	0.123
646	0.123
647	0.123
647	0.122
648	0.122
648	0.121
649	0.121
649	0.121
650	0.12
650	0.12
650	0.12
651	0.12
651	0.12
652	0.12
652	0.12
653	0.121
653	0.122
653	0.127
654	0.101
654	0.082
655	0.081
655	0.081
656	0.081
656	0.081
657	0.081
657	0.081
657	0.081
658	0.08
658	0.073
659	0.091
659	0.115
660	0.12
660	0.12
661	0.12
661	0.119
661	0.118
662	0.118
662	0.118
663	0.117
663	0.117
664	0.117
664	0.117
665	0.117
665	0.116
665	0.116
666	0.117
666	0.117
667	0.117
667	0.117
668	0.117
668	0.117
669	0.117
669	0.117
669	0.118
670	0.118
670	0.117
671	0.117
671	0.117
672	0.116
672	0.115
672	0.115
673	0.114
673	0.114
674	0.114
674	0.113
675	0.113
675	0.113
676	0.113
676	0.113
676	0.113
677	0.113
677	0.114
678	0.113
678	0.113
679	0.113
679	0.113
680	0.113
680	0.112
680	0.112
681	0.112
681	0.112
682	0.112
682	0.112
683	0.113
683	0.113
684	0.113
684	0.113
684	0.113
685	0.114
685	0.114
686	0.114
686	0.114
687	0.114
687	0.114
687	0.114
688	0.114
688	0.114
689	0.115
689	0.115
690	0.115
690	0.114
691	0.114
691	0.114
691	0.114
692	0.114
692	0.114
693	0.115
693	0.115
694	0.115
694	0.115
695	0.115
695	0.116
695	0.117
696	0.116
696	0.116
697	0.116
697	0.116
698	0.116
698	0.115
698	0.115
699	0.115
699	0.115
700	0.114
700	0.114
701	0.114
701	0.113
702	0.112
702	0.112
702	0.112
703	0.111
703	0.11
704	0.11
704	0.109
705	0.109
705	0.109
705	0.108
706	0.108
706	0.108
707	0.108
707	0.108
708	0.108
708	0.108
709	0.108
709	0.108
709	0.108
710	0.108
710	0.109
711	0.11
711	0.11
712	0.111
712	0.111
713	0.112
713	0.112
713	0.112
714	0.112
714	0.112
715	0.111
715	0.111
716	0.11
716	0.11
716	0.109
717	0.108
717	0.108
718	0.107
718	0.107
719	0.108
719	0.108
720	0.109
720	0.109
720	0.11
721	0.111
721	0.111
722	0.112
722	0.112
723	0.112
723	0.112
723	0.112
724	0.112
724	0.111
725	0.11
725	0.109
726	0.108
726	0.108
727	0.107
727	0.106
727	0.106
728	0.106
728	0.105
729	0.106
729	0.106
730	0.106
730	0.106
730	0.107
731	0.107
731	0.107
732	0.108
732	0.108
733	0.109
733	0.109
734	0.109
734	0.11
734	0.11
735	0.11
735	0.111
736	0.11
736	0.111
737	0.111
737	0.111
737	0.11
738	0.11
738	0.109
739	0.108
739	0.108
740	0.108
740	0.108
741	0.108
741	0.108
741	0.108
742	0.108
742	0.109
743	0.11
743	0.11
744	0.111
744	0.111
744	0.111
745	0.111
745	0.111
746	0.111
746	0.11
747	0.11
747	0.11
748	0.109
748	0.109
748	0.109
749	0.109
749	0.109
750	0.109
750	0.11
751	0.11
751	0.11
751	0.11
752	0.11
752	0.11
753	0.11
753	0.109
754	0.109
754	0.108
754	0.108
755	0.108
755	0.107
756	0.106
756	0.105
757	0.105
757	0.105
758	0.104
758	0.104
758	0.104
759	0.104
759	0.104
760	0.103
760	0.103
761	0.104
761	0.104
761	0.104
762	0.104
762	0.105
763	0.105
763	0.104
764	0.104
764	0.104
764	0.104
765	0.103
765	0.103
766	0.102
766	0.102
767	0.101
767	0.1
768	0.099
768	0.099
768	0.099
769	0.099
769	0.099
770	0.099
770	0.1
771	0.1
771	0.101
771	0.101
772	0.102
772	0.103
773	0.103
773	0.103
774	0.103
774	0.104
775	0.104
775	0.104
775	0.104
776	0.104
776	0.104
777	0.104
777	0.104
778	0.104
778	0.104
778	0.103
779	0.103
779	0.103
780	0.101
780	0.1
781	0.1
781	0.099
781	0.098
782	0.098
782	0.097
783	0.097
783	0.098
784	0.097
784	0.098
784	0.098
785	0.098
785	0.098
786	0.099
786	0.099
787	0.099
787	0.099
788	0.099
788	0.098
788	0.098
789	0.097
789	0.097
790	0.097
790	0.097
791	0.096
791	0.096
791	0.096
792	0.096
792	0.096
793	0.096
793	0.095
794	0.095
794	0.095
794	0.095
795	0.095
795	0.095
796	0.095
796	0.095
797	0.094
797	0.094
797	0.094
798	0.094
798	0.095
799	0.095
799	0.094
800	0.094
800	0.093
801	0.093
801	0.093
801	0.093
802	0.093
802	0.093
803	0.093
803	0.093
804	0.093
804	0.093
804	0.093
805	0.093
805	0.093
806	0.093
806	0.093
807	0.093
807	0.093
807	0.093
808	0.093
808	0.093
809	0.093
809	0.093
810	0.093
810	0.093
810	0.093
811	0.093
811	0.093
812	0.093
812	0.093
813	0.094
813	0.094
813	0.094
814	0.095
814	0.096
815	0.096
815	0.097
816	0.097
816	0.096
817	0.096
817	0.096
817	0.095
818	0.095
818	0.094
819	0.093
819	0.092
820	0.091
820	0.09
820	0.089
821	0.089
821	0.089
822	0.088
822	0.088
823	0.088
823	0.088
823	0.089
824	0.09
824	0.091
825	0.092
825	0.093
826	0.094
826	0.094
826	0.095
827	0.095
827	0.095
828	0.096
828	0.096
829	0.096
829	0.096
829	0.096
830	0.096
830	0.096
831	0.096
831	0.096
832	0.096
832	0.096
832	0.096
833	0.096
833	0.095
834	0.095
834	0.094
835	0.093
835	0.092
835	0.092
836	0.092
836	0.091
837	0.091
837	0.091
838	0.09
838	0.09
839	0.089
839	0.089
839	0.088
840	0.087
840	0.086
841	0.085
841	0.085
842	0.084
842	0.083
842	0.082
843	0.081
843	0.081
844	0.08
844	0.08
845	0.08
845	0.08
845	0.08
846	0.08
846	0.08
847	0.08
847	0.08
848	0.08
848	0.08
848	0.08
849	0.08
849	0.079
850	0.079
850	0.079
851	0.078
851	0.078
851	0.078
852	0.077
852	0.077
853	0.076
853	0.076
854	0.077
854	0.077
854	0.078
855	0.079
855	0.08
856	0.081
856	0.082
857	0.083
857	0.084
857	0.085
858	0.085
858	0.085
859	0.085
859	0.085
860	0.085
860	0.085
860	0.084
861	0.084
861	0.083
862	0.082
862	0.081
863	0.081
863	0.08
863	0.08
864	0.08
864	0.08
865	0.08
865	0.08
866	0.08
866	0.08
866	0.08
867	0.081
867	0.081
868	0.081
868	0.081
869	0.082
869	0.081
869	0.081
870	0.081
870	0.08
871	0.08
871	0.081
872	0.08
872	0.08
872	0.08
873	0.08
873	0.079
874	0.078
874	0.078
875	0.078
875	0.078
875	0.078
876	0.077
876	0.077
877	0.077
877	0.077
878	0.077
878	0.077
878	0.078
879	0.078
879	0.078
880	0.078
880	0.078
881	0.078
881	0.078
881	0.078
882	0.078
882	0.078
883	0.077
883	0.077
884	0.077
884	0.077
884	0.077
885	0.077
885	0.077
886	0.077
886	0.077
887	0.076
887	0.076
887	0.076
888	0.075
888	0.075
889	0.075
889	0.075
890	0.075
890	0.075
890	0.075
891	0.075
891	0.075
892	0.075
892	0.075
893	0.075
893	0.074
893	0.074
894	0.073
894	0.072
895	0.072
895	0.071
895	0.071
896	0.071
896	0.071
897	0.07
897	0.07
898	0.071
898	0.071
898	0.071
899	0.071
899	0.071
900	0.071
900	0.071
901	0.071
901	0.071
901	0.071
902	0.071
902	0.07
903	0.07
903	0.07
904	0.07
904	0.07
904	0.069
905	0.069
905	0.068
906	0.068
906	0.068
907	0.068
907	0.068
907	0.068
908	0.068
908	0.068
909	0.068
909	0.068
910	0.068
910	0.069
910	0.068
911	0.068
911	0.067
912	0.067
912	0.066
913	0.066
913	0.065
913	0.065
914	0.065
914	0.064
915	0.064
915	0.064
916	0.064
916	0.064
916	0.064
917	0.063
917	0.063
918	0.063
918	0.063
918	0.063
919	0.063
919	0.063
920	0.063
920	0.063
921	0.063
921	0.063
921	0.063
922	0.063
922	0.063
923	0.063
923	0.063
924	0.063
924	0.063
924	0.064
925	0.064
925	0.064
926	0.064
926	0.064
927	0.064
927	0.064
927	0.065
928	0.065
928	0.065
929	0.065
929	0.066
930	0.066
930	0.066
930	0.066
931	0.066
931	0.067
932	0.067
932	0.067
933	0.067
933	0.067
933	0.066
934	0.066
934	0.065
935	0.065
935	0.064
935	0.064
936	0.063
936	0.062
937	0.062
937	0.061
938	0.06
938	0.06
938	0.059
939	0.059
939	0.058
940	0.058
940	0.058
941	0.058
941	0.058
941	0.059
942	0.059
942	0.06
943	0.06
943	0.061
944	0.061
944	0.061
944	0.062
945	0.062
945	0.062
946	0.063
946	0.063
946	0.062
947	0.062
947	0.062
948	0.062
948	0.061
949	0.061
949	0.06
949	0.06
950	0.059
950	0.059
951	0.058
951	0.058
952	0.057
952	0.057
952	0.056
953	0.056
953	0.056
954	0.056
954	0.056
955	0.056
955	0.056
955	0.056
956	0.057
956	0.058
957	0.059
957	0.059
957	0.06
958	0.061
958	0.061
959	0.062
959	0.062
960	0.063
960	0.063
960	0.063
961	0.063
961	0.063
962	0.063
962	0.063
963	0.063
963	0.063
963	0.062
964	0.062
964	0.062
965	0.062
965	0.062
966	0.062
966	0.061
966	0.061
967	0.061
967	0.061
968	0.06
968	0.06
968	0.059
969	0.058
969	0.058
970	0.057
970	0.056
971	0.055
971	0.054
971	0.054
972	0.053
972	0.053
973	0.053
973	0.053
974	0.054
974	0.054
974	0.055
975	0.055
975	0.056
976	0.056
976	0.057
976	0.057
977	0.057
977	0.057
978	0.056
978	0.056
979	0.056
979	0.056
979	0.056
980	0.056
980	0.056
981	0.056
981	0.056
982	0.056
982	0.057
982	0.057
983	0.058
983	0.058
984	0.059
984	0.059
984	0.059
985	0.059
985	0.059
986	0.059
986	0.059
987	0.058
987	0.058
987	0.058
988	0.058
988	0.057
989	0.057
989	0.057
990	0.057
990	0.057
990	0.057
991	0.057
991	0.057
992	0.057
992	0.056
992	0.056
993	0.055
993	0.054
994	0.054
994	0.053
995	0.052
995	0.052
995	0.052
996	0.051
996	0.051
997	0.051
997	0.051
997	0.051
998	0.052
998	0.052
999	0.053
999	0.053
1000	0.054
1000	0.055
1000	0.055
1001	0.055
1001	0.056
1002	0.056
1002	0.056
1003	0.056
1003	0.056
1003	0.055
1004	0.055
1004	0.054
1005	0.053
1005	0.053
1005	0.052
1006	0.052
1006	0.052
1007	0.051
1007	0.051
1008	0.05
1008	0.05
1008	0.049
1009	0.049
1009	0.049
1010	0.049
1010	0.049
1010	0.049
1011	0.048
1011	0.048
1012	0.048
1012	0.047
1013	0.047
1013	0.047
1013	0.046
1014	0.046
1014	0.046
1015	0.045
1015	0.045
1016	0.045
1016	0.045
1016	0.045
1017	0.045
1017	0.045
1018	0.045
1018	0.045
1018	0.045
1019	0.045
1019	0.045
1020	0.045
1020	0.045
1021	0.045
1021	0.046
1021	0.046
1022	0.047
1022	0.047
1023	0.047
1023	0.048
1023	0.048
1024	0.048
1024	0.048
1025	0.048
1025	0.049
1026	0.049
1026	0.048
1026	0.048
1027	0.048
1027	0.048
1028	0.048
1028	0.048
1028	0.048
1029	0.048
1029	0.048
1030	0.048
1030	0.049
1031	0.049
1031	0.049
1031	0.049
1032	0.05
1032	0.05
1033	0.05
1033	0.05
1033	0.05
1034	0.051
1034	0.051
1035	0.051
1035	0.051
1036	0.051
1036	0.051
1036	0.051
1037	0.05
1037	0.05
1038	0.05
1038	0.05
1039	0.05
1039	0.049
1039	0.049
1040	0.049
1040	0.048
1041	0.048
1041	0.048
1041	0.047
1042	0.047
1042	0.046
1043	0.046
1043	0.046
1044	0.045
1044	0.045
1044	0.045
1045	0.044
1045	0.044
1046	0.044
1046	0.044
1046	0.044
1047	0.044
1047	0.044
1048	0.044
1048	0.044
1049	0.045
1049	0.045
1049	0.045
1050	0.045
1050	0.045
1051	0.045
1051	0.045
1051	0.045
1052	0.044
1052	0.044
1053	0.044
1053	0.043
1053	0.043
1054	0.043
1054	0.042
1055	0.042
1055	0.042
1056	0.041
1056	0.041
1056	0.04
1057	0.04
1057	0.039
1058	0.039
1058	0.038
1058	0.038
1059	0.037
1059	0.037
1060	0.037
1060	0.036
1061	0.036
1061	0.036
1061	0.036
1062	0.036
1062	0.036
1063	0.036
1063	0.037
1063	0.037
1064	0.037
1064	0.037
1065	0.037
1065	0.037
1066	0.037
1066	0.037
1066	0.037
1067	0.037
1067	0.037
1068	0.037
1068	0.037
1068	0.037
1069	0.037
1069	0.036
1070	0.036
1070	0.036
1071	0.036
1071	0.035
1071	0.035
1072	0.035
1072	0.035
1073	0.034
1073	0.034
1073	0.034
1074	0.034
1074	0.034
1075	0.034
1075	0.034
1076	0.035
1076	0.035
1076	0.036
1077	0.036
1077	0.036
1078	0.036
1078	0.036
1078	0.036
1079	0.036
1079	0.036
1080	0.035
1080	0.035
1080	0.034
1081	0.033
1081	0.033
1082	0.033
1082	0.033
1083	0.033
1083	0.033
1083	0.033
1084	0.033
1084	0.033
1085	0.034
1085	0.034
1085	0.035
1086	0.035
1086	0.035
1087	0.035
1087	0.035
1088	0.035
1088	0.035
1088	0.036
1089	0.036
1089	0.035
1090	0.034
1090	0.033
1090	0.033
1091	0.032
1091	0.032
1092	0.032
1092	0.032
1092	0.032
1093	0.031
1093	0.031
1094	0.032
1094	0.032
1095	0.031
1095	0.031
1095	0.031
1096	0.031
1096	0.03
1097	0.029
1097	0.029
1097	0.028
1098	0.027
1098	0.025
1099	0.025
1099	0.024
1100	0.023
1100	0.022
1100	0.021
1101	0.02
1101	0.02
1102	0.019
1102	0.019
1102	0.018
1103	0.018
1103	0.018
1104	0.018
1104	0.018
1104	0.018
1105	0.017
1105	0.016
1106	0.015
1106	0.014
1107	0.013
1107	0.013
1107	0.013
1108	0.012
1108	0.012
1109	0.01
1109	0.01
1109	0.009
1110	0.011
1110	0.009
1111	0.009
1111	0.01
