Data from reversibility-20sec_Absorbance__3853__000000000003853.txt Node

Date: Wed Dec 06 09:37:26 CET 2023
User: Marek
Spectrometer: MAYP115816
Trigger mode: 0
Integration Time (sec): 2.000000E-1
Scans to average: 10
Electric dark correction enabled: true
Nonlinearity correction enabled: true
Boxcar width: 5
XAxis mode: Wavelengths
Number of Pixels in Spectrum: 2068
>>>>>Begin Spectral Data<<<<<
199	-0.13
199	-0.099
200	-0.043
200	0.007
201	0.035
201	0.053
202	0.059
202	0.066
203	0.075
203	0.078
204	0.091
204	0.105
205	0.114
205	0.12
205	0.118
206	0.115
206	0.115
207	0.119
207	0.119
208	0.116
208	0.116
209	0.119
209	0.118
210	0.121
210	0.123
211	0.123
211	0.128
212	0.123
212	0.125
213	0.131
213	0.135
213	0.135
214	0.137
214	0.136
215	0.138
215	0.135
216	0.138
216	0.137
217	0.144
217	0.147
218	0.144
218	0.147
219	0.153
219	0.151
220	0.155
220	0.155
221	0.16
221	0.162
221	0.17
222	0.176
222	0.181
223	0.187
223	0.19
224	0.193
224	0.203
225	0.213
225	0.225
226	0.233
226	0.241
227	0.251
227	0.261
228	0.276
228	0.292
229	0.312
229	0.335
229	0.357
230	0.381
230	0.408
231	0.442
231	0.482
232	0.52
232	0.562
233	0.603
233	0.651
234	0.702
234	0.753
235	0.806
235	0.862
236	0.912
236	0.965
236	1.018
237	1.068
237	1.117
238	1.167
238	1.213
239	1.258
239	1.303
240	1.343
240	1.375
241	1.412
241	1.446
242	1.478
242	1.511
243	1.541
243	1.568
243	1.593
244	1.616
244	1.636
245	1.654
245	1.677
246	1.696
246	1.71
247	1.721
247	1.732
248	1.743
248	1.752
249	1.761
249	1.768
250	1.775
250	1.784
250	1.787
251	1.791
251	1.794
252	1.801
252	1.802
253	1.803
253	1.803
254	1.803
254	1.804
255	1.803
255	1.802
256	1.801
256	1.8
257	1.802
257	1.798
258	1.798
258	1.798
258	1.798
259	1.797
259	1.797
260	1.796
260	1.795
261	1.797
261	1.799
262	1.798
262	1.799
263	1.801
263	1.803
264	1.801
264	1.802
265	1.802
265	1.801
265	1.8
266	1.799
266	1.798
267	1.797
267	1.798
268	1.797
268	1.797
269	1.8
269	1.798
270	1.798
270	1.797
271	1.795
271	1.794
272	1.792
272	1.791
272	1.787
273	1.782
273	1.777
274	1.771
274	1.766
275	1.76
275	1.755
276	1.749
276	1.741
277	1.732
277	1.723
278	1.713
278	1.702
278	1.689
279	1.675
279	1.658
280	1.637
280	1.611
281	1.58
281	1.547
282	1.511
282	1.475
283	1.439
283	1.402
284	1.367
284	1.332
285	1.298
285	1.268
285	1.24
286	1.216
286	1.194
287	1.175
287	1.158
288	1.143
288	1.13
289	1.12
289	1.11
290	1.102
290	1.094
291	1.088
291	1.082
292	1.077
292	1.072
292	1.068
293	1.064
293	1.06
294	1.056
294	1.052
295	1.049
295	1.046
296	1.042
296	1.039
297	1.036
297	1.032
298	1.029
298	1.026
298	1.023
299	1.02
299	1.017
300	1.014
300	1.011
301	1.008
301	1.006
302	1.003
302	1
303	0.998
303	0.995
304	0.992
304	0.989
305	0.987
305	0.984
305	0.982
306	0.979
306	0.977
307	0.974
307	0.972
308	0.969
308	0.966
309	0.963
309	0.96
310	0.957
310	0.954
311	0.951
311	0.947
311	0.944
312	0.94
312	0.937
313	0.933
313	0.929
314	0.925
314	0.921
315	0.917
315	0.913
316	0.909
316	0.904
317	0.9
317	0.895
318	0.89
318	0.885
318	0.88
319	0.875
319	0.869
320	0.864
320	0.858
321	0.852
321	0.846
322	0.839
322	0.833
323	0.827
323	0.821
324	0.814
324	0.808
324	0.801
325	0.795
325	0.788
326	0.781
326	0.774
327	0.768
327	0.761
328	0.754
328	0.747
329	0.741
329	0.734
330	0.727
330	0.72
330	0.713
331	0.706
331	0.699
332	0.693
332	0.686
333	0.679
333	0.672
334	0.665
334	0.659
335	0.652
335	0.645
336	0.639
336	0.632
336	0.626
337	0.62
337	0.613
338	0.607
338	0.601
339	0.596
339	0.59
340	0.584
340	0.579
341	0.573
341	0.568
342	0.563
342	0.557
342	0.552
343	0.547
343	0.542
344	0.537
344	0.532
345	0.527
345	0.523
346	0.518
346	0.514
347	0.51
347	0.505
348	0.501
348	0.497
348	0.494
349	0.49
349	0.486
350	0.483
350	0.479
351	0.476
351	0.472
352	0.469
352	0.466
353	0.463
353	0.461
354	0.458
354	0.455
354	0.452
355	0.449
355	0.446
356	0.443
356	0.44
357	0.436
357	0.433
358	0.43
358	0.428
359	0.425
359	0.423
360	0.421
360	0.419
360	0.417
361	0.415
361	0.413
362	0.412
362	0.411
363	0.409
363	0.407
364	0.405
364	0.403
365	0.401
365	0.399
366	0.397
366	0.395
366	0.393
367	0.391
367	0.389
368	0.388
368	0.386
369	0.385
369	0.383
370	0.382
370	0.38
371	0.379
371	0.377
372	0.376
372	0.375
372	0.373
373	0.372
373	0.371
374	0.37
374	0.369
375	0.367
375	0.366
376	0.365
376	0.364
377	0.363
377	0.362
378	0.361
378	0.359
378	0.358
379	0.357
379	0.356
380	0.355
380	0.354
381	0.354
381	0.353
382	0.352
382	0.352
383	0.351
383	0.35
383	0.35
384	0.349
384	0.348
385	0.348
385	0.347
386	0.347
386	0.346
387	0.345
387	0.345
388	0.344
388	0.344
389	0.343
389	0.343
389	0.342
390	0.342
390	0.341
391	0.34
391	0.339
392	0.339
392	0.338
393	0.338
393	0.337
394	0.337
394	0.336
394	0.336
395	0.335
395	0.335
396	0.334
396	0.334
397	0.333
397	0.333
398	0.332
398	0.332
399	0.331
399	0.331
400	0.33
400	0.33
400	0.33
401	0.329
401	0.329
402	0.328
402	0.328
403	0.327
403	0.327
404	0.326
404	0.326
405	0.326
405	0.325
405	0.325
406	0.324
406	0.324
407	0.324
407	0.323
408	0.323
408	0.323
409	0.322
409	0.322
410	0.321
410	0.321
411	0.321
411	0.32
411	0.32
412	0.32
412	0.319
413	0.319
413	0.319
414	0.319
414	0.318
415	0.318
415	0.318
416	0.317
416	0.317
416	0.317
417	0.316
417	0.316
418	0.316
418	0.315
419	0.315
419	0.314
420	0.314
420	0.313
421	0.313
421	0.312
421	0.312
422	0.312
422	0.311
423	0.311
423	0.311
424	0.31
424	0.31
425	0.31
425	0.31
426	0.309
426	0.309
427	0.309
427	0.308
427	0.308
428	0.308
428	0.307
429	0.307
429	0.306
430	0.306
430	0.305
431	0.305
431	0.305
432	0.305
432	0.305
432	0.305
433	0.305
433	0.304
434	0.304
434	0.304
435	0.305
435	0.305
436	0.305
436	0.304
437	0.304
437	0.304
437	0.304
438	0.304
438	0.303
439	0.303
439	0.303
440	0.302
440	0.302
441	0.302
441	0.301
442	0.301
442	0.301
442	0.301
443	0.301
443	0.301
444	0.301
444	0.301
445	0.301
445	0.301
446	0.301
446	0.301
447	0.301
447	0.3
447	0.3
448	0.3
448	0.3
449	0.3
449	0.3
450	0.3
450	0.3
451	0.3
451	0.3
452	0.3
452	0.3
452	0.3
453	0.3
453	0.3
454	0.299
454	0.299
455	0.299
455	0.299
456	0.299
456	0.299
457	0.299
457	0.299
458	0.299
458	0.299
458	0.299
459	0.299
459	0.3
460	0.3
460	0.3
461	0.3
461	0.3
462	0.3
462	0.3
463	0.301
463	0.3
463	0.3
464	0.3
464	0.3
465	0.3
465	0.3
466	0.3
466	0.301
467	0.301
467	0.301
467	0.301
468	0.302
468	0.302
469	0.302
469	0.303
470	0.304
470	0.304
471	0.304
471	0.305
472	0.305
472	0.305
472	0.306
473	0.306
473	0.306
474	0.307
474	0.307
475	0.307
475	0.308
476	0.308
476	0.308
477	0.309
477	0.309
477	0.31
478	0.311
478	0.311
479	0.312
479	0.312
480	0.313
480	0.314
481	0.315
481	0.315
482	0.316
482	0.317
482	0.318
483	0.318
483	0.319
484	0.32
484	0.321
485	0.322
485	0.322
486	0.323
486	0.324
487	0.324
487	0.325
487	0.326
488	0.327
488	0.328
489	0.329
489	0.33
490	0.331
490	0.333
491	0.334
491	0.335
492	0.337
492	0.338
492	0.339
493	0.341
493	0.343
494	0.344
494	0.345
495	0.347
495	0.348
496	0.349
496	0.351
496	0.352
497	0.353
497	0.355
498	0.356
498	0.357
499	0.358
499	0.36
500	0.361
500	0.363
501	0.364
501	0.365
501	0.366
502	0.367
502	0.369
503	0.37
503	0.372
504	0.373
504	0.374
505	0.376
505	0.377
506	0.379
506	0.38
506	0.381
507	0.383
507	0.384
508	0.385
508	0.386
509	0.387
509	0.388
510	0.389
510	0.39
511	0.391
511	0.393
511	0.394
512	0.395
512	0.396
513	0.397
513	0.398
514	0.398
514	0.399
515	0.4
515	0.401
515	0.401
516	0.402
516	0.403
517	0.403
517	0.403
518	0.404
518	0.404
519	0.404
519	0.405
520	0.405
520	0.405
520	0.405
521	0.405
521	0.405
522	0.406
522	0.406
523	0.406
523	0.406
524	0.406
524	0.406
524	0.406
525	0.406
525	0.405
526	0.404
526	0.404
527	0.403
527	0.403
528	0.402
528	0.401
529	0.401
529	0.4
529	0.398
530	0.397
530	0.397
531	0.395
531	0.394
532	0.393
532	0.392
533	0.39
533	0.389
533	0.387
534	0.386
534	0.384
535	0.382
535	0.381
536	0.379
536	0.377
537	0.375
537	0.373
538	0.371
538	0.369
538	0.367
539	0.366
539	0.364
540	0.362
540	0.361
541	0.359
541	0.357
542	0.355
542	0.353
542	0.351
543	0.349
543	0.347
544	0.345
544	0.343
545	0.341
545	0.339
546	0.337
546	0.335
547	0.332
547	0.33
547	0.328
548	0.326
548	0.324
549	0.322
549	0.32
550	0.318
550	0.316
551	0.313
551	0.311
551	0.308
552	0.306
552	0.304
553	0.302
553	0.3
554	0.298
554	0.295
555	0.293
555	0.291
556	0.289
556	0.287
556	0.285
557	0.284
557	0.282
558	0.28
558	0.278
559	0.276
559	0.274
560	0.273
560	0.271
560	0.269
561	0.268
561	0.266
562	0.263
562	0.261
563	0.259
563	0.257
564	0.255
564	0.253
564	0.251
565	0.249
565	0.247
566	0.245
566	0.243
567	0.242
567	0.24
568	0.238
568	0.237
568	0.235
569	0.234
569	0.232
570	0.23
570	0.228
571	0.227
571	0.225
572	0.224
572	0.222
573	0.221
573	0.219
573	0.218
574	0.217
574	0.215
575	0.214
575	0.213
576	0.212
576	0.21
577	0.209
577	0.207
577	0.206
578	0.205
578	0.204
579	0.203
579	0.202
580	0.2
580	0.199
581	0.198
581	0.197
581	0.196
582	0.195
582	0.194
583	0.193
583	0.192
584	0.19
584	0.188
585	0.187
585	0.186
585	0.185
586	0.184
586	0.183
587	0.182
587	0.181
588	0.18
588	0.179
589	0.179
589	0.178
590	0.177
590	0.177
590	0.176
591	0.175
591	0.174
592	0.173
592	0.171
593	0.171
593	0.169
594	0.168
594	0.167
594	0.166
595	0.165
595	0.164
596	0.163
596	0.162
597	0.162
597	0.162
598	0.162
598	0.161
598	0.161
599	0.161
599	0.16
600	0.159
600	0.158
601	0.158
601	0.157
602	0.156
602	0.155
602	0.154
603	0.154
603	0.153
604	0.153
604	0.153
605	0.152
605	0.152
606	0.151
606	0.15
606	0.15
607	0.149
607	0.148
608	0.148
608	0.147
609	0.146
609	0.145
610	0.144
610	0.144
610	0.143
611	0.143
611	0.143
612	0.142
612	0.142
613	0.142
613	0.142
614	0.141
614	0.141
614	0.14
615	0.14
615	0.14
616	0.139
616	0.139
617	0.139
617	0.138
618	0.138
618	0.138
618	0.137
619	0.137
619	0.137
620	0.136
620	0.136
621	0.135
621	0.135
622	0.134
622	0.133
622	0.133
623	0.132
623	0.131
624	0.131
624	0.13
625	0.13
625	0.129
626	0.129
626	0.129
626	0.129
627	0.128
627	0.128
628	0.128
628	0.127
629	0.127
629	0.126
630	0.126
630	0.125
630	0.125
631	0.125
631	0.125
632	0.124
632	0.124
633	0.124
633	0.124
634	0.124
634	0.124
634	0.124
635	0.124
635	0.123
636	0.123
636	0.123
637	0.122
637	0.122
638	0.122
638	0.121
638	0.121
639	0.12
639	0.12
640	0.119
640	0.119
641	0.119
641	0.119
642	0.118
642	0.118
642	0.118
643	0.117
643	0.117
644	0.117
644	0.117
645	0.117
645	0.117
646	0.117
646	0.117
646	0.117
647	0.117
647	0.117
648	0.116
648	0.116
649	0.116
649	0.116
650	0.115
650	0.115
650	0.115
651	0.115
651	0.115
652	0.115
652	0.115
653	0.115
653	0.117
653	0.122
654	0.098
654	0.079
655	0.078
655	0.077
656	0.078
656	0.078
657	0.078
657	0.078
657	0.078
658	0.077
658	0.069
659	0.086
659	0.108
660	0.113
660	0.113
661	0.112
661	0.112
661	0.111
662	0.11
662	0.109
663	0.109
663	0.108
664	0.108
664	0.107
665	0.107
665	0.107
665	0.107
666	0.107
666	0.107
667	0.107
667	0.108
668	0.108
668	0.108
669	0.108
669	0.108
669	0.109
670	0.109
670	0.109
671	0.108
671	0.108
672	0.108
672	0.107
672	0.106
673	0.106
673	0.105
674	0.105
674	0.105
675	0.104
675	0.104
676	0.105
676	0.105
676	0.106
677	0.106
677	0.106
678	0.107
678	0.106
679	0.106
679	0.106
680	0.106
680	0.106
680	0.105
681	0.105
681	0.105
682	0.105
682	0.105
683	0.105
683	0.105
684	0.105
684	0.105
684	0.104
685	0.104
685	0.104
686	0.104
686	0.104
687	0.104
687	0.104
687	0.105
688	0.105
688	0.105
689	0.105
689	0.106
690	0.106
690	0.105
691	0.105
691	0.105
691	0.105
692	0.105
692	0.105
693	0.105
693	0.105
694	0.105
694	0.104
695	0.105
695	0.106
695	0.106
696	0.106
696	0.105
697	0.105
697	0.105
698	0.105
698	0.104
698	0.104
699	0.104
699	0.104
700	0.103
700	0.103
701	0.102
701	0.102
702	0.101
702	0.101
702	0.101
703	0.1
703	0.1
704	0.099
704	0.099
705	0.099
705	0.099
705	0.099
706	0.099
706	0.099
707	0.099
707	0.099
708	0.099
708	0.099
709	0.099
709	0.099
709	0.098
710	0.097
710	0.097
711	0.097
711	0.097
712	0.097
712	0.096
713	0.096
713	0.096
713	0.096
714	0.096
714	0.096
715	0.096
715	0.095
716	0.095
716	0.094
716	0.093
717	0.093
717	0.092
718	0.092
718	0.092
719	0.092
719	0.092
720	0.093
720	0.093
720	0.094
721	0.094
721	0.095
722	0.096
722	0.096
723	0.096
723	0.096
723	0.096
724	0.095
724	0.094
725	0.093
725	0.092
726	0.091
726	0.09
727	0.089
727	0.089
727	0.089
728	0.088
728	0.088
729	0.089
729	0.089
730	0.09
730	0.09
730	0.091
731	0.091
731	0.092
732	0.092
732	0.092
733	0.092
733	0.092
734	0.092
734	0.092
734	0.092
735	0.091
735	0.091
736	0.09
736	0.089
737	0.088
737	0.088
737	0.087
738	0.086
738	0.086
739	0.085
739	0.085
740	0.084
740	0.085
741	0.085
741	0.086
741	0.086
742	0.086
742	0.087
743	0.087
743	0.088
744	0.088
744	0.088
744	0.088
745	0.088
745	0.088
746	0.087
746	0.087
747	0.087
747	0.087
748	0.087
748	0.086
748	0.086
749	0.086
749	0.086
750	0.086
750	0.086
751	0.086
751	0.086
751	0.086
752	0.086
752	0.086
753	0.085
753	0.085
754	0.084
754	0.084
754	0.083
755	0.083
755	0.083
756	0.082
756	0.08
757	0.08
757	0.08
758	0.079
758	0.079
758	0.079
759	0.079
759	0.078
760	0.078
760	0.078
761	0.078
761	0.078
761	0.079
762	0.078
762	0.078
763	0.078
763	0.078
764	0.077
764	0.077
764	0.077
765	0.077
765	0.077
766	0.077
766	0.077
767	0.076
767	0.076
768	0.076
768	0.076
768	0.076
769	0.077
769	0.077
770	0.077
770	0.077
771	0.077
771	0.077
771	0.077
772	0.077
772	0.076
773	0.076
773	0.076
774	0.076
774	0.075
775	0.075
775	0.075
775	0.075
776	0.076
776	0.076
777	0.076
777	0.076
778	0.076
778	0.076
778	0.076
779	0.075
779	0.075
780	0.074
780	0.073
781	0.072
781	0.072
781	0.071
782	0.071
782	0.071
783	0.071
783	0.071
784	0.071
784	0.072
784	0.072
785	0.073
785	0.073
786	0.074
786	0.074
787	0.074
787	0.074
788	0.074
788	0.073
788	0.072
789	0.072
789	0.071
790	0.071
790	0.07
791	0.07
791	0.069
791	0.069
792	0.069
792	0.069
793	0.068
793	0.068
794	0.068
794	0.067
794	0.067
795	0.067
795	0.067
796	0.068
796	0.068
797	0.067
797	0.067
797	0.068
798	0.068
798	0.068
799	0.068
799	0.068
800	0.067
800	0.066
801	0.066
801	0.066
801	0.065
802	0.065
802	0.065
803	0.065
803	0.065
804	0.065
804	0.066
804	0.066
805	0.066
805	0.066
806	0.066
806	0.066
807	0.067
807	0.067
807	0.067
808	0.067
808	0.067
809	0.066
809	0.066
810	0.066
810	0.066
810	0.066
811	0.066
811	0.067
812	0.067
812	0.067
813	0.067
813	0.067
813	0.067
814	0.067
814	0.067
815	0.067
815	0.067
816	0.067
816	0.066
817	0.066
817	0.065
817	0.065
818	0.065
818	0.065
819	0.064
819	0.064
820	0.063
820	0.063
820	0.062
821	0.062
821	0.062
822	0.062
822	0.062
823	0.062
823	0.062
823	0.063
824	0.063
824	0.064
825	0.065
825	0.066
826	0.066
826	0.067
826	0.067
827	0.068
827	0.068
828	0.068
828	0.067
829	0.067
829	0.067
829	0.067
830	0.067
830	0.067
831	0.068
831	0.068
832	0.068
832	0.068
832	0.067
833	0.067
833	0.066
834	0.066
834	0.065
835	0.064
835	0.063
835	0.062
836	0.061
836	0.06
837	0.059
837	0.059
838	0.058
838	0.058
839	0.058
839	0.057
839	0.057
840	0.057
840	0.056
841	0.056
841	0.055
842	0.055
842	0.055
842	0.055
843	0.055
843	0.055
844	0.055
844	0.055
845	0.056
845	0.056
845	0.057
846	0.057
846	0.057
847	0.058
847	0.058
848	0.058
848	0.057
848	0.057
849	0.056
849	0.056
850	0.055
850	0.055
851	0.054
851	0.054
851	0.054
852	0.053
852	0.052
853	0.052
853	0.052
854	0.052
854	0.053
854	0.054
855	0.054
855	0.055
856	0.055
856	0.056
857	0.057
857	0.057
857	0.058
858	0.058
858	0.058
859	0.058
859	0.058
860	0.057
860	0.057
860	0.056
861	0.056
861	0.055
862	0.054
862	0.053
863	0.053
863	0.053
863	0.052
864	0.052
864	0.052
865	0.052
865	0.052
866	0.051
866	0.051
866	0.051
867	0.051
867	0.051
868	0.051
868	0.051
869	0.051
869	0.05
869	0.05
870	0.049
870	0.049
871	0.049
871	0.049
872	0.049
872	0.049
872	0.049
873	0.049
873	0.049
874	0.049
874	0.049
875	0.049
875	0.049
875	0.049
876	0.049
876	0.048
877	0.048
877	0.048
878	0.048
878	0.048
878	0.048
879	0.048
879	0.048
880	0.049
880	0.049
881	0.049
881	0.049
881	0.049
882	0.048
882	0.048
883	0.048
883	0.048
884	0.048
884	0.048
884	0.048
885	0.048
885	0.048
886	0.048
886	0.048
887	0.048
887	0.048
887	0.048
888	0.047
888	0.047
889	0.047
889	0.047
890	0.047
890	0.047
890	0.047
891	0.047
891	0.047
892	0.047
892	0.047
893	0.047
893	0.047
893	0.047
894	0.046
894	0.046
895	0.045
895	0.045
895	0.045
896	0.045
896	0.045
897	0.044
897	0.044
898	0.043
898	0.043
898	0.043
899	0.043
899	0.043
900	0.043
900	0.042
901	0.042
901	0.042
901	0.042
902	0.042
902	0.042
903	0.042
903	0.042
904	0.042
904	0.041
904	0.041
905	0.041
905	0.042
906	0.042
906	0.042
907	0.043
907	0.044
907	0.045
908	0.045
908	0.046
909	0.047
909	0.048
910	0.048
910	0.048
910	0.048
911	0.049
911	0.049
912	0.049
912	0.049
913	0.049
913	0.049
913	0.048
914	0.048
914	0.048
915	0.048
915	0.048
916	0.048
916	0.047
916	0.047
917	0.046
917	0.046
918	0.045
918	0.045
918	0.045
919	0.045
919	0.044
920	0.044
920	0.044
921	0.044
921	0.044
921	0.044
922	0.045
922	0.045
923	0.045
923	0.046
924	0.046
924	0.047
924	0.047
925	0.047
925	0.047
926	0.047
926	0.047
927	0.047
927	0.047
927	0.046
928	0.046
928	0.046
929	0.046
929	0.045
930	0.045
930	0.045
930	0.046
931	0.046
931	0.046
932	0.046
932	0.046
933	0.046
933	0.046
933	0.046
934	0.046
934	0.046
935	0.046
935	0.046
935	0.046
936	0.045
936	0.045
937	0.045
937	0.045
938	0.045
938	0.044
938	0.044
939	0.043
939	0.042
940	0.042
940	0.041
941	0.041
941	0.04
941	0.04
942	0.04
942	0.04
943	0.04
943	0.04
944	0.041
944	0.041
944	0.042
945	0.042
945	0.042
946	0.043
946	0.043
946	0.044
947	0.044
947	0.045
948	0.045
948	0.045
949	0.046
949	0.046
949	0.046
950	0.046
950	0.047
951	0.047
951	0.046
952	0.045
952	0.045
952	0.044
953	0.043
953	0.042
954	0.042
954	0.041
955	0.04
955	0.039
955	0.039
956	0.039
956	0.039
957	0.038
957	0.038
957	0.039
958	0.039
958	0.039
959	0.039
959	0.04
960	0.04
960	0.041
960	0.041
961	0.041
961	0.041
962	0.041
962	0.041
963	0.041
963	0.041
963	0.041
964	0.041
964	0.041
965	0.041
965	0.042
966	0.042
966	0.042
966	0.043
967	0.043
967	0.043
968	0.044
968	0.044
968	0.044
969	0.044
969	0.044
970	0.044
970	0.043
971	0.043
971	0.042
971	0.042
972	0.041
972	0.041
973	0.04
973	0.04
974	0.04
974	0.039
974	0.039
975	0.039
975	0.039
976	0.039
976	0.04
976	0.04
977	0.04
977	0.04
978	0.04
978	0.04
979	0.04
979	0.04
979	0.04
980	0.04
980	0.04
981	0.04
981	0.04
982	0.04
982	0.041
982	0.041
983	0.041
983	0.041
984	0.041
984	0.041
984	0.041
985	0.042
985	0.042
986	0.042
986	0.041
987	0.041
987	0.041
987	0.041
988	0.04
988	0.04
989	0.04
989	0.039
990	0.038
990	0.038
990	0.037
991	0.037
991	0.037
992	0.036
992	0.036
992	0.035
993	0.035
993	0.034
994	0.034
994	0.034
995	0.034
995	0.034
995	0.034
996	0.034
996	0.034
997	0.035
997	0.035
997	0.036
998	0.037
998	0.037
999	0.038
999	0.038
1000	0.039
1000	0.04
1000	0.04
1001	0.04
1001	0.04
1002	0.04
1002	0.04
1003	0.039
1003	0.039
1003	0.038
1004	0.037
1004	0.036
1005	0.035
1005	0.035
1005	0.034
1006	0.033
1006	0.033
1007	0.033
1007	0.032
1008	0.032
1008	0.033
1008	0.033
1009	0.034
1009	0.034
1010	0.034
1010	0.035
1010	0.035
1011	0.035
1011	0.036
1012	0.036
1012	0.036
1013	0.036
1013	0.035
1013	0.035
1014	0.035
1014	0.035
1015	0.035
1015	0.035
1016	0.034
1016	0.034
1016	0.034
1017	0.033
1017	0.033
1018	0.033
1018	0.032
1018	0.032
1019	0.032
1019	0.031
1020	0.031
1020	0.031
1021	0.031
1021	0.031
1021	0.032
1022	0.032
1022	0.032
1023	0.032
1023	0.032
1023	0.032
1024	0.032
1024	0.032
1025	0.032
1025	0.032
1026	0.032
1026	0.032
1026	0.032
1027	0.033
1027	0.033
1028	0.033
1028	0.033
1028	0.033
1029	0.034
1029	0.034
1030	0.034
1030	0.034
1031	0.034
1031	0.035
1031	0.035
1032	0.035
1032	0.035
1033	0.035
1033	0.035
1033	0.035
1034	0.035
1034	0.035
1035	0.035
1035	0.034
1036	0.034
1036	0.034
1036	0.033
1037	0.033
1037	0.032
1038	0.032
1038	0.032
1039	0.031
1039	0.031
1039	0.031
1040	0.031
1040	0.031
1041	0.031
1041	0.031
1041	0.031
1042	0.031
1042	0.032
1043	0.032
1043	0.033
1044	0.033
1044	0.033
1044	0.034
1045	0.034
1045	0.035
1046	0.035
1046	0.036
1046	0.036
1047	0.037
1047	0.037
1048	0.037
1048	0.038
1049	0.038
1049	0.038
1049	0.038
1050	0.039
1050	0.038
1051	0.038
1051	0.038
1051	0.038
1052	0.038
1052	0.037
1053	0.037
1053	0.036
1053	0.035
1054	0.035
1054	0.034
1055	0.034
1055	0.033
1056	0.033
1056	0.032
1056	0.032
1057	0.031
1057	0.031
1058	0.03
1058	0.029
1058	0.029
1059	0.028
1059	0.028
1060	0.028
1060	0.027
1061	0.027
1061	0.027
1061	0.027
1062	0.027
1062	0.027
1063	0.028
1063	0.027
1063	0.027
1064	0.027
1064	0.027
1065	0.027
1065	0.027
1066	0.027
1066	0.027
1066	0.027
1067	0.027
1067	0.027
1068	0.027
1068	0.027
1068	0.027
1069	0.027
1069	0.027
1070	0.027
1070	0.027
1071	0.026
1071	0.026
1071	0.026
1072	0.026
1072	0.026
1073	0.025
1073	0.025
1073	0.024
1074	0.025
1074	0.024
1075	0.024
1075	0.024
1076	0.025
1076	0.025
1076	0.025
1077	0.025
1077	0.025
1078	0.025
1078	0.025
1078	0.025
1079	0.025
1079	0.025
1080	0.024
1080	0.024
1080	0.024
1081	0.024
1081	0.024
1082	0.024
1082	0.025
1083	0.024
1083	0.024
1083	0.024
1084	0.024
1084	0.025
1085	0.025
1085	0.025
1085	0.025
1086	0.025
1086	0.024
1087	0.024
1087	0.024
1088	0.024
1088	0.024
1088	0.024
1089	0.023
1089	0.022
1090	0.022
1090	0.021
1090	0.02
1091	0.02
1091	0.02
1092	0.02
1092	0.021
1092	0.021
1093	0.02
1093	0.021
1094	0.022
1094	0.022
1095	0.022
1095	0.022
1095	0.022
1096	0.021
1096	0.021
1097	0.02
1097	0.02
1097	0.02
1098	0.019
1098	0.018
1099	0.018
1099	0.018
1100	0.017
1100	0.017
1100	0.016
1101	0.016
1101	0.016
1102	0.015
1102	0.015
1102	0.014
1103	0.014
1103	0.014
1104	0.014
1104	0.014
1104	0.014
1105	0.013
1105	0.012
1106	0.01
1106	0.009
1107	0.008
1107	0.007
1107	0.006
1108	0.005
1108	0.003
1109	0.002
1109	0.001
1109	0
1110	0.001
1110	0.002
1111	0.002
1111	-0.001
