Data from reversibility-20sec_Absorbance__6643__000000000006643.txt Node

Date: Thu Dec 07 01:07:26 CET 2023
User: Marek
Spectrometer: MAYP115816
Trigger mode: 0
Integration Time (sec): 2.000000E-1
Scans to average: 10
Electric dark correction enabled: true
Nonlinearity correction enabled: true
Boxcar width: 5
XAxis mode: Wavelengths
Number of Pixels in Spectrum: 2068
>>>>>Begin Spectral Data<<<<<
199	-0.133
199	-0.122
200	-0.058
200	-0.003
201	0.026
201	0.04
202	0.049
202	0.058
203	0.069
203	0.071
204	0.086
204	0.1
205	0.115
205	0.123
205	0.121
206	0.12
206	0.123
207	0.124
207	0.124
208	0.121
208	0.124
209	0.124
209	0.12
210	0.118
210	0.117
211	0.118
211	0.12
212	0.117
212	0.12
213	0.123
213	0.124
213	0.124
214	0.128
214	0.132
215	0.135
215	0.135
216	0.135
216	0.134
217	0.138
217	0.139
218	0.136
218	0.141
219	0.143
219	0.143
220	0.142
220	0.143
221	0.141
221	0.145
221	0.151
222	0.156
222	0.159
223	0.168
223	0.169
224	0.177
224	0.184
225	0.195
225	0.205
226	0.217
226	0.227
227	0.236
227	0.246
228	0.264
228	0.275
229	0.295
229	0.318
229	0.34
230	0.364
230	0.392
231	0.428
231	0.466
232	0.503
232	0.546
233	0.587
233	0.637
234	0.683
234	0.735
235	0.789
235	0.844
236	0.896
236	0.945
236	0.996
237	1.044
237	1.093
238	1.14
238	1.187
239	1.233
239	1.273
240	1.311
240	1.348
241	1.382
241	1.413
242	1.446
242	1.481
243	1.511
243	1.536
243	1.559
244	1.581
244	1.602
245	1.62
245	1.64
246	1.661
246	1.678
247	1.69
247	1.703
248	1.716
248	1.729
249	1.737
249	1.746
250	1.753
250	1.762
250	1.765
251	1.767
251	1.771
252	1.777
252	1.777
253	1.78
253	1.778
254	1.78
254	1.78
255	1.78
255	1.779
256	1.781
256	1.781
257	1.779
257	1.777
258	1.777
258	1.777
258	1.777
259	1.777
259	1.776
260	1.774
260	1.774
261	1.773
261	1.775
262	1.779
262	1.78
263	1.782
263	1.782
264	1.783
264	1.784
265	1.786
265	1.787
265	1.788
266	1.787
266	1.787
267	1.784
267	1.785
268	1.785
268	1.785
269	1.787
269	1.786
270	1.783
270	1.784
271	1.782
271	1.782
272	1.779
272	1.778
272	1.775
273	1.77
273	1.764
274	1.756
274	1.75
275	1.745
275	1.738
276	1.731
276	1.723
277	1.716
277	1.705
278	1.694
278	1.682
278	1.669
279	1.654
279	1.636
280	1.612
280	1.583
281	1.551
281	1.514
282	1.475
282	1.435
283	1.396
283	1.356
284	1.317
284	1.279
285	1.244
285	1.211
285	1.182
286	1.156
286	1.133
287	1.113
287	1.096
288	1.081
288	1.068
289	1.057
289	1.048
290	1.04
290	1.032
291	1.026
291	1.02
292	1.015
292	1.01
292	1.006
293	1.002
293	0.998
294	0.994
294	0.991
295	0.988
295	0.984
296	0.981
296	0.977
297	0.974
297	0.971
298	0.968
298	0.965
298	0.962
299	0.96
299	0.957
300	0.953
300	0.95
301	0.948
301	0.945
302	0.942
302	0.94
303	0.938
303	0.935
304	0.933
304	0.93
305	0.928
305	0.925
305	0.923
306	0.92
306	0.917
307	0.915
307	0.912
308	0.909
308	0.906
309	0.903
309	0.901
310	0.898
310	0.895
311	0.892
311	0.889
311	0.886
312	0.882
312	0.879
313	0.874
313	0.871
314	0.867
314	0.863
315	0.859
315	0.854
316	0.85
316	0.845
317	0.841
317	0.836
318	0.831
318	0.826
318	0.821
319	0.815
319	0.81
320	0.804
320	0.799
321	0.793
321	0.787
322	0.781
322	0.774
323	0.768
323	0.761
324	0.755
324	0.748
324	0.741
325	0.735
325	0.728
326	0.721
326	0.714
327	0.707
327	0.7
328	0.693
328	0.687
329	0.679
329	0.672
330	0.665
330	0.658
330	0.651
331	0.644
331	0.637
332	0.63
332	0.623
333	0.616
333	0.609
334	0.602
334	0.595
335	0.589
335	0.582
336	0.575
336	0.569
336	0.562
337	0.556
337	0.55
338	0.543
338	0.537
339	0.531
339	0.525
340	0.52
340	0.514
341	0.508
341	0.503
342	0.497
342	0.492
342	0.486
343	0.481
343	0.476
344	0.471
344	0.466
345	0.461
345	0.457
346	0.452
346	0.448
347	0.443
347	0.439
348	0.435
348	0.431
348	0.427
349	0.423
349	0.419
350	0.416
350	0.412
351	0.409
351	0.406
352	0.402
352	0.399
353	0.397
353	0.394
354	0.391
354	0.388
354	0.385
355	0.381
355	0.379
356	0.376
356	0.373
357	0.371
357	0.368
358	0.365
358	0.363
359	0.36
359	0.358
360	0.356
360	0.354
360	0.352
361	0.35
361	0.348
362	0.346
362	0.344
363	0.343
363	0.341
364	0.339
364	0.337
365	0.335
365	0.333
366	0.331
366	0.33
366	0.328
367	0.326
367	0.325
368	0.323
368	0.321
369	0.32
369	0.319
370	0.317
370	0.316
371	0.315
371	0.313
372	0.312
372	0.311
372	0.31
373	0.309
373	0.308
374	0.307
374	0.306
375	0.304
375	0.303
376	0.302
376	0.302
377	0.301
377	0.3
378	0.299
378	0.298
378	0.297
379	0.296
379	0.296
380	0.295
380	0.294
381	0.293
381	0.292
382	0.292
382	0.291
383	0.291
383	0.29
383	0.29
384	0.289
384	0.289
385	0.288
385	0.288
386	0.287
386	0.287
387	0.286
387	0.286
388	0.285
388	0.285
389	0.284
389	0.284
389	0.283
390	0.283
390	0.282
391	0.282
391	0.282
392	0.281
392	0.281
393	0.281
393	0.28
394	0.28
394	0.28
394	0.279
395	0.279
395	0.279
396	0.278
396	0.278
397	0.277
397	0.277
398	0.277
398	0.276
399	0.276
399	0.276
400	0.275
400	0.275
400	0.274
401	0.274
401	0.274
402	0.273
402	0.273
403	0.273
403	0.272
404	0.272
404	0.272
405	0.271
405	0.271
405	0.271
406	0.27
406	0.27
407	0.27
407	0.27
408	0.27
408	0.269
409	0.269
409	0.269
410	0.268
410	0.268
411	0.268
411	0.268
411	0.268
412	0.267
412	0.267
413	0.266
413	0.266
414	0.266
414	0.265
415	0.265
415	0.265
416	0.264
416	0.264
416	0.264
417	0.263
417	0.263
418	0.263
418	0.263
419	0.262
419	0.262
420	0.261
420	0.261
421	0.26
421	0.26
421	0.26
422	0.259
422	0.259
423	0.258
423	0.258
424	0.257
424	0.257
425	0.257
425	0.257
426	0.257
426	0.256
427	0.256
427	0.256
427	0.256
428	0.255
428	0.255
429	0.255
429	0.254
430	0.254
430	0.254
431	0.254
431	0.253
432	0.253
432	0.253
432	0.253
433	0.253
433	0.253
434	0.252
434	0.252
435	0.252
435	0.252
436	0.252
436	0.251
437	0.251
437	0.251
437	0.251
438	0.251
438	0.25
439	0.25
439	0.25
440	0.249
440	0.249
441	0.249
441	0.249
442	0.248
442	0.248
442	0.248
443	0.247
443	0.247
444	0.247
444	0.247
445	0.247
445	0.247
446	0.246
446	0.246
447	0.246
447	0.246
447	0.246
448	0.246
448	0.245
449	0.245
449	0.245
450	0.245
450	0.245
451	0.245
451	0.245
452	0.245
452	0.245
452	0.245
453	0.245
453	0.244
454	0.244
454	0.244
455	0.244
455	0.244
456	0.243
456	0.243
457	0.243
457	0.243
458	0.243
458	0.243
458	0.243
459	0.243
459	0.243
460	0.243
460	0.243
461	0.243
461	0.242
462	0.242
462	0.242
463	0.242
463	0.242
463	0.242
464	0.242
464	0.241
465	0.241
465	0.241
466	0.241
466	0.241
467	0.241
467	0.241
467	0.241
468	0.241
468	0.242
469	0.242
469	0.242
470	0.242
470	0.243
471	0.243
471	0.243
472	0.243
472	0.243
472	0.243
473	0.243
473	0.243
474	0.243
474	0.243
475	0.243
475	0.243
476	0.244
476	0.244
477	0.244
477	0.244
477	0.244
478	0.244
478	0.245
479	0.245
479	0.245
480	0.245
480	0.246
481	0.246
481	0.246
482	0.246
482	0.246
482	0.247
483	0.247
483	0.248
484	0.248
484	0.248
485	0.248
485	0.249
486	0.249
486	0.249
487	0.249
487	0.249
487	0.25
488	0.25
488	0.25
489	0.251
489	0.252
490	0.253
490	0.254
491	0.255
491	0.256
492	0.256
492	0.257
492	0.258
493	0.259
493	0.259
494	0.26
494	0.26
495	0.261
495	0.261
496	0.262
496	0.263
496	0.264
497	0.264
497	0.265
498	0.265
498	0.266
499	0.267
499	0.267
500	0.268
500	0.269
501	0.27
501	0.271
501	0.271
502	0.272
502	0.272
503	0.273
503	0.274
504	0.275
504	0.275
505	0.276
505	0.277
506	0.277
506	0.278
506	0.279
507	0.279
507	0.28
508	0.281
508	0.281
509	0.282
509	0.283
510	0.284
510	0.284
511	0.285
511	0.285
511	0.286
512	0.287
512	0.287
513	0.288
513	0.289
514	0.289
514	0.29
515	0.29
515	0.291
515	0.291
516	0.292
516	0.293
517	0.293
517	0.293
518	0.294
518	0.294
519	0.294
519	0.295
520	0.295
520	0.295
520	0.295
521	0.295
521	0.295
522	0.295
522	0.295
523	0.295
523	0.295
524	0.295
524	0.295
524	0.295
525	0.295
525	0.295
526	0.295
526	0.295
527	0.294
527	0.294
528	0.294
528	0.293
529	0.293
529	0.293
529	0.292
530	0.291
530	0.291
531	0.29
531	0.29
532	0.289
532	0.289
533	0.289
533	0.288
533	0.287
534	0.287
534	0.286
535	0.286
535	0.285
536	0.285
536	0.284
537	0.283
537	0.282
538	0.282
538	0.281
538	0.28
539	0.279
539	0.278
540	0.277
540	0.277
541	0.276
541	0.275
542	0.274
542	0.274
542	0.273
543	0.272
543	0.271
544	0.27
544	0.27
545	0.269
545	0.268
546	0.267
546	0.265
547	0.264
547	0.263
547	0.262
548	0.261
548	0.26
549	0.259
549	0.258
550	0.257
550	0.256
551	0.255
551	0.254
551	0.253
552	0.252
552	0.251
553	0.25
553	0.249
554	0.248
554	0.247
555	0.245
555	0.244
556	0.243
556	0.242
556	0.241
557	0.24
557	0.24
558	0.239
558	0.238
559	0.238
559	0.237
560	0.236
560	0.236
560	0.235
561	0.235
561	0.234
562	0.233
562	0.231
563	0.23
563	0.229
564	0.228
564	0.227
564	0.226
565	0.225
565	0.224
566	0.223
566	0.223
567	0.222
567	0.221
568	0.22
568	0.219
568	0.219
569	0.218
569	0.216
570	0.215
570	0.214
571	0.213
571	0.212
572	0.211
572	0.21
573	0.21
573	0.209
573	0.208
574	0.208
574	0.207
575	0.207
575	0.207
576	0.206
576	0.205
577	0.204
577	0.204
577	0.203
578	0.202
578	0.202
579	0.201
579	0.201
580	0.2
580	0.199
581	0.198
581	0.197
581	0.197
582	0.196
582	0.196
583	0.196
583	0.195
584	0.194
584	0.193
585	0.192
585	0.192
585	0.191
586	0.19
586	0.19
587	0.189
587	0.188
588	0.187
588	0.187
589	0.186
589	0.186
590	0.186
590	0.186
590	0.186
591	0.186
591	0.185
592	0.185
592	0.184
593	0.184
593	0.183
594	0.182
594	0.182
594	0.181
595	0.18
595	0.179
596	0.179
596	0.179
597	0.179
597	0.179
598	0.179
598	0.179
598	0.178
599	0.178
599	0.177
600	0.177
600	0.176
601	0.176
601	0.175
602	0.175
602	0.174
602	0.173
603	0.173
603	0.173
604	0.173
604	0.173
605	0.173
605	0.173
606	0.172
606	0.171
606	0.171
607	0.17
607	0.17
608	0.17
608	0.169
609	0.168
609	0.168
610	0.168
610	0.167
610	0.167
611	0.167
611	0.167
612	0.167
612	0.167
613	0.167
613	0.167
614	0.167
614	0.166
614	0.166
615	0.166
615	0.166
616	0.166
616	0.166
617	0.165
617	0.165
618	0.164
618	0.164
618	0.164
619	0.164
619	0.164
620	0.165
620	0.164
621	0.164
621	0.164
622	0.163
622	0.163
622	0.162
623	0.161
623	0.161
624	0.161
624	0.16
625	0.159
625	0.159
626	0.159
626	0.158
626	0.159
627	0.158
627	0.158
628	0.158
628	0.158
629	0.158
629	0.158
630	0.157
630	0.157
630	0.157
631	0.157
631	0.156
632	0.156
632	0.156
633	0.156
633	0.156
634	0.156
634	0.156
634	0.156
635	0.156
635	0.156
636	0.156
636	0.156
637	0.155
637	0.155
638	0.155
638	0.155
638	0.154
639	0.154
639	0.154
640	0.154
640	0.154
641	0.153
641	0.153
642	0.153
642	0.153
642	0.153
643	0.153
643	0.153
644	0.153
644	0.153
645	0.153
645	0.153
646	0.152
646	0.152
646	0.152
647	0.152
647	0.151
648	0.151
648	0.15
649	0.15
649	0.15
650	0.15
650	0.15
650	0.15
651	0.15
651	0.15
652	0.15
652	0.15
653	0.15
653	0.152
653	0.157
654	0.125
654	0.1
655	0.1
655	0.1
656	0.1
656	0.101
657	0.101
657	0.102
657	0.102
658	0.101
658	0.092
659	0.115
659	0.147
660	0.152
660	0.152
661	0.152
661	0.151
661	0.151
662	0.151
662	0.15
663	0.15
663	0.149
664	0.149
664	0.149
665	0.149
665	0.149
665	0.149
666	0.149
666	0.149
667	0.15
667	0.15
668	0.151
668	0.151
669	0.151
669	0.152
669	0.152
670	0.152
670	0.152
671	0.151
671	0.15
672	0.15
672	0.149
672	0.148
673	0.148
673	0.147
674	0.147
674	0.146
675	0.146
675	0.146
676	0.147
676	0.147
676	0.147
677	0.148
677	0.148
678	0.148
678	0.148
679	0.147
679	0.147
680	0.148
680	0.147
680	0.147
681	0.147
681	0.147
682	0.147
682	0.147
683	0.147
683	0.148
684	0.149
684	0.149
684	0.149
685	0.149
685	0.149
686	0.149
686	0.149
687	0.149
687	0.149
687	0.149
688	0.148
688	0.148
689	0.149
689	0.149
690	0.148
690	0.148
691	0.148
691	0.148
691	0.148
692	0.148
692	0.148
693	0.148
693	0.149
694	0.148
694	0.148
695	0.149
695	0.15
695	0.151
696	0.151
696	0.151
697	0.151
697	0.151
698	0.151
698	0.151
698	0.151
699	0.152
699	0.151
700	0.151
700	0.152
701	0.152
701	0.151
702	0.151
702	0.151
702	0.151
703	0.15
703	0.15
704	0.15
704	0.149
705	0.149
705	0.149
705	0.148
706	0.148
706	0.148
707	0.148
707	0.148
708	0.149
708	0.149
709	0.149
709	0.149
709	0.148
710	0.148
710	0.149
711	0.149
711	0.149
712	0.149
712	0.149
713	0.149
713	0.149
713	0.149
714	0.149
714	0.149
715	0.148
715	0.148
716	0.147
716	0.147
716	0.146
717	0.146
717	0.145
718	0.145
718	0.145
719	0.145
719	0.145
720	0.146
720	0.146
720	0.147
721	0.148
721	0.149
722	0.15
722	0.15
723	0.151
723	0.151
723	0.151
724	0.151
724	0.15
725	0.15
725	0.149
726	0.149
726	0.149
727	0.148
727	0.148
727	0.148
728	0.148
728	0.148
729	0.149
729	0.149
730	0.149
730	0.149
730	0.15
731	0.15
731	0.151
732	0.151
732	0.152
733	0.152
733	0.152
734	0.153
734	0.153
734	0.154
735	0.154
735	0.154
736	0.154
736	0.154
737	0.153
737	0.154
737	0.153
738	0.153
738	0.152
739	0.152
739	0.151
740	0.151
740	0.151
741	0.151
741	0.151
741	0.151
742	0.151
742	0.152
743	0.153
743	0.154
744	0.154
744	0.155
744	0.155
745	0.155
745	0.155
746	0.155
746	0.154
747	0.154
747	0.154
748	0.154
748	0.154
748	0.154
749	0.153
749	0.154
750	0.154
750	0.153
751	0.153
751	0.153
751	0.153
752	0.153
752	0.153
753	0.152
753	0.152
754	0.152
754	0.151
754	0.151
755	0.152
755	0.152
756	0.152
756	0.151
757	0.151
757	0.152
758	0.152
758	0.152
758	0.152
759	0.153
759	0.152
760	0.152
760	0.152
761	0.153
761	0.153
761	0.153
762	0.153
762	0.154
763	0.154
763	0.153
764	0.153
764	0.153
764	0.153
765	0.152
765	0.152
766	0.152
766	0.152
767	0.152
767	0.151
768	0.151
768	0.151
768	0.152
769	0.152
769	0.152
770	0.153
770	0.153
771	0.154
771	0.154
771	0.155
772	0.156
772	0.156
773	0.157
773	0.157
774	0.157
774	0.157
775	0.157
775	0.157
775	0.156
776	0.156
776	0.156
777	0.156
777	0.156
778	0.156
778	0.156
778	0.156
779	0.156
779	0.156
780	0.155
780	0.155
781	0.155
781	0.154
781	0.154
782	0.154
782	0.153
783	0.153
783	0.153
784	0.153
784	0.153
784	0.153
785	0.153
785	0.153
786	0.153
786	0.153
787	0.153
787	0.153
788	0.153
788	0.152
788	0.151
789	0.151
789	0.151
790	0.151
790	0.151
791	0.15
791	0.15
791	0.15
792	0.15
792	0.15
793	0.15
793	0.15
794	0.15
794	0.15
794	0.15
795	0.15
795	0.15
796	0.15
796	0.15
797	0.149
797	0.15
797	0.15
798	0.15
798	0.151
799	0.151
799	0.151
800	0.151
800	0.151
801	0.151
801	0.151
801	0.15
802	0.15
802	0.15
803	0.15
803	0.15
804	0.15
804	0.15
804	0.15
805	0.15
805	0.15
806	0.15
806	0.149
807	0.149
807	0.149
807	0.149
808	0.149
808	0.149
809	0.149
809	0.149
810	0.149
810	0.149
810	0.149
811	0.149
811	0.149
812	0.15
812	0.15
813	0.15
813	0.151
813	0.151
814	0.151
814	0.152
815	0.152
815	0.151
816	0.151
816	0.15
817	0.149
817	0.149
817	0.148
818	0.148
818	0.148
819	0.147
819	0.147
820	0.146
820	0.146
820	0.146
821	0.146
821	0.146
822	0.146
822	0.146
823	0.146
823	0.145
823	0.146
824	0.146
824	0.147
825	0.148
825	0.149
826	0.149
826	0.149
826	0.149
827	0.149
827	0.149
828	0.149
828	0.149
829	0.149
829	0.148
829	0.148
830	0.148
830	0.148
831	0.149
831	0.15
832	0.15
832	0.15
832	0.15
833	0.15
833	0.15
834	0.15
834	0.15
835	0.149
835	0.149
835	0.148
836	0.147
836	0.147
837	0.146
837	0.146
838	0.145
838	0.144
839	0.144
839	0.143
839	0.142
840	0.141
840	0.14
841	0.14
841	0.139
842	0.138
842	0.137
842	0.137
843	0.136
843	0.135
844	0.135
844	0.134
845	0.134
845	0.133
845	0.133
846	0.133
846	0.133
847	0.133
847	0.134
848	0.134
848	0.134
848	0.135
849	0.135
849	0.135
850	0.136
850	0.136
851	0.136
851	0.136
851	0.135
852	0.135
852	0.135
853	0.135
853	0.134
854	0.135
854	0.135
854	0.135
855	0.136
855	0.136
856	0.136
856	0.137
857	0.138
857	0.138
857	0.138
858	0.138
858	0.137
859	0.136
859	0.136
860	0.135
860	0.134
860	0.133
861	0.133
861	0.132
862	0.131
862	0.13
863	0.129
863	0.129
863	0.129
864	0.129
864	0.129
865	0.129
865	0.129
866	0.129
866	0.129
866	0.129
867	0.13
867	0.131
868	0.131
868	0.131
869	0.131
869	0.131
869	0.131
870	0.13
870	0.13
871	0.13
871	0.129
872	0.129
872	0.128
872	0.127
873	0.127
873	0.126
874	0.125
874	0.125
875	0.125
875	0.125
875	0.125
876	0.125
876	0.125
877	0.126
877	0.126
878	0.126
878	0.127
878	0.127
879	0.127
879	0.127
880	0.127
880	0.127
881	0.126
881	0.126
881	0.126
882	0.126
882	0.125
883	0.125
883	0.125
884	0.125
884	0.125
884	0.125
885	0.125
885	0.125
886	0.125
886	0.125
887	0.124
887	0.124
887	0.123
888	0.123
888	0.122
889	0.121
889	0.121
890	0.121
890	0.121
890	0.121
891	0.12
891	0.12
892	0.12
892	0.12
893	0.12
893	0.12
893	0.12
894	0.12
894	0.12
895	0.119
895	0.119
895	0.119
896	0.119
896	0.119
897	0.119
897	0.119
898	0.119
898	0.119
898	0.119
899	0.118
899	0.118
900	0.118
900	0.118
901	0.117
901	0.117
901	0.116
902	0.116
902	0.115
903	0.115
903	0.114
904	0.114
904	0.113
904	0.113
905	0.112
905	0.112
906	0.111
906	0.111
907	0.111
907	0.111
907	0.111
908	0.111
908	0.111
909	0.111
909	0.111
910	0.111
910	0.111
910	0.11
911	0.11
911	0.109
912	0.109
912	0.109
913	0.108
913	0.108
913	0.108
914	0.108
914	0.107
915	0.107
915	0.107
916	0.106
916	0.106
916	0.106
917	0.105
917	0.105
918	0.104
918	0.104
918	0.103
919	0.103
919	0.102
920	0.102
920	0.101
921	0.101
921	0.101
921	0.1
922	0.1
922	0.1
923	0.1
923	0.101
924	0.101
924	0.102
924	0.102
925	0.103
925	0.104
926	0.105
926	0.106
927	0.107
927	0.107
927	0.108
928	0.109
928	0.109
929	0.109
929	0.11
930	0.11
930	0.11
930	0.109
931	0.109
931	0.109
932	0.109
932	0.108
933	0.108
933	0.107
933	0.107
934	0.106
934	0.105
935	0.104
935	0.103
935	0.102
936	0.102
936	0.101
937	0.1
937	0.099
938	0.098
938	0.097
938	0.097
939	0.096
939	0.096
940	0.096
940	0.096
941	0.096
941	0.097
941	0.097
942	0.097
942	0.098
943	0.098
943	0.098
944	0.098
944	0.098
944	0.098
945	0.098
945	0.098
946	0.098
946	0.098
946	0.098
947	0.098
947	0.098
948	0.097
948	0.097
949	0.096
949	0.096
949	0.095
950	0.094
950	0.094
951	0.093
951	0.092
952	0.091
952	0.09
952	0.09
953	0.089
953	0.089
954	0.089
954	0.089
955	0.089
955	0.089
955	0.089
956	0.089
956	0.09
957	0.09
957	0.091
957	0.091
958	0.091
958	0.091
959	0.091
959	0.091
960	0.092
960	0.092
960	0.092
961	0.092
961	0.092
962	0.092
962	0.092
963	0.092
963	0.093
963	0.093
964	0.093
964	0.093
965	0.093
965	0.093
966	0.093
966	0.093
966	0.093
967	0.093
967	0.093
968	0.093
968	0.093
968	0.092
969	0.092
969	0.091
970	0.09
970	0.09
971	0.089
971	0.089
971	0.088
972	0.088
972	0.088
973	0.087
973	0.087
974	0.088
974	0.088
974	0.089
975	0.089
975	0.09
976	0.091
976	0.092
976	0.092
977	0.093
977	0.093
978	0.093
978	0.093
979	0.094
979	0.094
979	0.094
980	0.093
980	0.093
981	0.092
981	0.092
982	0.091
982	0.091
982	0.09
983	0.09
983	0.089
984	0.089
984	0.088
984	0.088
985	0.087
985	0.087
986	0.087
986	0.086
987	0.086
987	0.086
987	0.085
988	0.085
988	0.085
989	0.084
989	0.084
990	0.083
990	0.083
990	0.082
991	0.082
991	0.081
992	0.08
992	0.08
992	0.079
993	0.078
993	0.077
994	0.076
994	0.076
995	0.075
995	0.074
995	0.074
996	0.074
996	0.074
997	0.074
997	0.075
997	0.075
998	0.076
998	0.077
999	0.077
999	0.078
1000	0.079
1000	0.08
1000	0.08
1001	0.08
1001	0.081
1002	0.08
1002	0.08
1003	0.079
1003	0.079
1003	0.078
1004	0.077
1004	0.075
1005	0.075
1005	0.074
1005	0.073
1006	0.072
1006	0.072
1007	0.071
1007	0.071
1008	0.071
1008	0.071
1008	0.071
1009	0.072
1009	0.072
1010	0.072
1010	0.072
1010	0.072
1011	0.071
1011	0.071
1012	0.07
1012	0.07
1013	0.069
1013	0.068
1013	0.068
1014	0.067
1014	0.067
1015	0.067
1015	0.067
1016	0.067
1016	0.068
1016	0.068
1017	0.068
1017	0.069
1018	0.069
1018	0.07
1018	0.07
1019	0.071
1019	0.071
1020	0.071
1020	0.072
1021	0.072
1021	0.073
1021	0.073
1022	0.073
1022	0.073
1023	0.073
1023	0.073
1023	0.073
1024	0.073
1024	0.073
1025	0.073
1025	0.073
1026	0.073
1026	0.072
1026	0.072
1027	0.072
1027	0.072
1028	0.072
1028	0.072
1028	0.072
1029	0.072
1029	0.072
1030	0.072
1030	0.072
1031	0.072
1031	0.073
1031	0.073
1032	0.073
1032	0.073
1033	0.073
1033	0.073
1033	0.073
1034	0.073
1034	0.073
1035	0.073
1035	0.073
1036	0.072
1036	0.072
1036	0.072
1037	0.072
1037	0.072
1038	0.071
1038	0.071
1039	0.071
1039	0.071
1039	0.07
1040	0.07
1040	0.07
1041	0.069
1041	0.069
1041	0.068
1042	0.068
1042	0.068
1043	0.067
1043	0.067
1044	0.066
1044	0.066
1044	0.066
1045	0.066
1045	0.066
1046	0.066
1046	0.066
1046	0.067
1047	0.067
1047	0.067
1048	0.068
1048	0.069
1049	0.069
1049	0.069
1049	0.069
1050	0.069
1050	0.069
1051	0.069
1051	0.069
1051	0.068
1052	0.068
1052	0.067
1053	0.066
1053	0.066
1053	0.065
1054	0.065
1054	0.064
1055	0.064
1055	0.063
1056	0.063
1056	0.063
1056	0.062
1057	0.062
1057	0.061
1058	0.061
1058	0.06
1058	0.059
1059	0.059
1059	0.058
1060	0.058
1060	0.057
1061	0.057
1061	0.056
1061	0.056
1062	0.056
1062	0.056
1063	0.056
1063	0.055
1063	0.055
1064	0.055
1064	0.055
1065	0.055
1065	0.055
1066	0.055
1066	0.055
1066	0.055
1067	0.054
1067	0.054
1068	0.054
1068	0.054
1068	0.054
1069	0.054
1069	0.054
1070	0.054
1070	0.054
1071	0.053
1071	0.053
1071	0.053
1072	0.053
1072	0.053
1073	0.052
1073	0.052
1073	0.051
1074	0.052
1074	0.052
1075	0.052
1075	0.052
1076	0.052
1076	0.053
1076	0.053
1077	0.053
1077	0.054
1078	0.053
1078	0.054
1078	0.054
1079	0.054
1079	0.054
1080	0.053
1080	0.053
1080	0.053
1081	0.052
1081	0.053
1082	0.053
1082	0.053
1083	0.053
1083	0.053
1083	0.053
1084	0.052
1084	0.053
1085	0.053
1085	0.053
1085	0.053
1086	0.053
1086	0.052
1087	0.052
1087	0.051
1088	0.051
1088	0.05
1088	0.051
1089	0.05
1089	0.05
1090	0.049
1090	0.049
1090	0.048
1091	0.048
1091	0.048
1092	0.048
1092	0.048
1092	0.048
1093	0.047
1093	0.047
1094	0.047
1094	0.046
1095	0.046
1095	0.047
1095	0.046
1096	0.046
1096	0.045
1097	0.045
1097	0.044
1097	0.044
1098	0.043
1098	0.042
1099	0.042
1099	0.041
1100	0.04
1100	0.038
1100	0.037
1101	0.037
1101	0.036
1102	0.036
1102	0.035
1102	0.034
1103	0.034
1103	0.033
1104	0.032
1104	0.032
1104	0.033
1105	0.031
1105	0.029
1106	0.028
1106	0.025
1107	0.024
1107	0.024
1107	0.023
1108	0.022
1108	0.021
1109	0.02
1109	0.018
1109	0.017
1110	0.02
1110	0.018
1111	0.02
1111	0.016
