Data from reversibility-20sec_Absorbance__6907__000000000006907.txt Node

Date: Thu Dec 07 02:35:25 CET 2023
User: Marek
Spectrometer: MAYP115816
Trigger mode: 0
Integration Time (sec): 2.000000E-1
Scans to average: 10
Electric dark correction enabled: true
Nonlinearity correction enabled: true
Boxcar width: 5
XAxis mode: Wavelengths
Number of Pixels in Spectrum: 2068
>>>>>Begin Spectral Data<<<<<
199	-0.166
199	-0.134
200	-0.07
200	-0.019
201	0.009
201	0.027
202	0.037
202	0.049
203	0.058
203	0.06
204	0.075
204	0.089
205	0.102
205	0.11
205	0.11
206	0.112
206	0.114
207	0.116
207	0.116
208	0.116
208	0.118
209	0.118
209	0.116
210	0.114
210	0.113
211	0.115
211	0.116
212	0.112
212	0.114
213	0.118
213	0.117
213	0.118
214	0.122
214	0.124
215	0.125
215	0.128
216	0.128
216	0.127
217	0.129
217	0.13
218	0.127
218	0.132
219	0.135
219	0.136
220	0.14
220	0.142
221	0.14
221	0.142
221	0.148
222	0.155
222	0.162
223	0.167
223	0.171
224	0.178
224	0.185
225	0.193
225	0.205
226	0.217
226	0.229
227	0.24
227	0.252
228	0.266
228	0.281
229	0.298
229	0.318
229	0.342
230	0.366
230	0.396
231	0.429
231	0.466
232	0.502
232	0.544
233	0.584
233	0.635
234	0.686
234	0.74
235	0.794
235	0.848
236	0.898
236	0.948
236	0.998
237	1.052
237	1.101
238	1.151
238	1.198
239	1.246
239	1.288
240	1.322
240	1.358
241	1.392
241	1.428
242	1.459
242	1.491
243	1.518
243	1.542
243	1.565
244	1.584
244	1.606
245	1.627
245	1.651
246	1.673
246	1.689
247	1.703
247	1.717
248	1.731
248	1.746
249	1.756
249	1.763
250	1.77
250	1.778
250	1.779
251	1.782
251	1.786
252	1.791
252	1.793
253	1.794
253	1.792
254	1.792
254	1.795
255	1.793
255	1.795
256	1.794
256	1.797
257	1.796
257	1.795
258	1.794
258	1.795
258	1.795
259	1.794
259	1.794
260	1.793
260	1.794
261	1.794
261	1.795
262	1.796
262	1.798
263	1.801
263	1.8
264	1.801
264	1.801
265	1.802
265	1.802
265	1.801
266	1.801
266	1.799
267	1.799
267	1.798
268	1.797
268	1.798
269	1.8
269	1.799
270	1.798
270	1.798
271	1.795
271	1.794
272	1.792
272	1.79
272	1.788
273	1.783
273	1.777
274	1.772
274	1.766
275	1.76
275	1.755
276	1.749
276	1.742
277	1.733
277	1.723
278	1.712
278	1.701
278	1.688
279	1.673
279	1.656
280	1.634
280	1.607
281	1.574
281	1.537
282	1.499
282	1.459
283	1.419
283	1.379
284	1.341
284	1.303
285	1.268
285	1.235
285	1.206
286	1.18
286	1.157
287	1.137
287	1.12
288	1.104
288	1.092
289	1.08
289	1.07
290	1.062
290	1.055
291	1.048
291	1.042
292	1.037
292	1.032
292	1.028
293	1.023
293	1.019
294	1.016
294	1.012
295	1.009
295	1.006
296	1.002
296	0.999
297	0.996
297	0.993
298	0.99
298	0.987
298	0.984
299	0.981
299	0.978
300	0.975
300	0.972
301	0.969
301	0.966
302	0.964
302	0.961
303	0.959
303	0.956
304	0.953
304	0.951
305	0.948
305	0.946
305	0.943
306	0.94
306	0.938
307	0.935
307	0.932
308	0.929
308	0.926
309	0.923
309	0.921
310	0.917
310	0.914
311	0.911
311	0.908
311	0.905
312	0.901
312	0.897
313	0.894
313	0.89
314	0.886
314	0.882
315	0.877
315	0.873
316	0.868
316	0.863
317	0.859
317	0.854
318	0.849
318	0.844
318	0.838
319	0.833
319	0.827
320	0.822
320	0.816
321	0.81
321	0.804
322	0.797
322	0.791
323	0.784
323	0.778
324	0.771
324	0.765
324	0.758
325	0.751
325	0.744
326	0.738
326	0.731
327	0.724
327	0.717
328	0.71
328	0.703
329	0.695
329	0.688
330	0.681
330	0.674
330	0.667
331	0.66
331	0.653
332	0.646
332	0.639
333	0.632
333	0.625
334	0.618
334	0.611
335	0.604
335	0.597
336	0.591
336	0.584
336	0.577
337	0.571
337	0.565
338	0.558
338	0.552
339	0.546
339	0.54
340	0.534
340	0.529
341	0.523
341	0.517
342	0.512
342	0.507
342	0.501
343	0.496
343	0.491
344	0.486
344	0.481
345	0.476
345	0.471
346	0.466
346	0.462
347	0.457
347	0.453
348	0.449
348	0.445
348	0.441
349	0.437
349	0.433
350	0.43
350	0.427
351	0.423
351	0.42
352	0.416
352	0.413
353	0.41
353	0.407
354	0.404
354	0.401
354	0.398
355	0.395
355	0.392
356	0.389
356	0.386
357	0.383
357	0.38
358	0.378
358	0.375
359	0.372
359	0.37
360	0.368
360	0.366
360	0.364
361	0.363
361	0.361
362	0.359
362	0.357
363	0.356
363	0.354
364	0.352
364	0.35
365	0.348
365	0.346
366	0.344
366	0.342
366	0.34
367	0.339
367	0.337
368	0.335
368	0.334
369	0.332
369	0.331
370	0.329
370	0.328
371	0.327
371	0.325
372	0.324
372	0.323
372	0.322
373	0.321
373	0.32
374	0.319
374	0.318
375	0.317
375	0.316
376	0.315
376	0.314
377	0.313
377	0.311
378	0.311
378	0.309
378	0.309
379	0.308
379	0.307
380	0.306
380	0.305
381	0.304
381	0.304
382	0.303
382	0.303
383	0.302
383	0.301
383	0.301
384	0.3
384	0.299
385	0.299
385	0.298
386	0.298
386	0.297
387	0.297
387	0.296
388	0.296
388	0.296
389	0.295
389	0.295
389	0.294
390	0.294
390	0.293
391	0.293
391	0.293
392	0.292
392	0.292
393	0.291
393	0.291
394	0.29
394	0.29
394	0.29
395	0.289
395	0.289
396	0.288
396	0.288
397	0.287
397	0.287
398	0.286
398	0.286
399	0.285
399	0.285
400	0.284
400	0.284
400	0.284
401	0.283
401	0.283
402	0.283
402	0.282
403	0.282
403	0.282
404	0.281
404	0.281
405	0.281
405	0.281
405	0.281
406	0.28
406	0.28
407	0.28
407	0.279
408	0.279
408	0.279
409	0.278
409	0.278
410	0.278
410	0.277
411	0.277
411	0.277
411	0.276
412	0.276
412	0.275
413	0.275
413	0.275
414	0.274
414	0.274
415	0.274
415	0.274
416	0.273
416	0.273
416	0.272
417	0.272
417	0.272
418	0.272
418	0.271
419	0.271
419	0.27
420	0.27
420	0.269
421	0.269
421	0.268
421	0.268
422	0.268
422	0.268
423	0.267
423	0.267
424	0.266
424	0.266
425	0.266
425	0.266
426	0.266
426	0.265
427	0.265
427	0.264
427	0.264
428	0.264
428	0.263
429	0.263
429	0.263
430	0.263
430	0.262
431	0.262
431	0.262
432	0.262
432	0.262
432	0.262
433	0.261
433	0.261
434	0.261
434	0.261
435	0.261
435	0.26
436	0.26
436	0.26
437	0.26
437	0.259
437	0.259
438	0.259
438	0.258
439	0.258
439	0.258
440	0.257
440	0.257
441	0.257
441	0.256
442	0.256
442	0.256
442	0.256
443	0.256
443	0.256
444	0.256
444	0.256
445	0.256
445	0.256
446	0.256
446	0.255
447	0.255
447	0.255
447	0.255
448	0.255
448	0.255
449	0.254
449	0.254
450	0.254
450	0.254
451	0.254
451	0.253
452	0.253
452	0.253
452	0.253
453	0.253
453	0.253
454	0.253
454	0.253
455	0.253
455	0.252
456	0.252
456	0.252
457	0.252
457	0.252
458	0.252
458	0.252
458	0.251
459	0.251
459	0.252
460	0.251
460	0.252
461	0.251
461	0.251
462	0.251
462	0.251
463	0.251
463	0.251
463	0.251
464	0.251
464	0.25
465	0.25
465	0.25
466	0.25
466	0.25
467	0.251
467	0.251
467	0.251
468	0.251
468	0.251
469	0.251
469	0.252
470	0.252
470	0.253
471	0.253
471	0.253
472	0.253
472	0.253
472	0.253
473	0.254
473	0.254
474	0.254
474	0.254
475	0.254
475	0.254
476	0.254
476	0.255
477	0.255
477	0.255
477	0.256
478	0.256
478	0.256
479	0.256
479	0.256
480	0.257
480	0.257
481	0.257
481	0.257
482	0.258
482	0.258
482	0.258
483	0.259
483	0.26
484	0.26
484	0.261
485	0.261
485	0.261
486	0.261
486	0.262
487	0.262
487	0.263
487	0.263
488	0.264
488	0.264
489	0.265
489	0.266
490	0.267
490	0.267
491	0.268
491	0.269
492	0.27
492	0.271
492	0.272
493	0.273
493	0.274
494	0.274
494	0.275
495	0.276
495	0.276
496	0.277
496	0.278
496	0.279
497	0.279
497	0.28
498	0.281
498	0.281
499	0.282
499	0.283
500	0.284
500	0.286
501	0.286
501	0.287
501	0.288
502	0.289
502	0.289
503	0.29
503	0.291
504	0.292
504	0.293
505	0.293
505	0.294
506	0.295
506	0.296
506	0.297
507	0.298
507	0.299
508	0.299
508	0.3
509	0.301
509	0.301
510	0.302
510	0.303
511	0.304
511	0.305
511	0.305
512	0.306
512	0.307
513	0.307
513	0.308
514	0.309
514	0.31
515	0.31
515	0.31
515	0.311
516	0.311
516	0.312
517	0.313
517	0.313
518	0.313
518	0.314
519	0.314
519	0.314
520	0.314
520	0.314
520	0.315
521	0.315
521	0.315
522	0.315
522	0.315
523	0.315
523	0.315
524	0.315
524	0.315
524	0.315
525	0.315
525	0.315
526	0.314
526	0.314
527	0.314
527	0.313
528	0.313
528	0.313
529	0.312
529	0.312
529	0.311
530	0.31
530	0.31
531	0.309
531	0.309
532	0.308
532	0.307
533	0.306
533	0.305
533	0.304
534	0.304
534	0.303
535	0.302
535	0.301
536	0.301
536	0.3
537	0.299
537	0.298
538	0.297
538	0.296
538	0.295
539	0.294
539	0.293
540	0.292
540	0.29
541	0.289
541	0.288
542	0.287
542	0.286
542	0.285
543	0.284
543	0.283
544	0.282
544	0.281
545	0.28
545	0.278
546	0.277
546	0.276
547	0.274
547	0.273
547	0.271
548	0.27
548	0.269
549	0.267
549	0.266
550	0.265
550	0.264
551	0.262
551	0.261
551	0.26
552	0.259
552	0.257
553	0.256
553	0.254
554	0.253
554	0.252
555	0.25
555	0.248
556	0.247
556	0.245
556	0.244
557	0.243
557	0.243
558	0.242
558	0.241
559	0.24
559	0.239
560	0.238
560	0.237
560	0.237
561	0.236
561	0.235
562	0.233
562	0.232
563	0.23
563	0.228
564	0.227
564	0.226
564	0.225
565	0.223
565	0.222
566	0.221
566	0.22
567	0.219
567	0.218
568	0.217
568	0.216
568	0.215
569	0.214
569	0.213
570	0.212
570	0.21
571	0.209
571	0.208
572	0.207
572	0.206
573	0.206
573	0.205
573	0.204
574	0.203
574	0.202
575	0.202
575	0.201
576	0.201
576	0.199
577	0.198
577	0.197
577	0.196
578	0.195
578	0.194
579	0.194
579	0.193
580	0.192
580	0.191
581	0.19
581	0.19
581	0.189
582	0.189
582	0.189
583	0.188
583	0.188
584	0.186
584	0.185
585	0.184
585	0.184
585	0.183
586	0.182
586	0.181
587	0.18
587	0.18
588	0.179
588	0.178
589	0.178
589	0.177
590	0.177
590	0.177
590	0.177
591	0.176
591	0.175
592	0.175
592	0.174
593	0.173
593	0.172
594	0.172
594	0.171
594	0.17
595	0.169
595	0.168
596	0.168
596	0.168
597	0.168
597	0.168
598	0.168
598	0.168
598	0.168
599	0.167
599	0.167
600	0.166
600	0.165
601	0.165
601	0.165
602	0.164
602	0.163
602	0.162
603	0.162
603	0.162
604	0.161
604	0.161
605	0.161
605	0.161
606	0.16
606	0.159
606	0.158
607	0.158
607	0.158
608	0.157
608	0.157
609	0.156
609	0.156
610	0.155
610	0.155
610	0.155
611	0.155
611	0.154
612	0.154
612	0.154
613	0.154
613	0.154
614	0.153
614	0.153
614	0.152
615	0.152
615	0.152
616	0.152
616	0.152
617	0.152
617	0.151
618	0.151
618	0.151
618	0.151
619	0.151
619	0.151
620	0.151
620	0.15
621	0.15
621	0.149
622	0.148
622	0.148
622	0.147
623	0.147
623	0.147
624	0.146
624	0.146
625	0.145
625	0.145
626	0.145
626	0.145
626	0.145
627	0.145
627	0.145
628	0.145
628	0.145
629	0.145
629	0.144
630	0.144
630	0.144
630	0.144
631	0.143
631	0.143
632	0.142
632	0.142
633	0.141
633	0.141
634	0.141
634	0.141
634	0.141
635	0.14
635	0.14
636	0.139
636	0.139
637	0.139
637	0.138
638	0.138
638	0.138
638	0.137
639	0.136
639	0.136
640	0.136
640	0.136
641	0.136
641	0.136
642	0.136
642	0.136
642	0.136
643	0.136
643	0.136
644	0.137
644	0.137
645	0.137
645	0.137
646	0.137
646	0.137
646	0.137
647	0.137
647	0.137
648	0.136
648	0.136
649	0.135
649	0.135
650	0.135
650	0.135
650	0.135
651	0.135
651	0.134
652	0.135
652	0.135
653	0.135
653	0.137
653	0.142
654	0.113
654	0.091
655	0.09
655	0.09
656	0.09
656	0.091
657	0.091
657	0.091
657	0.091
658	0.09
658	0.082
659	0.103
659	0.13
660	0.135
660	0.135
661	0.135
661	0.134
661	0.134
662	0.134
662	0.133
663	0.133
663	0.133
664	0.133
664	0.132
665	0.132
665	0.132
665	0.132
666	0.132
666	0.132
667	0.132
667	0.132
668	0.133
668	0.133
669	0.133
669	0.133
669	0.134
670	0.134
670	0.134
671	0.133
671	0.133
672	0.132
672	0.132
672	0.131
673	0.13
673	0.13
674	0.13
674	0.129
675	0.129
675	0.129
676	0.129
676	0.129
676	0.129
677	0.129
677	0.13
678	0.13
678	0.129
679	0.129
679	0.129
680	0.129
680	0.129
680	0.128
681	0.128
681	0.128
682	0.128
682	0.128
683	0.129
683	0.129
684	0.13
684	0.13
684	0.13
685	0.13
685	0.131
686	0.131
686	0.131
687	0.131
687	0.131
687	0.131
688	0.131
688	0.131
689	0.132
689	0.132
690	0.132
690	0.131
691	0.131
691	0.131
691	0.131
692	0.131
692	0.131
693	0.132
693	0.132
694	0.132
694	0.131
695	0.132
695	0.133
695	0.133
696	0.133
696	0.133
697	0.133
697	0.133
698	0.132
698	0.132
698	0.132
699	0.132
699	0.132
700	0.131
700	0.131
701	0.131
701	0.131
702	0.131
702	0.13
702	0.13
703	0.13
703	0.129
704	0.129
704	0.128
705	0.128
705	0.127
705	0.127
706	0.127
706	0.127
707	0.126
707	0.126
708	0.127
708	0.127
709	0.127
709	0.127
709	0.127
710	0.128
710	0.128
711	0.129
711	0.13
712	0.13
712	0.131
713	0.131
713	0.131
713	0.131
714	0.131
714	0.131
715	0.131
715	0.13
716	0.13
716	0.129
716	0.128
717	0.128
717	0.127
718	0.127
718	0.127
719	0.127
719	0.128
720	0.128
720	0.129
720	0.129
721	0.129
721	0.13
722	0.131
722	0.131
723	0.132
723	0.132
723	0.132
724	0.131
724	0.131
725	0.13
725	0.129
726	0.129
726	0.128
727	0.127
727	0.126
727	0.126
728	0.125
728	0.125
729	0.126
729	0.126
730	0.126
730	0.126
730	0.127
731	0.127
731	0.128
732	0.129
732	0.13
733	0.13
733	0.13
734	0.131
734	0.131
734	0.132
735	0.132
735	0.132
736	0.132
736	0.132
737	0.132
737	0.132
737	0.132
738	0.131
738	0.13
739	0.13
739	0.13
740	0.129
740	0.129
741	0.129
741	0.129
741	0.129
742	0.129
742	0.13
743	0.131
743	0.131
744	0.132
744	0.132
744	0.132
745	0.132
745	0.132
746	0.132
746	0.132
747	0.131
747	0.131
748	0.131
748	0.131
748	0.131
749	0.131
749	0.131
750	0.131
750	0.131
751	0.132
751	0.132
751	0.132
752	0.132
752	0.132
753	0.131
753	0.131
754	0.131
754	0.13
754	0.13
755	0.13
755	0.13
756	0.129
756	0.128
757	0.128
757	0.128
758	0.128
758	0.128
758	0.128
759	0.128
759	0.127
760	0.127
760	0.127
761	0.127
761	0.127
761	0.128
762	0.127
762	0.128
763	0.128
763	0.127
764	0.127
764	0.127
764	0.126
765	0.126
765	0.125
766	0.125
766	0.125
767	0.124
767	0.123
768	0.123
768	0.123
768	0.123
769	0.123
769	0.123
770	0.124
770	0.124
771	0.125
771	0.126
771	0.126
772	0.127
772	0.128
773	0.128
773	0.129
774	0.129
774	0.129
775	0.129
775	0.129
775	0.129
776	0.129
776	0.129
777	0.129
777	0.129
778	0.129
778	0.128
778	0.128
779	0.128
779	0.127
780	0.126
780	0.126
781	0.125
781	0.124
781	0.124
782	0.123
782	0.123
783	0.123
783	0.123
784	0.123
784	0.123
784	0.123
785	0.123
785	0.123
786	0.124
786	0.124
787	0.124
787	0.124
788	0.123
788	0.122
788	0.122
789	0.121
789	0.121
790	0.121
790	0.121
791	0.121
791	0.121
791	0.12
792	0.121
792	0.121
793	0.121
793	0.121
794	0.12
794	0.12
794	0.12
795	0.12
795	0.12
796	0.12
796	0.12
797	0.119
797	0.119
797	0.119
798	0.119
798	0.12
799	0.12
799	0.12
800	0.12
800	0.119
801	0.119
801	0.119
801	0.119
802	0.119
802	0.119
803	0.119
803	0.119
804	0.119
804	0.12
804	0.12
805	0.12
805	0.12
806	0.12
806	0.119
807	0.119
807	0.118
807	0.118
808	0.118
808	0.118
809	0.118
809	0.117
810	0.117
810	0.117
810	0.117
811	0.117
811	0.118
812	0.118
812	0.118
813	0.119
813	0.119
813	0.12
814	0.12
814	0.12
815	0.121
815	0.121
816	0.121
816	0.12
817	0.119
817	0.119
817	0.118
818	0.117
818	0.117
819	0.116
819	0.115
820	0.114
820	0.113
820	0.113
821	0.113
821	0.113
822	0.113
822	0.113
823	0.113
823	0.113
823	0.113
824	0.114
824	0.115
825	0.116
825	0.117
826	0.118
826	0.118
826	0.118
827	0.119
827	0.119
828	0.119
828	0.119
829	0.12
829	0.12
829	0.119
830	0.12
830	0.12
831	0.121
831	0.121
832	0.121
832	0.121
832	0.12
833	0.12
833	0.12
834	0.119
834	0.119
835	0.118
835	0.118
835	0.117
836	0.117
836	0.116
837	0.116
837	0.116
838	0.116
838	0.115
839	0.115
839	0.114
839	0.113
840	0.113
840	0.112
841	0.111
841	0.11
842	0.109
842	0.108
842	0.107
843	0.106
843	0.105
844	0.105
844	0.104
845	0.104
845	0.104
845	0.104
846	0.104
846	0.104
847	0.104
847	0.104
848	0.104
848	0.104
848	0.104
849	0.104
849	0.104
850	0.104
850	0.104
851	0.103
851	0.103
851	0.102
852	0.101
852	0.1
853	0.1
853	0.099
854	0.099
854	0.1
854	0.1
855	0.101
855	0.102
856	0.103
856	0.104
857	0.105
857	0.106
857	0.107
858	0.108
858	0.108
859	0.108
859	0.108
860	0.108
860	0.108
860	0.108
861	0.107
861	0.106
862	0.105
862	0.104
863	0.104
863	0.103
863	0.103
864	0.102
864	0.102
865	0.102
865	0.101
866	0.101
866	0.101
866	0.101
867	0.101
867	0.102
868	0.102
868	0.102
869	0.102
869	0.102
869	0.102
870	0.102
870	0.102
871	0.102
871	0.103
872	0.103
872	0.103
872	0.103
873	0.102
873	0.102
874	0.101
874	0.101
875	0.101
875	0.1
875	0.1
876	0.1
876	0.099
877	0.099
877	0.099
878	0.099
878	0.099
878	0.099
879	0.099
879	0.099
880	0.099
880	0.099
881	0.099
881	0.099
881	0.099
882	0.099
882	0.099
883	0.099
883	0.099
884	0.099
884	0.099
884	0.099
885	0.099
885	0.098
886	0.098
886	0.098
887	0.097
887	0.097
887	0.096
888	0.096
888	0.095
889	0.094
889	0.094
890	0.094
890	0.094
890	0.093
891	0.093
891	0.093
892	0.093
892	0.092
893	0.092
893	0.092
893	0.091
894	0.091
894	0.09
895	0.09
895	0.09
895	0.09
896	0.09
896	0.09
897	0.09
897	0.091
898	0.091
898	0.091
898	0.091
899	0.091
899	0.091
900	0.091
900	0.091
901	0.09
901	0.09
901	0.09
902	0.09
902	0.089
903	0.089
903	0.088
904	0.088
904	0.088
904	0.087
905	0.087
905	0.087
906	0.087
906	0.087
907	0.087
907	0.088
907	0.088
908	0.088
908	0.088
909	0.089
909	0.089
910	0.089
910	0.089
910	0.089
911	0.088
911	0.088
912	0.087
912	0.086
913	0.085
913	0.085
913	0.084
914	0.084
914	0.083
915	0.083
915	0.083
916	0.083
916	0.083
916	0.083
917	0.083
917	0.083
918	0.083
918	0.082
918	0.082
919	0.082
919	0.082
920	0.082
920	0.081
921	0.081
921	0.081
921	0.081
922	0.081
922	0.081
923	0.081
923	0.081
924	0.081
924	0.081
924	0.081
925	0.081
925	0.081
926	0.082
926	0.082
927	0.082
927	0.082
927	0.082
928	0.083
928	0.083
929	0.083
929	0.083
930	0.083
930	0.083
930	0.084
931	0.084
931	0.084
932	0.084
932	0.084
933	0.084
933	0.084
933	0.083
934	0.083
934	0.082
935	0.082
935	0.081
935	0.081
936	0.08
936	0.079
937	0.079
937	0.078
938	0.077
938	0.077
938	0.076
939	0.076
939	0.075
940	0.075
940	0.075
941	0.075
941	0.076
941	0.076
942	0.077
942	0.077
943	0.077
943	0.077
944	0.078
944	0.078
944	0.078
945	0.078
945	0.079
946	0.079
946	0.078
946	0.078
947	0.078
947	0.078
948	0.078
948	0.078
949	0.077
949	0.077
949	0.076
950	0.075
950	0.075
951	0.075
951	0.074
952	0.073
952	0.072
952	0.072
953	0.072
953	0.071
954	0.071
954	0.071
955	0.071
955	0.071
955	0.072
956	0.072
956	0.073
957	0.074
957	0.074
957	0.075
958	0.075
958	0.076
959	0.076
959	0.076
960	0.077
960	0.077
960	0.077
961	0.077
961	0.077
962	0.077
962	0.076
963	0.076
963	0.076
963	0.076
964	0.076
964	0.076
965	0.076
965	0.076
966	0.075
966	0.075
966	0.075
967	0.075
967	0.074
968	0.074
968	0.074
968	0.073
969	0.072
969	0.072
970	0.071
970	0.07
971	0.069
971	0.069
971	0.068
972	0.068
972	0.067
973	0.067
973	0.067
974	0.067
974	0.068
974	0.068
975	0.069
975	0.07
976	0.071
976	0.071
976	0.072
977	0.072
977	0.072
978	0.072
978	0.071
979	0.071
979	0.071
979	0.07
980	0.07
980	0.07
981	0.07
981	0.07
982	0.071
982	0.071
982	0.071
983	0.072
983	0.072
984	0.072
984	0.073
984	0.073
985	0.073
985	0.073
986	0.072
986	0.072
987	0.072
987	0.072
987	0.072
988	0.072
988	0.072
989	0.072
989	0.072
990	0.071
990	0.072
990	0.072
991	0.072
991	0.071
992	0.071
992	0.07
992	0.069
993	0.069
993	0.068
994	0.067
994	0.066
995	0.065
995	0.064
995	0.064
996	0.063
996	0.063
997	0.063
997	0.063
997	0.064
998	0.064
998	0.064
999	0.065
999	0.066
1000	0.066
1000	0.067
1000	0.067
1001	0.068
1001	0.068
1002	0.068
1002	0.068
1003	0.068
1003	0.068
1003	0.067
1004	0.067
1004	0.066
1005	0.065
1005	0.064
1005	0.064
1006	0.063
1006	0.062
1007	0.062
1007	0.061
1008	0.06
1008	0.06
1008	0.06
1009	0.059
1009	0.059
1010	0.059
1010	0.059
1010	0.059
1011	0.059
1011	0.059
1012	0.058
1012	0.058
1013	0.058
1013	0.058
1013	0.057
1014	0.057
1014	0.056
1015	0.056
1015	0.056
1016	0.056
1016	0.055
1016	0.055
1017	0.055
1017	0.055
1018	0.055
1018	0.055
1018	0.055
1019	0.055
1019	0.055
1020	0.055
1020	0.056
1021	0.056
1021	0.056
1021	0.057
1022	0.057
1022	0.057
1023	0.057
1023	0.057
1023	0.058
1024	0.058
1024	0.058
1025	0.058
1025	0.059
1026	0.059
1026	0.059
1026	0.059
1027	0.059
1027	0.06
1028	0.06
1028	0.06
1028	0.06
1029	0.06
1029	0.06
1030	0.06
1030	0.06
1031	0.06
1031	0.061
1031	0.061
1032	0.061
1032	0.061
1033	0.062
1033	0.062
1033	0.062
1034	0.062
1034	0.063
1035	0.062
1035	0.062
1036	0.062
1036	0.062
1036	0.063
1037	0.062
1037	0.062
1038	0.062
1038	0.061
1039	0.061
1039	0.061
1039	0.061
1040	0.061
1040	0.06
1041	0.06
1041	0.059
1041	0.059
1042	0.059
1042	0.059
1043	0.058
1043	0.058
1044	0.058
1044	0.057
1044	0.057
1045	0.057
1045	0.056
1046	0.056
1046	0.056
1046	0.056
1047	0.056
1047	0.056
1048	0.056
1048	0.056
1049	0.056
1049	0.056
1049	0.056
1050	0.056
1050	0.056
1051	0.056
1051	0.056
1051	0.056
1052	0.055
1052	0.055
1053	0.054
1053	0.054
1053	0.053
1054	0.053
1054	0.052
1055	0.052
1055	0.052
1056	0.051
1056	0.051
1056	0.05
1057	0.05
1057	0.05
1058	0.049
1058	0.049
1058	0.048
1059	0.048
1059	0.048
1060	0.047
1060	0.047
1061	0.047
1061	0.047
1061	0.047
1062	0.046
1062	0.046
1063	0.047
1063	0.046
1063	0.046
1064	0.046
1064	0.046
1065	0.046
1065	0.046
1066	0.046
1066	0.047
1066	0.047
1067	0.046
1067	0.046
1068	0.046
1068	0.046
1068	0.046
1069	0.046
1069	0.046
1070	0.046
1070	0.046
1071	0.045
1071	0.045
1071	0.045
1072	0.045
1072	0.044
1073	0.043
1073	0.043
1073	0.043
1074	0.043
1074	0.043
1075	0.043
1075	0.043
1076	0.044
1076	0.044
1076	0.044
1077	0.044
1077	0.045
1078	0.044
1078	0.044
1078	0.044
1079	0.044
1079	0.043
1080	0.042
1080	0.042
1080	0.041
1081	0.041
1081	0.041
1082	0.041
1082	0.041
1083	0.04
1083	0.04
1083	0.04
1084	0.04
1084	0.041
1085	0.041
1085	0.04
1085	0.041
1086	0.041
1086	0.041
1087	0.041
1087	0.041
1088	0.041
1088	0.041
1088	0.042
1089	0.042
1089	0.041
1090	0.041
1090	0.04
1090	0.04
1091	0.04
1091	0.04
1092	0.04
1092	0.04
1092	0.04
1093	0.039
1093	0.039
1094	0.039
1094	0.04
1095	0.039
1095	0.039
1095	0.039
1096	0.037
1096	0.036
1097	0.035
1097	0.034
1097	0.033
1098	0.032
1098	0.031
1099	0.03
1099	0.029
1100	0.028
1100	0.027
1100	0.026
1101	0.025
1101	0.025
1102	0.025
1102	0.024
1102	0.024
1103	0.024
1103	0.024
1104	0.024
1104	0.024
1104	0.023
1105	0.022
1105	0.021
1106	0.021
1106	0.02
1107	0.019
1107	0.018
1107	0.018
1108	0.016
1108	0.015
1109	0.014
1109	0.013
1109	0.014
1110	0.016
1110	0.015
1111	0.015
1111	0.012
