Data from reversibility-20sec_Absorbance__5028__000000000005028.txt Node

Date: Wed Dec 06 16:09:06 CET 2023
User: Marek
Spectrometer: MAYP115816
Trigger mode: 0
Integration Time (sec): 2.000000E-1
Scans to average: 10
Electric dark correction enabled: true
Nonlinearity correction enabled: true
Boxcar width: 5
XAxis mode: Wavelengths
Number of Pixels in Spectrum: 2068
>>>>>Begin Spectral Data<<<<<
199	-0.165
199	-0.133
200	-0.072
200	-0.021
201	0.013
201	0.031
202	0.042
202	0.051
203	0.06
203	0.064
204	0.078
204	0.091
205	0.105
205	0.11
205	0.109
206	0.108
206	0.106
207	0.108
207	0.108
208	0.106
208	0.104
209	0.105
209	0.104
210	0.103
210	0.107
211	0.108
211	0.11
212	0.106
212	0.108
213	0.109
213	0.113
213	0.112
214	0.115
214	0.113
215	0.115
215	0.112
216	0.114
216	0.111
217	0.118
217	0.12
218	0.118
218	0.119
219	0.125
219	0.127
220	0.131
220	0.129
221	0.13
221	0.13
221	0.135
222	0.14
222	0.141
223	0.147
223	0.151
224	0.154
224	0.16
225	0.171
225	0.182
226	0.192
226	0.204
227	0.216
227	0.228
228	0.246
228	0.262
229	0.277
229	0.305
229	0.327
230	0.353
230	0.382
231	0.415
231	0.453
232	0.489
232	0.53
233	0.573
233	0.62
234	0.671
234	0.72
235	0.773
235	0.822
236	0.874
236	0.923
236	0.974
237	1.025
237	1.073
238	1.12
238	1.167
239	1.215
239	1.256
240	1.298
240	1.336
241	1.372
241	1.411
242	1.443
242	1.475
243	1.505
243	1.531
243	1.556
244	1.576
244	1.597
245	1.616
245	1.641
246	1.66
246	1.677
247	1.688
247	1.703
248	1.718
248	1.731
249	1.74
249	1.748
250	1.758
250	1.764
250	1.765
251	1.768
251	1.77
252	1.776
252	1.775
253	1.775
253	1.773
254	1.772
254	1.773
255	1.77
255	1.768
256	1.766
256	1.765
257	1.764
257	1.762
258	1.761
258	1.762
258	1.763
259	1.763
259	1.762
260	1.762
260	1.764
261	1.767
261	1.769
262	1.772
262	1.773
263	1.777
263	1.778
264	1.779
264	1.782
265	1.782
265	1.783
265	1.784
266	1.784
266	1.784
267	1.783
267	1.785
268	1.783
268	1.784
269	1.786
269	1.785
270	1.785
270	1.785
271	1.781
271	1.779
272	1.776
272	1.772
272	1.769
273	1.763
273	1.755
274	1.748
274	1.742
275	1.735
275	1.728
276	1.722
276	1.714
277	1.707
277	1.698
278	1.686
278	1.674
278	1.66
279	1.643
279	1.621
280	1.595
280	1.564
281	1.527
281	1.487
282	1.444
282	1.4
283	1.358
283	1.316
284	1.276
284	1.238
285	1.202
285	1.169
285	1.141
286	1.115
286	1.093
287	1.074
287	1.057
288	1.043
288	1.031
289	1.021
289	1.012
290	1.004
290	0.998
291	0.992
291	0.987
292	0.982
292	0.978
292	0.975
293	0.971
293	0.968
294	0.965
294	0.962
295	0.959
295	0.956
296	0.953
296	0.951
297	0.948
297	0.945
298	0.942
298	0.94
298	0.937
299	0.934
299	0.932
300	0.929
300	0.926
301	0.924
301	0.922
302	0.919
302	0.917
303	0.914
303	0.912
304	0.91
304	0.908
305	0.906
305	0.903
305	0.901
306	0.899
306	0.897
307	0.894
307	0.892
308	0.889
308	0.887
309	0.884
309	0.882
310	0.879
310	0.876
311	0.874
311	0.871
311	0.868
312	0.864
312	0.861
313	0.858
313	0.854
314	0.85
314	0.846
315	0.842
315	0.838
316	0.834
316	0.829
317	0.825
317	0.82
318	0.815
318	0.81
318	0.805
319	0.8
319	0.795
320	0.789
320	0.784
321	0.778
321	0.772
322	0.766
322	0.76
323	0.754
323	0.747
324	0.741
324	0.734
324	0.727
325	0.721
325	0.714
326	0.707
326	0.701
327	0.694
327	0.687
328	0.68
328	0.673
329	0.667
329	0.66
330	0.653
330	0.646
330	0.639
331	0.632
331	0.625
332	0.619
332	0.612
333	0.605
333	0.598
334	0.591
334	0.585
335	0.578
335	0.571
336	0.565
336	0.559
336	0.552
337	0.546
337	0.54
338	0.534
338	0.527
339	0.522
339	0.516
340	0.51
340	0.504
341	0.499
341	0.493
342	0.488
342	0.483
342	0.477
343	0.472
343	0.467
344	0.462
344	0.458
345	0.453
345	0.448
346	0.444
346	0.44
347	0.435
347	0.431
348	0.427
348	0.423
348	0.419
349	0.416
349	0.412
350	0.408
350	0.405
351	0.402
351	0.398
352	0.395
352	0.392
353	0.39
353	0.387
354	0.384
354	0.381
354	0.378
355	0.375
355	0.373
356	0.37
356	0.367
357	0.364
357	0.361
358	0.358
358	0.356
359	0.354
359	0.351
360	0.349
360	0.347
360	0.346
361	0.344
361	0.342
362	0.341
362	0.339
363	0.338
363	0.336
364	0.334
364	0.332
365	0.33
365	0.328
366	0.327
366	0.325
366	0.323
367	0.322
367	0.32
368	0.318
368	0.317
369	0.315
369	0.314
370	0.313
370	0.311
371	0.31
371	0.308
372	0.307
372	0.306
372	0.305
373	0.304
373	0.303
374	0.302
374	0.301
375	0.3
375	0.3
376	0.299
376	0.298
377	0.297
377	0.296
378	0.295
378	0.294
378	0.294
379	0.293
379	0.292
380	0.292
380	0.291
381	0.29
381	0.289
382	0.289
382	0.289
383	0.288
383	0.288
383	0.287
384	0.286
384	0.286
385	0.285
385	0.285
386	0.285
386	0.284
387	0.284
387	0.283
388	0.282
388	0.282
389	0.282
389	0.282
389	0.281
390	0.281
390	0.28
391	0.28
391	0.28
392	0.279
392	0.279
393	0.279
393	0.278
394	0.278
394	0.278
394	0.277
395	0.277
395	0.276
396	0.276
396	0.275
397	0.275
397	0.274
398	0.274
398	0.274
399	0.273
399	0.273
400	0.273
400	0.273
400	0.272
401	0.272
401	0.272
402	0.272
402	0.272
403	0.271
403	0.271
404	0.271
404	0.271
405	0.271
405	0.271
405	0.271
406	0.27
406	0.27
407	0.27
407	0.269
408	0.269
408	0.268
409	0.268
409	0.268
410	0.267
410	0.267
411	0.267
411	0.266
411	0.266
412	0.266
412	0.266
413	0.265
413	0.265
414	0.265
414	0.265
415	0.264
415	0.264
416	0.264
416	0.263
416	0.263
417	0.263
417	0.262
418	0.262
418	0.262
419	0.261
419	0.261
420	0.26
420	0.26
421	0.26
421	0.259
421	0.259
422	0.259
422	0.258
423	0.258
423	0.258
424	0.258
424	0.257
425	0.257
425	0.257
426	0.257
426	0.256
427	0.256
427	0.256
427	0.255
428	0.255
428	0.255
429	0.254
429	0.254
430	0.254
430	0.254
431	0.254
431	0.253
432	0.253
432	0.253
432	0.253
433	0.252
433	0.252
434	0.252
434	0.252
435	0.252
435	0.252
436	0.251
436	0.251
437	0.251
437	0.25
437	0.25
438	0.25
438	0.25
439	0.25
439	0.25
440	0.249
440	0.249
441	0.249
441	0.249
442	0.249
442	0.248
442	0.248
443	0.248
443	0.248
444	0.248
444	0.247
445	0.247
445	0.247
446	0.247
446	0.247
447	0.246
447	0.246
447	0.246
448	0.246
448	0.246
449	0.246
449	0.245
450	0.245
450	0.245
451	0.245
451	0.245
452	0.244
452	0.244
452	0.244
453	0.244
453	0.244
454	0.244
454	0.243
455	0.243
455	0.243
456	0.243
456	0.243
457	0.242
457	0.242
458	0.242
458	0.242
458	0.242
459	0.241
459	0.241
460	0.241
460	0.241
461	0.241
461	0.24
462	0.24
462	0.24
463	0.24
463	0.239
463	0.239
464	0.239
464	0.238
465	0.238
465	0.238
466	0.238
466	0.238
467	0.238
467	0.238
467	0.238
468	0.238
468	0.238
469	0.238
469	0.238
470	0.238
470	0.238
471	0.238
471	0.238
472	0.238
472	0.238
472	0.238
473	0.239
473	0.239
474	0.238
474	0.238
475	0.238
475	0.238
476	0.239
476	0.239
477	0.239
477	0.239
477	0.239
478	0.239
478	0.239
479	0.239
479	0.239
480	0.239
480	0.239
481	0.239
481	0.239
482	0.239
482	0.239
482	0.24
483	0.24
483	0.241
484	0.241
484	0.241
485	0.241
485	0.241
486	0.241
486	0.241
487	0.242
487	0.242
487	0.242
488	0.242
488	0.243
489	0.243
489	0.243
490	0.244
490	0.244
491	0.245
491	0.245
492	0.245
492	0.245
492	0.246
493	0.246
493	0.247
494	0.247
494	0.248
495	0.248
495	0.249
496	0.249
496	0.25
496	0.251
497	0.251
497	0.252
498	0.252
498	0.253
499	0.253
499	0.254
500	0.255
500	0.255
501	0.256
501	0.256
501	0.256
502	0.257
502	0.257
503	0.257
503	0.258
504	0.259
504	0.259
505	0.259
505	0.26
506	0.26
506	0.261
506	0.262
507	0.262
507	0.263
508	0.263
508	0.264
509	0.264
509	0.265
510	0.265
510	0.266
511	0.266
511	0.267
511	0.268
512	0.268
512	0.269
513	0.27
513	0.27
514	0.271
514	0.271
515	0.272
515	0.272
515	0.273
516	0.273
516	0.274
517	0.274
517	0.274
518	0.275
518	0.275
519	0.275
519	0.275
520	0.275
520	0.275
520	0.276
521	0.276
521	0.276
522	0.276
522	0.276
523	0.276
523	0.276
524	0.276
524	0.277
524	0.277
525	0.277
525	0.277
526	0.277
526	0.277
527	0.278
527	0.278
528	0.278
528	0.278
529	0.278
529	0.277
529	0.277
530	0.277
530	0.276
531	0.276
531	0.276
532	0.276
532	0.275
533	0.275
533	0.275
533	0.275
534	0.274
534	0.274
535	0.274
535	0.274
536	0.273
536	0.273
537	0.273
537	0.273
538	0.272
538	0.272
538	0.271
539	0.271
539	0.271
540	0.27
540	0.27
541	0.269
541	0.269
542	0.268
542	0.268
542	0.267
543	0.267
543	0.266
544	0.266
544	0.266
545	0.265
545	0.265
546	0.265
546	0.264
547	0.264
547	0.263
547	0.262
548	0.262
548	0.262
549	0.261
549	0.26
550	0.26
550	0.259
551	0.259
551	0.258
551	0.257
552	0.257
552	0.256
553	0.256
553	0.255
554	0.254
554	0.253
555	0.252
555	0.251
556	0.251
556	0.25
556	0.25
557	0.25
557	0.249
558	0.249
558	0.249
559	0.249
559	0.248
560	0.248
560	0.248
560	0.247
561	0.247
561	0.246
562	0.245
562	0.244
563	0.243
563	0.242
564	0.241
564	0.241
564	0.24
565	0.24
565	0.24
566	0.239
566	0.239
567	0.239
567	0.238
568	0.238
568	0.238
568	0.237
569	0.237
569	0.236
570	0.235
570	0.234
571	0.233
571	0.233
572	0.232
572	0.231
573	0.231
573	0.23
573	0.23
574	0.229
574	0.229
575	0.229
575	0.229
576	0.229
576	0.228
577	0.228
577	0.227
577	0.226
578	0.226
578	0.226
579	0.226
579	0.226
580	0.225
580	0.224
581	0.223
581	0.223
581	0.223
582	0.223
582	0.223
583	0.223
583	0.222
584	0.221
584	0.22
585	0.22
585	0.22
585	0.219
586	0.219
586	0.218
587	0.217
587	0.216
588	0.216
588	0.215
589	0.215
589	0.215
590	0.215
590	0.215
590	0.215
591	0.215
591	0.215
592	0.214
592	0.214
593	0.213
593	0.213
594	0.213
594	0.212
594	0.211
595	0.211
595	0.21
596	0.21
596	0.21
597	0.21
597	0.211
598	0.21
598	0.21
598	0.21
599	0.21
599	0.209
600	0.209
600	0.208
601	0.208
601	0.208
602	0.207
602	0.206
602	0.206
603	0.206
603	0.206
604	0.206
604	0.206
605	0.206
605	0.206
606	0.205
606	0.205
606	0.204
607	0.204
607	0.204
608	0.203
608	0.203
609	0.203
609	0.203
610	0.202
610	0.202
610	0.202
611	0.202
611	0.202
612	0.202
612	0.202
613	0.202
613	0.201
614	0.201
614	0.2
614	0.2
615	0.2
615	0.199
616	0.199
616	0.198
617	0.198
617	0.198
618	0.197
618	0.197
618	0.197
619	0.197
619	0.198
620	0.198
620	0.198
621	0.197
621	0.197
622	0.196
622	0.196
622	0.196
623	0.195
623	0.195
624	0.195
624	0.194
625	0.193
625	0.193
626	0.193
626	0.192
626	0.193
627	0.192
627	0.192
628	0.192
628	0.192
629	0.191
629	0.191
630	0.191
630	0.191
630	0.191
631	0.191
631	0.191
632	0.191
632	0.191
633	0.191
633	0.191
634	0.192
634	0.192
634	0.192
635	0.191
635	0.19
636	0.19
636	0.19
637	0.189
637	0.189
638	0.188
638	0.188
638	0.187
639	0.187
639	0.187
640	0.186
640	0.186
641	0.186
641	0.187
642	0.187
642	0.187
642	0.187
643	0.188
643	0.188
644	0.188
644	0.188
645	0.188
645	0.188
646	0.188
646	0.187
646	0.187
647	0.187
647	0.187
648	0.186
648	0.185
649	0.185
649	0.185
650	0.185
650	0.185
650	0.185
651	0.185
651	0.185
652	0.184
652	0.184
653	0.185
653	0.187
653	0.193
654	0.152
654	0.121
655	0.122
655	0.122
656	0.123
656	0.123
657	0.124
657	0.124
657	0.124
658	0.123
658	0.113
659	0.142
659	0.183
660	0.188
660	0.188
661	0.188
661	0.187
661	0.187
662	0.187
662	0.186
663	0.186
663	0.186
664	0.185
664	0.185
665	0.185
665	0.185
665	0.185
666	0.186
666	0.186
667	0.186
667	0.186
668	0.186
668	0.186
669	0.187
669	0.187
669	0.187
670	0.187
670	0.187
671	0.187
671	0.186
672	0.186
672	0.185
672	0.185
673	0.184
673	0.184
674	0.184
674	0.183
675	0.183
675	0.183
676	0.183
676	0.183
676	0.184
677	0.184
677	0.184
678	0.184
678	0.183
679	0.183
679	0.183
680	0.183
680	0.183
680	0.183
681	0.183
681	0.183
682	0.183
682	0.184
683	0.184
683	0.184
684	0.184
684	0.184
684	0.184
685	0.184
685	0.184
686	0.184
686	0.184
687	0.184
687	0.184
687	0.184
688	0.184
688	0.184
689	0.184
689	0.185
690	0.185
690	0.184
691	0.184
691	0.185
691	0.185
692	0.185
692	0.185
693	0.185
693	0.185
694	0.185
694	0.185
695	0.186
695	0.187
695	0.187
696	0.187
696	0.188
697	0.188
697	0.188
698	0.188
698	0.188
698	0.188
699	0.188
699	0.187
700	0.186
700	0.186
701	0.186
701	0.185
702	0.185
702	0.184
702	0.184
703	0.184
703	0.184
704	0.184
704	0.184
705	0.184
705	0.185
705	0.185
706	0.186
706	0.186
707	0.187
707	0.187
708	0.188
708	0.189
709	0.189
709	0.189
709	0.189
710	0.19
710	0.19
711	0.19
711	0.19
712	0.19
712	0.19
713	0.19
713	0.19
713	0.189
714	0.189
714	0.188
715	0.188
715	0.187
716	0.186
716	0.186
716	0.185
717	0.184
717	0.184
718	0.184
718	0.184
719	0.184
719	0.185
720	0.186
720	0.186
720	0.187
721	0.187
721	0.188
722	0.189
722	0.189
723	0.19
723	0.19
723	0.19
724	0.19
724	0.189
725	0.189
725	0.188
726	0.188
726	0.187
727	0.187
727	0.187
727	0.187
728	0.187
728	0.186
729	0.187
729	0.187
730	0.187
730	0.188
730	0.188
731	0.189
731	0.19
732	0.19
732	0.191
733	0.191
733	0.191
734	0.192
734	0.193
734	0.193
735	0.194
735	0.194
736	0.194
736	0.194
737	0.194
737	0.194
737	0.194
738	0.193
738	0.193
739	0.192
739	0.192
740	0.191
740	0.191
741	0.191
741	0.191
741	0.191
742	0.191
742	0.192
743	0.193
743	0.193
744	0.194
744	0.195
744	0.196
745	0.196
745	0.196
746	0.197
746	0.197
747	0.196
747	0.196
748	0.196
748	0.196
748	0.195
749	0.194
749	0.194
750	0.194
750	0.194
751	0.194
751	0.193
751	0.193
752	0.193
752	0.192
753	0.192
753	0.191
754	0.191
754	0.191
754	0.191
755	0.19
755	0.19
756	0.19
756	0.189
757	0.189
757	0.189
758	0.189
758	0.189
758	0.19
759	0.19
759	0.19
760	0.19
760	0.19
761	0.19
761	0.191
761	0.191
762	0.191
762	0.192
763	0.192
763	0.192
764	0.192
764	0.192
764	0.193
765	0.193
765	0.193
766	0.193
766	0.193
767	0.193
767	0.193
768	0.193
768	0.193
768	0.193
769	0.194
769	0.194
770	0.195
770	0.195
771	0.195
771	0.195
771	0.196
772	0.196
772	0.197
773	0.197
773	0.197
774	0.197
774	0.197
775	0.197
775	0.197
775	0.197
776	0.197
776	0.197
777	0.198
777	0.198
778	0.198
778	0.198
778	0.198
779	0.198
779	0.198
780	0.198
780	0.198
781	0.198
781	0.198
781	0.199
782	0.199
782	0.2
783	0.2
783	0.201
784	0.201
784	0.201
784	0.202
785	0.202
785	0.202
786	0.202
786	0.202
787	0.202
787	0.202
788	0.201
788	0.2
788	0.199
789	0.199
789	0.198
790	0.198
790	0.197
791	0.196
791	0.195
791	0.194
792	0.195
792	0.194
793	0.194
793	0.194
794	0.194
794	0.194
794	0.194
795	0.195
795	0.195
796	0.196
796	0.196
797	0.196
797	0.197
797	0.197
798	0.197
798	0.198
799	0.198
799	0.198
800	0.198
800	0.198
801	0.198
801	0.198
801	0.198
802	0.198
802	0.198
803	0.198
803	0.198
804	0.198
804	0.198
804	0.199
805	0.199
805	0.199
806	0.199
806	0.199
807	0.199
807	0.199
807	0.2
808	0.2
808	0.2
809	0.2
809	0.2
810	0.201
810	0.201
810	0.201
811	0.201
811	0.201
812	0.202
812	0.202
813	0.202
813	0.202
813	0.202
814	0.203
814	0.203
815	0.204
815	0.204
816	0.204
816	0.204
817	0.203
817	0.203
817	0.203
818	0.203
818	0.203
819	0.203
819	0.202
820	0.201
820	0.201
820	0.201
821	0.201
821	0.202
822	0.202
822	0.202
823	0.202
823	0.202
823	0.203
824	0.204
824	0.204
825	0.205
825	0.206
826	0.206
826	0.205
826	0.205
827	0.206
827	0.205
828	0.205
828	0.205
829	0.205
829	0.205
829	0.205
830	0.205
830	0.206
831	0.207
831	0.207
832	0.207
832	0.207
832	0.207
833	0.207
833	0.207
834	0.206
834	0.206
835	0.205
835	0.205
835	0.204
836	0.204
836	0.204
837	0.203
837	0.203
838	0.202
838	0.201
839	0.201
839	0.2
839	0.199
840	0.198
840	0.198
841	0.197
841	0.196
842	0.195
842	0.195
842	0.194
843	0.194
843	0.193
844	0.193
844	0.193
845	0.192
845	0.192
845	0.192
846	0.191
846	0.191
847	0.191
847	0.191
848	0.191
848	0.191
848	0.191
849	0.191
849	0.192
850	0.192
850	0.193
851	0.193
851	0.194
851	0.194
852	0.194
852	0.194
853	0.194
853	0.194
854	0.194
854	0.195
854	0.195
855	0.196
855	0.196
856	0.197
856	0.197
857	0.198
857	0.198
857	0.199
858	0.199
858	0.199
859	0.198
859	0.197
860	0.197
860	0.196
860	0.195
861	0.195
861	0.194
862	0.193
862	0.193
863	0.192
863	0.191
863	0.191
864	0.191
864	0.191
865	0.191
865	0.192
866	0.191
866	0.191
866	0.191
867	0.192
867	0.192
868	0.193
868	0.193
869	0.193
869	0.193
869	0.192
870	0.192
870	0.192
871	0.191
871	0.191
872	0.191
872	0.19
872	0.189
873	0.189
873	0.188
874	0.188
874	0.188
875	0.188
875	0.188
875	0.187
876	0.187
876	0.187
877	0.187
877	0.187
878	0.187
878	0.187
878	0.187
879	0.187
879	0.187
880	0.187
880	0.187
881	0.186
881	0.186
881	0.186
882	0.185
882	0.185
883	0.185
883	0.185
884	0.185
884	0.185
884	0.185
885	0.185
885	0.184
886	0.184
886	0.184
887	0.183
887	0.182
887	0.181
888	0.18
888	0.178
889	0.177
889	0.176
890	0.176
890	0.176
890	0.175
891	0.175
891	0.175
892	0.174
892	0.174
893	0.174
893	0.174
893	0.174
894	0.174
894	0.174
895	0.174
895	0.175
895	0.175
896	0.175
896	0.176
897	0.176
897	0.176
898	0.177
898	0.177
898	0.177
899	0.177
899	0.177
900	0.176
900	0.176
901	0.175
901	0.174
901	0.174
902	0.173
902	0.173
903	0.172
903	0.171
904	0.17
904	0.169
904	0.169
905	0.168
905	0.168
906	0.167
906	0.167
907	0.167
907	0.168
907	0.168
908	0.168
908	0.168
909	0.168
909	0.168
910	0.168
910	0.168
910	0.168
911	0.167
911	0.167
912	0.166
912	0.166
913	0.166
913	0.165
913	0.165
914	0.165
914	0.164
915	0.164
915	0.164
916	0.164
916	0.164
916	0.164
917	0.164
917	0.164
918	0.163
918	0.163
918	0.163
919	0.163
919	0.162
920	0.162
920	0.162
921	0.162
921	0.162
921	0.162
922	0.161
922	0.161
923	0.162
923	0.162
924	0.162
924	0.163
924	0.163
925	0.164
925	0.164
926	0.164
926	0.165
927	0.165
927	0.165
927	0.165
928	0.164
928	0.164
929	0.163
929	0.162
930	0.161
930	0.16
930	0.159
931	0.158
931	0.157
932	0.156
932	0.155
933	0.155
933	0.154
933	0.154
934	0.153
934	0.153
935	0.152
935	0.152
935	0.152
936	0.151
936	0.151
937	0.151
937	0.15
938	0.15
938	0.15
938	0.149
939	0.149
939	0.149
940	0.149
940	0.149
941	0.149
941	0.149
941	0.149
942	0.148
942	0.148
943	0.148
943	0.148
944	0.148
944	0.148
944	0.148
945	0.148
945	0.148
946	0.148
946	0.147
946	0.147
947	0.147
947	0.147
948	0.147
948	0.146
949	0.146
949	0.145
949	0.144
950	0.144
950	0.143
951	0.143
951	0.142
952	0.141
952	0.141
952	0.14
953	0.14
953	0.14
954	0.14
954	0.139
955	0.139
955	0.139
955	0.138
956	0.139
956	0.139
957	0.139
957	0.139
957	0.139
958	0.14
958	0.139
959	0.139
959	0.139
960	0.139
960	0.139
960	0.139
961	0.138
961	0.138
962	0.137
962	0.137
963	0.136
963	0.136
963	0.136
964	0.136
964	0.136
965	0.135
965	0.135
966	0.135
966	0.134
966	0.134
967	0.134
967	0.134
968	0.134
968	0.134
968	0.133
969	0.133
969	0.132
970	0.132
970	0.131
971	0.131
971	0.13
971	0.129
972	0.128
972	0.128
973	0.127
973	0.126
974	0.125
974	0.125
974	0.125
975	0.124
975	0.124
976	0.124
976	0.124
976	0.124
977	0.124
977	0.124
978	0.124
978	0.124
979	0.123
979	0.123
979	0.123
980	0.123
980	0.122
981	0.122
981	0.121
982	0.121
982	0.121
982	0.121
983	0.121
983	0.121
984	0.121
984	0.121
984	0.121
985	0.121
985	0.121
986	0.121
986	0.121
987	0.121
987	0.121
987	0.121
988	0.121
988	0.121
989	0.121
989	0.121
990	0.121
990	0.121
990	0.121
991	0.121
991	0.12
992	0.12
992	0.119
992	0.119
993	0.118
993	0.117
994	0.116
994	0.115
995	0.115
995	0.114
995	0.114
996	0.114
996	0.114
997	0.114
997	0.114
997	0.115
998	0.115
998	0.116
999	0.117
999	0.118
1000	0.118
1000	0.119
1000	0.119
1001	0.119
1001	0.119
1002	0.119
1002	0.118
1003	0.118
1003	0.117
1003	0.117
1004	0.116
1004	0.115
1005	0.115
1005	0.114
1005	0.114
1006	0.114
1006	0.113
1007	0.113
1007	0.113
1008	0.113
1008	0.112
1008	0.112
1009	0.112
1009	0.112
1010	0.111
1010	0.111
1010	0.111
1011	0.111
1011	0.11
1012	0.11
1012	0.109
1013	0.109
1013	0.109
1013	0.108
1014	0.108
1014	0.107
1015	0.107
1015	0.107
1016	0.107
1016	0.107
1016	0.106
1017	0.106
1017	0.105
1018	0.105
1018	0.105
1018	0.104
1019	0.104
1019	0.104
1020	0.103
1020	0.103
1021	0.103
1021	0.103
1021	0.103
1022	0.103
1022	0.104
1023	0.104
1023	0.104
1023	0.105
1024	0.105
1024	0.105
1025	0.106
1025	0.106
1026	0.106
1026	0.105
1026	0.105
1027	0.105
1027	0.105
1028	0.105
1028	0.105
1028	0.104
1029	0.104
1029	0.104
1030	0.104
1030	0.104
1031	0.104
1031	0.104
1031	0.103
1032	0.103
1032	0.103
1033	0.103
1033	0.103
1033	0.103
1034	0.103
1034	0.102
1035	0.102
1035	0.102
1036	0.101
1036	0.101
1036	0.101
1037	0.101
1037	0.101
1038	0.101
1038	0.101
1039	0.101
1039	0.101
1039	0.101
1040	0.101
1040	0.101
1041	0.101
1041	0.101
1041	0.101
1042	0.101
1042	0.101
1043	0.1
1043	0.1
1044	0.1
1044	0.1
1044	0.1
1045	0.1
1045	0.099
1046	0.099
1046	0.099
1046	0.099
1047	0.099
1047	0.099
1048	0.099
1048	0.099
1049	0.099
1049	0.099
1049	0.098
1050	0.098
1050	0.097
1051	0.096
1051	0.096
1051	0.095
1052	0.094
1052	0.094
1053	0.093
1053	0.092
1053	0.092
1054	0.091
1054	0.091
1055	0.091
1055	0.091
1056	0.091
1056	0.09
1056	0.09
1057	0.089
1057	0.089
1058	0.088
1058	0.087
1058	0.086
1059	0.085
1059	0.085
1060	0.084
1060	0.083
1061	0.083
1061	0.082
1061	0.082
1062	0.082
1062	0.081
1063	0.082
1063	0.081
1063	0.081
1064	0.081
1064	0.081
1065	0.081
1065	0.081
1066	0.081
1066	0.081
1066	0.081
1067	0.08
1067	0.081
1068	0.08
1068	0.08
1068	0.08
1069	0.08
1069	0.08
1070	0.08
1070	0.08
1071	0.079
1071	0.079
1071	0.078
1072	0.078
1072	0.077
1073	0.076
1073	0.076
1073	0.075
1074	0.075
1074	0.075
1075	0.075
1075	0.075
1076	0.075
1076	0.075
1076	0.075
1077	0.075
1077	0.075
1078	0.074
1078	0.074
1078	0.074
1079	0.073
1079	0.073
1080	0.072
1080	0.072
1080	0.072
1081	0.071
1081	0.071
1082	0.071
1082	0.071
1083	0.071
1083	0.071
1083	0.071
1084	0.071
1084	0.071
1085	0.071
1085	0.071
1085	0.072
1086	0.072
1086	0.072
1087	0.072
1087	0.071
1088	0.071
1088	0.071
1088	0.072
1089	0.071
1089	0.071
1090	0.07
1090	0.069
1090	0.068
1091	0.068
1091	0.068
1092	0.068
1092	0.069
1092	0.068
1093	0.068
1093	0.068
1094	0.068
1094	0.068
1095	0.068
1095	0.068
1095	0.068
1096	0.066
1096	0.066
1097	0.065
1097	0.063
1097	0.063
1098	0.062
1098	0.06
1099	0.059
1099	0.057
1100	0.056
1100	0.054
1100	0.053
1101	0.051
1101	0.051
1102	0.05
1102	0.048
1102	0.046
1103	0.046
1103	0.045
1104	0.045
1104	0.045
1104	0.045
1105	0.044
1105	0.042
1106	0.04
1106	0.04
1107	0.039
1107	0.039
1107	0.037
1108	0.037
1108	0.035
1109	0.034
1109	0.032
1109	0.033
1110	0.035
1110	0.034
1111	0.033
1111	0.033
