Data from reversibility-20sec_Absorbance__7783__000000000007783.txt Node

Date: Thu Dec 07 07:27:26 CET 2023
User: Marek
Spectrometer: MAYP115816
Trigger mode: 0
Integration Time (sec): 2.000000E-1
Scans to average: 10
Electric dark correction enabled: true
Nonlinearity correction enabled: true
Boxcar width: 5
XAxis mode: Wavelengths
Number of Pixels in Spectrum: 2068
>>>>>Begin Spectral Data<<<<<
199	-0.146
199	-0.117
200	-0.051
200	-0.004
201	0.029
201	0.046
202	0.054
202	0.067
203	0.074
203	0.078
204	0.092
204	0.109
205	0.118
205	0.123
205	0.123
206	0.122
206	0.123
207	0.125
207	0.125
208	0.124
208	0.123
209	0.126
209	0.126
210	0.126
210	0.128
211	0.13
211	0.133
212	0.13
212	0.132
213	0.133
213	0.136
213	0.137
214	0.14
214	0.14
215	0.146
215	0.145
216	0.146
216	0.143
217	0.147
217	0.151
218	0.148
218	0.153
219	0.157
219	0.157
220	0.159
220	0.157
221	0.16
221	0.163
221	0.171
222	0.177
222	0.179
223	0.188
223	0.19
224	0.197
224	0.203
225	0.212
225	0.223
226	0.234
226	0.243
227	0.253
227	0.262
228	0.276
228	0.292
229	0.307
229	0.331
229	0.356
230	0.382
230	0.412
231	0.441
231	0.481
232	0.518
232	0.563
233	0.606
233	0.655
234	0.707
234	0.758
235	0.811
235	0.864
236	0.915
236	0.968
236	1.016
237	1.064
237	1.113
238	1.162
238	1.205
239	1.252
239	1.294
240	1.331
240	1.366
241	1.403
241	1.436
242	1.469
242	1.502
243	1.533
243	1.557
243	1.582
244	1.602
244	1.623
245	1.641
245	1.662
246	1.678
246	1.694
247	1.708
247	1.721
248	1.735
248	1.747
249	1.758
249	1.767
250	1.775
250	1.784
250	1.79
251	1.794
251	1.799
252	1.803
252	1.805
253	1.804
253	1.803
254	1.802
254	1.802
255	1.801
255	1.8
256	1.8
256	1.799
257	1.799
257	1.797
258	1.797
258	1.796
258	1.796
259	1.796
259	1.795
260	1.794
260	1.795
261	1.794
261	1.794
262	1.795
262	1.797
263	1.799
263	1.801
264	1.801
264	1.802
265	1.802
265	1.803
265	1.802
266	1.801
266	1.802
267	1.8
267	1.8
268	1.798
268	1.798
269	1.799
269	1.796
270	1.795
270	1.794
271	1.792
271	1.791
272	1.789
272	1.788
272	1.785
273	1.781
273	1.774
274	1.77
274	1.766
275	1.761
275	1.755
276	1.748
276	1.742
277	1.734
277	1.725
278	1.712
278	1.701
278	1.689
279	1.675
279	1.659
280	1.638
280	1.612
281	1.582
281	1.548
282	1.511
282	1.474
283	1.436
283	1.398
284	1.36
284	1.323
285	1.287
285	1.254
285	1.225
286	1.198
286	1.175
287	1.154
287	1.137
288	1.121
288	1.108
289	1.096
289	1.086
290	1.077
290	1.07
291	1.063
291	1.057
292	1.051
292	1.046
292	1.041
293	1.037
293	1.033
294	1.028
294	1.024
295	1.021
295	1.017
296	1.014
296	1.01
297	1.007
297	1.003
298	1
298	0.996
298	0.993
299	0.99
299	0.986
300	0.983
300	0.98
301	0.977
301	0.974
302	0.971
302	0.968
303	0.966
303	0.963
304	0.96
304	0.957
305	0.955
305	0.952
305	0.949
306	0.947
306	0.944
307	0.942
307	0.939
308	0.936
308	0.933
309	0.93
309	0.927
310	0.924
310	0.92
311	0.917
311	0.914
311	0.91
312	0.906
312	0.903
313	0.899
313	0.894
314	0.89
314	0.886
315	0.882
315	0.877
316	0.873
316	0.868
317	0.863
317	0.858
318	0.853
318	0.848
318	0.843
319	0.837
319	0.832
320	0.826
320	0.82
321	0.813
321	0.807
322	0.801
322	0.794
323	0.788
323	0.781
324	0.774
324	0.768
324	0.761
325	0.754
325	0.747
326	0.74
326	0.733
327	0.726
327	0.719
328	0.712
328	0.705
329	0.698
329	0.69
330	0.683
330	0.676
330	0.669
331	0.661
331	0.654
332	0.647
332	0.64
333	0.633
333	0.626
334	0.619
334	0.612
335	0.606
335	0.599
336	0.592
336	0.585
336	0.579
337	0.572
337	0.566
338	0.56
338	0.553
339	0.547
339	0.541
340	0.535
340	0.529
341	0.523
341	0.518
342	0.512
342	0.506
342	0.501
343	0.496
343	0.49
344	0.485
344	0.48
345	0.475
345	0.47
346	0.466
346	0.461
347	0.457
347	0.452
348	0.448
348	0.444
348	0.44
349	0.436
349	0.432
350	0.429
350	0.425
351	0.421
351	0.418
352	0.415
352	0.412
353	0.409
353	0.405
354	0.402
354	0.4
354	0.397
355	0.393
355	0.39
356	0.387
356	0.385
357	0.381
357	0.378
358	0.376
358	0.373
359	0.371
359	0.368
360	0.366
360	0.364
360	0.362
361	0.36
361	0.358
362	0.357
362	0.355
363	0.353
363	0.351
364	0.349
364	0.347
365	0.345
365	0.344
366	0.342
366	0.34
366	0.338
367	0.336
367	0.334
368	0.332
368	0.331
369	0.329
369	0.328
370	0.326
370	0.325
371	0.323
371	0.322
372	0.32
372	0.319
372	0.318
373	0.317
373	0.316
374	0.315
374	0.314
375	0.313
375	0.312
376	0.311
376	0.31
377	0.309
377	0.308
378	0.307
378	0.306
378	0.305
379	0.304
379	0.303
380	0.302
380	0.301
381	0.3
381	0.299
382	0.299
382	0.298
383	0.298
383	0.297
383	0.296
384	0.296
384	0.295
385	0.295
385	0.295
386	0.294
386	0.294
387	0.293
387	0.293
388	0.292
388	0.292
389	0.291
389	0.291
389	0.29
390	0.29
390	0.289
391	0.289
391	0.288
392	0.288
392	0.287
393	0.287
393	0.286
394	0.286
394	0.286
394	0.285
395	0.285
395	0.284
396	0.284
396	0.283
397	0.283
397	0.283
398	0.282
398	0.282
399	0.282
399	0.281
400	0.281
400	0.28
400	0.28
401	0.28
401	0.279
402	0.279
402	0.278
403	0.278
403	0.278
404	0.277
404	0.277
405	0.276
405	0.276
405	0.276
406	0.276
406	0.275
407	0.275
407	0.275
408	0.275
408	0.274
409	0.274
409	0.274
410	0.274
410	0.273
411	0.273
411	0.273
411	0.272
412	0.272
412	0.272
413	0.271
413	0.271
414	0.27
414	0.27
415	0.27
415	0.269
416	0.269
416	0.269
416	0.268
417	0.268
417	0.268
418	0.267
418	0.267
419	0.267
419	0.266
420	0.266
420	0.265
421	0.264
421	0.264
421	0.264
422	0.264
422	0.263
423	0.263
423	0.263
424	0.262
424	0.262
425	0.262
425	0.262
426	0.261
426	0.261
427	0.261
427	0.26
427	0.26
428	0.259
428	0.259
429	0.259
429	0.258
430	0.258
430	0.257
431	0.257
431	0.257
432	0.257
432	0.257
432	0.257
433	0.256
433	0.256
434	0.256
434	0.256
435	0.256
435	0.256
436	0.256
436	0.256
437	0.256
437	0.255
437	0.255
438	0.255
438	0.255
439	0.254
439	0.254
440	0.254
440	0.254
441	0.253
441	0.253
442	0.253
442	0.253
442	0.252
443	0.252
443	0.252
444	0.252
444	0.252
445	0.252
445	0.252
446	0.251
446	0.251
447	0.251
447	0.251
447	0.251
448	0.251
448	0.251
449	0.251
449	0.251
450	0.251
450	0.25
451	0.25
451	0.25
452	0.25
452	0.25
452	0.25
453	0.25
453	0.25
454	0.25
454	0.25
455	0.249
455	0.249
456	0.249
456	0.249
457	0.249
457	0.249
458	0.249
458	0.249
458	0.249
459	0.248
459	0.249
460	0.249
460	0.249
461	0.249
461	0.249
462	0.249
462	0.249
463	0.249
463	0.249
463	0.248
464	0.248
464	0.248
465	0.248
465	0.248
466	0.248
466	0.248
467	0.248
467	0.248
467	0.248
468	0.248
468	0.248
469	0.249
469	0.249
470	0.249
470	0.25
471	0.25
471	0.25
472	0.25
472	0.25
472	0.25
473	0.251
473	0.251
474	0.251
474	0.251
475	0.251
475	0.251
476	0.251
476	0.252
477	0.252
477	0.252
477	0.253
478	0.253
478	0.253
479	0.254
479	0.254
480	0.255
480	0.255
481	0.255
481	0.256
482	0.256
482	0.257
482	0.257
483	0.258
483	0.259
484	0.259
484	0.259
485	0.259
485	0.26
486	0.26
486	0.26
487	0.261
487	0.261
487	0.261
488	0.262
488	0.262
489	0.263
489	0.265
490	0.266
490	0.267
491	0.268
491	0.269
492	0.27
492	0.27
492	0.271
493	0.272
493	0.273
494	0.274
494	0.275
495	0.275
495	0.276
496	0.277
496	0.278
496	0.279
497	0.279
497	0.28
498	0.281
498	0.282
499	0.282
499	0.283
500	0.285
500	0.286
501	0.287
501	0.288
501	0.288
502	0.289
502	0.29
503	0.291
503	0.292
504	0.293
504	0.294
505	0.295
505	0.296
506	0.297
506	0.297
506	0.298
507	0.299
507	0.3
508	0.301
508	0.302
509	0.302
509	0.303
510	0.304
510	0.305
511	0.306
511	0.306
511	0.307
512	0.308
512	0.308
513	0.309
513	0.309
514	0.31
514	0.311
515	0.311
515	0.312
515	0.312
516	0.313
516	0.313
517	0.314
517	0.315
518	0.315
518	0.315
519	0.316
519	0.316
520	0.316
520	0.316
520	0.316
521	0.316
521	0.316
522	0.316
522	0.316
523	0.316
523	0.316
524	0.316
524	0.316
524	0.316
525	0.316
525	0.316
526	0.315
526	0.315
527	0.315
527	0.314
528	0.314
528	0.313
529	0.313
529	0.312
529	0.311
530	0.31
530	0.309
531	0.309
531	0.308
532	0.307
532	0.306
533	0.305
533	0.304
533	0.303
534	0.302
534	0.301
535	0.301
535	0.3
536	0.299
536	0.298
537	0.297
537	0.296
538	0.295
538	0.294
538	0.292
539	0.291
539	0.29
540	0.289
540	0.288
541	0.286
541	0.285
542	0.284
542	0.282
542	0.281
543	0.279
543	0.278
544	0.277
544	0.275
545	0.274
545	0.273
546	0.271
546	0.27
547	0.268
547	0.267
547	0.265
548	0.264
548	0.263
549	0.262
549	0.26
550	0.259
550	0.257
551	0.256
551	0.254
551	0.253
552	0.252
552	0.251
553	0.249
553	0.248
554	0.246
554	0.245
555	0.243
555	0.242
556	0.24
556	0.239
556	0.238
557	0.237
557	0.236
558	0.235
558	0.234
559	0.233
559	0.232
560	0.231
560	0.23
560	0.228
561	0.227
561	0.226
562	0.224
562	0.223
563	0.221
563	0.219
564	0.218
564	0.217
564	0.216
565	0.215
565	0.214
566	0.212
566	0.211
567	0.211
567	0.21
568	0.208
568	0.207
568	0.206
569	0.205
569	0.203
570	0.202
570	0.2
571	0.199
571	0.198
572	0.196
572	0.195
573	0.194
573	0.193
573	0.192
574	0.191
574	0.191
575	0.19
575	0.189
576	0.189
576	0.188
577	0.186
577	0.185
577	0.185
578	0.184
578	0.183
579	0.183
579	0.182
580	0.181
580	0.18
581	0.179
581	0.178
581	0.177
582	0.177
582	0.176
583	0.176
583	0.175
584	0.173
584	0.172
585	0.171
585	0.171
585	0.17
586	0.17
586	0.169
587	0.168
587	0.167
588	0.167
588	0.166
589	0.166
589	0.166
590	0.165
590	0.165
590	0.164
591	0.164
591	0.163
592	0.162
592	0.161
593	0.16
593	0.159
594	0.159
594	0.158
594	0.157
595	0.156
595	0.156
596	0.155
596	0.155
597	0.155
597	0.155
598	0.154
598	0.154
598	0.154
599	0.153
599	0.152
600	0.152
600	0.151
601	0.151
601	0.15
602	0.149
602	0.149
602	0.148
603	0.148
603	0.148
604	0.148
604	0.148
605	0.148
605	0.147
606	0.147
606	0.146
606	0.145
607	0.145
607	0.145
608	0.144
608	0.143
609	0.142
609	0.142
610	0.141
610	0.14
610	0.14
611	0.14
611	0.14
612	0.14
612	0.14
613	0.14
613	0.139
614	0.139
614	0.139
614	0.139
615	0.139
615	0.139
616	0.139
616	0.139
617	0.139
617	0.138
618	0.138
618	0.138
618	0.137
619	0.137
619	0.137
620	0.137
620	0.137
621	0.136
621	0.135
622	0.135
622	0.134
622	0.134
623	0.133
623	0.133
624	0.132
624	0.132
625	0.131
625	0.131
626	0.131
626	0.131
626	0.131
627	0.131
627	0.131
628	0.13
628	0.13
629	0.13
629	0.13
630	0.129
630	0.129
630	0.129
631	0.129
631	0.128
632	0.128
632	0.127
633	0.127
633	0.127
634	0.127
634	0.127
634	0.127
635	0.126
635	0.126
636	0.126
636	0.126
637	0.125
637	0.125
638	0.125
638	0.125
638	0.124
639	0.124
639	0.123
640	0.123
640	0.123
641	0.123
641	0.122
642	0.122
642	0.122
642	0.122
643	0.122
643	0.122
644	0.122
644	0.122
645	0.122
645	0.123
646	0.123
646	0.123
646	0.123
647	0.123
647	0.122
648	0.121
648	0.121
649	0.12
649	0.12
650	0.12
650	0.12
650	0.12
651	0.12
651	0.12
652	0.12
652	0.12
653	0.121
653	0.122
653	0.128
654	0.102
654	0.083
655	0.081
655	0.081
656	0.081
656	0.082
657	0.082
657	0.082
657	0.082
658	0.081
658	0.073
659	0.091
659	0.115
660	0.121
660	0.121
661	0.12
661	0.12
661	0.119
662	0.119
662	0.118
663	0.118
663	0.117
664	0.117
664	0.116
665	0.116
665	0.116
665	0.116
666	0.116
666	0.116
667	0.116
667	0.117
668	0.117
668	0.117
669	0.118
669	0.118
669	0.119
670	0.119
670	0.119
671	0.118
671	0.118
672	0.118
672	0.117
672	0.116
673	0.116
673	0.116
674	0.115
674	0.115
675	0.114
675	0.115
676	0.115
676	0.115
676	0.115
677	0.115
677	0.115
678	0.115
678	0.115
679	0.115
679	0.115
680	0.115
680	0.115
680	0.115
681	0.115
681	0.116
682	0.116
682	0.116
683	0.117
683	0.117
684	0.117
684	0.117
684	0.116
685	0.116
685	0.116
686	0.116
686	0.115
687	0.115
687	0.115
687	0.115
688	0.115
688	0.115
689	0.115
689	0.116
690	0.116
690	0.115
691	0.115
691	0.116
691	0.116
692	0.116
692	0.116
693	0.116
693	0.117
694	0.117
694	0.117
695	0.118
695	0.118
695	0.119
696	0.118
696	0.118
697	0.118
697	0.118
698	0.118
698	0.117
698	0.118
699	0.118
699	0.117
700	0.116
700	0.116
701	0.116
701	0.116
702	0.115
702	0.114
702	0.114
703	0.113
703	0.112
704	0.112
704	0.112
705	0.111
705	0.111
705	0.111
706	0.111
706	0.111
707	0.112
707	0.112
708	0.112
708	0.113
709	0.113
709	0.113
709	0.113
710	0.113
710	0.113
711	0.113
711	0.114
712	0.114
712	0.113
713	0.113
713	0.113
713	0.113
714	0.113
714	0.112
715	0.112
715	0.111
716	0.111
716	0.111
716	0.11
717	0.11
717	0.11
718	0.11
718	0.11
719	0.11
719	0.111
720	0.111
720	0.112
720	0.113
721	0.113
721	0.114
722	0.115
722	0.115
723	0.115
723	0.115
723	0.115
724	0.114
724	0.114
725	0.113
725	0.113
726	0.112
726	0.111
727	0.111
727	0.111
727	0.11
728	0.11
728	0.11
729	0.111
729	0.111
730	0.111
730	0.111
730	0.111
731	0.112
731	0.112
732	0.112
732	0.112
733	0.112
733	0.112
734	0.112
734	0.112
734	0.113
735	0.113
735	0.113
736	0.112
736	0.112
737	0.111
737	0.111
737	0.111
738	0.11
738	0.11
739	0.11
739	0.11
740	0.11
740	0.11
741	0.111
741	0.111
741	0.112
742	0.112
742	0.113
743	0.113
743	0.114
744	0.114
744	0.114
744	0.114
745	0.113
745	0.113
746	0.113
746	0.112
747	0.112
747	0.112
748	0.111
748	0.112
748	0.112
749	0.112
749	0.112
750	0.112
750	0.113
751	0.113
751	0.113
751	0.113
752	0.113
752	0.113
753	0.112
753	0.112
754	0.112
754	0.111
754	0.11
755	0.11
755	0.11
756	0.109
756	0.107
757	0.107
757	0.107
758	0.106
758	0.106
758	0.106
759	0.107
759	0.106
760	0.106
760	0.106
761	0.106
761	0.107
761	0.107
762	0.108
762	0.108
763	0.108
763	0.107
764	0.107
764	0.107
764	0.107
765	0.106
765	0.106
766	0.106
766	0.106
767	0.106
767	0.105
768	0.104
768	0.104
768	0.105
769	0.105
769	0.105
770	0.105
770	0.106
771	0.106
771	0.106
771	0.106
772	0.106
772	0.106
773	0.106
773	0.106
774	0.106
774	0.107
775	0.107
775	0.107
775	0.107
776	0.108
776	0.109
777	0.109
777	0.11
778	0.11
778	0.109
778	0.109
779	0.108
779	0.107
780	0.106
780	0.105
781	0.104
781	0.102
781	0.101
782	0.101
782	0.1
783	0.1
783	0.1
784	0.1
784	0.101
784	0.101
785	0.102
785	0.102
786	0.102
786	0.103
787	0.103
787	0.103
788	0.102
788	0.102
788	0.102
789	0.101
789	0.102
790	0.102
790	0.101
791	0.101
791	0.1
791	0.1
792	0.1
792	0.1
793	0.099
793	0.099
794	0.098
794	0.098
794	0.098
795	0.098
795	0.098
796	0.098
796	0.097
797	0.097
797	0.097
797	0.097
798	0.097
798	0.098
799	0.098
799	0.098
800	0.098
800	0.098
801	0.098
801	0.099
801	0.099
802	0.1
802	0.1
803	0.101
803	0.101
804	0.102
804	0.102
804	0.102
805	0.102
805	0.102
806	0.101
806	0.101
807	0.1
807	0.1
807	0.1
808	0.099
808	0.099
809	0.098
809	0.098
810	0.098
810	0.098
810	0.098
811	0.098
811	0.098
812	0.099
812	0.099
813	0.099
813	0.099
813	0.099
814	0.099
814	0.1
815	0.1
815	0.1
816	0.099
816	0.099
817	0.098
817	0.098
817	0.097
818	0.097
818	0.097
819	0.096
819	0.095
820	0.095
820	0.094
820	0.094
821	0.094
821	0.094
822	0.093
822	0.093
823	0.093
823	0.093
823	0.093
824	0.094
824	0.095
825	0.096
825	0.096
826	0.097
826	0.097
826	0.098
827	0.098
827	0.099
828	0.099
828	0.099
829	0.099
829	0.1
829	0.1
830	0.1
830	0.1
831	0.101
831	0.101
832	0.101
832	0.101
832	0.101
833	0.101
833	0.1
834	0.1
834	0.099
835	0.099
835	0.098
835	0.097
836	0.097
836	0.097
837	0.096
837	0.096
838	0.095
838	0.094
839	0.093
839	0.092
839	0.091
840	0.091
840	0.09
841	0.089
841	0.087
842	0.087
842	0.086
842	0.085
843	0.084
843	0.083
844	0.083
844	0.082
845	0.082
845	0.081
845	0.081
846	0.081
846	0.081
847	0.082
847	0.082
848	0.082
848	0.082
848	0.082
849	0.083
849	0.083
850	0.082
850	0.082
851	0.082
851	0.081
851	0.081
852	0.08
852	0.08
853	0.08
853	0.081
854	0.081
854	0.082
854	0.083
855	0.085
855	0.086
856	0.087
856	0.088
857	0.09
857	0.091
857	0.091
858	0.092
858	0.091
859	0.091
859	0.091
860	0.09
860	0.09
860	0.089
861	0.088
861	0.087
862	0.086
862	0.086
863	0.085
863	0.085
863	0.085
864	0.085
864	0.085
865	0.085
865	0.085
866	0.085
866	0.085
866	0.085
867	0.085
867	0.085
868	0.085
868	0.085
869	0.085
869	0.085
869	0.085
870	0.085
870	0.085
871	0.085
871	0.085
872	0.085
872	0.085
872	0.084
873	0.084
873	0.083
874	0.083
874	0.082
875	0.082
875	0.082
875	0.081
876	0.081
876	0.081
877	0.081
877	0.081
878	0.081
878	0.081
878	0.081
879	0.082
879	0.082
880	0.082
880	0.082
881	0.082
881	0.082
881	0.083
882	0.082
882	0.082
883	0.082
883	0.082
884	0.082
884	0.082
884	0.082
885	0.082
885	0.082
886	0.081
886	0.081
887	0.081
887	0.081
887	0.081
888	0.08
888	0.08
889	0.08
889	0.081
890	0.081
890	0.081
890	0.082
891	0.082
891	0.082
892	0.082
892	0.082
893	0.082
893	0.082
893	0.081
894	0.081
894	0.08
895	0.08
895	0.08
895	0.08
896	0.08
896	0.08
897	0.081
897	0.081
898	0.081
898	0.081
898	0.081
899	0.08
899	0.08
900	0.08
900	0.08
901	0.079
901	0.079
901	0.078
902	0.078
902	0.077
903	0.077
903	0.077
904	0.077
904	0.076
904	0.076
905	0.076
905	0.075
906	0.075
906	0.075
907	0.076
907	0.076
907	0.076
908	0.075
908	0.075
909	0.075
909	0.074
910	0.074
910	0.074
910	0.074
911	0.073
911	0.072
912	0.072
912	0.071
913	0.071
913	0.07
913	0.07
914	0.07
914	0.069
915	0.069
915	0.069
916	0.068
916	0.068
916	0.068
917	0.067
917	0.067
918	0.066
918	0.066
918	0.066
919	0.065
919	0.065
920	0.064
920	0.064
921	0.064
921	0.064
921	0.064
922	0.064
922	0.064
923	0.065
923	0.065
924	0.066
924	0.067
924	0.068
925	0.068
925	0.069
926	0.069
926	0.07
927	0.07
927	0.07
927	0.071
928	0.071
928	0.071
929	0.071
929	0.072
930	0.072
930	0.072
930	0.072
931	0.072
931	0.072
932	0.072
932	0.072
933	0.072
933	0.071
933	0.071
934	0.07
934	0.069
935	0.069
935	0.068
935	0.068
936	0.067
936	0.066
937	0.065
937	0.065
938	0.064
938	0.063
938	0.062
939	0.062
939	0.061
940	0.061
940	0.06
941	0.06
941	0.061
941	0.061
942	0.061
942	0.062
943	0.062
943	0.063
944	0.063
944	0.064
944	0.065
945	0.065
945	0.066
946	0.066
946	0.067
946	0.067
947	0.067
947	0.067
948	0.067
948	0.067
949	0.066
949	0.066
949	0.065
950	0.065
950	0.064
951	0.064
951	0.063
952	0.062
952	0.061
952	0.061
953	0.06
953	0.06
954	0.06
954	0.06
955	0.06
955	0.06
955	0.06
956	0.061
956	0.061
957	0.062
957	0.063
957	0.064
958	0.065
958	0.065
959	0.066
959	0.066
960	0.067
960	0.067
960	0.067
961	0.067
961	0.067
962	0.067
962	0.066
963	0.066
963	0.066
963	0.065
964	0.065
964	0.064
965	0.064
965	0.064
966	0.064
966	0.064
966	0.064
967	0.065
967	0.065
968	0.065
968	0.065
968	0.065
969	0.065
969	0.065
970	0.064
970	0.063
971	0.063
971	0.062
971	0.061
972	0.061
972	0.06
973	0.059
973	0.059
974	0.059
974	0.059
974	0.059
975	0.059
975	0.06
976	0.06
976	0.061
976	0.061
977	0.061
977	0.062
978	0.062
978	0.062
979	0.063
979	0.063
979	0.063
980	0.063
980	0.063
981	0.063
981	0.063
982	0.063
982	0.063
982	0.063
983	0.062
983	0.062
984	0.062
984	0.061
984	0.061
985	0.061
985	0.061
986	0.06
986	0.06
987	0.06
987	0.059
987	0.059
988	0.059
988	0.058
989	0.058
989	0.057
990	0.057
990	0.057
990	0.056
991	0.056
991	0.056
992	0.055
992	0.054
992	0.053
993	0.053
993	0.052
994	0.051
994	0.05
995	0.05
995	0.049
995	0.049
996	0.049
996	0.049
997	0.049
997	0.049
997	0.049
998	0.05
998	0.05
999	0.051
999	0.051
1000	0.052
1000	0.052
1000	0.052
1001	0.052
1001	0.053
1002	0.053
1002	0.053
1003	0.053
1003	0.053
1003	0.053
1004	0.053
1004	0.053
1005	0.053
1005	0.052
1005	0.052
1006	0.052
1006	0.052
1007	0.051
1007	0.051
1008	0.051
1008	0.05
1008	0.05
1009	0.05
1009	0.049
1010	0.049
1010	0.049
1010	0.049
1011	0.048
1011	0.048
1012	0.048
1012	0.047
1013	0.047
1013	0.047
1013	0.046
1014	0.046
1014	0.046
1015	0.046
1015	0.046
1016	0.046
1016	0.047
1016	0.047
1017	0.047
1017	0.047
1018	0.047
1018	0.047
1018	0.048
1019	0.048
1019	0.048
1020	0.048
1020	0.048
1021	0.049
1021	0.049
1021	0.05
1022	0.05
1022	0.051
1023	0.051
1023	0.051
1023	0.052
1024	0.052
1024	0.052
1025	0.052
1025	0.052
1026	0.052
1026	0.051
1026	0.051
1027	0.051
1027	0.051
1028	0.051
1028	0.051
1028	0.051
1029	0.051
1029	0.051
1030	0.051
1030	0.051
1031	0.052
1031	0.052
1031	0.052
1032	0.052
1032	0.052
1033	0.052
1033	0.052
1033	0.052
1034	0.052
1034	0.052
1035	0.052
1035	0.052
1036	0.052
1036	0.052
1036	0.052
1037	0.052
1037	0.052
1038	0.052
1038	0.052
1039	0.051
1039	0.051
1039	0.051
1040	0.051
1040	0.051
1041	0.051
1041	0.051
1041	0.051
1042	0.051
1042	0.05
1043	0.05
1043	0.05
1044	0.049
1044	0.049
1044	0.049
1045	0.049
1045	0.048
1046	0.048
1046	0.048
1046	0.048
1047	0.048
1047	0.048
1048	0.048
1048	0.049
1049	0.049
1049	0.049
1049	0.049
1050	0.048
1050	0.048
1051	0.047
1051	0.047
1051	0.046
1052	0.045
1052	0.045
1053	0.044
1053	0.043
1053	0.042
1054	0.042
1054	0.042
1055	0.041
1055	0.041
1056	0.04
1056	0.04
1056	0.04
1057	0.039
1057	0.039
1058	0.039
1058	0.038
1058	0.038
1059	0.037
1059	0.037
1060	0.037
1060	0.036
1061	0.036
1061	0.036
1061	0.036
1062	0.036
1062	0.036
1063	0.037
1063	0.037
1063	0.037
1064	0.037
1064	0.038
1065	0.038
1065	0.038
1066	0.038
1066	0.039
1066	0.039
1067	0.039
1067	0.039
1068	0.039
1068	0.039
1068	0.038
1069	0.038
1069	0.038
1070	0.038
1070	0.038
1071	0.037
1071	0.037
1071	0.037
1072	0.037
1072	0.036
1073	0.036
1073	0.036
1073	0.036
1074	0.036
1074	0.036
1075	0.036
1075	0.036
1076	0.037
1076	0.037
1076	0.038
1077	0.038
1077	0.039
1078	0.039
1078	0.039
1078	0.039
1079	0.039
1079	0.038
1080	0.038
1080	0.038
1080	0.038
1081	0.038
1081	0.038
1082	0.038
1082	0.038
1083	0.038
1083	0.038
1083	0.039
1084	0.039
1084	0.04
1085	0.04
1085	0.04
1085	0.04
1086	0.041
1086	0.04
1087	0.04
1087	0.039
1088	0.039
1088	0.039
1088	0.038
1089	0.037
1089	0.037
1090	0.036
1090	0.035
1090	0.034
1091	0.034
1091	0.034
1092	0.034
1092	0.034
1092	0.034
1093	0.034
1093	0.034
1094	0.034
1094	0.034
1095	0.034
1095	0.034
1095	0.033
1096	0.032
1096	0.031
1097	0.03
1097	0.029
1097	0.029
1098	0.029
1098	0.027
1099	0.027
1099	0.026
1100	0.025
1100	0.024
1100	0.023
1101	0.023
1101	0.022
1102	0.023
1102	0.021
1102	0.02
1103	0.02
1103	0.02
1104	0.02
1104	0.021
1104	0.02
1105	0.02
1105	0.019
1106	0.018
1106	0.017
1107	0.016
1107	0.016
1107	0.016
1108	0.014
1108	0.012
1109	0.011
1109	0.011
1109	0.011
1110	0.011
1110	0.01
1111	0.011
1111	0.011
