Data from reversibility-20sec_Absorbance__879__000000000000879.txt Node

Date: Tue Dec 05 17:06:06 CET 2023
User: Marek
Spectrometer: MAYP115816
Trigger mode: 0
Integration Time (sec): 2.000000E-1
Scans to average: 10
Electric dark correction enabled: true
Nonlinearity correction enabled: true
Boxcar width: 5
XAxis mode: Wavelengths
Number of Pixels in Spectrum: 2068
>>>>>Begin Spectral Data<<<<<
199	-0.233
199	-0.207
200	-0.136
200	-0.079
201	-0.052
201	-0.035
202	-0.017
202	-0.005
203	0.004
203	0.007
204	0.021
204	0.035
205	0.049
205	0.055
205	0.055
206	0.056
206	0.054
207	0.055
207	0.053
208	0.052
208	0.053
209	0.057
209	0.054
210	0.055
210	0.056
211	0.053
211	0.056
212	0.057
212	0.056
213	0.061
213	0.062
213	0.061
214	0.061
214	0.062
215	0.063
215	0.062
216	0.066
216	0.065
217	0.069
217	0.074
218	0.072
218	0.074
219	0.077
219	0.077
220	0.082
220	0.082
221	0.083
221	0.082
221	0.086
222	0.09
222	0.092
223	0.098
223	0.101
224	0.105
224	0.115
225	0.122
225	0.134
226	0.145
226	0.158
227	0.17
227	0.178
228	0.194
228	0.208
229	0.226
229	0.251
229	0.273
230	0.296
230	0.324
231	0.356
231	0.394
232	0.428
232	0.472
233	0.514
233	0.563
234	0.613
234	0.663
235	0.714
235	0.767
236	0.818
236	0.869
236	0.919
237	0.971
237	1.018
238	1.068
238	1.113
239	1.161
239	1.203
240	1.243
240	1.28
241	1.316
241	1.349
242	1.38
242	1.412
243	1.444
243	1.47
243	1.494
244	1.516
244	1.539
245	1.557
245	1.579
246	1.599
246	1.617
247	1.631
247	1.646
248	1.66
248	1.673
249	1.682
249	1.686
250	1.692
250	1.7
250	1.703
251	1.705
251	1.706
252	1.708
252	1.71
253	1.709
253	1.704
254	1.704
254	1.708
255	1.705
255	1.705
256	1.703
256	1.702
257	1.703
257	1.701
258	1.7
258	1.701
258	1.702
259	1.701
259	1.7
260	1.7
260	1.7
261	1.701
261	1.703
262	1.704
262	1.705
263	1.708
263	1.71
264	1.71
264	1.711
265	1.712
265	1.713
265	1.713
266	1.713
266	1.713
267	1.711
267	1.713
268	1.711
268	1.71
269	1.712
269	1.712
270	1.711
270	1.709
271	1.707
271	1.706
272	1.703
272	1.702
272	1.698
273	1.692
273	1.686
274	1.679
274	1.672
275	1.665
275	1.658
276	1.652
276	1.644
277	1.637
277	1.627
278	1.615
278	1.603
278	1.589
279	1.573
279	1.553
280	1.529
280	1.499
281	1.465
281	1.426
282	1.385
282	1.344
283	1.305
283	1.265
284	1.228
284	1.191
285	1.157
285	1.126
285	1.098
286	1.073
286	1.052
287	1.034
287	1.018
288	1.005
288	0.994
289	0.984
289	0.976
290	0.969
290	0.963
291	0.958
291	0.953
292	0.949
292	0.946
292	0.943
293	0.94
293	0.937
294	0.934
294	0.932
295	0.93
295	0.928
296	0.925
296	0.923
297	0.921
297	0.919
298	0.916
298	0.914
298	0.912
299	0.91
299	0.908
300	0.906
300	0.903
301	0.902
301	0.9
302	0.898
302	0.896
303	0.894
303	0.892
304	0.89
304	0.888
305	0.886
305	0.884
305	0.882
306	0.88
306	0.878
307	0.876
307	0.874
308	0.871
308	0.869
309	0.866
309	0.864
310	0.861
310	0.858
311	0.856
311	0.853
311	0.85
312	0.847
312	0.844
313	0.841
313	0.837
314	0.834
314	0.83
315	0.827
315	0.823
316	0.819
316	0.814
317	0.81
317	0.805
318	0.801
318	0.796
318	0.791
319	0.786
319	0.781
320	0.775
320	0.769
321	0.764
321	0.758
322	0.752
322	0.746
323	0.74
323	0.734
324	0.728
324	0.722
324	0.715
325	0.709
325	0.703
326	0.696
326	0.69
327	0.683
327	0.677
328	0.67
328	0.663
329	0.657
329	0.649
330	0.643
330	0.636
330	0.629
331	0.622
331	0.615
332	0.609
332	0.602
333	0.595
333	0.588
334	0.582
334	0.575
335	0.569
335	0.562
336	0.556
336	0.55
336	0.543
337	0.537
337	0.532
338	0.526
338	0.519
339	0.514
339	0.508
340	0.502
340	0.497
341	0.491
341	0.486
342	0.481
342	0.475
342	0.47
343	0.465
343	0.461
344	0.456
344	0.451
345	0.447
345	0.442
346	0.438
346	0.434
347	0.43
347	0.425
348	0.422
348	0.418
348	0.414
349	0.411
349	0.407
350	0.404
350	0.4
351	0.397
351	0.394
352	0.391
352	0.388
353	0.385
353	0.382
354	0.379
354	0.376
354	0.373
355	0.371
355	0.367
356	0.365
356	0.362
357	0.359
357	0.357
358	0.354
358	0.352
359	0.349
359	0.347
360	0.345
360	0.343
360	0.342
361	0.34
361	0.338
362	0.337
362	0.335
363	0.333
363	0.331
364	0.33
364	0.328
365	0.326
365	0.324
366	0.322
366	0.321
366	0.319
367	0.318
367	0.316
368	0.314
368	0.313
369	0.311
369	0.31
370	0.308
370	0.307
371	0.306
371	0.304
372	0.303
372	0.302
372	0.301
373	0.3
373	0.299
374	0.298
374	0.297
375	0.296
375	0.295
376	0.294
376	0.293
377	0.292
377	0.291
378	0.29
378	0.289
378	0.289
379	0.288
379	0.287
380	0.286
380	0.285
381	0.285
381	0.284
382	0.283
382	0.283
383	0.282
383	0.281
383	0.281
384	0.28
384	0.279
385	0.279
385	0.278
386	0.278
386	0.277
387	0.277
387	0.276
388	0.275
388	0.275
389	0.274
389	0.274
389	0.273
390	0.273
390	0.272
391	0.272
391	0.272
392	0.271
392	0.271
393	0.27
393	0.27
394	0.269
394	0.269
394	0.269
395	0.268
395	0.268
396	0.267
396	0.267
397	0.266
397	0.266
398	0.266
398	0.265
399	0.265
399	0.265
400	0.264
400	0.264
400	0.264
401	0.264
401	0.263
402	0.263
402	0.263
403	0.262
403	0.262
404	0.262
404	0.261
405	0.261
405	0.261
405	0.261
406	0.26
406	0.26
407	0.259
407	0.259
408	0.259
408	0.258
409	0.258
409	0.257
410	0.257
410	0.257
411	0.256
411	0.256
411	0.256
412	0.256
412	0.255
413	0.255
413	0.255
414	0.255
414	0.254
415	0.254
415	0.254
416	0.253
416	0.253
416	0.253
417	0.252
417	0.252
418	0.252
418	0.252
419	0.251
419	0.251
420	0.251
420	0.25
421	0.25
421	0.25
421	0.25
422	0.249
422	0.249
423	0.249
423	0.248
424	0.248
424	0.248
425	0.248
425	0.248
426	0.247
426	0.247
427	0.247
427	0.246
427	0.246
428	0.246
428	0.246
429	0.245
429	0.245
430	0.245
430	0.245
431	0.245
431	0.245
432	0.245
432	0.244
432	0.244
433	0.244
433	0.244
434	0.244
434	0.244
435	0.243
435	0.243
436	0.243
436	0.243
437	0.243
437	0.243
437	0.242
438	0.242
438	0.242
439	0.242
439	0.242
440	0.242
440	0.241
441	0.241
441	0.241
442	0.241
442	0.241
442	0.241
443	0.241
443	0.241
444	0.24
444	0.24
445	0.24
445	0.24
446	0.24
446	0.24
447	0.239
447	0.239
447	0.239
448	0.239
448	0.239
449	0.239
449	0.239
450	0.239
450	0.238
451	0.238
451	0.238
452	0.238
452	0.238
452	0.238
453	0.237
453	0.237
454	0.237
454	0.237
455	0.237
455	0.237
456	0.237
456	0.237
457	0.237
457	0.237
458	0.237
458	0.237
458	0.237
459	0.237
459	0.237
460	0.237
460	0.237
461	0.237
461	0.237
462	0.236
462	0.236
463	0.236
463	0.236
463	0.236
464	0.236
464	0.236
465	0.236
465	0.236
466	0.236
466	0.236
467	0.236
467	0.236
467	0.236
468	0.236
468	0.236
469	0.236
469	0.236
470	0.237
470	0.237
471	0.237
471	0.237
472	0.237
472	0.237
472	0.237
473	0.238
473	0.238
474	0.238
474	0.238
475	0.238
475	0.238
476	0.239
476	0.239
477	0.239
477	0.24
477	0.24
478	0.24
478	0.241
479	0.241
479	0.241
480	0.242
480	0.242
481	0.242
481	0.243
482	0.243
482	0.243
482	0.244
483	0.244
483	0.245
484	0.246
484	0.246
485	0.246
485	0.247
486	0.247
486	0.248
487	0.248
487	0.249
487	0.25
488	0.25
488	0.251
489	0.251
489	0.253
490	0.254
490	0.255
491	0.256
491	0.256
492	0.257
492	0.258
492	0.258
493	0.259
493	0.26
494	0.261
494	0.261
495	0.262
495	0.263
496	0.264
496	0.265
496	0.266
497	0.267
497	0.268
498	0.269
498	0.269
499	0.27
499	0.271
500	0.273
500	0.274
501	0.275
501	0.275
501	0.276
502	0.277
502	0.278
503	0.279
503	0.28
504	0.281
504	0.281
505	0.282
505	0.283
506	0.284
506	0.284
506	0.285
507	0.286
507	0.287
508	0.288
508	0.289
509	0.29
509	0.291
510	0.291
510	0.292
511	0.293
511	0.294
511	0.295
512	0.296
512	0.296
513	0.297
513	0.297
514	0.298
514	0.299
515	0.3
515	0.3
515	0.301
516	0.302
516	0.302
517	0.303
517	0.304
518	0.304
518	0.304
519	0.305
519	0.305
520	0.305
520	0.305
520	0.305
521	0.305
521	0.306
522	0.306
522	0.306
523	0.306
523	0.306
524	0.307
524	0.307
524	0.307
525	0.307
525	0.307
526	0.307
526	0.307
527	0.306
527	0.306
528	0.306
528	0.306
529	0.305
529	0.304
529	0.304
530	0.303
530	0.302
531	0.302
531	0.301
532	0.301
532	0.3
533	0.299
533	0.299
533	0.298
534	0.298
534	0.298
535	0.297
535	0.297
536	0.296
536	0.296
537	0.295
537	0.294
538	0.293
538	0.293
538	0.292
539	0.291
539	0.29
540	0.289
540	0.288
541	0.287
541	0.286
542	0.285
542	0.284
542	0.283
543	0.282
543	0.282
544	0.281
544	0.28
545	0.279
545	0.278
546	0.277
546	0.276
547	0.275
547	0.273
547	0.272
548	0.271
548	0.27
549	0.269
549	0.268
550	0.266
550	0.265
551	0.264
551	0.263
551	0.262
552	0.261
552	0.26
553	0.259
553	0.258
554	0.256
554	0.255
555	0.254
555	0.252
556	0.251
556	0.25
556	0.249
557	0.248
557	0.247
558	0.246
558	0.246
559	0.245
559	0.245
560	0.244
560	0.243
560	0.243
561	0.242
561	0.241
562	0.24
562	0.239
563	0.238
563	0.236
564	0.235
564	0.234
564	0.233
565	0.232
565	0.231
566	0.23
566	0.229
567	0.228
567	0.228
568	0.227
568	0.226
568	0.225
569	0.225
569	0.224
570	0.223
570	0.222
571	0.221
571	0.221
572	0.22
572	0.219
573	0.218
573	0.217
573	0.216
574	0.216
574	0.215
575	0.214
575	0.214
576	0.213
576	0.212
577	0.211
577	0.21
577	0.209
578	0.208
578	0.208
579	0.208
579	0.207
580	0.206
580	0.205
581	0.204
581	0.204
581	0.204
582	0.204
582	0.203
583	0.203
583	0.202
584	0.201
584	0.2
585	0.199
585	0.199
585	0.198
586	0.197
586	0.196
587	0.195
587	0.194
588	0.193
588	0.192
589	0.192
589	0.192
590	0.191
590	0.191
590	0.191
591	0.191
591	0.19
592	0.19
592	0.189
593	0.188
593	0.188
594	0.187
594	0.186
594	0.186
595	0.185
595	0.184
596	0.184
596	0.184
597	0.184
597	0.184
598	0.183
598	0.183
598	0.183
599	0.182
599	0.182
600	0.181
600	0.18
601	0.18
601	0.179
602	0.179
602	0.178
602	0.177
603	0.177
603	0.177
604	0.177
604	0.177
605	0.177
605	0.177
606	0.176
606	0.175
606	0.175
607	0.174
607	0.174
608	0.173
608	0.172
609	0.171
609	0.171
610	0.17
610	0.17
610	0.17
611	0.17
611	0.17
612	0.17
612	0.17
613	0.17
613	0.17
614	0.169
614	0.169
614	0.169
615	0.169
615	0.169
616	0.169
616	0.168
617	0.168
617	0.167
618	0.167
618	0.166
618	0.166
619	0.166
619	0.166
620	0.166
620	0.166
621	0.165
621	0.165
622	0.164
622	0.164
622	0.163
623	0.163
623	0.163
624	0.162
624	0.162
625	0.161
625	0.161
626	0.16
626	0.16
626	0.16
627	0.159
627	0.159
628	0.159
628	0.158
629	0.158
629	0.157
630	0.157
630	0.157
630	0.157
631	0.157
631	0.156
632	0.156
632	0.156
633	0.156
633	0.156
634	0.157
634	0.157
634	0.157
635	0.157
635	0.156
636	0.156
636	0.156
637	0.156
637	0.155
638	0.155
638	0.155
638	0.154
639	0.154
639	0.153
640	0.153
640	0.153
641	0.153
641	0.153
642	0.153
642	0.153
642	0.153
643	0.153
643	0.153
644	0.153
644	0.152
645	0.152
645	0.152
646	0.152
646	0.152
646	0.152
647	0.152
647	0.152
648	0.151
648	0.151
649	0.151
649	0.151
650	0.151
650	0.151
650	0.151
651	0.151
651	0.151
652	0.151
652	0.151
653	0.152
653	0.153
653	0.16
654	0.127
654	0.102
655	0.102
655	0.102
656	0.103
656	0.103
657	0.103
657	0.103
657	0.103
658	0.102
658	0.092
659	0.115
659	0.147
660	0.151
660	0.151
661	0.151
661	0.151
661	0.151
662	0.151
662	0.151
663	0.15
663	0.15
664	0.15
664	0.15
665	0.149
665	0.149
665	0.149
666	0.149
666	0.149
667	0.149
667	0.149
668	0.149
668	0.149
669	0.148
669	0.149
669	0.149
670	0.149
670	0.149
671	0.149
671	0.149
672	0.149
672	0.149
672	0.149
673	0.149
673	0.149
674	0.149
674	0.149
675	0.148
675	0.149
676	0.149
676	0.149
676	0.15
677	0.15
677	0.15
678	0.149
678	0.149
679	0.149
679	0.148
680	0.148
680	0.148
680	0.148
681	0.148
681	0.148
682	0.149
682	0.149
683	0.15
683	0.151
684	0.151
684	0.151
684	0.151
685	0.152
685	0.152
686	0.152
686	0.151
687	0.151
687	0.151
687	0.151
688	0.15
688	0.15
689	0.151
689	0.151
690	0.151
690	0.151
691	0.151
691	0.151
691	0.151
692	0.152
692	0.152
693	0.152
693	0.153
694	0.153
694	0.153
695	0.154
695	0.155
695	0.155
696	0.155
696	0.156
697	0.156
697	0.155
698	0.155
698	0.154
698	0.154
699	0.154
699	0.154
700	0.153
700	0.153
701	0.153
701	0.153
702	0.153
702	0.153
702	0.153
703	0.152
703	0.152
704	0.152
704	0.152
705	0.152
705	0.152
705	0.151
706	0.151
706	0.151
707	0.151
707	0.152
708	0.152
708	0.152
709	0.152
709	0.152
709	0.151
710	0.151
710	0.152
711	0.152
711	0.152
712	0.152
712	0.152
713	0.152
713	0.152
713	0.152
714	0.152
714	0.152
715	0.152
715	0.152
716	0.152
716	0.152
716	0.152
717	0.152
717	0.152
718	0.152
718	0.151
719	0.152
719	0.152
720	0.152
720	0.153
720	0.153
721	0.153
721	0.153
722	0.154
722	0.154
723	0.154
723	0.155
723	0.155
724	0.155
724	0.155
725	0.154
725	0.153
726	0.153
726	0.153
727	0.152
727	0.152
727	0.152
728	0.152
728	0.152
729	0.152
729	0.152
730	0.152
730	0.153
730	0.153
731	0.154
731	0.154
732	0.154
732	0.154
733	0.154
733	0.153
734	0.153
734	0.153
734	0.153
735	0.153
735	0.153
736	0.153
736	0.153
737	0.153
737	0.153
737	0.153
738	0.153
738	0.152
739	0.152
739	0.152
740	0.152
740	0.152
741	0.152
741	0.152
741	0.152
742	0.152
742	0.152
743	0.153
743	0.153
744	0.154
744	0.155
744	0.155
745	0.155
745	0.155
746	0.156
746	0.156
747	0.157
747	0.157
748	0.158
748	0.158
748	0.158
749	0.158
749	0.157
750	0.157
750	0.157
751	0.157
751	0.156
751	0.156
752	0.156
752	0.155
753	0.155
753	0.155
754	0.155
754	0.155
754	0.155
755	0.155
755	0.155
756	0.155
756	0.154
757	0.153
757	0.153
758	0.152
758	0.152
758	0.152
759	0.152
759	0.152
760	0.152
760	0.152
761	0.152
761	0.153
761	0.154
762	0.155
762	0.156
763	0.156
763	0.156
764	0.156
764	0.156
764	0.156
765	0.156
765	0.155
766	0.155
766	0.154
767	0.154
767	0.153
768	0.152
768	0.152
768	0.152
769	0.152
769	0.152
770	0.152
770	0.152
771	0.153
771	0.153
771	0.153
772	0.154
772	0.155
773	0.155
773	0.155
774	0.155
774	0.156
775	0.156
775	0.157
775	0.157
776	0.157
776	0.158
777	0.158
777	0.158
778	0.158
778	0.157
778	0.157
779	0.157
779	0.156
780	0.156
780	0.155
781	0.155
781	0.154
781	0.154
782	0.154
782	0.154
783	0.154
783	0.155
784	0.155
784	0.155
784	0.155
785	0.155
785	0.156
786	0.156
786	0.156
787	0.156
787	0.156
788	0.155
788	0.155
788	0.155
789	0.155
789	0.155
790	0.155
790	0.155
791	0.155
791	0.154
791	0.154
792	0.155
792	0.155
793	0.155
793	0.155
794	0.154
794	0.154
794	0.153
795	0.153
795	0.153
796	0.153
796	0.153
797	0.152
797	0.152
797	0.152
798	0.152
798	0.152
799	0.152
799	0.152
800	0.152
800	0.152
801	0.152
801	0.152
801	0.152
802	0.152
802	0.153
803	0.153
803	0.153
804	0.153
804	0.154
804	0.154
805	0.154
805	0.153
806	0.153
806	0.153
807	0.153
807	0.152
807	0.152
808	0.152
808	0.152
809	0.152
809	0.152
810	0.152
810	0.152
810	0.152
811	0.152
811	0.153
812	0.153
812	0.153
813	0.153
813	0.153
813	0.154
814	0.154
814	0.154
815	0.155
815	0.155
816	0.155
816	0.155
817	0.154
817	0.154
817	0.153
818	0.152
818	0.152
819	0.151
819	0.15
820	0.148
820	0.147
820	0.147
821	0.146
821	0.145
822	0.145
822	0.145
823	0.145
823	0.145
823	0.146
824	0.146
824	0.147
825	0.148
825	0.149
826	0.149
826	0.149
826	0.15
827	0.15
827	0.15
828	0.15
828	0.149
829	0.149
829	0.148
829	0.148
830	0.147
830	0.147
831	0.148
831	0.147
832	0.147
832	0.147
832	0.147
833	0.147
833	0.147
834	0.146
834	0.146
835	0.146
835	0.145
835	0.145
836	0.145
836	0.145
837	0.145
837	0.144
838	0.144
838	0.143
839	0.142
839	0.141
839	0.139
840	0.138
840	0.136
841	0.135
841	0.133
842	0.132
842	0.131
842	0.131
843	0.13
843	0.13
844	0.13
844	0.13
845	0.13
845	0.131
845	0.131
846	0.131
846	0.131
847	0.131
847	0.132
848	0.132
848	0.132
848	0.132
849	0.132
849	0.132
850	0.131
850	0.131
851	0.131
851	0.13
851	0.13
852	0.129
852	0.128
853	0.127
853	0.126
854	0.125
854	0.125
854	0.125
855	0.125
855	0.125
856	0.125
856	0.125
857	0.125
857	0.125
857	0.125
858	0.125
858	0.125
859	0.124
859	0.123
860	0.122
860	0.121
860	0.121
861	0.12
861	0.12
862	0.119
862	0.118
863	0.118
863	0.118
863	0.118
864	0.117
864	0.117
865	0.117
865	0.116
866	0.115
866	0.115
866	0.114
867	0.114
867	0.114
868	0.113
868	0.113
869	0.113
869	0.113
869	0.113
870	0.113
870	0.113
871	0.114
871	0.114
872	0.114
872	0.114
872	0.114
873	0.114
873	0.114
874	0.113
874	0.113
875	0.113
875	0.113
875	0.112
876	0.112
876	0.112
877	0.112
877	0.113
878	0.113
878	0.114
878	0.115
879	0.115
879	0.116
880	0.116
880	0.116
881	0.115
881	0.115
881	0.114
882	0.112
882	0.111
883	0.109
883	0.108
884	0.106
884	0.105
884	0.104
885	0.103
885	0.102
886	0.101
886	0.1
887	0.1
887	0.099
887	0.099
888	0.098
888	0.098
889	0.098
889	0.098
890	0.098
890	0.098
890	0.099
891	0.099
891	0.1
892	0.1
892	0.101
893	0.101
893	0.102
893	0.102
894	0.102
894	0.102
895	0.102
895	0.102
895	0.102
896	0.101
896	0.101
897	0.1
897	0.1
898	0.099
898	0.099
898	0.098
899	0.098
899	0.098
900	0.097
900	0.097
901	0.097
901	0.096
901	0.096
902	0.096
902	0.095
903	0.095
903	0.094
904	0.094
904	0.093
904	0.092
905	0.092
905	0.091
906	0.091
906	0.091
907	0.092
907	0.092
907	0.093
908	0.093
908	0.094
909	0.094
909	0.094
910	0.094
910	0.094
910	0.093
911	0.093
911	0.092
912	0.091
912	0.09
913	0.089
913	0.088
913	0.088
914	0.087
914	0.086
915	0.086
915	0.085
916	0.085
916	0.084
916	0.083
917	0.083
917	0.082
918	0.081
918	0.08
918	0.08
919	0.079
919	0.079
920	0.078
920	0.078
921	0.078
921	0.078
921	0.078
922	0.079
922	0.079
923	0.08
923	0.08
924	0.081
924	0.081
924	0.081
925	0.081
925	0.081
926	0.081
926	0.08
927	0.08
927	0.079
927	0.078
928	0.078
928	0.077
929	0.077
929	0.076
930	0.076
930	0.075
930	0.075
931	0.075
931	0.075
932	0.076
932	0.076
933	0.076
933	0.076
933	0.076
934	0.076
934	0.075
935	0.075
935	0.075
935	0.074
936	0.074
936	0.073
937	0.073
937	0.072
938	0.071
938	0.071
938	0.07
939	0.07
939	0.07
940	0.07
940	0.07
941	0.071
941	0.071
941	0.072
942	0.072
942	0.072
943	0.072
943	0.072
944	0.071
944	0.071
944	0.071
945	0.071
945	0.071
946	0.071
946	0.07
946	0.07
947	0.07
947	0.07
948	0.07
948	0.07
949	0.069
949	0.069
949	0.069
950	0.068
950	0.068
951	0.067
951	0.066
952	0.065
952	0.065
952	0.064
953	0.064
953	0.063
954	0.063
954	0.062
955	0.062
955	0.062
955	0.062
956	0.063
956	0.063
957	0.064
957	0.065
957	0.065
958	0.065
958	0.066
959	0.066
959	0.066
960	0.066
960	0.065
960	0.065
961	0.065
961	0.064
962	0.064
962	0.064
963	0.063
963	0.063
963	0.063
964	0.064
964	0.064
965	0.064
965	0.064
966	0.064
966	0.064
966	0.063
967	0.063
967	0.064
968	0.064
968	0.064
968	0.063
969	0.063
969	0.063
970	0.063
970	0.063
971	0.063
971	0.063
971	0.063
972	0.063
972	0.063
973	0.063
973	0.062
974	0.062
974	0.062
974	0.063
975	0.063
975	0.062
976	0.062
976	0.062
976	0.062
977	0.062
977	0.061
978	0.061
978	0.061
979	0.061
979	0.06
979	0.06
980	0.06
980	0.06
981	0.059
981	0.059
982	0.059
982	0.059
982	0.059
983	0.058
983	0.058
984	0.057
984	0.056
984	0.056
985	0.055
985	0.054
986	0.054
986	0.053
987	0.052
987	0.051
987	0.051
988	0.05
988	0.049
989	0.049
989	0.048
990	0.048
990	0.048
990	0.047
991	0.047
991	0.047
992	0.046
992	0.046
992	0.045
993	0.045
993	0.045
994	0.044
994	0.044
995	0.044
995	0.044
995	0.044
996	0.044
996	0.044
997	0.044
997	0.045
997	0.045
998	0.046
998	0.047
999	0.047
999	0.048
1000	0.049
1000	0.05
1000	0.05
1001	0.05
1001	0.051
1002	0.051
1002	0.051
1003	0.051
1003	0.051
1003	0.051
1004	0.051
1004	0.051
1005	0.051
1005	0.051
1005	0.051
1006	0.05
1006	0.05
1007	0.05
1007	0.05
1008	0.05
1008	0.05
1008	0.05
1009	0.05
1009	0.05
1010	0.05
1010	0.05
1010	0.05
1011	0.05
1011	0.05
1012	0.05
1012	0.05
1013	0.05
1013	0.049
1013	0.049
1014	0.048
1014	0.047
1015	0.047
1015	0.047
1016	0.046
1016	0.046
1016	0.046
1017	0.045
1017	0.045
1018	0.044
1018	0.044
1018	0.044
1019	0.043
1019	0.043
1020	0.042
1020	0.042
1021	0.042
1021	0.042
1021	0.042
1022	0.041
1022	0.041
1023	0.041
1023	0.041
1023	0.041
1024	0.04
1024	0.04
1025	0.039
1025	0.039
1026	0.039
1026	0.038
1026	0.038
1027	0.037
1027	0.037
1028	0.036
1028	0.036
1028	0.036
1029	0.036
1029	0.035
1030	0.035
1030	0.035
1031	0.035
1031	0.035
1031	0.035
1032	0.035
1032	0.035
1033	0.035
1033	0.035
1033	0.035
1034	0.035
1034	0.035
1035	0.035
1035	0.035
1036	0.035
1036	0.035
1036	0.035
1037	0.035
1037	0.035
1038	0.036
1038	0.036
1039	0.036
1039	0.036
1039	0.036
1040	0.036
1040	0.037
1041	0.037
1041	0.036
1041	0.036
1042	0.036
1042	0.036
1043	0.036
1043	0.036
1044	0.036
1044	0.036
1044	0.036
1045	0.036
1045	0.037
1046	0.037
1046	0.038
1046	0.038
1047	0.039
1047	0.04
1048	0.041
1048	0.041
1049	0.041
1049	0.042
1049	0.041
1050	0.041
1050	0.04
1051	0.04
1051	0.039
1051	0.038
1052	0.037
1052	0.036
1053	0.035
1053	0.034
1053	0.033
1054	0.032
1054	0.031
1055	0.031
1055	0.03
1056	0.03
1056	0.029
1056	0.028
1057	0.028
1057	0.027
1058	0.026
1058	0.026
1058	0.025
1059	0.024
1059	0.024
1060	0.023
1060	0.023
1061	0.022
1061	0.022
1061	0.022
1062	0.022
1062	0.022
1063	0.022
1063	0.022
1063	0.021
1064	0.021
1064	0.022
1065	0.022
1065	0.021
1066	0.022
1066	0.022
1066	0.022
1067	0.021
1067	0.021
1068	0.021
1068	0.021
1068	0.021
1069	0.021
1069	0.02
1070	0.02
1070	0.019
1071	0.019
1071	0.018
1071	0.017
1072	0.017
1072	0.016
1073	0.016
1073	0.015
1073	0.015
1074	0.015
1074	0.016
1075	0.016
1075	0.016
1076	0.016
1076	0.017
1076	0.017
1077	0.018
1077	0.018
1078	0.018
1078	0.018
1078	0.018
1079	0.018
1079	0.018
1080	0.018
1080	0.018
1080	0.018
1081	0.018
1081	0.018
1082	0.018
1082	0.018
1083	0.018
1083	0.017
1083	0.017
1084	0.017
1084	0.016
1085	0.016
1085	0.015
1085	0.015
1086	0.015
1086	0.014
1087	0.014
1087	0.013
1088	0.013
1088	0.013
1088	0.013
1089	0.012
1089	0.012
1090	0.011
1090	0.011
1090	0.01
1091	0.01
1091	0.01
1092	0.01
1092	0.01
1092	0.01
1093	0.009
1093	0.01
1094	0.01
1094	0.01
1095	0.01
1095	0.01
1095	0.01
1096	0.01
1096	0.009
1097	0.008
1097	0.008
1097	0.007
1098	0.007
1098	0.006
1099	0.005
1099	0.004
1100	0.002
1100	0.001
1100	0.001
1101	-0.001
1101	-0.001
1102	-0.002
1102	-0.003
1102	-0.004
1103	-0.005
1103	-0.005
1104	-0.005
1104	-0.005
1104	-0.006
1105	-0.007
1105	-0.007
1106	-0.009
1106	-0.01
1107	-0.012
1107	-0.011
1107	-0.012
1108	-0.014
1108	-0.015
1109	-0.015
1109	-0.016
1109	-0.017
1110	-0.016
1110	-0.017
1111	-0.014
1111	-0.012
