Data from reversibility-20sec_Absorbance__37__000000000000037.txt Node

Date: Tue Dec 05 12:25:25 CET 2023
User: Marek
Spectrometer: MAYP115816
Trigger mode: 0
Integration Time (sec): 2.000000E-1
Scans to average: 10
Electric dark correction enabled: true
Nonlinearity correction enabled: true
Boxcar width: 5
XAxis mode: Wavelengths
Number of Pixels in Spectrum: 2068
>>>>>Begin Spectral Data<<<<<
199	-0.183
199	-0.154
200	-0.093
200	-0.048
201	-0.017
201	-0
202	0.017
202	0.025
203	0.034
203	0.038
204	0.051
204	0.062
205	0.073
205	0.08
205	0.081
206	0.08
206	0.08
207	0.078
207	0.078
208	0.076
208	0.076
209	0.08
209	0.081
210	0.08
210	0.079
211	0.079
211	0.081
212	0.081
212	0.085
213	0.089
213	0.091
213	0.091
214	0.092
214	0.091
215	0.092
215	0.094
216	0.097
216	0.098
217	0.101
217	0.102
218	0.098
218	0.103
219	0.109
219	0.112
220	0.117
220	0.118
221	0.12
221	0.12
221	0.128
222	0.134
222	0.139
223	0.146
223	0.149
224	0.154
224	0.16
225	0.169
225	0.183
226	0.191
226	0.205
227	0.212
227	0.225
228	0.239
228	0.256
229	0.274
229	0.298
229	0.32
230	0.343
230	0.371
231	0.405
231	0.443
232	0.48
232	0.521
233	0.566
233	0.615
234	0.662
234	0.712
235	0.766
235	0.817
236	0.868
236	0.916
236	0.966
237	1.015
237	1.063
238	1.107
238	1.151
239	1.2
239	1.241
240	1.28
240	1.318
241	1.354
241	1.389
242	1.421
242	1.454
243	1.485
243	1.51
243	1.534
244	1.555
244	1.576
245	1.595
245	1.615
246	1.632
246	1.65
247	1.662
247	1.674
248	1.687
248	1.7
249	1.713
249	1.719
250	1.727
250	1.735
250	1.739
251	1.743
251	1.744
252	1.75
252	1.752
253	1.752
253	1.749
254	1.748
254	1.749
255	1.748
255	1.748
256	1.747
256	1.747
257	1.747
257	1.745
258	1.745
258	1.744
258	1.745
259	1.743
259	1.743
260	1.739
260	1.739
261	1.739
261	1.739
262	1.74
262	1.741
263	1.742
263	1.741
264	1.742
264	1.742
265	1.742
265	1.744
265	1.745
266	1.744
266	1.744
267	1.742
267	1.742
268	1.742
268	1.741
269	1.741
269	1.739
270	1.738
270	1.737
271	1.733
271	1.731
272	1.728
272	1.726
272	1.722
273	1.717
273	1.711
274	1.706
274	1.701
275	1.695
275	1.689
276	1.683
276	1.676
277	1.669
277	1.659
278	1.648
278	1.637
278	1.625
279	1.611
279	1.594
280	1.572
280	1.546
281	1.516
281	1.482
282	1.446
282	1.41
283	1.374
283	1.337
284	1.302
284	1.267
285	1.234
285	1.204
285	1.178
286	1.153
286	1.133
287	1.114
287	1.098
288	1.084
288	1.073
289	1.063
289	1.054
290	1.047
290	1.04
291	1.035
291	1.03
292	1.026
292	1.021
292	1.018
293	1.015
293	1.011
294	1.008
294	1.006
295	1.003
295	1
296	0.998
296	0.995
297	0.992
297	0.99
298	0.987
298	0.985
298	0.982
299	0.98
299	0.977
300	0.975
300	0.972
301	0.97
301	0.968
302	0.966
302	0.964
303	0.962
303	0.959
304	0.957
304	0.955
305	0.953
305	0.951
305	0.948
306	0.946
306	0.943
307	0.941
307	0.938
308	0.936
308	0.934
309	0.931
309	0.928
310	0.925
310	0.923
311	0.92
311	0.916
311	0.913
312	0.91
312	0.906
313	0.903
313	0.899
314	0.895
314	0.891
315	0.887
315	0.883
316	0.879
316	0.874
317	0.87
317	0.865
318	0.86
318	0.855
318	0.85
319	0.845
319	0.84
320	0.834
320	0.829
321	0.823
321	0.817
322	0.811
322	0.805
323	0.799
323	0.793
324	0.786
324	0.78
324	0.774
325	0.767
325	0.76
326	0.754
326	0.747
327	0.741
327	0.734
328	0.727
328	0.721
329	0.714
329	0.707
330	0.7
330	0.693
330	0.686
331	0.68
331	0.673
332	0.666
332	0.659
333	0.653
333	0.646
334	0.639
334	0.632
335	0.626
335	0.619
336	0.613
336	0.606
336	0.6
337	0.594
337	0.588
338	0.581
338	0.576
339	0.57
339	0.564
340	0.558
340	0.553
341	0.547
341	0.542
342	0.537
342	0.532
342	0.527
343	0.522
343	0.516
344	0.512
344	0.507
345	0.502
345	0.498
346	0.493
346	0.489
347	0.485
347	0.481
348	0.477
348	0.473
348	0.469
349	0.465
349	0.462
350	0.458
350	0.455
351	0.451
351	0.448
352	0.445
352	0.442
353	0.439
353	0.436
354	0.433
354	0.431
354	0.428
355	0.425
355	0.422
356	0.419
356	0.416
357	0.412
357	0.41
358	0.407
358	0.404
359	0.402
359	0.4
360	0.398
360	0.395
360	0.394
361	0.392
361	0.39
362	0.389
362	0.387
363	0.385
363	0.383
364	0.381
364	0.379
365	0.377
365	0.375
366	0.373
366	0.372
366	0.37
367	0.368
367	0.366
368	0.364
368	0.363
369	0.361
369	0.36
370	0.358
370	0.357
371	0.355
371	0.354
372	0.352
372	0.351
372	0.349
373	0.348
373	0.347
374	0.346
374	0.344
375	0.343
375	0.342
376	0.341
376	0.34
377	0.339
377	0.338
378	0.337
378	0.336
378	0.335
379	0.334
379	0.333
380	0.332
380	0.331
381	0.33
381	0.329
382	0.328
382	0.327
383	0.326
383	0.325
383	0.324
384	0.324
384	0.323
385	0.322
385	0.322
386	0.321
386	0.32
387	0.319
387	0.318
388	0.318
388	0.317
389	0.316
389	0.316
389	0.315
390	0.314
390	0.314
391	0.313
391	0.313
392	0.312
392	0.312
393	0.311
393	0.311
394	0.31
394	0.31
394	0.309
395	0.308
395	0.308
396	0.307
396	0.306
397	0.306
397	0.305
398	0.304
398	0.304
399	0.303
399	0.303
400	0.302
400	0.302
400	0.302
401	0.301
401	0.301
402	0.3
402	0.3
403	0.299
403	0.299
404	0.298
404	0.298
405	0.298
405	0.297
405	0.297
406	0.296
406	0.296
407	0.295
407	0.295
408	0.294
408	0.294
409	0.293
409	0.293
410	0.292
410	0.292
411	0.291
411	0.291
411	0.291
412	0.29
412	0.29
413	0.29
413	0.29
414	0.289
414	0.289
415	0.289
415	0.288
416	0.288
416	0.288
416	0.287
417	0.287
417	0.287
418	0.286
418	0.286
419	0.286
419	0.286
420	0.285
420	0.285
421	0.285
421	0.285
421	0.284
422	0.284
422	0.284
423	0.284
423	0.283
424	0.283
424	0.282
425	0.282
425	0.282
426	0.281
426	0.281
427	0.281
427	0.281
427	0.28
428	0.28
428	0.28
429	0.28
429	0.28
430	0.28
430	0.28
431	0.279
431	0.279
432	0.279
432	0.279
432	0.279
433	0.279
433	0.278
434	0.278
434	0.278
435	0.278
435	0.278
436	0.278
436	0.277
437	0.277
437	0.277
437	0.277
438	0.277
438	0.277
439	0.277
439	0.276
440	0.276
440	0.276
441	0.276
441	0.276
442	0.276
442	0.276
442	0.276
443	0.276
443	0.276
444	0.276
444	0.276
445	0.276
445	0.276
446	0.275
446	0.275
447	0.275
447	0.275
447	0.275
448	0.275
448	0.275
449	0.275
449	0.275
450	0.275
450	0.275
451	0.275
451	0.275
452	0.275
452	0.276
452	0.275
453	0.275
453	0.275
454	0.276
454	0.276
455	0.276
455	0.276
456	0.276
456	0.276
457	0.276
457	0.276
458	0.276
458	0.276
458	0.276
459	0.276
459	0.277
460	0.277
460	0.277
461	0.277
461	0.277
462	0.277
462	0.277
463	0.277
463	0.277
463	0.278
464	0.278
464	0.278
465	0.278
465	0.278
466	0.279
466	0.279
467	0.279
467	0.28
467	0.28
468	0.28
468	0.281
469	0.281
469	0.282
470	0.282
470	0.282
471	0.283
471	0.283
472	0.284
472	0.285
472	0.285
473	0.286
473	0.286
474	0.286
474	0.287
475	0.288
475	0.289
476	0.289
476	0.29
477	0.291
477	0.292
477	0.292
478	0.293
478	0.294
479	0.295
479	0.295
480	0.296
480	0.297
481	0.297
481	0.298
482	0.299
482	0.3
482	0.301
483	0.302
483	0.303
484	0.304
484	0.305
485	0.307
485	0.308
486	0.309
486	0.309
487	0.311
487	0.312
487	0.313
488	0.314
488	0.315
489	0.316
489	0.318
490	0.319
490	0.321
491	0.322
491	0.324
492	0.325
492	0.327
492	0.328
493	0.329
493	0.331
494	0.332
494	0.334
495	0.336
495	0.337
496	0.339
496	0.341
496	0.343
497	0.344
497	0.346
498	0.347
498	0.349
499	0.351
499	0.352
500	0.354
500	0.356
501	0.358
501	0.359
501	0.361
502	0.363
502	0.364
503	0.366
503	0.368
504	0.369
504	0.371
505	0.372
505	0.374
506	0.375
506	0.377
506	0.378
507	0.38
507	0.381
508	0.383
508	0.384
509	0.386
509	0.387
510	0.388
510	0.39
511	0.391
511	0.393
511	0.394
512	0.396
512	0.397
513	0.398
513	0.399
514	0.4
514	0.401
515	0.402
515	0.403
515	0.404
516	0.405
516	0.406
517	0.406
517	0.407
518	0.407
518	0.408
519	0.408
519	0.408
520	0.409
520	0.409
520	0.409
521	0.409
521	0.409
522	0.409
522	0.409
523	0.409
523	0.409
524	0.409
524	0.408
524	0.408
525	0.408
525	0.407
526	0.406
526	0.405
527	0.404
527	0.404
528	0.403
528	0.402
529	0.401
529	0.4
529	0.398
530	0.397
530	0.396
531	0.395
531	0.394
532	0.392
532	0.391
533	0.389
533	0.388
533	0.386
534	0.385
534	0.383
535	0.381
535	0.379
536	0.377
536	0.375
537	0.373
537	0.371
538	0.368
538	0.366
538	0.364
539	0.362
539	0.36
540	0.357
540	0.355
541	0.352
541	0.35
542	0.348
542	0.345
542	0.342
543	0.34
543	0.337
544	0.335
544	0.332
545	0.33
545	0.328
546	0.325
546	0.323
547	0.32
547	0.318
547	0.315
548	0.313
548	0.31
549	0.308
549	0.305
550	0.302
550	0.3
551	0.297
551	0.294
551	0.291
552	0.289
552	0.286
553	0.283
553	0.281
554	0.278
554	0.275
555	0.273
555	0.27
556	0.268
556	0.265
556	0.263
557	0.261
557	0.259
558	0.256
558	0.254
559	0.251
559	0.249
560	0.246
560	0.244
560	0.242
561	0.24
561	0.238
562	0.236
562	0.233
563	0.231
563	0.229
564	0.227
564	0.225
564	0.222
565	0.22
565	0.218
566	0.216
566	0.214
567	0.212
567	0.21
568	0.208
568	0.205
568	0.203
569	0.202
569	0.2
570	0.197
570	0.196
571	0.194
571	0.192
572	0.19
572	0.189
573	0.187
573	0.186
573	0.184
574	0.183
574	0.182
575	0.18
575	0.179
576	0.178
576	0.176
577	0.175
577	0.173
577	0.172
578	0.17
578	0.169
579	0.167
579	0.166
580	0.164
580	0.162
581	0.161
581	0.159
581	0.158
582	0.157
582	0.156
583	0.155
583	0.153
584	0.152
584	0.15
585	0.149
585	0.148
585	0.146
586	0.145
586	0.144
587	0.142
587	0.141
588	0.14
588	0.139
589	0.138
589	0.137
590	0.136
590	0.135
590	0.134
591	0.133
591	0.132
592	0.131
592	0.13
593	0.129
593	0.128
594	0.127
594	0.126
594	0.125
595	0.124
595	0.123
596	0.122
596	0.121
597	0.121
597	0.12
598	0.119
598	0.118
598	0.118
599	0.117
599	0.116
600	0.116
600	0.115
601	0.114
601	0.114
602	0.113
602	0.112
602	0.111
603	0.111
603	0.11
604	0.109
604	0.109
605	0.108
605	0.108
606	0.107
606	0.106
606	0.106
607	0.105
607	0.104
608	0.104
608	0.103
609	0.102
609	0.102
610	0.101
610	0.1
610	0.1
611	0.099
611	0.098
612	0.097
612	0.097
613	0.096
613	0.095
614	0.094
614	0.093
614	0.093
615	0.092
615	0.091
616	0.091
616	0.09
617	0.09
617	0.089
618	0.089
618	0.089
618	0.088
619	0.088
619	0.088
620	0.088
620	0.088
621	0.087
621	0.087
622	0.086
622	0.086
622	0.085
623	0.085
623	0.084
624	0.083
624	0.083
625	0.082
625	0.081
626	0.081
626	0.08
626	0.08
627	0.079
627	0.079
628	0.078
628	0.077
629	0.077
629	0.076
630	0.076
630	0.076
630	0.075
631	0.075
631	0.075
632	0.075
632	0.075
633	0.075
633	0.075
634	0.075
634	0.075
634	0.074
635	0.074
635	0.074
636	0.073
636	0.073
637	0.073
637	0.072
638	0.071
638	0.071
638	0.07
639	0.07
639	0.069
640	0.069
640	0.068
641	0.067
641	0.067
642	0.067
642	0.067
642	0.067
643	0.066
643	0.066
644	0.066
644	0.066
645	0.066
645	0.066
646	0.066
646	0.066
646	0.065
647	0.065
647	0.065
648	0.064
648	0.064
649	0.063
649	0.063
650	0.062
650	0.062
650	0.061
651	0.061
651	0.061
652	0.061
652	0.06
653	0.061
653	0.062
653	0.064
654	0.052
654	0.043
655	0.043
655	0.043
656	0.043
656	0.043
657	0.043
657	0.043
657	0.043
658	0.043
658	0.039
659	0.048
659	0.059
660	0.061
660	0.061
661	0.06
661	0.06
661	0.059
662	0.058
662	0.058
663	0.057
663	0.057
664	0.057
664	0.056
665	0.056
665	0.055
665	0.055
666	0.055
666	0.054
667	0.054
667	0.053
668	0.053
668	0.053
669	0.052
669	0.052
669	0.052
670	0.052
670	0.052
671	0.052
671	0.052
672	0.052
672	0.051
672	0.051
673	0.051
673	0.051
674	0.051
674	0.05
675	0.05
675	0.051
676	0.051
676	0.051
676	0.051
677	0.051
677	0.051
678	0.051
678	0.05
679	0.05
679	0.05
680	0.05
680	0.049
680	0.049
681	0.049
681	0.049
682	0.049
682	0.049
683	0.05
683	0.05
684	0.05
684	0.05
684	0.05
685	0.05
685	0.05
686	0.05
686	0.049
687	0.049
687	0.049
687	0.049
688	0.048
688	0.048
689	0.049
689	0.049
690	0.048
690	0.048
691	0.048
691	0.048
691	0.048
692	0.048
692	0.047
693	0.047
693	0.047
694	0.047
694	0.046
695	0.046
695	0.047
695	0.047
696	0.047
696	0.046
697	0.046
697	0.046
698	0.046
698	0.045
698	0.045
699	0.046
699	0.045
700	0.045
700	0.045
701	0.045
701	0.044
702	0.044
702	0.044
702	0.043
703	0.043
703	0.042
704	0.042
704	0.041
705	0.041
705	0.041
705	0.041
706	0.04
706	0.04
707	0.04
707	0.041
708	0.041
708	0.041
709	0.042
709	0.042
709	0.042
710	0.042
710	0.042
711	0.042
711	0.042
712	0.042
712	0.042
713	0.042
713	0.042
713	0.042
714	0.042
714	0.041
715	0.041
715	0.04
716	0.04
716	0.04
716	0.039
717	0.038
717	0.037
718	0.036
718	0.036
719	0.035
719	0.035
720	0.035
720	0.035
720	0.035
721	0.035
721	0.035
722	0.036
722	0.036
723	0.036
723	0.036
723	0.036
724	0.036
724	0.036
725	0.035
725	0.034
726	0.034
726	0.034
727	0.033
727	0.033
727	0.033
728	0.033
728	0.033
729	0.033
729	0.033
730	0.034
730	0.034
730	0.034
731	0.034
731	0.034
732	0.034
732	0.034
733	0.034
733	0.034
734	0.034
734	0.034
734	0.034
735	0.035
735	0.034
736	0.034
736	0.034
737	0.034
737	0.034
737	0.033
738	0.033
738	0.032
739	0.031
739	0.031
740	0.03
740	0.03
741	0.03
741	0.03
741	0.03
742	0.03
742	0.031
743	0.031
743	0.031
744	0.032
744	0.032
744	0.031
745	0.031
745	0.031
746	0.032
746	0.032
747	0.032
747	0.032
748	0.032
748	0.032
748	0.032
749	0.031
749	0.031
750	0.031
750	0.03
751	0.03
751	0.03
751	0.03
752	0.029
752	0.029
753	0.029
753	0.029
754	0.029
754	0.028
754	0.028
755	0.028
755	0.028
756	0.027
756	0.026
757	0.026
757	0.025
758	0.025
758	0.025
758	0.025
759	0.025
759	0.025
760	0.025
760	0.026
761	0.026
761	0.027
761	0.027
762	0.027
762	0.027
763	0.027
763	0.027
764	0.027
764	0.026
764	0.026
765	0.026
765	0.025
766	0.025
766	0.024
767	0.024
767	0.023
768	0.023
768	0.023
768	0.022
769	0.022
769	0.022
770	0.021
770	0.021
771	0.021
771	0.021
771	0.021
772	0.021
772	0.021
773	0.021
773	0.021
774	0.021
774	0.021
775	0.021
775	0.021
775	0.021
776	0.021
776	0.021
777	0.021
777	0.021
778	0.021
778	0.021
778	0.021
779	0.021
779	0.021
780	0.02
780	0.02
781	0.021
781	0.021
781	0.021
782	0.021
782	0.021
783	0.021
783	0.021
784	0.021
784	0.021
784	0.021
785	0.021
785	0.021
786	0.02
786	0.02
787	0.02
787	0.02
788	0.019
788	0.019
788	0.019
789	0.018
789	0.018
790	0.018
790	0.017
791	0.017
791	0.016
791	0.016
792	0.016
792	0.015
793	0.015
793	0.014
794	0.014
794	0.013
794	0.013
795	0.013
795	0.013
796	0.013
796	0.013
797	0.014
797	0.014
797	0.014
798	0.015
798	0.015
799	0.015
799	0.015
800	0.014
800	0.014
801	0.014
801	0.013
801	0.013
802	0.012
802	0.012
803	0.012
803	0.012
804	0.013
804	0.013
804	0.014
805	0.014
805	0.014
806	0.014
806	0.015
807	0.015
807	0.015
807	0.015
808	0.015
808	0.015
809	0.016
809	0.016
810	0.016
810	0.016
810	0.016
811	0.016
811	0.017
812	0.017
812	0.017
813	0.017
813	0.016
813	0.016
814	0.016
814	0.017
815	0.017
815	0.017
816	0.017
816	0.017
817	0.017
817	0.017
817	0.017
818	0.017
818	0.017
819	0.016
819	0.016
820	0.015
820	0.014
820	0.014
821	0.013
821	0.013
822	0.013
822	0.013
823	0.013
823	0.013
823	0.013
824	0.014
824	0.015
825	0.015
825	0.016
826	0.016
826	0.016
826	0.017
827	0.017
827	0.017
828	0.017
828	0.017
829	0.017
829	0.016
829	0.016
830	0.016
830	0.016
831	0.017
831	0.016
832	0.016
832	0.016
832	0.016
833	0.016
833	0.016
834	0.016
834	0.015
835	0.015
835	0.015
835	0.015
836	0.014
836	0.014
837	0.013
837	0.013
838	0.012
838	0.012
839	0.011
839	0.011
839	0.01
840	0.01
840	0.009
841	0.009
841	0.008
842	0.008
842	0.008
842	0.007
843	0.007
843	0.007
844	0.007
844	0.007
845	0.007
845	0.007
845	0.007
846	0.007
846	0.007
847	0.008
847	0.008
848	0.008
848	0.009
848	0.009
849	0.01
849	0.01
850	0.01
850	0.011
851	0.011
851	0.012
851	0.012
852	0.011
852	0.011
853	0.011
853	0.01
854	0.01
854	0.01
854	0.011
855	0.011
855	0.011
856	0.012
856	0.012
857	0.013
857	0.013
857	0.013
858	0.014
858	0.014
859	0.014
859	0.013
860	0.013
860	0.013
860	0.013
861	0.012
861	0.012
862	0.012
862	0.012
863	0.011
863	0.011
863	0.011
864	0.011
864	0.01
865	0.01
865	0.01
866	0.009
866	0.009
866	0.009
867	0.008
867	0.008
868	0.008
868	0.008
869	0.009
869	0.009
869	0.009
870	0.009
870	0.009
871	0.01
871	0.01
872	0.01
872	0.01
872	0.01
873	0.01
873	0.01
874	0.01
874	0.01
875	0.01
875	0.01
875	0.01
876	0.01
876	0.01
877	0.01
877	0.01
878	0.011
878	0.011
878	0.012
879	0.012
879	0.012
880	0.012
880	0.012
881	0.012
881	0.012
881	0.011
882	0.011
882	0.01
883	0.009
883	0.008
884	0.008
884	0.007
884	0.006
885	0.006
885	0.005
886	0.004
886	0.004
887	0.003
887	0.003
887	0.003
888	0.002
888	0.002
889	0.002
889	0.002
890	0.002
890	0.003
890	0.003
891	0.003
891	0.003
892	0.004
892	0.004
893	0.005
893	0.005
893	0.005
894	0.005
894	0.004
895	0.004
895	0.004
895	0.004
896	0.004
896	0.004
897	0.003
897	0.003
898	0.003
898	0.003
898	0.003
899	0.003
899	0.003
900	0.004
900	0.004
901	0.005
901	0.005
901	0.006
902	0.006
902	0.006
903	0.007
903	0.007
904	0.007
904	0.007
904	0.007
905	0.007
905	0.006
906	0.006
906	0.006
907	0.006
907	0.006
907	0.006
908	0.006
908	0.006
909	0.006
909	0.007
910	0.007
910	0.007
910	0.007
911	0.008
911	0.008
912	0.008
912	0.008
913	0.008
913	0.008
913	0.008
914	0.008
914	0.007
915	0.007
915	0.006
916	0.006
916	0.005
916	0.004
917	0.004
917	0.004
918	0.003
918	0.003
918	0.002
919	0.002
919	0.002
920	0.003
920	0.003
921	0.003
921	0.003
921	0.003
922	0.004
922	0.004
923	0.005
923	0.005
924	0.006
924	0.006
924	0.007
925	0.008
925	0.009
926	0.009
926	0.01
927	0.011
927	0.011
927	0.012
928	0.012
928	0.012
929	0.012
929	0.012
930	0.012
930	0.012
930	0.012
931	0.011
931	0.011
932	0.01
932	0.01
933	0.009
933	0.009
933	0.008
934	0.007
934	0.007
935	0.006
935	0.005
935	0.005
936	0.004
936	0.004
937	0.004
937	0.004
938	0.004
938	0.004
938	0.004
939	0.005
939	0.005
940	0.005
940	0.006
941	0.006
941	0.006
941	0.007
942	0.007
942	0.007
943	0.007
943	0.007
944	0.007
944	0.008
944	0.008
945	0.008
945	0.008
946	0.008
946	0.008
946	0.008
947	0.008
947	0.008
948	0.008
948	0.008
949	0.007
949	0.007
949	0.006
950	0.006
950	0.006
951	0.005
951	0.005
952	0.004
952	0.004
952	0.003
953	0.003
953	0.002
954	0.002
954	0.002
955	0.001
955	0.001
955	0.001
956	0.001
956	0.002
957	0.002
957	0.003
957	0.003
958	0.003
958	0.003
959	0.003
959	0.003
960	0.003
960	0.003
960	0.002
961	0.002
961	0.001
962	0.001
962	0
963	0
963	-0
963	-0
964	0
964	0
965	0.001
965	0.001
966	0.001
966	0.002
966	0.003
967	0.003
967	0.004
968	0.004
968	0.004
968	0.005
969	0.005
969	0.005
970	0.005
970	0.005
971	0.005
971	0.005
971	0.005
972	0.005
972	0.005
973	0.005
973	0.005
974	0.005
974	0.005
974	0.005
975	0.006
975	0.006
976	0.006
976	0.006
976	0.006
977	0.005
977	0.005
978	0.005
978	0.005
979	0.004
979	0.004
979	0.004
980	0.003
980	0.003
981	0.003
981	0.002
982	0.002
982	0.002
982	0.002
983	0.002
983	0.003
984	0.003
984	0.003
984	0.003
985	0.004
985	0.004
986	0.004
986	0.004
987	0.004
987	0.003
987	0.003
988	0.003
988	0.003
989	0.003
989	0.002
990	0.002
990	0.002
990	0.002
991	0.002
991	0.003
992	0.003
992	0.003
992	0.003
993	0.003
993	0.003
994	0.003
994	0.003
995	0.003
995	0.004
995	0.004
996	0.004
996	0.005
997	0.005
997	0.006
997	0.006
998	0.007
998	0.007
999	0.008
999	0.008
1000	0.008
1000	0.009
1000	0.009
1001	0.009
1001	0.009
1002	0.009
1002	0.009
1003	0.009
1003	0.009
1003	0.008
1004	0.008
1004	0.008
1005	0.008
1005	0.007
1005	0.007
1006	0.007
1006	0.006
1007	0.006
1007	0.006
1008	0.006
1008	0.005
1008	0.005
1009	0.005
1009	0.005
1010	0.005
1010	0.005
1010	0.005
1011	0.005
1011	0.004
1012	0.004
1012	0.004
1013	0.004
1013	0.003
1013	0.003
1014	0.002
1014	0.002
1015	0.002
1015	0.002
1016	0.002
1016	0.002
1016	0.001
1017	0.001
1017	0.001
1018	0.001
1018	0.001
1018	0.002
1019	0.002
1019	0.002
1020	0.002
1020	0.002
1021	0.002
1021	0.003
1021	0.003
1022	0.003
1022	0.003
1023	0.002
1023	0.002
1023	0.002
1024	0.002
1024	0.001
1025	0.001
1025	0
1026	-0
1026	-0.001
1026	-0.001
1027	-0.002
1027	-0.002
1028	-0.003
1028	-0.004
1028	-0.004
1029	-0.004
1029	-0.005
1030	-0.005
1030	-0.005
1031	-0.005
1031	-0.004
1031	-0.004
1032	-0.004
1032	-0.004
1033	-0.003
1033	-0.003
1033	-0.003
1034	-0.003
1034	-0.002
1035	-0.002
1035	-0.003
1036	-0.002
1036	-0.002
1036	-0.002
1037	-0.002
1037	-0.002
1038	-0.002
1038	-0.002
1039	-0.001
1039	-0.001
1039	-0.001
1040	-0.001
1040	-0
1041	-0
1041	-0
1041	-0
1042	0
1042	0.001
1043	0.001
1043	0.001
1044	0.001
1044	0.002
1044	0.002
1045	0.002
1045	0.003
1046	0.004
1046	0.004
1046	0.005
1047	0.005
1047	0.006
1048	0.007
1048	0.008
1049	0.008
1049	0.008
1049	0.009
1050	0.009
1050	0.009
1051	0.008
1051	0.008
1051	0.008
1052	0.007
1052	0.007
1053	0.006
1053	0.006
1053	0.005
1054	0.005
1054	0.005
1055	0.005
1055	0.004
1056	0.004
1056	0.004
1056	0.003
1057	0.003
1057	0.002
1058	0.002
1058	0.001
1058	0.001
1059	0
1059	0
1060	-0
1060	-0.001
1061	-0.001
1061	-0.001
1061	-0.001
1062	-0.001
1062	-0.001
1063	-0.001
1063	-0.001
1063	-0.002
1064	-0.002
1064	-0.002
1065	-0.002
1065	-0.002
1066	-0.002
1066	-0.003
1066	-0.003
1067	-0.004
1067	-0.004
1068	-0.005
1068	-0.005
1068	-0.005
1069	-0.006
1069	-0.006
1070	-0.007
1070	-0.008
1071	-0.009
1071	-0.009
1071	-0.01
1072	-0.01
1072	-0.011
1073	-0.012
1073	-0.012
1073	-0.012
1074	-0.012
1074	-0.012
1075	-0.012
1075	-0.011
1076	-0.011
1076	-0.01
1076	-0.01
1077	-0.009
1077	-0.009
1078	-0.009
1078	-0.008
1078	-0.008
1079	-0.008
1079	-0.008
1080	-0.008
1080	-0.008
1080	-0.009
1081	-0.009
1081	-0.008
1082	-0.008
1082	-0.008
1083	-0.008
1083	-0.008
1083	-0.008
1084	-0.008
1084	-0.008
1085	-0.008
1085	-0.008
1085	-0.007
1086	-0.007
1086	-0.008
1087	-0.008
1087	-0.008
1088	-0.008
1088	-0.009
1088	-0.008
1089	-0.008
1089	-0.009
1090	-0.009
1090	-0.01
1090	-0.01
1091	-0.01
1091	-0.01
1092	-0.01
1092	-0.01
1092	-0.01
1093	-0.01
1093	-0.01
1094	-0.01
1094	-0.011
1095	-0.011
1095	-0.011
1095	-0.011
1096	-0.011
1096	-0.012
1097	-0.013
1097	-0.013
1097	-0.013
1098	-0.014
1098	-0.015
1099	-0.015
1099	-0.016
1100	-0.017
1100	-0.018
1100	-0.018
1101	-0.019
1101	-0.02
1102	-0.02
1102	-0.021
1102	-0.022
1103	-0.023
1103	-0.021
1104	-0.022
1104	-0.022
1104	-0.022
1105	-0.023
1105	-0.024
1106	-0.025
1106	-0.025
1107	-0.027
1107	-0.027
1107	-0.028
1108	-0.029
1108	-0.03
1109	-0.03
1109	-0.031
1109	-0.032
1110	-0.031
1110	-0.032
1111	-0.033
1111	-0.03
