Data from reversibility-20sec_Absorbance__3477__000000000003477.txt Node

Date: Wed Dec 06 07:32:07 CET 2023
User: Marek
Spectrometer: MAYP115816
Trigger mode: 0
Integration Time (sec): 2.000000E-1
Scans to average: 10
Electric dark correction enabled: true
Nonlinearity correction enabled: true
Boxcar width: 5
XAxis mode: Wavelengths
Number of Pixels in Spectrum: 2068
>>>>>Begin Spectral Data<<<<<
199	-0.147
199	-0.123
200	-0.051
200	-0.002
201	0.024
201	0.043
202	0.055
202	0.062
203	0.067
203	0.071
204	0.086
204	0.099
205	0.111
205	0.114
205	0.112
206	0.112
206	0.109
207	0.108
207	0.106
208	0.108
208	0.107
209	0.109
209	0.109
210	0.112
210	0.114
211	0.116
211	0.118
212	0.119
212	0.122
213	0.127
213	0.128
213	0.129
214	0.131
214	0.133
215	0.133
215	0.133
216	0.134
216	0.133
217	0.138
217	0.14
218	0.138
218	0.142
219	0.149
219	0.15
220	0.154
220	0.155
221	0.155
221	0.158
221	0.164
222	0.17
222	0.174
223	0.18
223	0.182
224	0.188
224	0.195
225	0.204
225	0.216
226	0.227
226	0.239
227	0.251
227	0.261
228	0.275
228	0.289
229	0.306
229	0.329
229	0.352
230	0.377
230	0.407
231	0.439
231	0.479
232	0.514
232	0.555
233	0.6
233	0.65
234	0.701
234	0.752
235	0.801
235	0.853
236	0.901
236	0.953
236	1.001
237	1.053
237	1.102
238	1.15
238	1.196
239	1.245
239	1.288
240	1.332
240	1.368
241	1.405
241	1.438
242	1.472
242	1.503
243	1.535
243	1.56
243	1.583
244	1.601
244	1.624
245	1.639
245	1.66
246	1.679
246	1.696
247	1.707
247	1.721
248	1.734
248	1.748
249	1.757
249	1.765
250	1.772
250	1.78
250	1.785
251	1.79
251	1.794
252	1.8
252	1.802
253	1.802
253	1.801
254	1.801
254	1.803
255	1.802
255	1.802
256	1.8
256	1.799
257	1.799
257	1.798
258	1.798
258	1.799
258	1.799
259	1.799
259	1.799
260	1.799
260	1.8
261	1.8
261	1.802
262	1.802
262	1.801
263	1.802
263	1.799
264	1.8
264	1.8
265	1.8
265	1.8
265	1.8
266	1.801
266	1.8
267	1.799
267	1.8
268	1.799
268	1.8
269	1.801
269	1.8
270	1.8
270	1.798
271	1.796
271	1.795
272	1.792
272	1.791
272	1.788
273	1.784
273	1.779
274	1.774
274	1.768
275	1.761
275	1.756
276	1.75
276	1.743
277	1.735
277	1.725
278	1.714
278	1.702
278	1.691
279	1.675
279	1.66
280	1.64
280	1.614
281	1.585
281	1.552
282	1.518
282	1.482
283	1.447
283	1.412
284	1.376
284	1.341
285	1.308
285	1.278
285	1.25
286	1.225
286	1.204
287	1.184
287	1.167
288	1.152
288	1.139
289	1.128
289	1.119
290	1.11
290	1.103
291	1.096
291	1.09
292	1.085
292	1.08
292	1.075
293	1.071
293	1.067
294	1.063
294	1.06
295	1.057
295	1.054
296	1.05
296	1.047
297	1.044
297	1.041
298	1.037
298	1.034
298	1.031
299	1.029
299	1.026
300	1.023
300	1.02
301	1.017
301	1.014
302	1.011
302	1.009
303	1.006
303	1.004
304	1.001
304	0.998
305	0.995
305	0.993
305	0.99
306	0.987
306	0.984
307	0.982
307	0.979
308	0.976
308	0.973
309	0.97
309	0.967
310	0.964
310	0.961
311	0.958
311	0.954
311	0.951
312	0.948
312	0.944
313	0.941
313	0.937
314	0.933
314	0.929
315	0.925
315	0.92
316	0.916
316	0.912
317	0.907
317	0.902
318	0.897
318	0.892
318	0.887
319	0.882
319	0.876
320	0.87
320	0.864
321	0.858
321	0.852
322	0.846
322	0.84
323	0.834
323	0.828
324	0.822
324	0.815
324	0.808
325	0.802
325	0.796
326	0.789
326	0.783
327	0.776
327	0.769
328	0.762
328	0.755
329	0.748
329	0.741
330	0.735
330	0.728
330	0.721
331	0.714
331	0.707
332	0.7
332	0.694
333	0.687
333	0.68
334	0.673
334	0.666
335	0.66
335	0.653
336	0.647
336	0.641
336	0.634
337	0.628
337	0.622
338	0.616
338	0.61
339	0.604
339	0.598
340	0.592
340	0.587
341	0.581
341	0.576
342	0.57
342	0.565
342	0.56
343	0.555
343	0.55
344	0.545
344	0.54
345	0.535
345	0.531
346	0.526
346	0.522
347	0.518
347	0.513
348	0.509
348	0.505
348	0.502
349	0.498
349	0.494
350	0.491
350	0.487
351	0.484
351	0.481
352	0.477
352	0.474
353	0.471
353	0.469
354	0.466
354	0.463
354	0.459
355	0.457
355	0.453
356	0.451
356	0.448
357	0.445
357	0.442
358	0.439
358	0.436
359	0.434
359	0.431
360	0.429
360	0.427
360	0.425
361	0.423
361	0.422
362	0.42
362	0.418
363	0.416
363	0.414
364	0.412
364	0.41
365	0.408
365	0.406
366	0.404
366	0.403
366	0.401
367	0.399
367	0.397
368	0.396
368	0.394
369	0.392
369	0.391
370	0.389
370	0.388
371	0.386
371	0.385
372	0.384
372	0.382
372	0.381
373	0.38
373	0.379
374	0.378
374	0.376
375	0.375
375	0.374
376	0.373
376	0.371
377	0.37
377	0.369
378	0.368
378	0.367
378	0.366
379	0.365
379	0.364
380	0.363
380	0.362
381	0.361
381	0.36
382	0.359
382	0.359
383	0.358
383	0.357
383	0.356
384	0.356
384	0.355
385	0.354
385	0.354
386	0.353
386	0.353
387	0.352
387	0.351
388	0.351
388	0.35
389	0.349
389	0.349
389	0.348
390	0.347
390	0.347
391	0.346
391	0.346
392	0.345
392	0.345
393	0.344
393	0.344
394	0.343
394	0.342
394	0.342
395	0.341
395	0.341
396	0.341
396	0.34
397	0.339
397	0.339
398	0.338
398	0.338
399	0.337
399	0.337
400	0.337
400	0.336
400	0.336
401	0.335
401	0.334
402	0.334
402	0.334
403	0.333
403	0.332
404	0.332
404	0.332
405	0.331
405	0.331
405	0.331
406	0.33
406	0.33
407	0.329
407	0.329
408	0.329
408	0.328
409	0.328
409	0.328
410	0.327
410	0.327
411	0.327
411	0.326
411	0.326
412	0.326
412	0.325
413	0.325
413	0.324
414	0.324
414	0.324
415	0.324
415	0.323
416	0.323
416	0.322
416	0.322
417	0.321
417	0.321
418	0.321
418	0.321
419	0.32
419	0.319
420	0.319
420	0.319
421	0.318
421	0.318
421	0.318
422	0.317
422	0.317
423	0.316
423	0.316
424	0.316
424	0.316
425	0.315
425	0.315
426	0.315
426	0.314
427	0.314
427	0.314
427	0.313
428	0.313
428	0.312
429	0.312
429	0.312
430	0.311
430	0.311
431	0.311
431	0.311
432	0.311
432	0.311
432	0.311
433	0.31
433	0.31
434	0.31
434	0.31
435	0.31
435	0.31
436	0.31
436	0.31
437	0.309
437	0.309
437	0.309
438	0.309
438	0.309
439	0.308
439	0.308
440	0.308
440	0.308
441	0.307
441	0.307
442	0.307
442	0.307
442	0.307
443	0.306
443	0.306
444	0.306
444	0.306
445	0.306
445	0.306
446	0.306
446	0.305
447	0.305
447	0.305
447	0.305
448	0.305
448	0.305
449	0.305
449	0.306
450	0.306
450	0.306
451	0.306
451	0.306
452	0.306
452	0.306
452	0.306
453	0.306
453	0.306
454	0.306
454	0.305
455	0.305
455	0.305
456	0.305
456	0.305
457	0.305
457	0.305
458	0.305
458	0.305
458	0.305
459	0.305
459	0.305
460	0.306
460	0.306
461	0.306
461	0.306
462	0.306
462	0.306
463	0.306
463	0.306
463	0.306
464	0.306
464	0.306
465	0.306
465	0.306
466	0.306
466	0.307
467	0.307
467	0.307
467	0.307
468	0.308
468	0.308
469	0.308
469	0.309
470	0.31
470	0.31
471	0.31
471	0.311
472	0.311
472	0.311
472	0.312
473	0.313
473	0.313
474	0.313
474	0.314
475	0.314
475	0.314
476	0.315
476	0.315
477	0.316
477	0.316
477	0.317
478	0.318
478	0.318
479	0.319
479	0.319
480	0.32
480	0.321
481	0.322
481	0.322
482	0.323
482	0.324
482	0.324
483	0.325
483	0.326
484	0.327
484	0.328
485	0.329
485	0.329
486	0.33
486	0.331
487	0.332
487	0.333
487	0.334
488	0.335
488	0.336
489	0.337
489	0.339
490	0.34
490	0.341
491	0.343
491	0.344
492	0.345
492	0.347
492	0.348
493	0.35
493	0.351
494	0.353
494	0.354
495	0.355
495	0.357
496	0.358
496	0.36
496	0.361
497	0.362
497	0.363
498	0.365
498	0.366
499	0.368
499	0.369
500	0.371
500	0.372
501	0.374
501	0.375
501	0.376
502	0.378
502	0.379
503	0.38
503	0.382
504	0.383
504	0.385
505	0.386
505	0.387
506	0.389
506	0.39
506	0.391
507	0.393
507	0.394
508	0.395
508	0.396
509	0.397
509	0.398
510	0.399
510	0.401
511	0.402
511	0.404
511	0.405
512	0.406
512	0.407
513	0.408
513	0.409
514	0.409
514	0.41
515	0.411
515	0.412
515	0.412
516	0.413
516	0.414
517	0.414
517	0.415
518	0.415
518	0.416
519	0.416
519	0.417
520	0.417
520	0.417
520	0.417
521	0.417
521	0.418
522	0.418
522	0.418
523	0.418
523	0.417
524	0.417
524	0.417
524	0.417
525	0.417
525	0.416
526	0.415
526	0.414
527	0.413
527	0.413
528	0.412
528	0.411
529	0.411
529	0.41
529	0.408
530	0.407
530	0.406
531	0.405
531	0.404
532	0.402
532	0.401
533	0.399
533	0.398
533	0.396
534	0.394
534	0.393
535	0.391
535	0.39
536	0.388
536	0.386
537	0.384
537	0.382
538	0.38
538	0.378
538	0.376
539	0.375
539	0.373
540	0.371
540	0.369
541	0.367
541	0.365
542	0.363
542	0.361
542	0.359
543	0.357
543	0.355
544	0.352
544	0.35
545	0.348
545	0.346
546	0.344
546	0.341
547	0.338
547	0.336
547	0.334
548	0.332
548	0.329
549	0.327
549	0.325
550	0.323
550	0.32
551	0.317
551	0.315
551	0.312
552	0.31
552	0.308
553	0.306
553	0.304
554	0.302
554	0.299
555	0.297
555	0.295
556	0.293
556	0.291
556	0.289
557	0.287
557	0.285
558	0.283
558	0.281
559	0.279
559	0.277
560	0.275
560	0.273
560	0.271
561	0.269
561	0.267
562	0.265
562	0.262
563	0.26
563	0.258
564	0.256
564	0.254
564	0.252
565	0.25
565	0.248
566	0.246
566	0.244
567	0.242
567	0.241
568	0.239
568	0.237
568	0.235
569	0.233
569	0.232
570	0.229
570	0.228
571	0.226
571	0.225
572	0.223
572	0.221
573	0.22
573	0.218
573	0.217
574	0.216
574	0.214
575	0.213
575	0.212
576	0.211
576	0.209
577	0.207
577	0.206
577	0.205
578	0.204
578	0.202
579	0.201
579	0.201
580	0.199
580	0.197
581	0.196
581	0.195
581	0.194
582	0.193
582	0.192
583	0.191
583	0.19
584	0.188
584	0.186
585	0.185
585	0.183
585	0.182
586	0.181
586	0.18
587	0.179
587	0.178
588	0.177
588	0.176
589	0.175
589	0.175
590	0.174
590	0.173
590	0.173
591	0.172
591	0.171
592	0.169
592	0.168
593	0.167
593	0.166
594	0.165
594	0.163
594	0.162
595	0.161
595	0.16
596	0.159
596	0.158
597	0.158
597	0.158
598	0.158
598	0.157
598	0.157
599	0.156
599	0.156
600	0.155
600	0.154
601	0.154
601	0.153
602	0.152
602	0.151
602	0.15
603	0.149
603	0.149
604	0.148
604	0.148
605	0.147
605	0.147
606	0.146
606	0.146
606	0.145
607	0.144
607	0.143
608	0.143
608	0.142
609	0.141
609	0.14
610	0.139
610	0.138
610	0.138
611	0.137
611	0.137
612	0.137
612	0.137
613	0.137
613	0.136
614	0.136
614	0.135
614	0.135
615	0.135
615	0.134
616	0.134
616	0.134
617	0.133
617	0.133
618	0.132
618	0.132
618	0.131
619	0.131
619	0.131
620	0.131
620	0.13
621	0.13
621	0.129
622	0.129
622	0.128
622	0.127
623	0.127
623	0.126
624	0.126
624	0.125
625	0.125
625	0.124
626	0.124
626	0.123
626	0.123
627	0.122
627	0.122
628	0.122
628	0.121
629	0.121
629	0.12
630	0.12
630	0.119
630	0.119
631	0.119
631	0.118
632	0.118
632	0.117
633	0.117
633	0.117
634	0.117
634	0.117
634	0.117
635	0.117
635	0.117
636	0.117
636	0.117
637	0.116
637	0.116
638	0.115
638	0.115
638	0.114
639	0.114
639	0.113
640	0.113
640	0.112
641	0.112
641	0.112
642	0.111
642	0.111
642	0.111
643	0.111
643	0.11
644	0.11
644	0.11
645	0.11
645	0.11
646	0.11
646	0.11
646	0.11
647	0.11
647	0.11
648	0.11
648	0.109
649	0.109
649	0.109
650	0.109
650	0.109
650	0.108
651	0.108
651	0.108
652	0.108
652	0.108
653	0.108
653	0.11
653	0.115
654	0.092
654	0.075
655	0.073
655	0.073
656	0.073
656	0.073
657	0.073
657	0.073
657	0.073
658	0.071
658	0.064
659	0.079
659	0.1
660	0.105
660	0.105
661	0.104
661	0.104
661	0.103
662	0.102
662	0.102
663	0.101
663	0.101
664	0.1
664	0.1
665	0.099
665	0.099
665	0.099
666	0.099
666	0.099
667	0.1
667	0.1
668	0.1
668	0.1
669	0.1
669	0.101
669	0.101
670	0.101
670	0.101
671	0.101
671	0.101
672	0.1
672	0.1
672	0.099
673	0.099
673	0.098
674	0.098
674	0.097
675	0.097
675	0.097
676	0.098
676	0.098
676	0.098
677	0.098
677	0.098
678	0.098
678	0.098
679	0.098
679	0.098
680	0.097
680	0.097
680	0.096
681	0.096
681	0.096
682	0.096
682	0.096
683	0.096
683	0.097
684	0.097
684	0.097
684	0.096
685	0.096
685	0.096
686	0.096
686	0.096
687	0.096
687	0.096
687	0.096
688	0.096
688	0.096
689	0.097
689	0.097
690	0.097
690	0.096
691	0.096
691	0.096
691	0.096
692	0.096
692	0.096
693	0.096
693	0.096
694	0.095
694	0.095
695	0.095
695	0.096
695	0.096
696	0.096
696	0.096
697	0.096
697	0.095
698	0.095
698	0.095
698	0.095
699	0.095
699	0.094
700	0.093
700	0.093
701	0.093
701	0.092
702	0.091
702	0.091
702	0.09
703	0.09
703	0.089
704	0.089
704	0.089
705	0.089
705	0.089
705	0.089
706	0.089
706	0.089
707	0.089
707	0.089
708	0.09
708	0.09
709	0.09
709	0.089
709	0.088
710	0.088
710	0.088
711	0.088
711	0.087
712	0.087
712	0.087
713	0.086
713	0.086
713	0.086
714	0.086
714	0.086
715	0.086
715	0.085
716	0.085
716	0.085
716	0.084
717	0.084
717	0.083
718	0.083
718	0.082
719	0.082
719	0.083
720	0.083
720	0.083
720	0.084
721	0.084
721	0.084
722	0.085
722	0.085
723	0.085
723	0.085
723	0.084
724	0.084
724	0.083
725	0.082
725	0.081
726	0.081
726	0.08
727	0.079
727	0.079
727	0.079
728	0.079
728	0.079
729	0.079
729	0.079
730	0.08
730	0.08
730	0.081
731	0.081
731	0.081
732	0.082
732	0.082
733	0.081
733	0.081
734	0.081
734	0.081
734	0.081
735	0.081
735	0.08
736	0.079
736	0.079
737	0.078
737	0.077
737	0.077
738	0.076
738	0.075
739	0.075
739	0.074
740	0.074
740	0.074
741	0.074
741	0.075
741	0.075
742	0.075
742	0.075
743	0.076
743	0.077
744	0.077
744	0.077
744	0.077
745	0.077
745	0.077
746	0.077
746	0.077
747	0.077
747	0.077
748	0.077
748	0.077
748	0.077
749	0.076
749	0.077
750	0.077
750	0.077
751	0.077
751	0.077
751	0.077
752	0.076
752	0.076
753	0.076
753	0.075
754	0.075
754	0.075
754	0.074
755	0.074
755	0.074
756	0.073
756	0.071
757	0.071
757	0.071
758	0.07
758	0.07
758	0.07
759	0.07
759	0.069
760	0.069
760	0.069
761	0.069
761	0.069
761	0.069
762	0.069
762	0.069
763	0.069
763	0.068
764	0.068
764	0.068
764	0.068
765	0.068
765	0.067
766	0.067
766	0.067
767	0.067
767	0.066
768	0.066
768	0.066
768	0.067
769	0.067
769	0.067
770	0.068
770	0.068
771	0.068
771	0.068
771	0.068
772	0.068
772	0.068
773	0.068
773	0.067
774	0.067
774	0.067
775	0.067
775	0.067
775	0.067
776	0.067
776	0.068
777	0.068
777	0.068
778	0.068
778	0.068
778	0.067
779	0.067
779	0.067
780	0.065
780	0.065
781	0.064
781	0.064
781	0.063
782	0.063
782	0.063
783	0.063
783	0.064
784	0.064
784	0.064
784	0.065
785	0.065
785	0.065
786	0.065
786	0.066
787	0.066
787	0.065
788	0.065
788	0.064
788	0.064
789	0.063
789	0.063
790	0.063
790	0.062
791	0.061
791	0.061
791	0.06
792	0.061
792	0.06
793	0.06
793	0.06
794	0.059
794	0.059
794	0.059
795	0.059
795	0.059
796	0.059
796	0.059
797	0.059
797	0.059
797	0.06
798	0.06
798	0.061
799	0.061
799	0.06
800	0.06
800	0.059
801	0.059
801	0.059
801	0.058
802	0.058
802	0.058
803	0.057
803	0.057
804	0.057
804	0.058
804	0.058
805	0.058
805	0.058
806	0.058
806	0.058
807	0.058
807	0.058
807	0.058
808	0.058
808	0.058
809	0.057
809	0.058
810	0.058
810	0.058
810	0.058
811	0.058
811	0.058
812	0.059
812	0.059
813	0.059
813	0.06
813	0.06
814	0.06
814	0.06
815	0.06
815	0.06
816	0.06
816	0.059
817	0.059
817	0.058
817	0.058
818	0.058
818	0.058
819	0.057
819	0.057
820	0.056
820	0.056
820	0.055
821	0.056
821	0.056
822	0.056
822	0.056
823	0.056
823	0.056
823	0.056
824	0.057
824	0.058
825	0.059
825	0.06
826	0.06
826	0.06
826	0.061
827	0.061
827	0.061
828	0.061
828	0.061
829	0.061
829	0.061
829	0.061
830	0.06
830	0.061
831	0.061
831	0.062
832	0.061
832	0.061
832	0.061
833	0.061
833	0.06
834	0.06
834	0.059
835	0.058
835	0.057
835	0.056
836	0.055
836	0.055
837	0.054
837	0.054
838	0.054
838	0.053
839	0.053
839	0.053
839	0.052
840	0.052
840	0.051
841	0.05
841	0.05
842	0.05
842	0.049
842	0.049
843	0.049
843	0.049
844	0.05
844	0.05
845	0.051
845	0.051
845	0.052
846	0.053
846	0.053
847	0.053
847	0.053
848	0.053
848	0.053
848	0.053
849	0.052
849	0.052
850	0.051
850	0.051
851	0.05
851	0.05
851	0.049
852	0.049
852	0.048
853	0.048
853	0.048
854	0.048
854	0.048
854	0.049
855	0.049
855	0.05
856	0.051
856	0.051
857	0.052
857	0.053
857	0.053
858	0.054
858	0.054
859	0.053
859	0.053
860	0.053
860	0.052
860	0.051
861	0.051
861	0.05
862	0.049
862	0.048
863	0.048
863	0.047
863	0.047
864	0.047
864	0.047
865	0.047
865	0.047
866	0.047
866	0.047
866	0.047
867	0.047
867	0.047
868	0.047
868	0.047
869	0.047
869	0.046
869	0.045
870	0.045
870	0.045
871	0.044
871	0.044
872	0.044
872	0.044
872	0.044
873	0.044
873	0.044
874	0.044
874	0.044
875	0.044
875	0.044
875	0.044
876	0.044
876	0.044
877	0.043
877	0.044
878	0.044
878	0.044
878	0.045
879	0.045
879	0.045
880	0.046
880	0.046
881	0.046
881	0.046
881	0.046
882	0.046
882	0.046
883	0.045
883	0.045
884	0.045
884	0.045
884	0.045
885	0.045
885	0.045
886	0.045
886	0.045
887	0.044
887	0.044
887	0.044
888	0.043
888	0.043
889	0.043
889	0.043
890	0.043
890	0.043
890	0.043
891	0.042
891	0.042
892	0.042
892	0.043
893	0.043
893	0.043
893	0.042
894	0.042
894	0.042
895	0.041
895	0.041
895	0.041
896	0.041
896	0.041
897	0.04
897	0.04
898	0.04
898	0.039
898	0.039
899	0.039
899	0.039
900	0.039
900	0.039
901	0.039
901	0.039
901	0.039
902	0.039
902	0.038
903	0.038
903	0.038
904	0.038
904	0.038
904	0.038
905	0.038
905	0.038
906	0.038
906	0.039
907	0.04
907	0.041
907	0.041
908	0.042
908	0.043
909	0.043
909	0.044
910	0.045
910	0.045
910	0.046
911	0.046
911	0.046
912	0.046
912	0.046
913	0.046
913	0.046
913	0.046
914	0.046
914	0.046
915	0.046
915	0.046
916	0.045
916	0.045
916	0.044
917	0.044
917	0.043
918	0.043
918	0.043
918	0.042
919	0.042
919	0.041
920	0.041
920	0.041
921	0.041
921	0.041
921	0.041
922	0.041
922	0.042
923	0.042
923	0.042
924	0.043
924	0.043
924	0.044
925	0.044
925	0.044
926	0.044
926	0.044
927	0.043
927	0.043
927	0.043
928	0.043
928	0.043
929	0.042
929	0.043
930	0.043
930	0.043
930	0.043
931	0.043
931	0.043
932	0.044
932	0.044
933	0.044
933	0.044
933	0.044
934	0.044
934	0.044
935	0.044
935	0.044
935	0.043
936	0.043
936	0.043
937	0.043
937	0.042
938	0.042
938	0.041
938	0.04
939	0.04
939	0.039
940	0.039
940	0.038
941	0.038
941	0.037
941	0.037
942	0.037
942	0.037
943	0.038
943	0.038
944	0.038
944	0.038
944	0.039
945	0.039
945	0.04
946	0.04
946	0.041
946	0.041
947	0.042
947	0.042
948	0.043
948	0.043
949	0.044
949	0.044
949	0.044
950	0.044
950	0.044
951	0.044
951	0.043
952	0.043
952	0.042
952	0.041
953	0.041
953	0.04
954	0.039
954	0.038
955	0.038
955	0.037
955	0.037
956	0.037
956	0.037
957	0.037
957	0.037
957	0.037
958	0.037
958	0.037
959	0.038
959	0.038
960	0.039
960	0.039
960	0.039
961	0.039
961	0.04
962	0.04
962	0.04
963	0.04
963	0.04
963	0.04
964	0.04
964	0.04
965	0.04
965	0.04
966	0.04
966	0.04
966	0.041
967	0.041
967	0.041
968	0.042
968	0.042
968	0.042
969	0.042
969	0.042
970	0.041
970	0.041
971	0.041
971	0.04
971	0.04
972	0.039
972	0.039
973	0.038
973	0.038
974	0.038
974	0.037
974	0.037
975	0.037
975	0.037
976	0.038
976	0.038
976	0.038
977	0.038
977	0.038
978	0.038
978	0.038
979	0.038
979	0.038
979	0.039
980	0.039
980	0.039
981	0.039
981	0.039
982	0.039
982	0.039
982	0.039
983	0.04
983	0.04
984	0.04
984	0.04
984	0.04
985	0.04
985	0.04
986	0.04
986	0.04
987	0.04
987	0.039
987	0.039
988	0.039
988	0.039
989	0.038
989	0.038
990	0.037
990	0.037
990	0.036
991	0.036
991	0.035
992	0.035
992	0.034
992	0.034
993	0.033
993	0.033
994	0.032
994	0.032
995	0.032
995	0.032
995	0.032
996	0.032
996	0.033
997	0.033
997	0.034
997	0.034
998	0.035
998	0.036
999	0.036
999	0.037
1000	0.038
1000	0.038
1000	0.038
1001	0.039
1001	0.039
1002	0.038
1002	0.038
1003	0.037
1003	0.037
1003	0.036
1004	0.035
1004	0.034
1005	0.033
1005	0.032
1005	0.031
1006	0.03
1006	0.03
1007	0.029
1007	0.029
1008	0.029
1008	0.03
1008	0.03
1009	0.03
1009	0.031
1010	0.031
1010	0.031
1010	0.032
1011	0.032
1011	0.032
1012	0.032
1012	0.032
1013	0.032
1013	0.032
1013	0.032
1014	0.032
1014	0.032
1015	0.032
1015	0.032
1016	0.032
1016	0.032
1016	0.032
1017	0.031
1017	0.031
1018	0.031
1018	0.03
1018	0.03
1019	0.03
1019	0.03
1020	0.029
1020	0.029
1021	0.03
1021	0.03
1021	0.03
1022	0.03
1022	0.03
1023	0.03
1023	0.03
1023	0.031
1024	0.031
1024	0.031
1025	0.031
1025	0.031
1026	0.031
1026	0.031
1026	0.031
1027	0.031
1027	0.032
1028	0.032
1028	0.032
1028	0.032
1029	0.032
1029	0.032
1030	0.033
1030	0.033
1031	0.033
1031	0.033
1031	0.033
1032	0.033
1032	0.034
1033	0.034
1033	0.034
1033	0.034
1034	0.034
1034	0.034
1035	0.033
1035	0.033
1036	0.033
1036	0.032
1036	0.032
1037	0.032
1037	0.031
1038	0.031
1038	0.031
1039	0.03
1039	0.03
1039	0.03
1040	0.031
1040	0.031
1041	0.031
1041	0.031
1041	0.031
1042	0.032
1042	0.032
1043	0.032
1043	0.033
1044	0.033
1044	0.033
1044	0.034
1045	0.034
1045	0.035
1046	0.035
1046	0.036
1046	0.036
1047	0.037
1047	0.037
1048	0.038
1048	0.038
1049	0.039
1049	0.039
1049	0.039
1050	0.039
1050	0.039
1051	0.039
1051	0.039
1051	0.039
1052	0.038
1052	0.038
1053	0.037
1053	0.036
1053	0.036
1054	0.035
1054	0.035
1055	0.035
1055	0.034
1056	0.033
1056	0.033
1056	0.032
1057	0.031
1057	0.03
1058	0.03
1058	0.029
1058	0.028
1059	0.027
1059	0.027
1060	0.026
1060	0.026
1061	0.026
1061	0.025
1061	0.026
1062	0.026
1062	0.026
1063	0.026
1063	0.026
1063	0.026
1064	0.026
1064	0.026
1065	0.026
1065	0.026
1066	0.026
1066	0.026
1066	0.026
1067	0.026
1067	0.026
1068	0.026
1068	0.026
1068	0.026
1069	0.027
1069	0.026
1070	0.026
1070	0.026
1071	0.025
1071	0.025
1071	0.025
1072	0.025
1072	0.025
1073	0.024
1073	0.023
1073	0.023
1074	0.024
1074	0.024
1075	0.024
1075	0.024
1076	0.024
1076	0.025
1076	0.024
1077	0.025
1077	0.025
1078	0.025
1078	0.025
1078	0.025
1079	0.025
1079	0.024
1080	0.024
1080	0.024
1080	0.023
1081	0.023
1081	0.023
1082	0.023
1082	0.024
1083	0.023
1083	0.023
1083	0.024
1084	0.024
1084	0.024
1085	0.024
1085	0.024
1085	0.025
1086	0.025
1086	0.025
1087	0.024
1087	0.024
1088	0.024
1088	0.024
1088	0.024
1089	0.023
1089	0.023
1090	0.022
1090	0.022
1090	0.021
1091	0.02
1091	0.02
1092	0.021
1092	0.021
1092	0.021
1093	0.02
1093	0.02
1094	0.019
1094	0.019
1095	0.019
1095	0.019
1095	0.019
1096	0.018
1096	0.017
1097	0.017
1097	0.016
1097	0.016
1098	0.017
1098	0.016
1099	0.016
1099	0.015
1100	0.015
1100	0.015
1100	0.014
1101	0.014
1101	0.014
1102	0.013
1102	0.013
1102	0.012
1103	0.012
1103	0.012
1104	0.011
1104	0.012
1104	0.011
1105	0.01
1105	0.009
1106	0.008
1106	0.007
1107	0.006
1107	0.005
1107	0.004
1108	0.002
1108	0.002
1109	-0
1109	-0.001
1109	0.001
1110	0.002
1110	0.001
1111	0
1111	-0
