Data from reversibility-20sec_Absorbance__7468__000000000007468.txt Node

Date: Thu Dec 07 05:42:26 CET 2023
User: Marek
Spectrometer: MAYP115816
Trigger mode: 0
Integration Time (sec): 2.000000E-1
Scans to average: 10
Electric dark correction enabled: true
Nonlinearity correction enabled: true
Boxcar width: 5
XAxis mode: Wavelengths
Number of Pixels in Spectrum: 2068
>>>>>Begin Spectral Data<<<<<
199	-0.098
199	-0.078
200	-0.007
200	0.044
201	0.071
201	0.088
202	0.091
202	0.104
203	0.11
203	0.115
204	0.129
204	0.141
205	0.154
205	0.157
205	0.155
206	0.155
206	0.156
207	0.161
207	0.157
208	0.156
208	0.156
209	0.157
209	0.155
210	0.154
210	0.155
211	0.156
211	0.159
212	0.155
212	0.157
213	0.159
213	0.162
213	0.16
214	0.161
214	0.167
215	0.17
215	0.17
216	0.172
216	0.171
217	0.176
217	0.178
218	0.178
218	0.181
219	0.188
219	0.189
220	0.19
220	0.193
221	0.194
221	0.197
221	0.202
222	0.207
222	0.208
223	0.216
223	0.219
224	0.225
224	0.234
225	0.243
225	0.253
226	0.262
226	0.272
227	0.28
227	0.29
228	0.306
228	0.317
229	0.333
229	0.353
229	0.375
230	0.398
230	0.423
231	0.454
231	0.491
232	0.53
232	0.575
233	0.617
233	0.67
234	0.722
234	0.775
235	0.829
235	0.882
236	0.934
236	0.989
236	1.039
237	1.09
237	1.135
238	1.183
238	1.228
239	1.274
239	1.314
240	1.349
240	1.386
241	1.421
241	1.452
242	1.484
242	1.515
243	1.545
243	1.57
243	1.595
244	1.614
244	1.635
245	1.654
245	1.675
246	1.692
246	1.711
247	1.723
247	1.735
248	1.749
248	1.761
249	1.769
249	1.777
250	1.784
250	1.792
250	1.795
251	1.798
251	1.8
252	1.803
252	1.804
253	1.804
253	1.801
254	1.8
254	1.798
255	1.795
255	1.794
256	1.792
256	1.792
257	1.79
257	1.789
258	1.788
258	1.787
258	1.785
259	1.785
259	1.786
260	1.786
260	1.788
261	1.789
261	1.791
262	1.794
262	1.796
263	1.798
263	1.797
264	1.8
264	1.8
265	1.801
265	1.803
265	1.802
266	1.801
266	1.802
267	1.799
267	1.8
268	1.798
268	1.8
269	1.8
269	1.8
270	1.799
270	1.797
271	1.795
271	1.795
272	1.792
272	1.789
272	1.785
273	1.781
273	1.774
274	1.769
274	1.762
275	1.754
275	1.747
276	1.739
276	1.731
277	1.723
277	1.713
278	1.7
278	1.688
278	1.673
279	1.656
279	1.635
280	1.609
280	1.577
281	1.54
281	1.499
282	1.455
282	1.41
283	1.366
283	1.324
284	1.283
284	1.243
285	1.206
285	1.172
285	1.141
286	1.114
286	1.091
287	1.071
287	1.053
288	1.039
288	1.026
289	1.015
289	1.006
290	0.998
290	0.991
291	0.985
291	0.98
292	0.975
292	0.97
292	0.966
293	0.962
293	0.959
294	0.956
294	0.953
295	0.949
295	0.946
296	0.943
296	0.94
297	0.937
297	0.934
298	0.931
298	0.927
298	0.924
299	0.921
299	0.918
300	0.916
300	0.913
301	0.91
301	0.907
302	0.905
302	0.903
303	0.9
303	0.898
304	0.896
304	0.894
305	0.892
305	0.89
305	0.887
306	0.885
306	0.883
307	0.88
307	0.878
308	0.875
308	0.873
309	0.87
309	0.867
310	0.864
310	0.861
311	0.858
311	0.855
311	0.851
312	0.848
312	0.844
313	0.84
313	0.837
314	0.833
314	0.829
315	0.825
315	0.821
316	0.817
316	0.812
317	0.808
317	0.803
318	0.798
318	0.792
318	0.787
319	0.782
319	0.776
320	0.771
320	0.765
321	0.759
321	0.753
322	0.746
322	0.74
323	0.733
323	0.727
324	0.721
324	0.714
324	0.707
325	0.7
325	0.693
326	0.686
326	0.679
327	0.672
327	0.665
328	0.659
328	0.652
329	0.644
329	0.637
330	0.63
330	0.623
330	0.616
331	0.609
331	0.602
332	0.594
332	0.588
333	0.58
333	0.573
334	0.566
334	0.56
335	0.553
335	0.545
336	0.539
336	0.532
336	0.525
337	0.519
337	0.512
338	0.506
338	0.5
339	0.494
339	0.488
340	0.482
340	0.476
341	0.47
341	0.465
342	0.459
342	0.454
342	0.448
343	0.443
343	0.438
344	0.433
344	0.428
345	0.423
345	0.418
346	0.413
346	0.409
347	0.404
347	0.4
348	0.396
348	0.392
348	0.388
349	0.384
349	0.381
350	0.377
350	0.374
351	0.37
351	0.367
352	0.364
352	0.361
353	0.358
353	0.355
354	0.352
354	0.349
354	0.346
355	0.343
355	0.34
356	0.338
356	0.335
357	0.332
357	0.329
358	0.326
358	0.324
359	0.322
359	0.319
360	0.317
360	0.315
360	0.314
361	0.312
361	0.31
362	0.309
362	0.307
363	0.305
363	0.303
364	0.301
364	0.299
365	0.297
365	0.296
366	0.294
366	0.292
366	0.291
367	0.289
367	0.287
368	0.286
368	0.284
369	0.283
369	0.282
370	0.28
370	0.279
371	0.278
371	0.276
372	0.275
372	0.274
372	0.273
373	0.272
373	0.271
374	0.27
374	0.269
375	0.269
375	0.268
376	0.267
376	0.266
377	0.265
377	0.264
378	0.263
378	0.263
378	0.262
379	0.261
379	0.26
380	0.259
380	0.259
381	0.258
381	0.257
382	0.257
382	0.256
383	0.256
383	0.255
383	0.255
384	0.255
384	0.254
385	0.254
385	0.254
386	0.253
386	0.253
387	0.253
387	0.252
388	0.252
388	0.252
389	0.251
389	0.251
389	0.251
390	0.25
390	0.25
391	0.25
391	0.249
392	0.249
392	0.249
393	0.249
393	0.248
394	0.248
394	0.248
394	0.247
395	0.247
395	0.247
396	0.246
396	0.246
397	0.245
397	0.245
398	0.245
398	0.244
399	0.244
399	0.244
400	0.243
400	0.243
400	0.243
401	0.243
401	0.243
402	0.243
402	0.243
403	0.242
403	0.242
404	0.242
404	0.242
405	0.241
405	0.241
405	0.241
406	0.241
406	0.24
407	0.24
407	0.24
408	0.24
408	0.239
409	0.239
409	0.239
410	0.239
410	0.238
411	0.238
411	0.238
411	0.237
412	0.237
412	0.237
413	0.237
413	0.236
414	0.236
414	0.236
415	0.236
415	0.235
416	0.235
416	0.235
416	0.234
417	0.234
417	0.234
418	0.234
418	0.233
419	0.233
419	0.232
420	0.232
420	0.231
421	0.231
421	0.231
421	0.23
422	0.23
422	0.229
423	0.229
423	0.229
424	0.228
424	0.228
425	0.228
425	0.228
426	0.228
426	0.227
427	0.227
427	0.227
427	0.226
428	0.226
428	0.226
429	0.225
429	0.225
430	0.224
430	0.224
431	0.224
431	0.224
432	0.224
432	0.224
432	0.223
433	0.223
433	0.223
434	0.223
434	0.223
435	0.223
435	0.223
436	0.223
436	0.222
437	0.222
437	0.222
437	0.221
438	0.221
438	0.221
439	0.22
439	0.22
440	0.219
440	0.219
441	0.219
441	0.218
442	0.218
442	0.218
442	0.218
443	0.218
443	0.218
444	0.217
444	0.217
445	0.217
445	0.217
446	0.217
446	0.217
447	0.216
447	0.216
447	0.216
448	0.216
448	0.216
449	0.216
449	0.216
450	0.215
450	0.215
451	0.215
451	0.215
452	0.215
452	0.214
452	0.214
453	0.214
453	0.214
454	0.213
454	0.213
455	0.213
455	0.213
456	0.212
456	0.212
457	0.212
457	0.212
458	0.211
458	0.211
458	0.211
459	0.211
459	0.211
460	0.21
460	0.21
461	0.21
461	0.21
462	0.21
462	0.21
463	0.209
463	0.209
463	0.209
464	0.209
464	0.208
465	0.208
465	0.208
466	0.207
466	0.207
467	0.207
467	0.207
467	0.207
468	0.207
468	0.207
469	0.207
469	0.207
470	0.207
470	0.207
471	0.207
471	0.207
472	0.207
472	0.207
472	0.207
473	0.207
473	0.206
474	0.206
474	0.206
475	0.206
475	0.206
476	0.206
476	0.206
477	0.206
477	0.206
477	0.206
478	0.205
478	0.206
479	0.206
479	0.206
480	0.206
480	0.206
481	0.206
481	0.205
482	0.205
482	0.206
482	0.206
483	0.206
483	0.206
484	0.206
484	0.206
485	0.205
485	0.205
486	0.205
486	0.205
487	0.205
487	0.205
487	0.205
488	0.205
488	0.205
489	0.205
489	0.205
490	0.206
490	0.206
491	0.207
491	0.207
492	0.208
492	0.208
492	0.209
493	0.209
493	0.21
494	0.21
494	0.21
495	0.21
495	0.21
496	0.211
496	0.211
496	0.211
497	0.212
497	0.212
498	0.212
498	0.212
499	0.212
499	0.213
500	0.213
500	0.214
501	0.214
501	0.214
501	0.214
502	0.214
502	0.214
503	0.215
503	0.215
504	0.216
504	0.216
505	0.216
505	0.216
506	0.217
506	0.217
506	0.218
507	0.218
507	0.219
508	0.219
508	0.219
509	0.22
509	0.22
510	0.22
510	0.221
511	0.221
511	0.221
511	0.222
512	0.222
512	0.222
513	0.223
513	0.223
514	0.224
514	0.224
515	0.224
515	0.225
515	0.225
516	0.225
516	0.226
517	0.226
517	0.226
518	0.227
518	0.227
519	0.227
519	0.227
520	0.227
520	0.227
520	0.228
521	0.228
521	0.228
522	0.228
522	0.228
523	0.229
523	0.229
524	0.229
524	0.229
524	0.229
525	0.23
525	0.23
526	0.23
526	0.23
527	0.23
527	0.23
528	0.23
528	0.231
529	0.231
529	0.231
529	0.23
530	0.23
530	0.23
531	0.23
531	0.23
532	0.23
532	0.229
533	0.229
533	0.229
533	0.229
534	0.229
534	0.229
535	0.229
535	0.229
536	0.229
536	0.229
537	0.229
537	0.228
538	0.228
538	0.228
538	0.228
539	0.228
539	0.228
540	0.228
540	0.228
541	0.228
541	0.228
542	0.228
542	0.228
542	0.228
543	0.228
543	0.228
544	0.227
544	0.227
545	0.227
545	0.227
546	0.227
546	0.226
547	0.226
547	0.225
547	0.224
548	0.224
548	0.224
549	0.223
549	0.223
550	0.223
550	0.223
551	0.222
551	0.222
551	0.222
552	0.222
552	0.222
553	0.221
553	0.221
554	0.221
554	0.22
555	0.219
555	0.219
556	0.219
556	0.218
556	0.218
557	0.218
557	0.218
558	0.219
558	0.219
559	0.219
559	0.219
560	0.219
560	0.219
560	0.218
561	0.218
561	0.217
562	0.217
562	0.216
563	0.215
563	0.214
564	0.214
564	0.213
564	0.213
565	0.213
565	0.213
566	0.212
566	0.212
567	0.212
567	0.212
568	0.212
568	0.212
568	0.212
569	0.211
569	0.211
570	0.21
570	0.209
571	0.208
571	0.208
572	0.207
572	0.207
573	0.206
573	0.206
573	0.205
574	0.205
574	0.205
575	0.205
575	0.205
576	0.205
576	0.204
577	0.203
577	0.203
577	0.203
578	0.203
578	0.202
579	0.202
579	0.203
580	0.202
580	0.202
581	0.201
581	0.201
581	0.201
582	0.201
582	0.201
583	0.201
583	0.201
584	0.2
584	0.199
585	0.198
585	0.198
585	0.198
586	0.198
586	0.198
587	0.197
587	0.197
588	0.197
588	0.196
589	0.196
589	0.196
590	0.196
590	0.196
590	0.196
591	0.196
591	0.196
592	0.195
592	0.194
593	0.194
593	0.194
594	0.193
594	0.193
594	0.192
595	0.192
595	0.191
596	0.191
596	0.191
597	0.192
597	0.192
598	0.192
598	0.192
598	0.192
599	0.192
599	0.192
600	0.191
600	0.191
601	0.191
601	0.191
602	0.19
602	0.19
602	0.189
603	0.189
603	0.189
604	0.19
604	0.189
605	0.189
605	0.189
606	0.188
606	0.188
606	0.187
607	0.187
607	0.186
608	0.186
608	0.185
609	0.185
609	0.185
610	0.184
610	0.184
610	0.184
611	0.184
611	0.184
612	0.184
612	0.185
613	0.185
613	0.185
614	0.185
614	0.185
614	0.185
615	0.185
615	0.185
616	0.186
616	0.186
617	0.185
617	0.185
618	0.185
618	0.185
618	0.185
619	0.185
619	0.185
620	0.185
620	0.185
621	0.184
621	0.184
622	0.183
622	0.183
622	0.182
623	0.182
623	0.182
624	0.181
624	0.181
625	0.181
625	0.181
626	0.18
626	0.18
626	0.181
627	0.181
627	0.181
628	0.181
628	0.181
629	0.181
629	0.18
630	0.18
630	0.18
630	0.18
631	0.18
631	0.179
632	0.179
632	0.179
633	0.179
633	0.178
634	0.178
634	0.179
634	0.179
635	0.178
635	0.178
636	0.178
636	0.178
637	0.178
637	0.178
638	0.177
638	0.177
638	0.177
639	0.176
639	0.176
640	0.176
640	0.176
641	0.176
641	0.175
642	0.175
642	0.176
642	0.176
643	0.176
643	0.176
644	0.177
644	0.177
645	0.177
645	0.177
646	0.178
646	0.178
646	0.178
647	0.177
647	0.177
648	0.176
648	0.176
649	0.175
649	0.175
650	0.175
650	0.175
650	0.175
651	0.175
651	0.175
652	0.175
652	0.175
653	0.176
653	0.177
653	0.182
654	0.144
654	0.115
655	0.115
655	0.116
656	0.116
656	0.116
657	0.117
657	0.117
657	0.117
658	0.116
658	0.107
659	0.135
659	0.173
660	0.178
660	0.178
661	0.177
661	0.177
661	0.177
662	0.176
662	0.176
663	0.175
663	0.174
664	0.174
664	0.174
665	0.174
665	0.173
665	0.173
666	0.173
666	0.173
667	0.173
667	0.174
668	0.174
668	0.174
669	0.174
669	0.175
669	0.175
670	0.175
670	0.175
671	0.175
671	0.175
672	0.175
672	0.174
672	0.174
673	0.173
673	0.173
674	0.173
674	0.172
675	0.172
675	0.172
676	0.173
676	0.173
676	0.173
677	0.173
677	0.173
678	0.173
678	0.173
679	0.173
679	0.173
680	0.173
680	0.173
680	0.173
681	0.174
681	0.174
682	0.175
682	0.175
683	0.175
683	0.176
684	0.176
684	0.175
684	0.175
685	0.175
685	0.176
686	0.175
686	0.175
687	0.175
687	0.175
687	0.175
688	0.175
688	0.175
689	0.176
689	0.176
690	0.176
690	0.176
691	0.176
691	0.176
691	0.176
692	0.176
692	0.176
693	0.177
693	0.177
694	0.177
694	0.177
695	0.178
695	0.179
695	0.179
696	0.179
696	0.179
697	0.179
697	0.179
698	0.179
698	0.179
698	0.179
699	0.179
699	0.179
700	0.178
700	0.178
701	0.178
701	0.177
702	0.177
702	0.177
702	0.176
703	0.176
703	0.176
704	0.175
704	0.175
705	0.175
705	0.175
705	0.175
706	0.175
706	0.175
707	0.176
707	0.176
708	0.176
708	0.176
709	0.176
709	0.176
709	0.176
710	0.176
710	0.176
711	0.177
711	0.177
712	0.177
712	0.177
713	0.177
713	0.177
713	0.177
714	0.177
714	0.177
715	0.176
715	0.176
716	0.175
716	0.175
716	0.174
717	0.173
717	0.173
718	0.173
718	0.173
719	0.174
719	0.175
720	0.175
720	0.177
720	0.178
721	0.178
721	0.18
722	0.181
722	0.181
723	0.181
723	0.181
723	0.181
724	0.181
724	0.18
725	0.179
725	0.178
726	0.177
726	0.177
727	0.176
727	0.176
727	0.176
728	0.176
728	0.176
729	0.176
729	0.176
730	0.177
730	0.177
730	0.178
731	0.178
731	0.179
732	0.179
732	0.179
733	0.179
733	0.18
734	0.18
734	0.18
734	0.18
735	0.18
735	0.18
736	0.179
736	0.179
737	0.179
737	0.179
737	0.179
738	0.178
738	0.178
739	0.178
739	0.178
740	0.178
740	0.178
741	0.179
741	0.179
741	0.179
742	0.18
742	0.181
743	0.182
743	0.182
744	0.183
744	0.184
744	0.184
745	0.184
745	0.184
746	0.184
746	0.184
747	0.184
747	0.184
748	0.184
748	0.184
748	0.184
749	0.184
749	0.184
750	0.185
750	0.185
751	0.185
751	0.185
751	0.185
752	0.185
752	0.185
753	0.184
753	0.184
754	0.184
754	0.183
754	0.183
755	0.183
755	0.183
756	0.182
756	0.181
757	0.181
757	0.181
758	0.181
758	0.181
758	0.181
759	0.182
759	0.182
760	0.181
760	0.181
761	0.182
761	0.183
761	0.183
762	0.183
762	0.184
763	0.184
763	0.184
764	0.184
764	0.184
764	0.184
765	0.184
765	0.183
766	0.183
766	0.183
767	0.183
767	0.182
768	0.181
768	0.181
768	0.182
769	0.182
769	0.182
770	0.183
770	0.183
771	0.184
771	0.184
771	0.185
772	0.185
772	0.186
773	0.186
773	0.186
774	0.187
774	0.187
775	0.188
775	0.188
775	0.188
776	0.189
776	0.19
777	0.19
777	0.191
778	0.191
778	0.19
778	0.19
779	0.19
779	0.189
780	0.188
780	0.187
781	0.186
781	0.185
781	0.184
782	0.183
782	0.183
783	0.183
783	0.183
784	0.183
784	0.184
784	0.185
785	0.185
785	0.186
786	0.187
786	0.187
787	0.188
787	0.188
788	0.188
788	0.189
788	0.189
789	0.189
789	0.189
790	0.189
790	0.189
791	0.189
791	0.189
791	0.189
792	0.19
792	0.189
793	0.189
793	0.188
794	0.188
794	0.187
794	0.187
795	0.187
795	0.187
796	0.187
796	0.187
797	0.186
797	0.187
797	0.187
798	0.187
798	0.188
799	0.188
799	0.188
800	0.188
800	0.188
801	0.188
801	0.189
801	0.189
802	0.189
802	0.19
803	0.19
803	0.191
804	0.191
804	0.192
804	0.192
805	0.192
805	0.192
806	0.192
806	0.192
807	0.192
807	0.192
807	0.192
808	0.192
808	0.192
809	0.191
809	0.191
810	0.191
810	0.191
810	0.191
811	0.191
811	0.192
812	0.192
812	0.193
813	0.193
813	0.193
813	0.194
814	0.195
814	0.195
815	0.195
815	0.196
816	0.195
816	0.195
817	0.194
817	0.194
817	0.194
818	0.193
818	0.193
819	0.193
819	0.192
820	0.192
820	0.191
820	0.191
821	0.191
821	0.191
822	0.191
822	0.191
823	0.191
823	0.191
823	0.192
824	0.193
824	0.194
825	0.195
825	0.196
826	0.197
826	0.197
826	0.198
827	0.199
827	0.199
828	0.199
828	0.2
829	0.2
829	0.2
829	0.2
830	0.201
830	0.201
831	0.202
831	0.203
832	0.203
832	0.203
832	0.203
833	0.203
833	0.202
834	0.202
834	0.201
835	0.201
835	0.2
835	0.199
836	0.199
836	0.198
837	0.197
837	0.197
838	0.196
838	0.195
839	0.195
839	0.194
839	0.193
840	0.192
840	0.191
841	0.19
841	0.19
842	0.189
842	0.188
842	0.188
843	0.188
843	0.187
844	0.187
844	0.187
845	0.187
845	0.187
845	0.187
846	0.187
846	0.187
847	0.188
847	0.188
848	0.189
848	0.189
848	0.189
849	0.189
849	0.188
850	0.188
850	0.188
851	0.187
851	0.187
851	0.186
852	0.186
852	0.186
853	0.186
853	0.186
854	0.186
854	0.187
854	0.188
855	0.189
855	0.19
856	0.191
856	0.192
857	0.193
857	0.194
857	0.195
858	0.195
858	0.195
859	0.195
859	0.195
860	0.195
860	0.194
860	0.194
861	0.193
861	0.192
862	0.191
862	0.191
863	0.19
863	0.19
863	0.19
864	0.19
864	0.19
865	0.19
865	0.19
866	0.191
866	0.191
866	0.191
867	0.191
867	0.191
868	0.192
868	0.192
869	0.192
869	0.192
869	0.191
870	0.191
870	0.19
871	0.19
871	0.19
872	0.19
872	0.189
872	0.189
873	0.188
873	0.188
874	0.187
874	0.187
875	0.187
875	0.187
875	0.187
876	0.187
876	0.186
877	0.186
877	0.186
878	0.186
878	0.186
878	0.186
879	0.186
879	0.186
880	0.186
880	0.186
881	0.186
881	0.186
881	0.186
882	0.185
882	0.185
883	0.185
883	0.186
884	0.186
884	0.186
884	0.186
885	0.186
885	0.186
886	0.186
886	0.186
887	0.185
887	0.185
887	0.184
888	0.184
888	0.184
889	0.184
889	0.183
890	0.184
890	0.184
890	0.184
891	0.184
891	0.184
892	0.184
892	0.183
893	0.183
893	0.182
893	0.182
894	0.181
894	0.18
895	0.179
895	0.179
895	0.179
896	0.179
896	0.179
897	0.179
897	0.18
898	0.18
898	0.18
898	0.18
899	0.18
899	0.18
900	0.18
900	0.18
901	0.18
901	0.179
901	0.179
902	0.179
902	0.178
903	0.178
903	0.178
904	0.177
904	0.177
904	0.176
905	0.176
905	0.175
906	0.175
906	0.175
907	0.175
907	0.175
907	0.175
908	0.175
908	0.175
909	0.174
909	0.174
910	0.174
910	0.173
910	0.173
911	0.172
911	0.172
912	0.171
912	0.171
913	0.17
913	0.17
913	0.169
914	0.169
914	0.169
915	0.169
915	0.168
916	0.168
916	0.168
916	0.168
917	0.168
917	0.167
918	0.167
918	0.166
918	0.166
919	0.166
919	0.165
920	0.165
920	0.164
921	0.164
921	0.164
921	0.163
922	0.163
922	0.163
923	0.163
923	0.164
924	0.164
924	0.164
924	0.164
925	0.165
925	0.165
926	0.165
926	0.165
927	0.165
927	0.165
927	0.165
928	0.165
928	0.166
929	0.166
929	0.166
930	0.166
930	0.166
930	0.166
931	0.166
931	0.166
932	0.166
932	0.166
933	0.166
933	0.165
933	0.165
934	0.164
934	0.164
935	0.163
935	0.163
935	0.162
936	0.162
936	0.161
937	0.16
937	0.16
938	0.159
938	0.158
938	0.158
939	0.157
939	0.156
940	0.156
940	0.155
941	0.155
941	0.155
941	0.155
942	0.156
942	0.156
943	0.156
943	0.156
944	0.156
944	0.156
944	0.157
945	0.157
945	0.158
946	0.158
946	0.158
946	0.158
947	0.159
947	0.159
948	0.159
948	0.159
949	0.159
949	0.158
949	0.157
950	0.157
950	0.156
951	0.155
951	0.154
952	0.152
952	0.151
952	0.15
953	0.149
953	0.148
954	0.148
954	0.147
955	0.147
955	0.147
955	0.147
956	0.147
956	0.148
957	0.149
957	0.15
957	0.151
958	0.151
958	0.152
959	0.152
959	0.153
960	0.153
960	0.153
960	0.153
961	0.152
961	0.152
962	0.152
962	0.151
963	0.151
963	0.15
963	0.15
964	0.15
964	0.149
965	0.149
965	0.149
966	0.149
966	0.149
966	0.149
967	0.149
967	0.149
968	0.149
968	0.149
968	0.148
969	0.148
969	0.147
970	0.146
970	0.145
971	0.145
971	0.144
971	0.143
972	0.142
972	0.141
973	0.141
973	0.14
974	0.14
974	0.14
974	0.141
975	0.141
975	0.142
976	0.143
976	0.144
976	0.144
977	0.145
977	0.145
978	0.145
978	0.146
979	0.146
979	0.146
979	0.146
980	0.146
980	0.146
981	0.145
981	0.145
982	0.145
982	0.145
982	0.144
983	0.144
983	0.144
984	0.144
984	0.143
984	0.143
985	0.143
985	0.143
986	0.142
986	0.142
987	0.142
987	0.141
987	0.141
988	0.141
988	0.14
989	0.14
989	0.14
990	0.139
990	0.139
990	0.138
991	0.138
991	0.138
992	0.137
992	0.136
992	0.135
993	0.134
993	0.133
994	0.132
994	0.131
995	0.13
995	0.129
995	0.129
996	0.129
996	0.128
997	0.129
997	0.129
997	0.129
998	0.13
998	0.13
999	0.131
999	0.131
1000	0.132
1000	0.132
1000	0.133
1001	0.133
1001	0.133
1002	0.133
1002	0.133
1003	0.133
1003	0.133
1003	0.132
1004	0.132
1004	0.131
1005	0.131
1005	0.131
1005	0.13
1006	0.13
1006	0.13
1007	0.129
1007	0.129
1008	0.129
1008	0.128
1008	0.128
1009	0.128
1009	0.128
1010	0.127
1010	0.127
1010	0.127
1011	0.126
1011	0.126
1012	0.125
1012	0.125
1013	0.124
1013	0.124
1013	0.123
1014	0.123
1014	0.123
1015	0.123
1015	0.123
1016	0.123
1016	0.123
1016	0.123
1017	0.123
1017	0.123
1018	0.123
1018	0.122
1018	0.122
1019	0.122
1019	0.122
1020	0.122
1020	0.122
1021	0.123
1021	0.123
1021	0.123
1022	0.124
1022	0.124
1023	0.124
1023	0.124
1023	0.124
1024	0.124
1024	0.124
1025	0.124
1025	0.124
1026	0.124
1026	0.123
1026	0.123
1027	0.123
1027	0.123
1028	0.123
1028	0.123
1028	0.123
1029	0.123
1029	0.123
1030	0.123
1030	0.123
1031	0.123
1031	0.123
1031	0.123
1032	0.123
1032	0.123
1033	0.123
1033	0.123
1033	0.123
1034	0.124
1034	0.123
1035	0.123
1035	0.123
1036	0.123
1036	0.123
1036	0.122
1037	0.122
1037	0.122
1038	0.121
1038	0.121
1039	0.121
1039	0.12
1039	0.12
1040	0.12
1040	0.12
1041	0.12
1041	0.119
1041	0.119
1042	0.119
1042	0.118
1043	0.118
1043	0.118
1044	0.117
1044	0.117
1044	0.117
1045	0.117
1045	0.116
1046	0.116
1046	0.116
1046	0.116
1047	0.115
1047	0.115
1048	0.115
1048	0.115
1049	0.115
1049	0.115
1049	0.115
1050	0.114
1050	0.114
1051	0.114
1051	0.113
1051	0.113
1052	0.113
1052	0.112
1053	0.111
1053	0.11
1053	0.11
1054	0.109
1054	0.109
1055	0.108
1055	0.108
1056	0.107
1056	0.107
1056	0.106
1057	0.106
1057	0.105
1058	0.105
1058	0.104
1058	0.103
1059	0.103
1059	0.103
1060	0.102
1060	0.102
1061	0.101
1061	0.101
1061	0.101
1062	0.101
1062	0.101
1063	0.101
1063	0.101
1063	0.1
1064	0.1
1064	0.1
1065	0.1
1065	0.1
1066	0.1
1066	0.1
1066	0.1
1067	0.1
1067	0.1
1068	0.1
1068	0.1
1068	0.1
1069	0.099
1069	0.099
1070	0.099
1070	0.099
1071	0.098
1071	0.099
1071	0.098
1072	0.098
1072	0.098
1073	0.098
1073	0.098
1073	0.098
1074	0.098
1074	0.098
1075	0.098
1075	0.099
1076	0.099
1076	0.1
1076	0.1
1077	0.1
1077	0.1
1078	0.1
1078	0.101
1078	0.101
1079	0.101
1079	0.101
1080	0.1
1080	0.1
1080	0.1
1081	0.1
1081	0.1
1082	0.1
1082	0.1
1083	0.1
1083	0.1
1083	0.1
1084	0.1
1084	0.1
1085	0.1
1085	0.1
1085	0.1
1086	0.1
1086	0.099
1087	0.099
1087	0.098
1088	0.098
1088	0.098
1088	0.097
1089	0.096
1089	0.096
1090	0.095
1090	0.094
1090	0.093
1091	0.093
1091	0.092
1092	0.092
1092	0.092
1092	0.092
1093	0.091
1093	0.091
1094	0.091
1094	0.09
1095	0.089
1095	0.089
1095	0.089
1096	0.088
1096	0.087
1097	0.086
1097	0.085
1097	0.084
1098	0.083
1098	0.082
1099	0.081
1099	0.081
1100	0.079
1100	0.078
1100	0.077
1101	0.077
1101	0.077
1102	0.077
1102	0.076
1102	0.076
1103	0.075
1103	0.075
1104	0.075
1104	0.075
1104	0.074
1105	0.073
1105	0.071
1106	0.071
1106	0.07
1107	0.069
1107	0.068
1107	0.069
1108	0.067
1108	0.067
1109	0.065
1109	0.066
1109	0.067
1110	0.07
1110	0.069
1111	0.067
1111	0.066
