Data from reversibility-20sec_Absorbance__5336__000000000005336.txt Node

Date: Wed Dec 06 17:51:46 CET 2023
User: Marek
Spectrometer: MAYP115816
Trigger mode: 0
Integration Time (sec): 2.000000E-1
Scans to average: 10
Electric dark correction enabled: true
Nonlinearity correction enabled: true
Boxcar width: 5
XAxis mode: Wavelengths
Number of Pixels in Spectrum: 2068
>>>>>Begin Spectral Data<<<<<
199	-0.183
199	-0.145
200	-0.079
200	-0.024
201	0.009
201	0.029
202	0.042
202	0.052
203	0.06
203	0.063
204	0.075
204	0.088
205	0.102
205	0.11
205	0.108
206	0.107
206	0.107
207	0.108
207	0.108
208	0.107
208	0.106
209	0.11
209	0.109
210	0.107
210	0.107
211	0.107
211	0.108
212	0.107
212	0.107
213	0.109
213	0.11
213	0.11
214	0.115
214	0.115
215	0.116
215	0.11
216	0.113
216	0.112
217	0.114
217	0.115
218	0.112
218	0.116
219	0.12
219	0.119
220	0.123
220	0.124
221	0.13
221	0.132
221	0.137
222	0.144
222	0.148
223	0.156
223	0.159
224	0.166
224	0.174
225	0.182
225	0.192
226	0.198
226	0.209
227	0.221
227	0.228
228	0.245
228	0.257
229	0.273
229	0.295
229	0.318
230	0.338
230	0.368
231	0.4
231	0.436
232	0.47
232	0.514
233	0.557
233	0.609
234	0.658
234	0.71
235	0.761
235	0.817
236	0.868
236	0.923
236	0.977
237	1.03
237	1.078
238	1.125
238	1.172
239	1.218
239	1.261
240	1.302
240	1.34
241	1.375
241	1.408
242	1.439
242	1.47
243	1.498
243	1.525
243	1.549
244	1.57
244	1.591
245	1.608
245	1.63
246	1.649
246	1.666
247	1.678
247	1.693
248	1.707
248	1.719
249	1.728
249	1.735
250	1.743
250	1.751
250	1.754
251	1.757
251	1.76
252	1.765
252	1.763
253	1.765
253	1.762
254	1.76
254	1.761
255	1.758
255	1.759
256	1.759
256	1.758
257	1.757
257	1.755
258	1.754
258	1.754
258	1.755
259	1.755
259	1.755
260	1.756
260	1.757
261	1.757
261	1.761
262	1.764
262	1.767
263	1.771
263	1.772
264	1.775
264	1.777
265	1.779
265	1.78
265	1.78
266	1.78
266	1.778
267	1.777
267	1.778
268	1.777
268	1.778
269	1.779
269	1.778
270	1.778
270	1.777
271	1.776
271	1.775
272	1.773
272	1.769
272	1.765
273	1.759
273	1.751
274	1.745
274	1.738
275	1.729
275	1.723
276	1.715
276	1.708
277	1.7
277	1.691
278	1.68
278	1.668
278	1.653
279	1.635
279	1.613
280	1.586
280	1.553
281	1.516
281	1.473
282	1.429
282	1.384
283	1.341
283	1.298
284	1.257
284	1.218
285	1.182
285	1.149
285	1.12
286	1.094
286	1.072
287	1.052
287	1.036
288	1.022
288	1.01
289	1
289	0.992
290	0.984
290	0.977
291	0.972
291	0.967
292	0.963
292	0.959
292	0.955
293	0.952
293	0.949
294	0.946
294	0.943
295	0.94
295	0.937
296	0.935
296	0.932
297	0.929
297	0.926
298	0.923
298	0.921
298	0.918
299	0.916
299	0.913
300	0.911
300	0.908
301	0.906
301	0.903
302	0.901
302	0.899
303	0.897
303	0.894
304	0.892
304	0.89
305	0.888
305	0.886
305	0.883
306	0.881
306	0.879
307	0.877
307	0.874
308	0.872
308	0.87
309	0.867
309	0.865
310	0.862
310	0.859
311	0.856
311	0.853
311	0.85
312	0.847
312	0.844
313	0.84
313	0.836
314	0.833
314	0.829
315	0.825
315	0.821
316	0.817
316	0.813
317	0.808
317	0.804
318	0.799
318	0.794
318	0.789
319	0.784
319	0.779
320	0.773
320	0.767
321	0.761
321	0.755
322	0.749
322	0.743
323	0.736
323	0.73
324	0.724
324	0.718
324	0.711
325	0.704
325	0.698
326	0.691
326	0.684
327	0.678
327	0.671
328	0.664
328	0.657
329	0.65
329	0.643
330	0.636
330	0.63
330	0.623
331	0.616
331	0.609
332	0.602
332	0.595
333	0.588
333	0.582
334	0.575
334	0.568
335	0.561
335	0.555
336	0.548
336	0.542
336	0.535
337	0.529
337	0.523
338	0.516
338	0.51
339	0.504
339	0.498
340	0.493
340	0.487
341	0.482
341	0.476
342	0.471
342	0.465
342	0.46
343	0.455
343	0.45
344	0.445
344	0.441
345	0.436
345	0.431
346	0.427
346	0.422
347	0.418
347	0.414
348	0.41
348	0.406
348	0.403
349	0.399
349	0.395
350	0.392
350	0.388
351	0.385
351	0.382
352	0.378
352	0.376
353	0.373
353	0.37
354	0.367
354	0.364
354	0.361
355	0.358
355	0.355
356	0.353
356	0.35
357	0.347
357	0.344
358	0.342
358	0.339
359	0.337
359	0.335
360	0.333
360	0.331
360	0.329
361	0.327
361	0.326
362	0.324
362	0.323
363	0.321
363	0.319
364	0.318
364	0.316
365	0.314
365	0.312
366	0.311
366	0.309
366	0.307
367	0.306
367	0.304
368	0.303
368	0.301
369	0.3
369	0.298
370	0.297
370	0.296
371	0.294
371	0.293
372	0.292
372	0.291
372	0.29
373	0.289
373	0.288
374	0.287
374	0.286
375	0.285
375	0.284
376	0.283
376	0.283
377	0.282
377	0.281
378	0.28
378	0.279
378	0.279
379	0.278
379	0.277
380	0.277
380	0.276
381	0.276
381	0.275
382	0.274
382	0.274
383	0.273
383	0.273
383	0.272
384	0.272
384	0.271
385	0.271
385	0.27
386	0.27
386	0.269
387	0.269
387	0.268
388	0.268
388	0.268
389	0.267
389	0.267
389	0.266
390	0.266
390	0.266
391	0.265
391	0.265
392	0.265
392	0.265
393	0.264
393	0.264
394	0.264
394	0.263
394	0.263
395	0.262
395	0.262
396	0.262
396	0.262
397	0.261
397	0.261
398	0.261
398	0.261
399	0.26
399	0.26
400	0.26
400	0.26
400	0.26
401	0.259
401	0.259
402	0.259
402	0.259
403	0.259
403	0.258
404	0.258
404	0.258
405	0.258
405	0.258
405	0.257
406	0.257
406	0.257
407	0.256
407	0.256
408	0.256
408	0.255
409	0.255
409	0.255
410	0.255
410	0.255
411	0.254
411	0.254
411	0.254
412	0.254
412	0.253
413	0.253
413	0.253
414	0.252
414	0.252
415	0.252
415	0.251
416	0.251
416	0.251
416	0.251
417	0.25
417	0.25
418	0.25
418	0.249
419	0.249
419	0.248
420	0.248
420	0.247
421	0.247
421	0.247
421	0.246
422	0.246
422	0.246
423	0.245
423	0.245
424	0.245
424	0.244
425	0.244
425	0.244
426	0.244
426	0.243
427	0.243
427	0.243
427	0.242
428	0.242
428	0.242
429	0.242
429	0.241
430	0.241
430	0.241
431	0.241
431	0.241
432	0.241
432	0.24
432	0.24
433	0.24
433	0.24
434	0.239
434	0.239
435	0.239
435	0.239
436	0.238
436	0.238
437	0.238
437	0.238
437	0.238
438	0.237
438	0.237
439	0.237
439	0.237
440	0.237
440	0.237
441	0.236
441	0.236
442	0.236
442	0.236
442	0.236
443	0.235
443	0.235
444	0.235
444	0.235
445	0.235
445	0.234
446	0.234
446	0.234
447	0.233
447	0.233
447	0.233
448	0.233
448	0.233
449	0.232
449	0.232
450	0.232
450	0.232
451	0.231
451	0.231
452	0.231
452	0.231
452	0.231
453	0.231
453	0.231
454	0.231
454	0.23
455	0.23
455	0.23
456	0.23
456	0.229
457	0.229
457	0.229
458	0.229
458	0.229
458	0.229
459	0.228
459	0.228
460	0.228
460	0.227
461	0.227
461	0.227
462	0.226
462	0.226
463	0.226
463	0.225
463	0.225
464	0.225
464	0.224
465	0.224
465	0.224
466	0.224
466	0.224
467	0.224
467	0.224
467	0.224
468	0.224
468	0.224
469	0.224
469	0.224
470	0.224
470	0.224
471	0.224
471	0.223
472	0.223
472	0.223
472	0.224
473	0.223
473	0.223
474	0.223
474	0.223
475	0.223
475	0.223
476	0.223
476	0.224
477	0.223
477	0.223
477	0.223
478	0.223
478	0.223
479	0.223
479	0.223
480	0.223
480	0.223
481	0.223
481	0.223
482	0.223
482	0.223
482	0.223
483	0.224
483	0.224
484	0.224
484	0.224
485	0.224
485	0.224
486	0.224
486	0.224
487	0.224
487	0.224
487	0.224
488	0.224
488	0.224
489	0.225
489	0.225
490	0.226
490	0.226
491	0.227
491	0.227
492	0.227
492	0.228
492	0.228
493	0.228
493	0.229
494	0.229
494	0.229
495	0.23
495	0.23
496	0.23
496	0.231
496	0.231
497	0.231
497	0.232
498	0.232
498	0.232
499	0.233
499	0.233
500	0.234
500	0.234
501	0.235
501	0.235
501	0.235
502	0.235
502	0.235
503	0.236
503	0.236
504	0.237
504	0.237
505	0.237
505	0.238
506	0.238
506	0.238
506	0.238
507	0.239
507	0.239
508	0.24
508	0.24
509	0.24
509	0.241
510	0.241
510	0.241
511	0.242
511	0.243
511	0.243
512	0.244
512	0.244
513	0.245
513	0.245
514	0.246
514	0.246
515	0.247
515	0.247
515	0.247
516	0.248
516	0.248
517	0.249
517	0.249
518	0.25
518	0.25
519	0.25
519	0.25
520	0.251
520	0.251
520	0.251
521	0.251
521	0.251
522	0.251
522	0.251
523	0.252
523	0.252
524	0.252
524	0.252
524	0.252
525	0.253
525	0.252
526	0.253
526	0.253
527	0.253
527	0.253
528	0.253
528	0.253
529	0.253
529	0.253
529	0.253
530	0.253
530	0.253
531	0.253
531	0.253
532	0.253
532	0.252
533	0.252
533	0.252
533	0.252
534	0.252
534	0.252
535	0.252
535	0.253
536	0.252
536	0.253
537	0.253
537	0.253
538	0.253
538	0.253
538	0.252
539	0.253
539	0.252
540	0.252
540	0.252
541	0.251
541	0.251
542	0.251
542	0.25
542	0.25
543	0.25
543	0.249
544	0.249
544	0.249
545	0.249
545	0.249
546	0.249
546	0.248
547	0.248
547	0.248
547	0.247
548	0.247
548	0.247
549	0.247
549	0.247
550	0.246
550	0.246
551	0.245
551	0.245
551	0.245
552	0.244
552	0.244
553	0.243
553	0.243
554	0.243
554	0.242
555	0.241
555	0.241
556	0.24
556	0.24
556	0.24
557	0.24
557	0.24
558	0.24
558	0.239
559	0.24
559	0.24
560	0.239
560	0.239
560	0.239
561	0.239
561	0.238
562	0.238
562	0.237
563	0.236
563	0.236
564	0.235
564	0.234
564	0.234
565	0.234
565	0.234
566	0.233
566	0.233
567	0.233
567	0.233
568	0.233
568	0.233
568	0.233
569	0.233
569	0.232
570	0.231
570	0.23
571	0.23
571	0.23
572	0.229
572	0.228
573	0.228
573	0.228
573	0.227
574	0.227
574	0.227
575	0.227
575	0.227
576	0.227
576	0.227
577	0.226
577	0.225
577	0.225
578	0.225
578	0.224
579	0.225
579	0.225
580	0.224
580	0.223
581	0.222
581	0.222
581	0.222
582	0.222
582	0.222
583	0.222
583	0.222
584	0.221
584	0.22
585	0.22
585	0.22
585	0.219
586	0.219
586	0.218
587	0.218
587	0.217
588	0.216
588	0.216
589	0.216
589	0.216
590	0.216
590	0.216
590	0.216
591	0.217
591	0.216
592	0.216
592	0.215
593	0.215
593	0.215
594	0.215
594	0.214
594	0.213
595	0.213
595	0.213
596	0.212
596	0.212
597	0.213
597	0.213
598	0.213
598	0.213
598	0.213
599	0.213
599	0.212
600	0.212
600	0.211
601	0.211
601	0.21
602	0.21
602	0.209
602	0.209
603	0.209
603	0.209
604	0.209
604	0.209
605	0.209
605	0.209
606	0.209
606	0.208
606	0.208
607	0.208
607	0.208
608	0.207
608	0.207
609	0.206
609	0.206
610	0.206
610	0.205
610	0.205
611	0.205
611	0.205
612	0.205
612	0.205
613	0.205
613	0.205
614	0.205
614	0.204
614	0.205
615	0.205
615	0.204
616	0.205
616	0.205
617	0.205
617	0.204
618	0.204
618	0.205
618	0.205
619	0.205
619	0.205
620	0.205
620	0.205
621	0.204
621	0.204
622	0.204
622	0.203
622	0.203
623	0.202
623	0.202
624	0.202
624	0.201
625	0.201
625	0.201
626	0.201
626	0.2
626	0.2
627	0.2
627	0.2
628	0.199
628	0.199
629	0.198
629	0.198
630	0.197
630	0.197
630	0.197
631	0.196
631	0.196
632	0.196
632	0.196
633	0.196
633	0.196
634	0.197
634	0.197
634	0.197
635	0.197
635	0.197
636	0.197
636	0.197
637	0.197
637	0.197
638	0.197
638	0.196
638	0.196
639	0.196
639	0.195
640	0.195
640	0.195
641	0.195
641	0.194
642	0.194
642	0.194
642	0.195
643	0.195
643	0.194
644	0.195
644	0.194
645	0.194
645	0.194
646	0.194
646	0.195
646	0.195
647	0.194
647	0.194
648	0.194
648	0.193
649	0.193
649	0.193
650	0.193
650	0.193
650	0.193
651	0.192
651	0.192
652	0.192
652	0.192
653	0.193
653	0.194
653	0.201
654	0.158
654	0.126
655	0.127
655	0.127
656	0.128
656	0.128
657	0.128
657	0.129
657	0.129
658	0.127
658	0.116
659	0.147
659	0.189
660	0.194
660	0.194
661	0.194
661	0.193
661	0.193
662	0.192
662	0.192
663	0.192
663	0.192
664	0.192
664	0.192
665	0.191
665	0.191
665	0.192
666	0.192
666	0.192
667	0.192
667	0.193
668	0.193
668	0.193
669	0.194
669	0.194
669	0.195
670	0.195
670	0.195
671	0.195
671	0.195
672	0.195
672	0.195
672	0.195
673	0.195
673	0.195
674	0.194
674	0.194
675	0.193
675	0.193
676	0.193
676	0.193
676	0.192
677	0.192
677	0.192
678	0.192
678	0.191
679	0.191
679	0.191
680	0.191
680	0.191
680	0.191
681	0.192
681	0.192
682	0.193
682	0.193
683	0.194
683	0.195
684	0.196
684	0.195
684	0.195
685	0.196
685	0.196
686	0.196
686	0.196
687	0.195
687	0.195
687	0.195
688	0.194
688	0.194
689	0.194
689	0.195
690	0.194
690	0.194
691	0.194
691	0.194
691	0.194
692	0.194
692	0.194
693	0.194
693	0.195
694	0.194
694	0.194
695	0.195
695	0.196
695	0.196
696	0.196
696	0.196
697	0.196
697	0.195
698	0.195
698	0.195
698	0.195
699	0.195
699	0.194
700	0.194
700	0.194
701	0.195
701	0.195
702	0.195
702	0.195
702	0.196
703	0.196
703	0.196
704	0.196
704	0.196
705	0.196
705	0.196
705	0.196
706	0.197
706	0.197
707	0.197
707	0.197
708	0.197
708	0.198
709	0.198
709	0.198
709	0.198
710	0.198
710	0.198
711	0.198
711	0.198
712	0.198
712	0.198
713	0.198
713	0.198
713	0.198
714	0.197
714	0.197
715	0.197
715	0.197
716	0.196
716	0.196
716	0.196
717	0.196
717	0.195
718	0.195
718	0.195
719	0.195
719	0.196
720	0.196
720	0.197
720	0.197
721	0.198
721	0.198
722	0.199
722	0.2
723	0.2
723	0.201
723	0.201
724	0.201
724	0.201
725	0.2
725	0.2
726	0.199
726	0.199
727	0.199
727	0.198
727	0.198
728	0.197
728	0.197
729	0.197
729	0.197
730	0.197
730	0.197
730	0.197
731	0.198
731	0.198
732	0.199
732	0.199
733	0.199
733	0.199
734	0.2
734	0.2
734	0.201
735	0.201
735	0.201
736	0.201
736	0.201
737	0.201
737	0.202
737	0.202
738	0.201
738	0.201
739	0.201
739	0.2
740	0.2
740	0.2
741	0.2
741	0.2
741	0.2
742	0.2
742	0.2
743	0.201
743	0.202
744	0.203
744	0.203
744	0.204
745	0.204
745	0.204
746	0.205
746	0.205
747	0.205
747	0.206
748	0.205
748	0.205
748	0.205
749	0.204
749	0.204
750	0.204
750	0.203
751	0.203
751	0.202
751	0.202
752	0.202
752	0.201
753	0.2
753	0.2
754	0.2
754	0.2
754	0.2
755	0.2
755	0.201
756	0.2
756	0.2
757	0.2
757	0.2
758	0.2
758	0.201
758	0.201
759	0.202
759	0.202
760	0.202
760	0.202
761	0.203
761	0.204
761	0.204
762	0.204
762	0.205
763	0.205
763	0.204
764	0.204
764	0.204
764	0.204
765	0.204
765	0.203
766	0.203
766	0.203
767	0.202
767	0.201
768	0.201
768	0.201
768	0.201
769	0.201
769	0.201
770	0.202
770	0.202
771	0.203
771	0.203
771	0.204
772	0.205
772	0.206
773	0.206
773	0.206
774	0.206
774	0.207
775	0.207
775	0.207
775	0.207
776	0.208
776	0.208
777	0.208
777	0.208
778	0.208
778	0.208
778	0.208
779	0.208
779	0.208
780	0.207
780	0.207
781	0.207
781	0.207
781	0.207
782	0.207
782	0.208
783	0.208
783	0.209
784	0.209
784	0.21
784	0.211
785	0.211
785	0.212
786	0.212
786	0.213
787	0.213
787	0.212
788	0.211
788	0.211
788	0.21
789	0.209
789	0.208
790	0.207
790	0.207
791	0.206
791	0.205
791	0.205
792	0.205
792	0.206
793	0.206
793	0.206
794	0.206
794	0.206
794	0.206
795	0.207
795	0.207
796	0.208
796	0.208
797	0.208
797	0.209
797	0.209
798	0.209
798	0.21
799	0.21
799	0.21
800	0.21
800	0.21
801	0.21
801	0.21
801	0.21
802	0.21
802	0.21
803	0.21
803	0.21
804	0.211
804	0.211
804	0.211
805	0.211
805	0.211
806	0.211
806	0.211
807	0.211
807	0.21
807	0.21
808	0.211
808	0.211
809	0.21
809	0.211
810	0.211
810	0.211
810	0.212
811	0.212
811	0.213
812	0.214
812	0.214
813	0.214
813	0.215
813	0.215
814	0.216
814	0.217
815	0.218
815	0.218
816	0.219
816	0.218
817	0.218
817	0.218
817	0.218
818	0.218
818	0.218
819	0.218
819	0.217
820	0.217
820	0.216
820	0.216
821	0.216
821	0.216
822	0.216
822	0.216
823	0.216
823	0.216
823	0.216
824	0.217
824	0.217
825	0.218
825	0.219
826	0.219
826	0.219
826	0.219
827	0.219
827	0.219
828	0.22
828	0.22
829	0.22
829	0.22
829	0.22
830	0.22
830	0.221
831	0.222
831	0.222
832	0.222
832	0.222
832	0.222
833	0.222
833	0.222
834	0.221
834	0.221
835	0.221
835	0.221
835	0.221
836	0.221
836	0.221
837	0.22
837	0.22
838	0.22
838	0.22
839	0.219
839	0.218
839	0.217
840	0.216
840	0.215
841	0.214
841	0.213
842	0.212
842	0.211
842	0.211
843	0.21
843	0.21
844	0.209
844	0.209
845	0.208
845	0.208
845	0.208
846	0.208
846	0.208
847	0.208
847	0.209
848	0.209
848	0.21
848	0.211
849	0.211
849	0.212
850	0.213
850	0.213
851	0.214
851	0.214
851	0.215
852	0.214
852	0.214
853	0.214
853	0.213
854	0.213
854	0.214
854	0.214
855	0.215
855	0.215
856	0.215
856	0.216
857	0.217
857	0.217
857	0.218
858	0.218
858	0.218
859	0.217
859	0.216
860	0.216
860	0.215
860	0.214
861	0.214
861	0.213
862	0.212
862	0.211
863	0.211
863	0.21
863	0.21
864	0.21
864	0.21
865	0.211
865	0.211
866	0.211
866	0.211
866	0.211
867	0.212
867	0.212
868	0.213
868	0.213
869	0.214
869	0.214
869	0.213
870	0.214
870	0.214
871	0.214
871	0.214
872	0.214
872	0.214
872	0.214
873	0.214
873	0.213
874	0.212
874	0.212
875	0.212
875	0.211
875	0.211
876	0.21
876	0.21
877	0.21
877	0.209
878	0.209
878	0.209
878	0.21
879	0.21
879	0.21
880	0.21
880	0.21
881	0.21
881	0.21
881	0.21
882	0.21
882	0.21
883	0.209
883	0.209
884	0.209
884	0.209
884	0.209
885	0.209
885	0.208
886	0.208
886	0.207
887	0.207
887	0.206
887	0.205
888	0.204
888	0.204
889	0.203
889	0.203
890	0.203
890	0.203
890	0.203
891	0.203
891	0.203
892	0.203
892	0.203
893	0.203
893	0.203
893	0.203
894	0.203
894	0.203
895	0.203
895	0.203
895	0.203
896	0.203
896	0.203
897	0.203
897	0.203
898	0.203
898	0.202
898	0.202
899	0.202
899	0.201
900	0.201
900	0.2
901	0.2
901	0.199
901	0.199
902	0.198
902	0.197
903	0.196
903	0.196
904	0.195
904	0.194
904	0.194
905	0.193
905	0.193
906	0.193
906	0.193
907	0.193
907	0.193
907	0.193
908	0.193
908	0.193
909	0.192
909	0.192
910	0.192
910	0.191
910	0.191
911	0.191
911	0.19
912	0.19
912	0.19
913	0.19
913	0.19
913	0.19
914	0.191
914	0.191
915	0.191
915	0.191
916	0.191
916	0.191
916	0.191
917	0.191
917	0.191
918	0.19
918	0.19
918	0.189
919	0.189
919	0.189
920	0.188
920	0.188
921	0.188
921	0.187
921	0.187
922	0.187
922	0.187
923	0.187
923	0.187
924	0.187
924	0.188
924	0.188
925	0.188
925	0.189
926	0.189
926	0.19
927	0.19
927	0.19
927	0.19
928	0.19
928	0.19
929	0.189
929	0.189
930	0.188
930	0.187
930	0.186
931	0.185
931	0.184
932	0.183
932	0.182
933	0.182
933	0.181
933	0.181
934	0.18
934	0.18
935	0.18
935	0.18
935	0.18
936	0.18
936	0.179
937	0.179
937	0.179
938	0.179
938	0.178
938	0.178
939	0.177
939	0.176
940	0.176
940	0.175
941	0.175
941	0.174
941	0.174
942	0.174
942	0.174
943	0.174
943	0.173
944	0.173
944	0.173
944	0.174
945	0.174
945	0.174
946	0.174
946	0.174
946	0.174
947	0.174
947	0.174
948	0.174
948	0.174
949	0.174
949	0.173
949	0.173
950	0.172
950	0.172
951	0.172
951	0.171
952	0.17
952	0.17
952	0.169
953	0.169
953	0.169
954	0.169
954	0.169
955	0.169
955	0.168
955	0.168
956	0.168
956	0.168
957	0.168
957	0.167
957	0.167
958	0.167
958	0.166
959	0.165
959	0.165
960	0.164
960	0.164
960	0.164
961	0.163
961	0.163
962	0.162
962	0.162
963	0.162
963	0.162
963	0.163
964	0.163
964	0.163
965	0.164
965	0.164
966	0.164
966	0.163
966	0.163
967	0.163
967	0.162
968	0.162
968	0.162
968	0.161
969	0.16
969	0.159
970	0.159
970	0.158
971	0.157
971	0.156
971	0.156
972	0.155
972	0.154
973	0.154
973	0.153
974	0.153
974	0.153
974	0.153
975	0.153
975	0.153
976	0.153
976	0.153
976	0.153
977	0.153
977	0.153
978	0.153
978	0.153
979	0.153
979	0.152
979	0.152
980	0.152
980	0.151
981	0.15
981	0.15
982	0.149
982	0.149
982	0.149
983	0.149
983	0.148
984	0.148
984	0.147
984	0.147
985	0.147
985	0.147
986	0.147
986	0.147
987	0.146
987	0.146
987	0.146
988	0.146
988	0.145
989	0.145
989	0.144
990	0.144
990	0.143
990	0.143
991	0.142
991	0.141
992	0.141
992	0.14
992	0.139
993	0.138
993	0.138
994	0.137
994	0.136
995	0.135
995	0.135
995	0.135
996	0.135
996	0.135
997	0.135
997	0.136
997	0.136
998	0.137
998	0.138
999	0.138
999	0.139
1000	0.14
1000	0.14
1000	0.14
1001	0.141
1001	0.14
1002	0.14
1002	0.14
1003	0.139
1003	0.138
1003	0.138
1004	0.137
1004	0.136
1005	0.136
1005	0.135
1005	0.134
1006	0.134
1006	0.133
1007	0.133
1007	0.133
1008	0.133
1008	0.133
1008	0.133
1009	0.134
1009	0.134
1010	0.134
1010	0.134
1010	0.135
1011	0.135
1011	0.134
1012	0.134
1012	0.134
1013	0.134
1013	0.134
1013	0.134
1014	0.133
1014	0.133
1015	0.132
1015	0.132
1016	0.132
1016	0.132
1016	0.131
1017	0.131
1017	0.13
1018	0.13
1018	0.129
1018	0.128
1019	0.128
1019	0.127
1020	0.127
1020	0.126
1021	0.126
1021	0.127
1021	0.127
1022	0.127
1022	0.127
1023	0.127
1023	0.127
1023	0.128
1024	0.128
1024	0.128
1025	0.128
1025	0.128
1026	0.128
1026	0.127
1026	0.128
1027	0.128
1027	0.128
1028	0.127
1028	0.127
1028	0.127
1029	0.127
1029	0.128
1030	0.128
1030	0.128
1031	0.128
1031	0.128
1031	0.128
1032	0.128
1032	0.128
1033	0.128
1033	0.128
1033	0.128
1034	0.128
1034	0.128
1035	0.128
1035	0.128
1036	0.127
1036	0.127
1036	0.127
1037	0.127
1037	0.126
1038	0.126
1038	0.126
1039	0.126
1039	0.125
1039	0.125
1040	0.125
1040	0.125
1041	0.125
1041	0.125
1041	0.125
1042	0.125
1042	0.125
1043	0.125
1043	0.125
1044	0.124
1044	0.124
1044	0.124
1045	0.124
1045	0.124
1046	0.124
1046	0.123
1046	0.124
1047	0.124
1047	0.124
1048	0.124
1048	0.124
1049	0.124
1049	0.124
1049	0.123
1050	0.123
1050	0.122
1051	0.121
1051	0.121
1051	0.12
1052	0.119
1052	0.118
1053	0.117
1053	0.116
1053	0.115
1054	0.114
1054	0.114
1055	0.113
1055	0.113
1056	0.112
1056	0.111
1056	0.111
1057	0.11
1057	0.11
1058	0.109
1058	0.108
1058	0.107
1059	0.107
1059	0.106
1060	0.106
1060	0.105
1061	0.104
1061	0.104
1061	0.103
1062	0.103
1062	0.103
1063	0.103
1063	0.103
1063	0.102
1064	0.102
1064	0.102
1065	0.101
1065	0.101
1066	0.102
1066	0.101
1066	0.101
1067	0.101
1067	0.1
1068	0.1
1068	0.1
1068	0.1
1069	0.099
1069	0.098
1070	0.098
1070	0.097
1071	0.096
1071	0.096
1071	0.095
1072	0.094
1072	0.093
1073	0.093
1073	0.092
1073	0.092
1074	0.092
1074	0.092
1075	0.092
1075	0.092
1076	0.092
1076	0.093
1076	0.093
1077	0.093
1077	0.093
1078	0.092
1078	0.092
1078	0.092
1079	0.091
1079	0.091
1080	0.09
1080	0.09
1080	0.09
1081	0.089
1081	0.09
1082	0.09
1082	0.09
1083	0.09
1083	0.089
1083	0.09
1084	0.089
1084	0.089
1085	0.089
1085	0.088
1085	0.088
1086	0.088
1086	0.088
1087	0.087
1087	0.087
1088	0.086
1088	0.086
1088	0.086
1089	0.085
1089	0.085
1090	0.084
1090	0.083
1090	0.081
1091	0.081
1091	0.081
1092	0.081
1092	0.081
1092	0.081
1093	0.08
1093	0.08
1094	0.08
1094	0.08
1095	0.08
1095	0.08
1095	0.08
1096	0.079
1096	0.078
1097	0.077
1097	0.076
1097	0.076
1098	0.075
1098	0.073
1099	0.072
1099	0.07
1100	0.068
1100	0.067
1100	0.065
1101	0.065
1101	0.063
1102	0.063
1102	0.061
1102	0.06
1103	0.059
1103	0.059
1104	0.059
1104	0.058
1104	0.057
1105	0.056
1105	0.054
1106	0.053
1106	0.051
1107	0.05
1107	0.048
1107	0.047
1108	0.046
1108	0.045
1109	0.043
1109	0.041
1109	0.04
1110	0.041
1110	0.038
1111	0.037
1111	0.035
