Data from reversibility-20sec_Absorbance__4206__000000000004206.txt Node

Date: Wed Dec 06 11:35:06 CET 2023
User: Marek
Spectrometer: MAYP115816
Trigger mode: 0
Integration Time (sec): 2.000000E-1
Scans to average: 10
Electric dark correction enabled: true
Nonlinearity correction enabled: true
Boxcar width: 5
XAxis mode: Wavelengths
Number of Pixels in Spectrum: 2068
>>>>>Begin Spectral Data<<<<<
199	-0.145
199	-0.11
200	-0.044
200	0.009
201	0.036
201	0.055
202	0.066
202	0.075
203	0.083
203	0.087
204	0.099
204	0.115
205	0.127
205	0.134
205	0.133
206	0.133
206	0.133
207	0.136
207	0.135
208	0.136
208	0.135
209	0.138
209	0.136
210	0.136
210	0.136
211	0.137
211	0.138
212	0.136
212	0.139
213	0.139
213	0.141
213	0.14
214	0.143
214	0.143
215	0.145
215	0.145
216	0.146
216	0.145
217	0.15
217	0.15
218	0.149
218	0.152
219	0.158
219	0.157
220	0.164
220	0.163
221	0.165
221	0.167
221	0.172
222	0.177
222	0.182
223	0.191
223	0.193
224	0.194
224	0.204
225	0.209
225	0.219
226	0.228
226	0.238
227	0.247
227	0.254
228	0.269
228	0.282
229	0.298
229	0.326
229	0.348
230	0.374
230	0.403
231	0.433
231	0.473
232	0.512
232	0.556
233	0.598
233	0.647
234	0.697
234	0.747
235	0.801
235	0.853
236	0.903
236	0.957
236	1.009
237	1.059
237	1.108
238	1.154
238	1.202
239	1.251
239	1.293
240	1.333
240	1.369
241	1.406
241	1.439
242	1.47
242	1.504
243	1.534
243	1.559
243	1.584
244	1.605
244	1.624
245	1.641
245	1.663
246	1.681
246	1.698
247	1.71
247	1.723
248	1.736
248	1.751
249	1.76
249	1.766
250	1.774
250	1.78
250	1.782
251	1.785
251	1.786
252	1.791
252	1.79
253	1.79
253	1.785
254	1.784
254	1.783
255	1.781
255	1.781
256	1.779
256	1.778
257	1.778
257	1.775
258	1.774
258	1.774
258	1.775
259	1.772
259	1.773
260	1.772
260	1.773
261	1.774
261	1.776
262	1.78
262	1.782
263	1.784
263	1.784
264	1.786
264	1.788
265	1.789
265	1.789
265	1.791
266	1.791
266	1.791
267	1.789
267	1.789
268	1.789
268	1.791
269	1.792
269	1.793
270	1.792
270	1.791
271	1.788
271	1.788
272	1.784
272	1.782
272	1.777
273	1.77
273	1.761
274	1.753
274	1.745
275	1.737
275	1.73
276	1.722
276	1.714
277	1.705
277	1.694
278	1.683
278	1.672
278	1.658
279	1.639
279	1.618
280	1.589
280	1.556
281	1.516
281	1.473
282	1.428
282	1.383
283	1.339
283	1.297
284	1.256
284	1.218
285	1.181
285	1.148
285	1.119
286	1.094
286	1.072
287	1.054
287	1.038
288	1.024
288	1.012
289	1.003
289	0.994
290	0.987
290	0.981
291	0.975
291	0.97
292	0.966
292	0.962
292	0.958
293	0.955
293	0.952
294	0.949
294	0.946
295	0.943
295	0.941
296	0.938
296	0.936
297	0.934
297	0.931
298	0.928
298	0.926
298	0.923
299	0.92
299	0.918
300	0.916
300	0.913
301	0.911
301	0.908
302	0.906
302	0.904
303	0.902
303	0.9
304	0.898
304	0.896
305	0.894
305	0.891
305	0.889
306	0.887
306	0.885
307	0.883
307	0.881
308	0.878
308	0.876
309	0.873
309	0.871
310	0.868
310	0.866
311	0.863
311	0.86
311	0.857
312	0.853
312	0.85
313	0.847
313	0.843
314	0.84
314	0.836
315	0.832
315	0.828
316	0.824
316	0.82
317	0.815
317	0.811
318	0.806
318	0.801
318	0.796
319	0.791
319	0.785
320	0.78
320	0.775
321	0.769
321	0.763
322	0.757
322	0.751
323	0.745
323	0.739
324	0.733
324	0.726
324	0.72
325	0.713
325	0.707
326	0.7
326	0.693
327	0.686
327	0.68
328	0.673
328	0.666
329	0.659
329	0.652
330	0.645
330	0.639
330	0.632
331	0.625
331	0.618
332	0.612
332	0.605
333	0.598
333	0.591
334	0.584
334	0.578
335	0.571
335	0.564
336	0.558
336	0.551
336	0.545
337	0.539
337	0.532
338	0.526
338	0.521
339	0.515
339	0.509
340	0.503
340	0.498
341	0.492
341	0.486
342	0.481
342	0.476
342	0.471
343	0.465
343	0.46
344	0.455
344	0.451
345	0.446
345	0.442
346	0.437
346	0.433
347	0.429
347	0.425
348	0.421
348	0.417
348	0.413
349	0.409
349	0.406
350	0.402
350	0.399
351	0.395
351	0.392
352	0.389
352	0.386
353	0.383
353	0.381
354	0.378
354	0.375
354	0.372
355	0.369
355	0.367
356	0.364
356	0.361
357	0.358
357	0.355
358	0.353
358	0.35
359	0.348
359	0.346
360	0.344
360	0.342
360	0.341
361	0.339
361	0.337
362	0.336
362	0.334
363	0.333
363	0.331
364	0.329
364	0.327
365	0.325
365	0.323
366	0.322
366	0.32
366	0.318
367	0.317
367	0.315
368	0.313
368	0.312
369	0.311
369	0.309
370	0.308
370	0.306
371	0.305
371	0.304
372	0.302
372	0.301
372	0.3
373	0.299
373	0.298
374	0.297
374	0.297
375	0.296
375	0.295
376	0.294
376	0.294
377	0.293
377	0.292
378	0.291
378	0.29
378	0.29
379	0.289
379	0.288
380	0.287
380	0.287
381	0.286
381	0.285
382	0.285
382	0.284
383	0.284
383	0.283
383	0.283
384	0.282
384	0.282
385	0.281
385	0.281
386	0.28
386	0.28
387	0.28
387	0.279
388	0.278
388	0.278
389	0.278
389	0.277
389	0.277
390	0.277
390	0.276
391	0.276
391	0.276
392	0.275
392	0.275
393	0.275
393	0.274
394	0.274
394	0.274
394	0.273
395	0.273
395	0.273
396	0.272
396	0.272
397	0.272
397	0.271
398	0.271
398	0.271
399	0.27
399	0.27
400	0.27
400	0.269
400	0.269
401	0.269
401	0.269
402	0.269
402	0.269
403	0.268
403	0.268
404	0.268
404	0.268
405	0.268
405	0.268
405	0.267
406	0.267
406	0.267
407	0.266
407	0.266
408	0.266
408	0.265
409	0.265
409	0.265
410	0.264
410	0.264
411	0.264
411	0.264
411	0.263
412	0.263
412	0.263
413	0.262
413	0.262
414	0.262
414	0.262
415	0.261
415	0.261
416	0.261
416	0.26
416	0.26
417	0.26
417	0.259
418	0.259
418	0.259
419	0.258
419	0.258
420	0.258
420	0.257
421	0.257
421	0.257
421	0.256
422	0.256
422	0.256
423	0.255
423	0.255
424	0.254
424	0.254
425	0.254
425	0.253
426	0.253
426	0.253
427	0.253
427	0.253
427	0.252
428	0.252
428	0.252
429	0.252
429	0.251
430	0.251
430	0.251
431	0.251
431	0.25
432	0.251
432	0.25
432	0.25
433	0.25
433	0.25
434	0.249
434	0.249
435	0.249
435	0.249
436	0.249
436	0.249
437	0.248
437	0.248
437	0.248
438	0.247
438	0.247
439	0.247
439	0.247
440	0.247
440	0.246
441	0.246
441	0.246
442	0.246
442	0.246
442	0.246
443	0.245
443	0.245
444	0.245
444	0.245
445	0.245
445	0.244
446	0.244
446	0.244
447	0.243
447	0.243
447	0.243
448	0.243
448	0.242
449	0.242
449	0.242
450	0.242
450	0.241
451	0.241
451	0.241
452	0.241
452	0.241
452	0.241
453	0.241
453	0.241
454	0.24
454	0.24
455	0.24
455	0.239
456	0.239
456	0.239
457	0.239
457	0.239
458	0.238
458	0.238
458	0.238
459	0.238
459	0.238
460	0.238
460	0.237
461	0.237
461	0.237
462	0.237
462	0.236
463	0.236
463	0.236
463	0.236
464	0.235
464	0.235
465	0.235
465	0.234
466	0.234
466	0.234
467	0.234
467	0.234
467	0.234
468	0.234
468	0.234
469	0.234
469	0.234
470	0.235
470	0.234
471	0.234
471	0.234
472	0.234
472	0.234
472	0.234
473	0.234
473	0.234
474	0.233
474	0.233
475	0.233
475	0.233
476	0.233
476	0.233
477	0.233
477	0.233
477	0.233
478	0.233
478	0.233
479	0.233
479	0.233
480	0.233
480	0.233
481	0.233
481	0.233
482	0.233
482	0.233
482	0.233
483	0.233
483	0.234
484	0.234
484	0.234
485	0.234
485	0.234
486	0.234
486	0.234
487	0.234
487	0.234
487	0.234
488	0.234
488	0.234
489	0.235
489	0.235
490	0.236
490	0.236
491	0.237
491	0.237
492	0.238
492	0.238
492	0.238
493	0.239
493	0.239
494	0.239
494	0.24
495	0.24
495	0.24
496	0.241
496	0.241
496	0.242
497	0.242
497	0.242
498	0.243
498	0.243
499	0.244
499	0.244
500	0.245
500	0.245
501	0.245
501	0.246
501	0.246
502	0.246
502	0.246
503	0.247
503	0.247
504	0.248
504	0.248
505	0.248
505	0.249
506	0.249
506	0.249
506	0.25
507	0.25
507	0.251
508	0.251
508	0.252
509	0.252
509	0.252
510	0.253
510	0.253
511	0.254
511	0.255
511	0.256
512	0.256
512	0.256
513	0.257
513	0.257
514	0.258
514	0.258
515	0.258
515	0.259
515	0.259
516	0.26
516	0.26
517	0.261
517	0.261
518	0.262
518	0.262
519	0.262
519	0.263
520	0.263
520	0.263
520	0.263
521	0.263
521	0.263
522	0.263
522	0.263
523	0.264
523	0.264
524	0.264
524	0.264
524	0.265
525	0.265
525	0.265
526	0.265
526	0.265
527	0.265
527	0.265
528	0.265
528	0.265
529	0.265
529	0.265
529	0.265
530	0.265
530	0.265
531	0.265
531	0.265
532	0.265
532	0.265
533	0.265
533	0.265
533	0.265
534	0.265
534	0.265
535	0.265
535	0.265
536	0.265
536	0.265
537	0.265
537	0.265
538	0.265
538	0.264
538	0.264
539	0.264
539	0.264
540	0.264
540	0.263
541	0.263
541	0.262
542	0.262
542	0.262
542	0.262
543	0.262
543	0.261
544	0.261
544	0.261
545	0.261
545	0.261
546	0.261
546	0.261
547	0.261
547	0.26
547	0.26
548	0.26
548	0.259
549	0.259
549	0.259
550	0.258
550	0.258
551	0.257
551	0.257
551	0.257
552	0.256
552	0.256
553	0.255
553	0.255
554	0.254
554	0.254
555	0.253
555	0.253
556	0.252
556	0.252
556	0.252
557	0.252
557	0.252
558	0.252
558	0.252
559	0.252
559	0.252
560	0.252
560	0.252
560	0.252
561	0.252
561	0.251
562	0.251
562	0.25
563	0.249
563	0.248
564	0.247
564	0.246
564	0.246
565	0.246
565	0.246
566	0.245
566	0.245
567	0.245
567	0.245
568	0.245
568	0.245
568	0.245
569	0.245
569	0.244
570	0.243
570	0.242
571	0.242
571	0.241
572	0.241
572	0.24
573	0.24
573	0.24
573	0.24
574	0.239
574	0.239
575	0.239
575	0.239
576	0.239
576	0.239
577	0.238
577	0.238
577	0.238
578	0.237
578	0.237
579	0.237
579	0.237
580	0.236
580	0.235
581	0.235
581	0.234
581	0.234
582	0.234
582	0.234
583	0.234
583	0.234
584	0.233
584	0.232
585	0.231
585	0.231
585	0.231
586	0.231
586	0.23
587	0.229
587	0.229
588	0.228
588	0.228
589	0.228
589	0.228
590	0.228
590	0.228
590	0.228
591	0.228
591	0.228
592	0.227
592	0.227
593	0.226
593	0.226
594	0.226
594	0.225
594	0.224
595	0.224
595	0.223
596	0.223
596	0.223
597	0.224
597	0.224
598	0.224
598	0.224
598	0.224
599	0.224
599	0.223
600	0.223
600	0.222
601	0.222
601	0.221
602	0.22
602	0.22
602	0.219
603	0.219
603	0.219
604	0.219
604	0.219
605	0.219
605	0.219
606	0.219
606	0.218
606	0.218
607	0.218
607	0.218
608	0.218
608	0.217
609	0.217
609	0.217
610	0.217
610	0.216
610	0.216
611	0.216
611	0.216
612	0.216
612	0.216
613	0.216
613	0.216
614	0.216
614	0.215
614	0.215
615	0.215
615	0.215
616	0.215
616	0.215
617	0.215
617	0.214
618	0.214
618	0.214
618	0.214
619	0.215
619	0.215
620	0.215
620	0.215
621	0.214
621	0.214
622	0.213
622	0.213
622	0.212
623	0.212
623	0.212
624	0.211
624	0.211
625	0.21
625	0.21
626	0.21
626	0.21
626	0.21
627	0.21
627	0.21
628	0.21
628	0.209
629	0.209
629	0.209
630	0.208
630	0.208
630	0.208
631	0.209
631	0.208
632	0.208
632	0.208
633	0.209
633	0.209
634	0.209
634	0.209
634	0.208
635	0.208
635	0.207
636	0.207
636	0.207
637	0.207
637	0.206
638	0.206
638	0.206
638	0.205
639	0.205
639	0.205
640	0.205
640	0.205
641	0.205
641	0.205
642	0.205
642	0.205
642	0.206
643	0.206
643	0.206
644	0.206
644	0.206
645	0.206
645	0.206
646	0.206
646	0.206
646	0.206
647	0.206
647	0.206
648	0.206
648	0.205
649	0.205
649	0.205
650	0.205
650	0.205
650	0.205
651	0.205
651	0.205
652	0.205
652	0.205
653	0.205
653	0.207
653	0.213
654	0.166
654	0.132
655	0.134
655	0.134
656	0.134
656	0.134
657	0.135
657	0.135
657	0.135
658	0.134
658	0.123
659	0.156
659	0.201
660	0.206
660	0.206
661	0.206
661	0.205
661	0.205
662	0.205
662	0.205
663	0.205
663	0.205
664	0.204
664	0.204
665	0.204
665	0.204
665	0.204
666	0.204
666	0.204
667	0.204
667	0.204
668	0.204
668	0.204
669	0.204
669	0.204
669	0.204
670	0.204
670	0.204
671	0.204
671	0.204
672	0.204
672	0.204
672	0.204
673	0.204
673	0.204
674	0.204
674	0.204
675	0.203
675	0.204
676	0.204
676	0.204
676	0.204
677	0.204
677	0.204
678	0.204
678	0.203
679	0.203
679	0.203
680	0.203
680	0.203
680	0.202
681	0.202
681	0.203
682	0.203
682	0.203
683	0.203
683	0.203
684	0.204
684	0.203
684	0.203
685	0.203
685	0.204
686	0.204
686	0.204
687	0.204
687	0.204
687	0.205
688	0.205
688	0.205
689	0.205
689	0.206
690	0.206
690	0.206
691	0.206
691	0.206
691	0.207
692	0.207
692	0.207
693	0.208
693	0.208
694	0.208
694	0.208
695	0.21
695	0.211
695	0.211
696	0.211
696	0.211
697	0.211
697	0.211
698	0.21
698	0.21
698	0.21
699	0.21
699	0.21
700	0.209
700	0.209
701	0.209
701	0.209
702	0.209
702	0.208
702	0.208
703	0.208
703	0.208
704	0.207
704	0.207
705	0.207
705	0.207
705	0.207
706	0.207
706	0.208
707	0.208
707	0.208
708	0.208
708	0.209
709	0.209
709	0.209
709	0.209
710	0.209
710	0.209
711	0.21
711	0.21
712	0.21
712	0.21
713	0.21
713	0.21
713	0.21
714	0.21
714	0.21
715	0.21
715	0.21
716	0.209
716	0.209
716	0.209
717	0.208
717	0.208
718	0.207
718	0.207
719	0.208
719	0.208
720	0.209
720	0.21
720	0.21
721	0.21
721	0.211
722	0.212
722	0.213
723	0.214
723	0.214
723	0.215
724	0.215
724	0.214
725	0.214
725	0.213
726	0.213
726	0.212
727	0.212
727	0.211
727	0.211
728	0.21
728	0.21
729	0.21
729	0.21
730	0.21
730	0.211
730	0.211
731	0.212
731	0.212
732	0.213
732	0.213
733	0.213
733	0.213
734	0.214
734	0.214
734	0.214
735	0.214
735	0.214
736	0.213
736	0.213
737	0.212
737	0.212
737	0.212
738	0.211
738	0.211
739	0.211
739	0.211
740	0.211
740	0.211
741	0.212
741	0.212
741	0.212
742	0.212
742	0.213
743	0.214
743	0.214
744	0.215
744	0.215
744	0.215
745	0.215
745	0.215
746	0.215
746	0.215
747	0.215
747	0.216
748	0.216
748	0.216
748	0.216
749	0.216
749	0.216
750	0.216
750	0.216
751	0.216
751	0.216
751	0.216
752	0.216
752	0.215
753	0.215
753	0.215
754	0.215
754	0.215
754	0.216
755	0.216
755	0.217
756	0.217
756	0.216
757	0.216
757	0.216
758	0.216
758	0.216
758	0.216
759	0.217
759	0.216
760	0.216
760	0.216
761	0.216
761	0.217
761	0.217
762	0.218
762	0.218
763	0.218
763	0.218
764	0.218
764	0.218
764	0.217
765	0.217
765	0.216
766	0.216
766	0.215
767	0.214
767	0.213
768	0.212
768	0.211
768	0.211
769	0.21
769	0.21
770	0.21
770	0.211
771	0.211
771	0.211
771	0.212
772	0.213
772	0.214
773	0.215
773	0.216
774	0.216
774	0.217
775	0.218
775	0.218
775	0.219
776	0.219
776	0.22
777	0.22
777	0.22
778	0.22
778	0.22
778	0.22
779	0.22
779	0.22
780	0.219
780	0.219
781	0.218
781	0.218
781	0.217
782	0.217
782	0.217
783	0.217
783	0.217
784	0.217
784	0.218
784	0.218
785	0.219
785	0.219
786	0.22
786	0.22
787	0.221
787	0.22
788	0.22
788	0.22
788	0.219
789	0.219
789	0.218
790	0.218
790	0.217
791	0.217
791	0.216
791	0.216
792	0.216
792	0.217
793	0.217
793	0.217
794	0.217
794	0.217
794	0.217
795	0.217
795	0.218
796	0.218
796	0.219
797	0.218
797	0.219
797	0.219
798	0.219
798	0.22
799	0.22
799	0.22
800	0.22
800	0.22
801	0.22
801	0.22
801	0.22
802	0.221
802	0.221
803	0.221
803	0.222
804	0.222
804	0.223
804	0.223
805	0.224
805	0.224
806	0.224
806	0.224
807	0.224
807	0.224
807	0.224
808	0.223
808	0.223
809	0.223
809	0.222
810	0.222
810	0.222
810	0.222
811	0.222
811	0.222
812	0.223
812	0.223
813	0.223
813	0.223
813	0.224
814	0.224
814	0.225
815	0.226
815	0.226
816	0.227
816	0.227
817	0.226
817	0.226
817	0.226
818	0.226
818	0.226
819	0.225
819	0.225
820	0.224
820	0.223
820	0.223
821	0.223
821	0.223
822	0.223
822	0.223
823	0.223
823	0.223
823	0.224
824	0.225
824	0.226
825	0.227
825	0.228
826	0.228
826	0.228
826	0.229
827	0.229
827	0.23
828	0.23
828	0.229
829	0.229
829	0.229
829	0.229
830	0.229
830	0.229
831	0.229
831	0.229
832	0.229
832	0.229
832	0.23
833	0.23
833	0.23
834	0.23
834	0.231
835	0.231
835	0.231
835	0.231
836	0.231
836	0.232
837	0.232
837	0.232
838	0.232
838	0.231
839	0.231
839	0.231
839	0.23
840	0.229
840	0.228
841	0.227
841	0.226
842	0.225
842	0.224
842	0.224
843	0.223
843	0.222
844	0.222
844	0.222
845	0.222
845	0.222
845	0.222
846	0.222
846	0.222
847	0.223
847	0.223
848	0.224
848	0.225
848	0.225
849	0.226
849	0.226
850	0.227
850	0.227
851	0.228
851	0.228
851	0.228
852	0.228
852	0.228
853	0.227
853	0.227
854	0.227
854	0.227
854	0.228
855	0.228
855	0.228
856	0.228
856	0.228
857	0.228
857	0.228
857	0.228
858	0.228
858	0.227
859	0.226
859	0.225
860	0.224
860	0.222
860	0.222
861	0.221
861	0.22
862	0.219
862	0.218
863	0.218
863	0.218
863	0.218
864	0.218
864	0.219
865	0.219
865	0.219
866	0.219
866	0.219
866	0.219
867	0.219
867	0.219
868	0.218
868	0.218
869	0.217
869	0.217
869	0.216
870	0.216
870	0.215
871	0.215
871	0.215
872	0.216
872	0.216
872	0.216
873	0.216
873	0.216
874	0.216
874	0.216
875	0.216
875	0.216
875	0.216
876	0.216
876	0.216
877	0.216
877	0.217
878	0.218
878	0.219
878	0.22
879	0.221
879	0.221
880	0.222
880	0.222
881	0.222
881	0.222
881	0.222
882	0.222
882	0.221
883	0.22
883	0.22
884	0.219
884	0.218
884	0.218
885	0.217
885	0.217
886	0.217
886	0.216
887	0.216
887	0.215
887	0.214
888	0.214
888	0.213
889	0.213
889	0.212
890	0.212
890	0.212
890	0.212
891	0.212
891	0.212
892	0.212
892	0.212
893	0.212
893	0.213
893	0.212
894	0.212
894	0.212
895	0.211
895	0.211
895	0.21
896	0.21
896	0.21
897	0.209
897	0.209
898	0.209
898	0.208
898	0.208
899	0.208
899	0.208
900	0.208
900	0.208
901	0.207
901	0.207
901	0.207
902	0.207
902	0.207
903	0.207
903	0.207
904	0.207
904	0.207
904	0.206
905	0.207
905	0.207
906	0.207
906	0.208
907	0.208
907	0.209
907	0.209
908	0.21
908	0.21
909	0.21
909	0.209
910	0.209
910	0.209
910	0.208
911	0.207
911	0.207
912	0.206
912	0.205
913	0.204
913	0.203
913	0.203
914	0.202
914	0.201
915	0.2
915	0.199
916	0.198
916	0.197
916	0.196
917	0.195
917	0.194
918	0.194
918	0.193
918	0.192
919	0.191
919	0.191
920	0.191
920	0.191
921	0.191
921	0.191
921	0.19
922	0.191
922	0.191
923	0.191
923	0.192
924	0.192
924	0.193
924	0.193
925	0.194
925	0.194
926	0.195
926	0.195
927	0.195
927	0.195
927	0.195
928	0.195
928	0.195
929	0.194
929	0.194
930	0.194
930	0.193
930	0.193
931	0.193
931	0.194
932	0.194
932	0.194
933	0.194
933	0.194
933	0.195
934	0.195
934	0.195
935	0.195
935	0.195
935	0.194
936	0.193
936	0.193
937	0.192
937	0.191
938	0.19
938	0.189
938	0.189
939	0.188
939	0.187
940	0.186
940	0.185
941	0.184
941	0.184
941	0.183
942	0.182
942	0.181
943	0.181
943	0.18
944	0.18
944	0.179
944	0.179
945	0.178
945	0.177
946	0.176
946	0.175
946	0.174
947	0.174
947	0.173
948	0.173
948	0.172
949	0.171
949	0.171
949	0.171
950	0.171
950	0.171
951	0.171
951	0.171
952	0.171
952	0.171
952	0.171
953	0.171
953	0.17
954	0.17
954	0.17
955	0.17
955	0.17
955	0.17
956	0.17
956	0.17
957	0.17
957	0.171
957	0.171
958	0.171
958	0.171
959	0.171
959	0.171
960	0.171
960	0.171
960	0.171
961	0.17
961	0.17
962	0.17
962	0.169
963	0.169
963	0.169
963	0.169
964	0.169
964	0.169
965	0.168
965	0.169
966	0.169
966	0.169
966	0.169
967	0.169
967	0.169
968	0.169
968	0.169
968	0.169
969	0.169
969	0.168
970	0.168
970	0.167
971	0.167
971	0.166
971	0.165
972	0.165
972	0.164
973	0.163
973	0.163
974	0.162
974	0.162
974	0.162
975	0.161
975	0.161
976	0.161
976	0.161
976	0.161
977	0.161
977	0.16
978	0.16
978	0.16
979	0.16
979	0.159
979	0.159
980	0.159
980	0.158
981	0.157
981	0.156
982	0.156
982	0.155
982	0.154
983	0.154
983	0.153
984	0.152
984	0.151
984	0.151
985	0.15
985	0.15
986	0.149
986	0.148
987	0.147
987	0.147
987	0.146
988	0.145
988	0.145
989	0.144
989	0.143
990	0.143
990	0.142
990	0.142
991	0.141
991	0.141
992	0.14
992	0.139
992	0.138
993	0.138
993	0.137
994	0.136
994	0.136
995	0.135
995	0.135
995	0.135
996	0.135
996	0.135
997	0.136
997	0.136
997	0.137
998	0.138
998	0.138
999	0.139
999	0.14
1000	0.141
1000	0.142
1000	0.142
1001	0.142
1001	0.143
1002	0.143
1002	0.143
1003	0.143
1003	0.143
1003	0.142
1004	0.142
1004	0.142
1005	0.141
1005	0.141
1005	0.14
1006	0.139
1006	0.139
1007	0.139
1007	0.138
1008	0.138
1008	0.138
1008	0.138
1009	0.138
1009	0.138
1010	0.138
1010	0.138
1010	0.138
1011	0.138
1011	0.138
1012	0.138
1012	0.137
1013	0.137
1013	0.137
1013	0.136
1014	0.135
1014	0.135
1015	0.134
1015	0.134
1016	0.133
1016	0.132
1016	0.132
1017	0.131
1017	0.13
1018	0.129
1018	0.128
1018	0.128
1019	0.127
1019	0.126
1020	0.126
1020	0.125
1021	0.125
1021	0.125
1021	0.125
1022	0.125
1022	0.125
1023	0.125
1023	0.125
1023	0.125
1024	0.125
1024	0.125
1025	0.125
1025	0.124
1026	0.124
1026	0.123
1026	0.123
1027	0.122
1027	0.122
1028	0.121
1028	0.121
1028	0.12
1029	0.12
1029	0.12
1030	0.12
1030	0.12
1031	0.12
1031	0.12
1031	0.12
1032	0.119
1032	0.119
1033	0.119
1033	0.119
1033	0.119
1034	0.118
1034	0.118
1035	0.117
1035	0.117
1036	0.117
1036	0.116
1036	0.116
1037	0.116
1037	0.116
1038	0.116
1038	0.116
1039	0.116
1039	0.116
1039	0.116
1040	0.117
1040	0.117
1041	0.117
1041	0.117
1041	0.117
1042	0.118
1042	0.118
1043	0.118
1043	0.119
1044	0.119
1044	0.119
1044	0.119
1045	0.119
1045	0.119
1046	0.12
1046	0.12
1046	0.12
1047	0.12
1047	0.12
1048	0.121
1048	0.121
1049	0.121
1049	0.121
1049	0.121
1050	0.121
1050	0.12
1051	0.12
1051	0.12
1051	0.119
1052	0.119
1052	0.118
1053	0.117
1053	0.116
1053	0.115
1054	0.115
1054	0.114
1055	0.114
1055	0.113
1056	0.113
1056	0.112
1056	0.111
1057	0.111
1057	0.11
1058	0.109
1058	0.108
1058	0.108
1059	0.107
1059	0.107
1060	0.106
1060	0.106
1061	0.105
1061	0.105
1061	0.105
1062	0.105
1062	0.105
1063	0.105
1063	0.105
1063	0.104
1064	0.104
1064	0.104
1065	0.104
1065	0.104
1066	0.104
1066	0.104
1066	0.103
1067	0.103
1067	0.102
1068	0.101
1068	0.101
1068	0.101
1069	0.1
1069	0.099
1070	0.098
1070	0.097
1071	0.096
1071	0.096
1071	0.095
1072	0.095
1072	0.094
1073	0.093
1073	0.093
1073	0.092
1074	0.093
1074	0.093
1075	0.093
1075	0.093
1076	0.094
1076	0.094
1076	0.095
1077	0.095
1077	0.095
1078	0.096
1078	0.096
1078	0.096
1079	0.096
1079	0.096
1080	0.096
1080	0.096
1080	0.095
1081	0.095
1081	0.095
1082	0.095
1082	0.095
1083	0.095
1083	0.094
1083	0.094
1084	0.094
1084	0.094
1085	0.093
1085	0.093
1085	0.093
1086	0.093
1086	0.092
1087	0.092
1087	0.092
1088	0.091
1088	0.091
1088	0.091
1089	0.091
1089	0.09
1090	0.089
1090	0.088
1090	0.087
1091	0.087
1091	0.086
1092	0.086
1092	0.086
1092	0.085
1093	0.085
1093	0.085
1094	0.084
1094	0.084
1095	0.084
1095	0.084
1095	0.083
1096	0.083
1096	0.083
1097	0.083
1097	0.082
1097	0.082
1098	0.082
1098	0.081
1099	0.081
1099	0.079
1100	0.078
1100	0.077
1100	0.077
1101	0.076
1101	0.075
1102	0.074
1102	0.072
1102	0.071
1103	0.07
1103	0.07
1104	0.07
1104	0.069
1104	0.069
1105	0.068
1105	0.066
1106	0.064
1106	0.064
1107	0.063
1107	0.063
1107	0.062
1108	0.06
1108	0.06
1109	0.059
1109	0.057
1109	0.056
1110	0.058
1110	0.058
1111	0.057
1111	0.058
