Data from reversibility-20sec_Absorbance__6929__000000000006929.txt Node

Date: Thu Dec 07 02:42:45 CET 2023
User: Marek
Spectrometer: MAYP115816
Trigger mode: 0
Integration Time (sec): 2.000000E-1
Scans to average: 10
Electric dark correction enabled: true
Nonlinearity correction enabled: true
Boxcar width: 5
XAxis mode: Wavelengths
Number of Pixels in Spectrum: 2068
>>>>>Begin Spectral Data<<<<<
199	-0.112
199	-0.082
200	-0.02
200	0.029
201	0.055
201	0.074
202	0.084
202	0.093
203	0.103
203	0.107
204	0.121
204	0.137
205	0.148
205	0.152
205	0.149
206	0.15
206	0.149
207	0.152
207	0.151
208	0.149
208	0.147
209	0.149
209	0.145
210	0.146
210	0.15
211	0.152
211	0.155
212	0.153
212	0.153
213	0.156
213	0.157
213	0.158
214	0.161
214	0.163
215	0.163
215	0.161
216	0.163
216	0.159
217	0.164
217	0.166
218	0.167
218	0.171
219	0.176
219	0.177
220	0.181
220	0.182
221	0.185
221	0.186
221	0.192
222	0.197
222	0.199
223	0.204
223	0.206
224	0.209
224	0.218
225	0.228
225	0.238
226	0.247
226	0.259
227	0.271
227	0.282
228	0.3
228	0.318
229	0.336
229	0.359
229	0.382
230	0.402
230	0.431
231	0.464
231	0.5
232	0.537
232	0.579
233	0.621
233	0.666
234	0.715
234	0.77
235	0.82
235	0.874
236	0.928
236	0.98
236	1.032
237	1.082
237	1.133
238	1.18
238	1.227
239	1.272
239	1.31
240	1.349
240	1.385
241	1.416
241	1.452
242	1.482
242	1.515
243	1.536
243	1.56
243	1.583
244	1.607
244	1.63
245	1.649
245	1.671
246	1.691
246	1.706
247	1.719
247	1.733
248	1.752
248	1.766
249	1.774
249	1.782
250	1.788
250	1.795
250	1.797
251	1.799
251	1.8
252	1.803
252	1.801
253	1.799
253	1.795
254	1.794
254	1.793
255	1.79
255	1.789
256	1.787
256	1.786
257	1.785
257	1.784
258	1.783
258	1.783
258	1.782
259	1.782
259	1.781
260	1.781
260	1.782
261	1.784
261	1.786
262	1.79
262	1.792
263	1.796
263	1.799
264	1.801
264	1.804
265	1.807
265	1.807
265	1.807
266	1.806
266	1.806
267	1.804
267	1.803
268	1.802
268	1.801
269	1.802
269	1.801
270	1.799
270	1.798
271	1.796
271	1.795
272	1.792
272	1.79
272	1.788
273	1.782
273	1.776
274	1.768
274	1.76
275	1.753
275	1.746
276	1.738
276	1.73
277	1.722
277	1.712
278	1.699
278	1.687
278	1.672
279	1.655
279	1.634
280	1.605
280	1.571
281	1.531
281	1.488
282	1.441
282	1.395
283	1.349
283	1.305
284	1.263
284	1.223
285	1.186
285	1.153
285	1.123
286	1.097
286	1.074
287	1.055
287	1.038
288	1.024
288	1.012
289	1.002
289	0.993
290	0.985
290	0.978
291	0.973
291	0.968
292	0.963
292	0.959
292	0.955
293	0.952
293	0.948
294	0.945
294	0.941
295	0.938
295	0.936
296	0.933
296	0.93
297	0.927
297	0.924
298	0.922
298	0.919
298	0.916
299	0.914
299	0.912
300	0.909
300	0.906
301	0.903
301	0.901
302	0.898
302	0.896
303	0.894
303	0.891
304	0.889
304	0.887
305	0.885
305	0.882
305	0.88
306	0.878
306	0.875
307	0.873
307	0.871
308	0.868
308	0.866
309	0.863
309	0.86
310	0.858
310	0.855
311	0.852
311	0.849
311	0.846
312	0.843
312	0.84
313	0.836
313	0.832
314	0.828
314	0.825
315	0.821
315	0.817
316	0.813
316	0.808
317	0.803
317	0.798
318	0.793
318	0.788
318	0.783
319	0.777
319	0.772
320	0.766
320	0.76
321	0.754
321	0.748
322	0.742
322	0.736
323	0.73
323	0.723
324	0.717
324	0.71
324	0.703
325	0.696
325	0.689
326	0.682
326	0.676
327	0.669
327	0.662
328	0.655
328	0.648
329	0.641
329	0.634
330	0.626
330	0.619
330	0.612
331	0.605
331	0.598
332	0.591
332	0.584
333	0.577
333	0.57
334	0.563
334	0.556
335	0.549
335	0.542
336	0.536
336	0.529
336	0.522
337	0.516
337	0.51
338	0.504
338	0.497
339	0.491
339	0.485
340	0.479
340	0.474
341	0.468
341	0.462
342	0.457
342	0.451
342	0.446
343	0.441
343	0.436
344	0.431
344	0.426
345	0.421
345	0.416
346	0.411
346	0.407
347	0.402
347	0.398
348	0.394
348	0.39
348	0.386
349	0.383
349	0.379
350	0.376
350	0.372
351	0.369
351	0.366
352	0.362
352	0.359
353	0.357
353	0.354
354	0.351
354	0.348
354	0.345
355	0.342
355	0.339
356	0.337
356	0.334
357	0.331
357	0.329
358	0.326
358	0.324
359	0.321
359	0.319
360	0.317
360	0.315
360	0.313
361	0.311
361	0.309
362	0.308
362	0.306
363	0.304
363	0.303
364	0.301
364	0.299
365	0.297
365	0.295
366	0.293
366	0.292
366	0.29
367	0.288
367	0.287
368	0.285
368	0.284
369	0.282
369	0.281
370	0.28
370	0.279
371	0.278
371	0.276
372	0.275
372	0.274
372	0.273
373	0.272
373	0.271
374	0.27
374	0.269
375	0.269
375	0.268
376	0.267
376	0.266
377	0.265
377	0.264
378	0.263
378	0.263
378	0.262
379	0.261
379	0.261
380	0.26
380	0.259
381	0.258
381	0.258
382	0.257
382	0.257
383	0.256
383	0.256
383	0.255
384	0.255
384	0.254
385	0.254
385	0.254
386	0.253
386	0.253
387	0.253
387	0.252
388	0.252
388	0.251
389	0.251
389	0.251
389	0.251
390	0.251
390	0.25
391	0.25
391	0.25
392	0.249
392	0.249
393	0.249
393	0.249
394	0.248
394	0.248
394	0.248
395	0.247
395	0.247
396	0.247
396	0.246
397	0.246
397	0.246
398	0.245
398	0.245
399	0.245
399	0.245
400	0.244
400	0.244
400	0.244
401	0.243
401	0.243
402	0.243
402	0.243
403	0.243
403	0.243
404	0.243
404	0.242
405	0.242
405	0.242
405	0.242
406	0.242
406	0.241
407	0.241
407	0.241
408	0.24
408	0.24
409	0.24
409	0.239
410	0.239
410	0.239
411	0.239
411	0.238
411	0.238
412	0.238
412	0.237
413	0.237
413	0.237
414	0.237
414	0.237
415	0.236
415	0.236
416	0.236
416	0.235
416	0.235
417	0.235
417	0.234
418	0.234
418	0.234
419	0.233
419	0.233
420	0.232
420	0.232
421	0.231
421	0.231
421	0.231
422	0.231
422	0.23
423	0.23
423	0.23
424	0.229
424	0.229
425	0.229
425	0.229
426	0.228
426	0.228
427	0.228
427	0.227
427	0.227
428	0.227
428	0.226
429	0.226
429	0.225
430	0.225
430	0.225
431	0.225
431	0.224
432	0.224
432	0.224
432	0.224
433	0.224
433	0.224
434	0.223
434	0.224
435	0.223
435	0.223
436	0.223
436	0.223
437	0.222
437	0.222
437	0.222
438	0.221
438	0.221
439	0.221
439	0.221
440	0.22
440	0.22
441	0.22
441	0.219
442	0.219
442	0.219
442	0.219
443	0.218
443	0.218
444	0.218
444	0.218
445	0.218
445	0.218
446	0.217
446	0.217
447	0.217
447	0.217
447	0.216
448	0.216
448	0.216
449	0.216
449	0.215
450	0.215
450	0.215
451	0.215
451	0.215
452	0.215
452	0.215
452	0.214
453	0.214
453	0.214
454	0.214
454	0.213
455	0.213
455	0.213
456	0.212
456	0.212
457	0.212
457	0.212
458	0.211
458	0.211
458	0.211
459	0.211
459	0.211
460	0.21
460	0.21
461	0.21
461	0.21
462	0.21
462	0.21
463	0.209
463	0.209
463	0.209
464	0.209
464	0.208
465	0.208
465	0.207
466	0.207
466	0.207
467	0.207
467	0.207
467	0.207
468	0.207
468	0.207
469	0.207
469	0.207
470	0.207
470	0.207
471	0.207
471	0.207
472	0.206
472	0.206
472	0.206
473	0.206
473	0.206
474	0.206
474	0.205
475	0.205
475	0.205
476	0.205
476	0.205
477	0.205
477	0.205
477	0.205
478	0.205
478	0.205
479	0.205
479	0.205
480	0.205
480	0.205
481	0.204
481	0.204
482	0.204
482	0.204
482	0.204
483	0.204
483	0.204
484	0.204
484	0.204
485	0.204
485	0.204
486	0.204
486	0.204
487	0.204
487	0.204
487	0.204
488	0.204
488	0.203
489	0.204
489	0.204
490	0.205
490	0.205
491	0.205
491	0.206
492	0.206
492	0.206
492	0.207
493	0.207
493	0.208
494	0.208
494	0.208
495	0.208
495	0.208
496	0.208
496	0.209
496	0.209
497	0.209
497	0.209
498	0.209
498	0.21
499	0.21
499	0.21
500	0.211
500	0.212
501	0.212
501	0.212
501	0.212
502	0.213
502	0.213
503	0.213
503	0.213
504	0.214
504	0.214
505	0.214
505	0.214
506	0.214
506	0.215
506	0.215
507	0.215
507	0.216
508	0.216
508	0.216
509	0.216
509	0.217
510	0.217
510	0.217
511	0.218
511	0.218
511	0.219
512	0.219
512	0.22
513	0.22
513	0.22
514	0.221
514	0.221
515	0.222
515	0.222
515	0.222
516	0.222
516	0.222
517	0.223
517	0.223
518	0.224
518	0.224
519	0.224
519	0.224
520	0.225
520	0.225
520	0.225
521	0.225
521	0.225
522	0.225
522	0.226
523	0.226
523	0.226
524	0.226
524	0.226
524	0.227
525	0.227
525	0.227
526	0.227
526	0.227
527	0.227
527	0.227
528	0.228
528	0.228
529	0.228
529	0.228
529	0.228
530	0.228
530	0.228
531	0.228
531	0.228
532	0.228
532	0.228
533	0.228
533	0.228
533	0.228
534	0.228
534	0.228
535	0.228
535	0.228
536	0.228
536	0.228
537	0.228
537	0.228
538	0.228
538	0.228
538	0.228
539	0.228
539	0.228
540	0.227
540	0.227
541	0.227
541	0.227
542	0.227
542	0.227
542	0.227
543	0.227
543	0.227
544	0.227
544	0.227
545	0.227
545	0.227
546	0.227
546	0.226
547	0.226
547	0.226
547	0.225
548	0.226
548	0.225
549	0.225
549	0.225
550	0.225
550	0.225
551	0.225
551	0.225
551	0.225
552	0.224
552	0.224
553	0.224
553	0.223
554	0.223
554	0.223
555	0.222
555	0.221
556	0.221
556	0.22
556	0.221
557	0.221
557	0.221
558	0.221
558	0.221
559	0.221
559	0.222
560	0.222
560	0.222
560	0.222
561	0.222
561	0.221
562	0.22
562	0.22
563	0.219
563	0.218
564	0.217
564	0.217
564	0.217
565	0.216
565	0.216
566	0.216
566	0.216
567	0.216
567	0.216
568	0.216
568	0.215
568	0.215
569	0.215
569	0.215
570	0.214
570	0.213
571	0.213
571	0.213
572	0.212
572	0.212
573	0.212
573	0.211
573	0.211
574	0.211
574	0.211
575	0.211
575	0.211
576	0.211
576	0.21
577	0.21
577	0.209
577	0.209
578	0.209
578	0.208
579	0.209
579	0.209
580	0.208
580	0.208
581	0.207
581	0.207
581	0.207
582	0.207
582	0.207
583	0.207
583	0.207
584	0.206
584	0.205
585	0.205
585	0.205
585	0.205
586	0.204
586	0.204
587	0.203
587	0.203
588	0.202
588	0.202
589	0.202
589	0.202
590	0.202
590	0.202
590	0.202
591	0.202
591	0.202
592	0.201
592	0.201
593	0.2
593	0.2
594	0.2
594	0.199
594	0.199
595	0.198
595	0.198
596	0.197
596	0.198
597	0.199
597	0.199
598	0.199
598	0.199
598	0.199
599	0.199
599	0.199
600	0.199
600	0.198
601	0.198
601	0.198
602	0.197
602	0.197
602	0.196
603	0.196
603	0.196
604	0.196
604	0.196
605	0.196
605	0.196
606	0.195
606	0.195
606	0.194
607	0.194
607	0.194
608	0.194
608	0.193
609	0.193
609	0.193
610	0.192
610	0.192
610	0.192
611	0.192
611	0.192
612	0.192
612	0.192
613	0.192
613	0.192
614	0.192
614	0.192
614	0.192
615	0.192
615	0.192
616	0.192
616	0.192
617	0.192
617	0.192
618	0.192
618	0.192
618	0.192
619	0.192
619	0.192
620	0.193
620	0.192
621	0.192
621	0.191
622	0.191
622	0.19
622	0.19
623	0.189
623	0.189
624	0.189
624	0.189
625	0.188
625	0.188
626	0.188
626	0.188
626	0.188
627	0.189
627	0.188
628	0.188
628	0.188
629	0.188
629	0.187
630	0.187
630	0.187
630	0.187
631	0.187
631	0.186
632	0.186
632	0.186
633	0.186
633	0.185
634	0.186
634	0.186
634	0.185
635	0.185
635	0.185
636	0.185
636	0.185
637	0.185
637	0.185
638	0.185
638	0.184
638	0.184
639	0.184
639	0.184
640	0.184
640	0.184
641	0.184
641	0.184
642	0.184
642	0.184
642	0.184
643	0.184
643	0.185
644	0.185
644	0.185
645	0.185
645	0.185
646	0.185
646	0.185
646	0.185
647	0.185
647	0.184
648	0.184
648	0.183
649	0.183
649	0.182
650	0.182
650	0.182
650	0.182
651	0.182
651	0.182
652	0.183
652	0.183
653	0.184
653	0.185
653	0.19
654	0.15
654	0.12
655	0.12
655	0.121
656	0.121
656	0.121
657	0.122
657	0.122
657	0.122
658	0.121
658	0.111
659	0.14
659	0.18
660	0.185
660	0.185
661	0.184
661	0.184
661	0.183
662	0.183
662	0.183
663	0.182
663	0.182
664	0.182
664	0.182
665	0.182
665	0.181
665	0.181
666	0.182
666	0.182
667	0.182
667	0.182
668	0.182
668	0.183
669	0.183
669	0.183
669	0.183
670	0.183
670	0.183
671	0.183
671	0.183
672	0.182
672	0.182
672	0.182
673	0.181
673	0.181
674	0.181
674	0.181
675	0.18
675	0.18
676	0.181
676	0.181
676	0.181
677	0.182
677	0.182
678	0.182
678	0.181
679	0.181
679	0.181
680	0.181
680	0.181
680	0.181
681	0.18
681	0.181
682	0.181
682	0.181
683	0.181
683	0.181
684	0.182
684	0.181
684	0.181
685	0.182
685	0.182
686	0.182
686	0.182
687	0.182
687	0.182
687	0.182
688	0.182
688	0.182
689	0.183
689	0.184
690	0.183
690	0.183
691	0.183
691	0.183
691	0.183
692	0.183
692	0.183
693	0.184
693	0.184
694	0.184
694	0.184
695	0.185
695	0.186
695	0.186
696	0.186
696	0.187
697	0.187
697	0.186
698	0.186
698	0.185
698	0.185
699	0.185
699	0.185
700	0.184
700	0.184
701	0.184
701	0.184
702	0.184
702	0.184
702	0.184
703	0.183
703	0.183
704	0.183
704	0.183
705	0.183
705	0.183
705	0.182
706	0.183
706	0.183
707	0.183
707	0.183
708	0.183
708	0.184
709	0.184
709	0.184
709	0.183
710	0.184
710	0.184
711	0.185
711	0.185
712	0.186
712	0.186
713	0.186
713	0.187
713	0.187
714	0.187
714	0.187
715	0.187
715	0.186
716	0.186
716	0.185
716	0.185
717	0.184
717	0.183
718	0.182
718	0.182
719	0.182
719	0.182
720	0.182
720	0.183
720	0.183
721	0.184
721	0.185
722	0.186
722	0.186
723	0.187
723	0.187
723	0.187
724	0.187
724	0.187
725	0.186
725	0.186
726	0.185
726	0.185
727	0.184
727	0.183
727	0.183
728	0.183
728	0.182
729	0.183
729	0.183
730	0.183
730	0.184
730	0.184
731	0.185
731	0.186
732	0.187
732	0.187
733	0.188
733	0.188
734	0.189
734	0.189
734	0.189
735	0.19
735	0.19
736	0.189
736	0.189
737	0.189
737	0.189
737	0.189
738	0.189
738	0.188
739	0.188
739	0.187
740	0.187
740	0.187
741	0.188
741	0.188
741	0.188
742	0.188
742	0.189
743	0.19
743	0.19
744	0.191
744	0.192
744	0.192
745	0.192
745	0.192
746	0.192
746	0.192
747	0.192
747	0.191
748	0.191
748	0.191
748	0.19
749	0.19
749	0.19
750	0.19
750	0.19
751	0.191
751	0.191
751	0.191
752	0.191
752	0.191
753	0.191
753	0.19
754	0.19
754	0.19
754	0.19
755	0.19
755	0.19
756	0.189
756	0.188
757	0.188
757	0.188
758	0.189
758	0.189
758	0.189
759	0.19
759	0.189
760	0.19
760	0.19
761	0.19
761	0.19
761	0.191
762	0.191
762	0.191
763	0.191
763	0.191
764	0.19
764	0.191
764	0.191
765	0.191
765	0.191
766	0.191
766	0.191
767	0.191
767	0.19
768	0.189
768	0.19
768	0.19
769	0.19
769	0.19
770	0.191
770	0.192
771	0.192
771	0.193
771	0.193
772	0.194
772	0.195
773	0.196
773	0.196
774	0.196
774	0.196
775	0.196
775	0.196
775	0.196
776	0.196
776	0.197
777	0.197
777	0.197
778	0.197
778	0.197
778	0.197
779	0.197
779	0.197
780	0.197
780	0.196
781	0.196
781	0.196
781	0.196
782	0.196
782	0.196
783	0.197
783	0.197
784	0.197
784	0.198
784	0.198
785	0.199
785	0.199
786	0.199
786	0.199
787	0.199
787	0.198
788	0.198
788	0.197
788	0.196
789	0.196
789	0.196
790	0.196
790	0.195
791	0.195
791	0.195
791	0.195
792	0.196
792	0.196
793	0.196
793	0.197
794	0.197
794	0.196
794	0.196
795	0.197
795	0.197
796	0.198
796	0.198
797	0.197
797	0.198
797	0.198
798	0.198
798	0.198
799	0.198
799	0.198
800	0.198
800	0.198
801	0.197
801	0.198
801	0.198
802	0.198
802	0.198
803	0.198
803	0.199
804	0.199
804	0.2
804	0.2
805	0.2
805	0.201
806	0.201
806	0.201
807	0.201
807	0.201
807	0.201
808	0.201
808	0.2
809	0.2
809	0.2
810	0.2
810	0.2
810	0.2
811	0.2
811	0.2
812	0.201
812	0.201
813	0.202
813	0.202
813	0.203
814	0.204
814	0.205
815	0.205
815	0.206
816	0.206
816	0.205
817	0.205
817	0.205
817	0.204
818	0.204
818	0.204
819	0.203
819	0.202
820	0.202
820	0.201
820	0.201
821	0.201
821	0.202
822	0.202
822	0.202
823	0.203
823	0.203
823	0.204
824	0.205
824	0.206
825	0.207
825	0.208
826	0.208
826	0.209
826	0.209
827	0.21
827	0.21
828	0.21
828	0.21
829	0.21
829	0.211
829	0.211
830	0.211
830	0.212
831	0.213
831	0.213
832	0.212
832	0.213
832	0.212
833	0.212
833	0.212
834	0.212
834	0.211
835	0.211
835	0.211
835	0.21
836	0.21
836	0.209
837	0.209
837	0.209
838	0.208
838	0.207
839	0.206
839	0.206
839	0.205
840	0.204
840	0.203
841	0.203
841	0.202
842	0.201
842	0.201
842	0.201
843	0.201
843	0.2
844	0.2
844	0.2
845	0.2
845	0.2
845	0.2
846	0.2
846	0.2
847	0.2
847	0.201
848	0.201
848	0.201
848	0.202
849	0.202
849	0.202
850	0.202
850	0.202
851	0.202
851	0.202
851	0.202
852	0.202
852	0.201
853	0.201
853	0.201
854	0.202
854	0.202
854	0.203
855	0.204
855	0.205
856	0.205
856	0.206
857	0.208
857	0.209
857	0.209
858	0.209
858	0.21
859	0.21
859	0.209
860	0.209
860	0.209
860	0.208
861	0.208
861	0.207
862	0.206
862	0.206
863	0.205
863	0.204
863	0.204
864	0.204
864	0.203
865	0.204
865	0.204
866	0.204
866	0.204
866	0.204
867	0.205
867	0.205
868	0.206
868	0.206
869	0.206
869	0.206
869	0.205
870	0.205
870	0.205
871	0.204
871	0.204
872	0.204
872	0.204
872	0.203
873	0.203
873	0.203
874	0.203
874	0.202
875	0.202
875	0.202
875	0.202
876	0.202
876	0.201
877	0.201
877	0.201
878	0.2
878	0.2
878	0.2
879	0.201
879	0.201
880	0.201
880	0.201
881	0.202
881	0.202
881	0.202
882	0.203
882	0.203
883	0.203
883	0.203
884	0.204
884	0.204
884	0.204
885	0.204
885	0.203
886	0.203
886	0.202
887	0.202
887	0.201
887	0.201
888	0.2
888	0.199
889	0.198
889	0.198
890	0.198
890	0.198
890	0.198
891	0.197
891	0.197
892	0.197
892	0.197
893	0.197
893	0.197
893	0.197
894	0.197
894	0.196
895	0.196
895	0.196
895	0.196
896	0.197
896	0.197
897	0.197
897	0.197
898	0.196
898	0.196
898	0.195
899	0.195
899	0.194
900	0.194
900	0.193
901	0.192
901	0.192
901	0.192
902	0.191
902	0.191
903	0.19
903	0.19
904	0.19
904	0.19
904	0.19
905	0.189
905	0.189
906	0.189
906	0.19
907	0.19
907	0.19
907	0.19
908	0.191
908	0.191
909	0.191
909	0.191
910	0.191
910	0.191
910	0.19
911	0.19
911	0.19
912	0.189
912	0.189
913	0.188
913	0.188
913	0.188
914	0.187
914	0.187
915	0.187
915	0.187
916	0.187
916	0.187
916	0.187
917	0.187
917	0.187
918	0.186
918	0.186
918	0.185
919	0.185
919	0.185
920	0.184
920	0.184
921	0.183
921	0.183
921	0.182
922	0.182
922	0.182
923	0.182
923	0.182
924	0.182
924	0.182
924	0.182
925	0.182
925	0.183
926	0.183
926	0.183
927	0.184
927	0.184
927	0.184
928	0.184
928	0.184
929	0.184
929	0.184
930	0.184
930	0.184
930	0.183
931	0.183
931	0.183
932	0.183
932	0.182
933	0.182
933	0.182
933	0.182
934	0.181
934	0.181
935	0.18
935	0.18
935	0.179
936	0.179
936	0.178
937	0.178
937	0.177
938	0.177
938	0.176
938	0.176
939	0.175
939	0.175
940	0.174
940	0.174
941	0.175
941	0.175
941	0.175
942	0.175
942	0.175
943	0.175
943	0.175
944	0.175
944	0.175
944	0.175
945	0.175
945	0.175
946	0.174
946	0.174
946	0.174
947	0.173
947	0.173
948	0.172
948	0.172
949	0.171
949	0.17
949	0.169
950	0.168
950	0.168
951	0.167
951	0.166
952	0.165
952	0.165
952	0.164
953	0.164
953	0.163
954	0.163
954	0.163
955	0.163
955	0.164
955	0.164
956	0.165
956	0.165
957	0.166
957	0.166
957	0.167
958	0.168
958	0.168
959	0.168
959	0.168
960	0.168
960	0.168
960	0.168
961	0.168
961	0.168
962	0.168
962	0.167
963	0.167
963	0.167
963	0.167
964	0.167
964	0.167
965	0.167
965	0.167
966	0.167
966	0.166
966	0.166
967	0.166
967	0.166
968	0.165
968	0.165
968	0.164
969	0.164
969	0.163
970	0.162
970	0.16
971	0.16
971	0.159
971	0.158
972	0.157
972	0.156
973	0.156
973	0.155
974	0.155
974	0.156
974	0.156
975	0.156
975	0.156
976	0.157
976	0.158
976	0.158
977	0.158
977	0.158
978	0.158
978	0.158
979	0.158
979	0.158
979	0.158
980	0.158
980	0.158
981	0.158
981	0.158
982	0.157
982	0.157
982	0.157
983	0.157
983	0.157
984	0.156
984	0.156
984	0.156
985	0.156
985	0.155
986	0.155
986	0.155
987	0.155
987	0.155
987	0.155
988	0.155
988	0.154
989	0.154
989	0.154
990	0.154
990	0.153
990	0.153
991	0.153
991	0.152
992	0.152
992	0.151
992	0.15
993	0.149
993	0.148
994	0.147
994	0.146
995	0.145
995	0.144
995	0.144
996	0.144
996	0.143
997	0.144
997	0.144
997	0.144
998	0.145
998	0.145
999	0.146
999	0.147
1000	0.148
1000	0.148
1000	0.149
1001	0.149
1001	0.15
1002	0.15
1002	0.15
1003	0.15
1003	0.149
1003	0.149
1004	0.148
1004	0.147
1005	0.146
1005	0.146
1005	0.145
1006	0.144
1006	0.143
1007	0.143
1007	0.142
1008	0.142
1008	0.141
1008	0.141
1009	0.141
1009	0.141
1010	0.141
1010	0.141
1010	0.141
1011	0.14
1011	0.14
1012	0.139
1012	0.139
1013	0.139
1013	0.138
1013	0.138
1014	0.137
1014	0.137
1015	0.137
1015	0.136
1016	0.136
1016	0.136
1016	0.135
1017	0.135
1017	0.134
1018	0.134
1018	0.134
1018	0.134
1019	0.133
1019	0.133
1020	0.133
1020	0.133
1021	0.134
1021	0.134
1021	0.134
1022	0.134
1022	0.134
1023	0.135
1023	0.135
1023	0.135
1024	0.135
1024	0.135
1025	0.135
1025	0.136
1026	0.136
1026	0.136
1026	0.135
1027	0.136
1027	0.135
1028	0.135
1028	0.135
1028	0.135
1029	0.136
1029	0.136
1030	0.136
1030	0.136
1031	0.136
1031	0.136
1031	0.136
1032	0.136
1032	0.136
1033	0.136
1033	0.136
1033	0.135
1034	0.135
1034	0.134
1035	0.134
1035	0.134
1036	0.134
1036	0.134
1036	0.133
1037	0.133
1037	0.132
1038	0.132
1038	0.132
1039	0.132
1039	0.131
1039	0.131
1040	0.131
1040	0.13
1041	0.13
1041	0.13
1041	0.13
1042	0.13
1042	0.129
1043	0.129
1043	0.129
1044	0.128
1044	0.128
1044	0.128
1045	0.127
1045	0.127
1046	0.127
1046	0.126
1046	0.126
1047	0.126
1047	0.126
1048	0.126
1048	0.126
1049	0.126
1049	0.126
1049	0.126
1050	0.126
1050	0.125
1051	0.125
1051	0.125
1051	0.125
1052	0.124
1052	0.124
1053	0.123
1053	0.122
1053	0.122
1054	0.121
1054	0.121
1055	0.12
1055	0.12
1056	0.119
1056	0.118
1056	0.118
1057	0.117
1057	0.116
1058	0.115
1058	0.114
1058	0.113
1059	0.112
1059	0.111
1060	0.11
1060	0.11
1061	0.109
1061	0.109
1061	0.109
1062	0.108
1062	0.108
1063	0.108
1063	0.108
1063	0.108
1064	0.108
1064	0.107
1065	0.107
1065	0.107
1066	0.107
1066	0.106
1066	0.106
1067	0.106
1067	0.106
1068	0.106
1068	0.106
1068	0.106
1069	0.106
1069	0.105
1070	0.105
1070	0.105
1071	0.105
1071	0.105
1071	0.104
1072	0.104
1072	0.104
1073	0.103
1073	0.103
1073	0.103
1074	0.103
1074	0.103
1075	0.104
1075	0.104
1076	0.104
1076	0.105
1076	0.105
1077	0.105
1077	0.106
1078	0.106
1078	0.106
1078	0.105
1079	0.105
1079	0.104
1080	0.104
1080	0.103
1080	0.103
1081	0.102
1081	0.102
1082	0.102
1082	0.102
1083	0.102
1083	0.101
1083	0.102
1084	0.102
1084	0.103
1085	0.103
1085	0.104
1085	0.104
1086	0.105
1086	0.104
1087	0.104
1087	0.104
1088	0.104
1088	0.104
1088	0.104
1089	0.103
1089	0.102
1090	0.102
1090	0.101
1090	0.1
1091	0.1
1091	0.1
1092	0.099
1092	0.099
1092	0.099
1093	0.098
1093	0.098
1094	0.098
1094	0.097
1095	0.097
1095	0.096
1095	0.095
1096	0.095
1096	0.094
1097	0.094
1097	0.092
1097	0.092
1098	0.091
1098	0.09
1099	0.089
1099	0.088
1100	0.087
1100	0.086
1100	0.085
1101	0.084
1101	0.084
1102	0.084
1102	0.083
1102	0.082
1103	0.081
1103	0.081
1104	0.08
1104	0.08
1104	0.08
1105	0.079
1105	0.077
1106	0.075
1106	0.074
1107	0.072
1107	0.072
1107	0.072
1108	0.071
1108	0.07
1109	0.069
1109	0.069
1109	0.069
1110	0.071
1110	0.073
1111	0.072
1111	0.071
