Data from reversibility-20sec_Absorbance__2863__000000000002863.txt Node

Date: Wed Dec 06 04:07:25 CET 2023
User: Marek
Spectrometer: MAYP115816
Trigger mode: 0
Integration Time (sec): 2.000000E-1
Scans to average: 10
Electric dark correction enabled: true
Nonlinearity correction enabled: true
Boxcar width: 5
XAxis mode: Wavelengths
Number of Pixels in Spectrum: 2068
>>>>>Begin Spectral Data<<<<<
199	-0.164
199	-0.126
200	-0.057
200	-0.007
201	0.019
201	0.039
202	0.054
202	0.064
203	0.073
203	0.08
204	0.093
204	0.109
205	0.12
205	0.128
205	0.127
206	0.13
206	0.129
207	0.13
207	0.133
208	0.133
208	0.13
209	0.132
209	0.13
210	0.128
210	0.128
211	0.127
211	0.13
212	0.129
212	0.13
213	0.129
213	0.129
213	0.129
214	0.132
214	0.133
215	0.137
215	0.136
216	0.143
216	0.14
217	0.141
217	0.144
218	0.143
218	0.148
219	0.151
219	0.154
220	0.157
220	0.159
221	0.16
221	0.161
221	0.168
222	0.176
222	0.179
223	0.187
223	0.193
224	0.2
224	0.208
225	0.215
225	0.224
226	0.234
226	0.243
227	0.252
227	0.264
228	0.28
228	0.294
229	0.31
229	0.332
229	0.353
230	0.38
230	0.407
231	0.44
231	0.482
232	0.517
232	0.559
233	0.603
233	0.651
234	0.7
234	0.753
235	0.809
235	0.864
236	0.92
236	0.974
236	1.023
237	1.082
237	1.13
238	1.179
238	1.231
239	1.284
239	1.328
240	1.369
240	1.409
241	1.45
241	1.486
242	1.521
242	1.554
243	1.59
243	1.618
243	1.644
244	1.668
244	1.694
245	1.713
245	1.738
246	1.756
246	1.776
247	1.792
247	1.807
248	1.824
248	1.839
249	1.851
249	1.859
250	1.871
250	1.883
250	1.887
251	1.895
251	1.9
252	1.908
252	1.91
253	1.914
253	1.914
254	1.916
254	1.92
255	1.918
255	1.92
256	1.923
256	1.922
257	1.924
257	1.924
258	1.924
258	1.924
258	1.924
259	1.926
259	1.925
260	1.925
260	1.928
261	1.93
261	1.934
262	1.939
262	1.94
263	1.948
263	1.952
264	1.954
264	1.956
265	1.961
265	1.962
265	1.962
266	1.961
266	1.963
267	1.962
267	1.964
268	1.963
268	1.965
269	1.97
269	1.97
270	1.97
270	1.972
271	1.971
271	1.973
272	1.972
272	1.97
272	1.967
273	1.959
273	1.951
274	1.944
274	1.936
275	1.928
275	1.922
276	1.914
276	1.906
277	1.896
277	1.884
278	1.873
278	1.861
278	1.845
279	1.825
279	1.802
280	1.773
280	1.737
281	1.696
281	1.65
282	1.603
282	1.556
283	1.509
283	1.465
284	1.423
284	1.382
285	1.343
285	1.309
285	1.279
286	1.251
286	1.227
287	1.206
287	1.189
288	1.174
288	1.161
289	1.15
289	1.14
290	1.132
290	1.124
291	1.118
291	1.113
292	1.108
292	1.103
292	1.099
293	1.095
293	1.091
294	1.088
294	1.085
295	1.082
295	1.079
296	1.075
296	1.072
297	1.069
297	1.067
298	1.063
298	1.06
298	1.057
299	1.054
299	1.052
300	1.048
300	1.046
301	1.043
301	1.04
302	1.038
302	1.035
303	1.033
303	1.031
304	1.028
304	1.026
305	1.023
305	1.021
305	1.019
306	1.016
306	1.013
307	1.011
307	1.008
308	1.005
308	1.003
309	1
309	0.997
310	0.993
310	0.99
311	0.987
311	0.984
311	0.981
312	0.977
312	0.974
313	0.97
313	0.966
314	0.962
314	0.958
315	0.953
315	0.949
316	0.945
316	0.94
317	0.935
317	0.93
318	0.925
318	0.92
318	0.915
319	0.909
319	0.904
320	0.898
320	0.892
321	0.886
321	0.88
322	0.873
322	0.867
323	0.86
323	0.854
324	0.847
324	0.84
324	0.834
325	0.827
325	0.82
326	0.813
326	0.806
327	0.799
327	0.792
328	0.785
328	0.777
329	0.77
329	0.763
330	0.756
330	0.749
330	0.742
331	0.735
331	0.727
332	0.72
332	0.713
333	0.706
333	0.699
334	0.692
334	0.685
335	0.678
335	0.671
336	0.664
336	0.658
336	0.651
337	0.644
337	0.638
338	0.632
338	0.625
339	0.62
339	0.613
340	0.608
340	0.602
341	0.596
341	0.591
342	0.585
342	0.58
342	0.574
343	0.569
343	0.564
344	0.559
344	0.554
345	0.549
345	0.544
346	0.539
346	0.535
347	0.53
347	0.526
348	0.522
348	0.518
348	0.514
349	0.51
349	0.506
350	0.503
350	0.499
351	0.496
351	0.492
352	0.489
352	0.486
353	0.483
353	0.48
354	0.477
354	0.474
354	0.471
355	0.468
355	0.465
356	0.462
356	0.46
357	0.457
357	0.454
358	0.452
358	0.449
359	0.447
359	0.444
360	0.442
360	0.44
360	0.438
361	0.435
361	0.433
362	0.431
362	0.429
363	0.427
363	0.426
364	0.423
364	0.421
365	0.419
365	0.417
366	0.415
366	0.414
366	0.412
367	0.41
367	0.408
368	0.406
368	0.404
369	0.403
369	0.401
370	0.4
370	0.398
371	0.397
371	0.395
372	0.394
372	0.393
372	0.391
373	0.39
373	0.389
374	0.388
374	0.387
375	0.386
375	0.385
376	0.384
376	0.383
377	0.381
377	0.38
378	0.379
378	0.378
378	0.377
379	0.376
379	0.375
380	0.374
380	0.373
381	0.372
381	0.371
382	0.371
382	0.37
383	0.37
383	0.369
383	0.368
384	0.367
384	0.367
385	0.366
385	0.366
386	0.365
386	0.365
387	0.364
387	0.363
388	0.362
388	0.362
389	0.362
389	0.361
389	0.36
390	0.36
390	0.359
391	0.358
391	0.358
392	0.357
392	0.357
393	0.357
393	0.356
394	0.355
394	0.355
394	0.355
395	0.354
395	0.354
396	0.353
396	0.353
397	0.352
397	0.352
398	0.352
398	0.351
399	0.351
399	0.35
400	0.35
400	0.349
400	0.349
401	0.348
401	0.347
402	0.347
402	0.347
403	0.346
403	0.346
404	0.345
404	0.345
405	0.344
405	0.344
405	0.344
406	0.343
406	0.343
407	0.342
407	0.342
408	0.342
408	0.341
409	0.341
409	0.34
410	0.34
410	0.34
411	0.339
411	0.339
411	0.339
412	0.339
412	0.338
413	0.337
413	0.337
414	0.337
414	0.336
415	0.336
415	0.335
416	0.335
416	0.335
416	0.334
417	0.334
417	0.334
418	0.333
418	0.333
419	0.333
419	0.332
420	0.332
420	0.332
421	0.331
421	0.331
421	0.33
422	0.33
422	0.33
423	0.329
423	0.329
424	0.328
424	0.328
425	0.327
425	0.327
426	0.327
426	0.326
427	0.326
427	0.326
427	0.325
428	0.325
428	0.325
429	0.325
429	0.324
430	0.324
430	0.324
431	0.324
431	0.324
432	0.323
432	0.323
432	0.323
433	0.323
433	0.322
434	0.322
434	0.323
435	0.322
435	0.322
436	0.322
436	0.322
437	0.321
437	0.321
437	0.321
438	0.321
438	0.32
439	0.32
439	0.32
440	0.319
440	0.319
441	0.319
441	0.318
442	0.318
442	0.318
442	0.318
443	0.318
443	0.318
444	0.318
444	0.317
445	0.317
445	0.317
446	0.317
446	0.316
447	0.316
447	0.316
447	0.316
448	0.316
448	0.315
449	0.315
449	0.315
450	0.315
450	0.315
451	0.315
451	0.315
452	0.315
452	0.315
452	0.315
453	0.315
453	0.314
454	0.314
454	0.314
455	0.314
455	0.314
456	0.313
456	0.313
457	0.313
457	0.313
458	0.313
458	0.313
458	0.313
459	0.313
459	0.313
460	0.313
460	0.313
461	0.313
461	0.313
462	0.313
462	0.313
463	0.313
463	0.312
463	0.312
464	0.312
464	0.312
465	0.312
465	0.312
466	0.311
466	0.311
467	0.311
467	0.312
467	0.312
468	0.312
468	0.312
469	0.312
469	0.312
470	0.313
470	0.313
471	0.313
471	0.313
472	0.313
472	0.314
472	0.314
473	0.314
473	0.315
474	0.315
474	0.315
475	0.315
475	0.315
476	0.316
476	0.316
477	0.316
477	0.317
477	0.317
478	0.317
478	0.317
479	0.318
479	0.318
480	0.319
480	0.319
481	0.319
481	0.32
482	0.32
482	0.321
482	0.321
483	0.322
483	0.322
484	0.323
484	0.323
485	0.323
485	0.324
486	0.324
486	0.325
487	0.325
487	0.326
487	0.326
488	0.327
488	0.327
489	0.328
489	0.329
490	0.331
490	0.331
491	0.333
491	0.334
492	0.335
492	0.336
492	0.337
493	0.338
493	0.339
494	0.34
494	0.341
495	0.342
495	0.343
496	0.344
496	0.345
496	0.346
497	0.347
497	0.348
498	0.349
498	0.35
499	0.35
499	0.352
500	0.353
500	0.354
501	0.355
501	0.356
501	0.357
502	0.358
502	0.359
503	0.36
503	0.361
504	0.362
504	0.363
505	0.364
505	0.365
506	0.365
506	0.366
506	0.367
507	0.368
507	0.369
508	0.37
508	0.371
509	0.372
509	0.373
510	0.374
510	0.375
511	0.376
511	0.377
511	0.378
512	0.379
512	0.379
513	0.38
513	0.381
514	0.382
514	0.383
515	0.383
515	0.384
515	0.384
516	0.385
516	0.385
517	0.386
517	0.386
518	0.387
518	0.387
519	0.388
519	0.388
520	0.388
520	0.388
520	0.389
521	0.389
521	0.389
522	0.389
522	0.389
523	0.39
523	0.39
524	0.389
524	0.389
524	0.389
525	0.389
525	0.389
526	0.389
526	0.388
527	0.388
527	0.388
528	0.387
528	0.387
529	0.386
529	0.385
529	0.385
530	0.384
530	0.383
531	0.382
531	0.382
532	0.381
532	0.379
533	0.379
533	0.377
533	0.377
534	0.375
534	0.375
535	0.374
535	0.373
536	0.371
536	0.371
537	0.37
537	0.368
538	0.367
538	0.366
538	0.365
539	0.364
539	0.363
540	0.362
540	0.36
541	0.359
541	0.358
542	0.357
542	0.355
542	0.354
543	0.353
543	0.351
544	0.35
544	0.349
545	0.348
545	0.346
546	0.345
546	0.344
547	0.342
547	0.34
547	0.338
548	0.337
548	0.336
549	0.334
549	0.333
550	0.331
550	0.33
551	0.328
551	0.327
551	0.325
552	0.324
552	0.323
553	0.321
553	0.32
554	0.319
554	0.317
555	0.315
555	0.314
556	0.312
556	0.311
556	0.31
557	0.309
557	0.308
558	0.306
558	0.305
559	0.304
559	0.303
560	0.302
560	0.301
560	0.299
561	0.298
561	0.297
562	0.295
562	0.294
563	0.292
563	0.29
564	0.289
564	0.287
564	0.286
565	0.285
565	0.284
566	0.282
566	0.281
567	0.28
567	0.279
568	0.278
568	0.277
568	0.276
569	0.275
569	0.273
570	0.272
570	0.27
571	0.269
571	0.268
572	0.267
572	0.266
573	0.265
573	0.264
573	0.263
574	0.262
574	0.261
575	0.261
575	0.26
576	0.259
576	0.258
577	0.257
577	0.256
577	0.255
578	0.254
578	0.253
579	0.253
579	0.252
580	0.251
580	0.249
581	0.248
581	0.247
581	0.247
582	0.247
582	0.246
583	0.245
583	0.245
584	0.243
584	0.241
585	0.241
585	0.24
585	0.239
586	0.238
586	0.238
587	0.236
587	0.236
588	0.235
588	0.234
589	0.234
589	0.233
590	0.233
590	0.232
590	0.233
591	0.232
591	0.231
592	0.23
592	0.229
593	0.228
593	0.227
594	0.227
594	0.225
594	0.225
595	0.224
595	0.223
596	0.222
596	0.222
597	0.222
597	0.222
598	0.221
598	0.221
598	0.221
599	0.22
599	0.22
600	0.219
600	0.218
601	0.218
601	0.217
602	0.216
602	0.216
602	0.215
603	0.215
603	0.214
604	0.214
604	0.214
605	0.214
605	0.213
606	0.213
606	0.212
606	0.211
607	0.211
607	0.21
608	0.21
608	0.208
609	0.208
609	0.207
610	0.207
610	0.206
610	0.206
611	0.206
611	0.205
612	0.205
612	0.206
613	0.206
613	0.205
614	0.205
614	0.204
614	0.204
615	0.204
615	0.204
616	0.204
616	0.203
617	0.203
617	0.202
618	0.202
618	0.201
618	0.201
619	0.201
619	0.201
620	0.201
620	0.201
621	0.2
621	0.2
622	0.199
622	0.199
622	0.199
623	0.198
623	0.198
624	0.197
624	0.196
625	0.195
625	0.195
626	0.194
626	0.194
626	0.194
627	0.194
627	0.194
628	0.194
628	0.193
629	0.193
629	0.193
630	0.193
630	0.193
630	0.193
631	0.193
631	0.192
632	0.192
632	0.191
633	0.191
633	0.191
634	0.191
634	0.191
634	0.191
635	0.191
635	0.19
636	0.19
636	0.19
637	0.19
637	0.19
638	0.189
638	0.189
638	0.188
639	0.187
639	0.187
640	0.186
640	0.186
641	0.186
641	0.186
642	0.185
642	0.186
642	0.186
643	0.186
643	0.186
644	0.186
644	0.187
645	0.186
645	0.187
646	0.186
646	0.186
646	0.186
647	0.185
647	0.185
648	0.185
648	0.184
649	0.184
649	0.184
650	0.184
650	0.184
650	0.184
651	0.183
651	0.183
652	0.183
652	0.183
653	0.183
653	0.184
653	0.19
654	0.149
654	0.119
655	0.12
655	0.12
656	0.121
656	0.121
657	0.121
657	0.122
657	0.122
658	0.121
658	0.111
659	0.14
659	0.179
660	0.184
660	0.183
661	0.183
661	0.182
661	0.181
662	0.181
662	0.18
663	0.18
663	0.179
664	0.179
664	0.179
665	0.179
665	0.179
665	0.179
666	0.179
666	0.179
667	0.18
667	0.18
668	0.18
668	0.18
669	0.18
669	0.18
669	0.181
670	0.181
670	0.181
671	0.181
671	0.181
672	0.18
672	0.18
672	0.179
673	0.179
673	0.179
674	0.179
674	0.178
675	0.178
675	0.178
676	0.178
676	0.178
676	0.179
677	0.179
677	0.179
678	0.179
678	0.178
679	0.178
679	0.178
680	0.178
680	0.177
680	0.177
681	0.177
681	0.177
682	0.177
682	0.177
683	0.178
683	0.178
684	0.179
684	0.179
684	0.178
685	0.179
685	0.179
686	0.179
686	0.178
687	0.178
687	0.178
687	0.178
688	0.178
688	0.177
689	0.178
689	0.178
690	0.178
690	0.177
691	0.177
691	0.177
691	0.177
692	0.177
692	0.177
693	0.178
693	0.178
694	0.177
694	0.177
695	0.178
695	0.178
695	0.178
696	0.178
696	0.178
697	0.178
697	0.178
698	0.177
698	0.177
698	0.177
699	0.177
699	0.177
700	0.176
700	0.176
701	0.176
701	0.176
702	0.176
702	0.176
702	0.176
703	0.176
703	0.176
704	0.176
704	0.176
705	0.176
705	0.176
705	0.176
706	0.176
706	0.176
707	0.175
707	0.175
708	0.175
708	0.175
709	0.175
709	0.175
709	0.174
710	0.174
710	0.174
711	0.175
711	0.175
712	0.175
712	0.175
713	0.175
713	0.175
713	0.175
714	0.175
714	0.175
715	0.175
715	0.175
716	0.174
716	0.174
716	0.174
717	0.174
717	0.174
718	0.173
718	0.173
719	0.173
719	0.173
720	0.173
720	0.174
720	0.174
721	0.174
721	0.174
722	0.174
722	0.174
723	0.175
723	0.175
723	0.175
724	0.175
724	0.175
725	0.174
725	0.174
726	0.173
726	0.173
727	0.173
727	0.173
727	0.173
728	0.173
728	0.173
729	0.174
729	0.174
730	0.174
730	0.174
730	0.175
731	0.175
731	0.175
732	0.176
732	0.176
733	0.176
733	0.176
734	0.176
734	0.176
734	0.176
735	0.176
735	0.176
736	0.176
736	0.175
737	0.175
737	0.174
737	0.174
738	0.173
738	0.173
739	0.173
739	0.173
740	0.173
740	0.173
741	0.173
741	0.173
741	0.174
742	0.174
742	0.174
743	0.175
743	0.175
744	0.175
744	0.175
744	0.175
745	0.175
745	0.175
746	0.175
746	0.175
747	0.175
747	0.175
748	0.175
748	0.175
748	0.176
749	0.176
749	0.177
750	0.177
750	0.177
751	0.178
751	0.178
751	0.178
752	0.178
752	0.177
753	0.177
753	0.177
754	0.176
754	0.176
754	0.176
755	0.175
755	0.175
756	0.174
756	0.173
757	0.173
757	0.173
758	0.173
758	0.172
758	0.172
759	0.173
759	0.172
760	0.172
760	0.172
761	0.173
761	0.173
761	0.174
762	0.174
762	0.175
763	0.175
763	0.175
764	0.175
764	0.175
764	0.175
765	0.175
765	0.174
766	0.174
766	0.174
767	0.174
767	0.174
768	0.173
768	0.173
768	0.173
769	0.173
769	0.173
770	0.173
770	0.173
771	0.173
771	0.173
771	0.173
772	0.173
772	0.174
773	0.174
773	0.174
774	0.174
774	0.174
775	0.174
775	0.174
775	0.174
776	0.174
776	0.173
777	0.173
777	0.173
778	0.173
778	0.172
778	0.172
779	0.171
779	0.171
780	0.17
780	0.17
781	0.169
781	0.169
781	0.169
782	0.168
782	0.168
783	0.168
783	0.168
784	0.168
784	0.168
784	0.168
785	0.168
785	0.168
786	0.168
786	0.168
787	0.168
787	0.168
788	0.168
788	0.167
788	0.167
789	0.167
789	0.166
790	0.166
790	0.166
791	0.166
791	0.166
791	0.165
792	0.166
792	0.166
793	0.166
793	0.165
794	0.165
794	0.165
794	0.165
795	0.165
795	0.165
796	0.165
796	0.165
797	0.164
797	0.164
797	0.164
798	0.164
798	0.164
799	0.164
799	0.164
800	0.163
800	0.163
801	0.162
801	0.161
801	0.161
802	0.161
802	0.161
803	0.16
803	0.16
804	0.16
804	0.161
804	0.161
805	0.161
805	0.161
806	0.162
806	0.162
807	0.161
807	0.161
807	0.161
808	0.161
808	0.161
809	0.16
809	0.16
810	0.159
810	0.159
810	0.159
811	0.159
811	0.159
812	0.159
812	0.16
813	0.16
813	0.16
813	0.16
814	0.161
814	0.161
815	0.161
815	0.16
816	0.16
816	0.159
817	0.158
817	0.158
817	0.158
818	0.157
818	0.157
819	0.156
819	0.155
820	0.155
820	0.154
820	0.154
821	0.154
821	0.153
822	0.153
822	0.153
823	0.153
823	0.153
823	0.154
824	0.155
824	0.156
825	0.157
825	0.157
826	0.158
826	0.158
826	0.158
827	0.158
827	0.157
828	0.156
828	0.156
829	0.155
829	0.154
829	0.154
830	0.153
830	0.153
831	0.154
831	0.153
832	0.153
832	0.153
832	0.153
833	0.153
833	0.153
834	0.153
834	0.152
835	0.152
835	0.151
835	0.151
836	0.15
836	0.15
837	0.149
837	0.149
838	0.148
838	0.148
839	0.147
839	0.147
839	0.146
840	0.145
840	0.144
841	0.143
841	0.142
842	0.141
842	0.141
842	0.14
843	0.14
843	0.139
844	0.139
844	0.139
845	0.139
845	0.139
845	0.14
846	0.14
846	0.14
847	0.14
847	0.14
848	0.14
848	0.14
848	0.14
849	0.139
849	0.139
850	0.138
850	0.138
851	0.137
851	0.136
851	0.136
852	0.135
852	0.135
853	0.134
853	0.134
854	0.134
854	0.134
854	0.135
855	0.136
855	0.137
856	0.137
856	0.138
857	0.138
857	0.139
857	0.139
858	0.139
858	0.138
859	0.138
859	0.137
860	0.136
860	0.135
860	0.133
861	0.132
861	0.131
862	0.13
862	0.129
863	0.128
863	0.127
863	0.127
864	0.126
864	0.126
865	0.126
865	0.126
866	0.126
866	0.126
866	0.126
867	0.126
867	0.126
868	0.126
868	0.126
869	0.126
869	0.125
869	0.124
870	0.123
870	0.123
871	0.122
871	0.122
872	0.122
872	0.121
872	0.121
873	0.12
873	0.12
874	0.119
874	0.119
875	0.119
875	0.119
875	0.118
876	0.118
876	0.118
877	0.118
877	0.118
878	0.118
878	0.119
878	0.119
879	0.12
879	0.12
880	0.121
880	0.121
881	0.121
881	0.121
881	0.121
882	0.121
882	0.121
883	0.121
883	0.121
884	0.12
884	0.12
884	0.12
885	0.119
885	0.119
886	0.118
886	0.117
887	0.116
887	0.115
887	0.114
888	0.114
888	0.113
889	0.112
889	0.111
890	0.111
890	0.111
890	0.11
891	0.11
891	0.11
892	0.11
892	0.11
893	0.111
893	0.111
893	0.111
894	0.111
894	0.111
895	0.11
895	0.11
895	0.11
896	0.11
896	0.11
897	0.109
897	0.109
898	0.109
898	0.108
898	0.108
899	0.107
899	0.107
900	0.107
900	0.107
901	0.107
901	0.106
901	0.106
902	0.106
902	0.106
903	0.106
903	0.105
904	0.105
904	0.105
904	0.105
905	0.105
905	0.105
906	0.105
906	0.105
907	0.105
907	0.106
907	0.106
908	0.106
908	0.107
909	0.107
909	0.107
910	0.107
910	0.107
910	0.107
911	0.106
911	0.106
912	0.106
912	0.106
913	0.106
913	0.105
913	0.105
914	0.105
914	0.105
915	0.104
915	0.104
916	0.104
916	0.104
916	0.103
917	0.103
917	0.102
918	0.102
918	0.102
918	0.101
919	0.101
919	0.1
920	0.1
920	0.099
921	0.099
921	0.098
921	0.098
922	0.097
922	0.097
923	0.096
923	0.096
924	0.096
924	0.096
924	0.095
925	0.095
925	0.095
926	0.095
926	0.095
927	0.095
927	0.095
927	0.095
928	0.096
928	0.096
929	0.096
929	0.097
930	0.097
930	0.098
930	0.098
931	0.098
931	0.099
932	0.099
932	0.099
933	0.099
933	0.099
933	0.098
934	0.098
934	0.097
935	0.097
935	0.096
935	0.096
936	0.095
936	0.094
937	0.094
937	0.093
938	0.093
938	0.092
938	0.092
939	0.091
939	0.091
940	0.091
940	0.091
941	0.09
941	0.09
941	0.09
942	0.09
942	0.09
943	0.091
943	0.091
944	0.091
944	0.091
944	0.092
945	0.092
945	0.093
946	0.093
946	0.093
946	0.094
947	0.094
947	0.094
948	0.094
948	0.095
949	0.094
949	0.095
949	0.094
950	0.094
950	0.093
951	0.093
951	0.092
952	0.091
952	0.09
952	0.089
953	0.088
953	0.087
954	0.086
954	0.086
955	0.085
955	0.084
955	0.084
956	0.084
956	0.084
957	0.084
957	0.084
957	0.084
958	0.084
958	0.084
959	0.084
959	0.084
960	0.084
960	0.084
960	0.084
961	0.084
961	0.084
962	0.083
962	0.083
963	0.083
963	0.083
963	0.082
964	0.082
964	0.083
965	0.083
965	0.083
966	0.084
966	0.084
966	0.085
967	0.086
967	0.086
968	0.087
968	0.088
968	0.088
969	0.088
969	0.088
970	0.088
970	0.088
971	0.088
971	0.088
971	0.088
972	0.088
972	0.087
973	0.087
973	0.087
974	0.087
974	0.087
974	0.087
975	0.087
975	0.086
976	0.086
976	0.086
976	0.086
977	0.086
977	0.086
978	0.086
978	0.086
979	0.086
979	0.085
979	0.085
980	0.085
980	0.085
981	0.085
981	0.085
982	0.085
982	0.085
982	0.085
983	0.084
983	0.084
984	0.084
984	0.083
984	0.083
985	0.082
985	0.082
986	0.081
986	0.081
987	0.08
987	0.08
987	0.08
988	0.079
988	0.079
989	0.078
989	0.078
990	0.077
990	0.077
990	0.076
991	0.076
991	0.075
992	0.075
992	0.074
992	0.073
993	0.072
993	0.072
994	0.072
994	0.071
995	0.071
995	0.071
995	0.072
996	0.072
996	0.072
997	0.073
997	0.074
997	0.075
998	0.075
998	0.076
999	0.077
999	0.078
1000	0.079
1000	0.079
1000	0.08
1001	0.08
1001	0.08
1002	0.079
1002	0.078
1003	0.078
1003	0.076
1003	0.075
1004	0.074
1004	0.073
1005	0.071
1005	0.07
1005	0.069
1006	0.068
1006	0.068
1007	0.067
1007	0.067
1008	0.067
1008	0.067
1008	0.067
1009	0.068
1009	0.068
1010	0.068
1010	0.069
1010	0.069
1011	0.07
1011	0.07
1012	0.07
1012	0.07
1013	0.07
1013	0.07
1013	0.07
1014	0.069
1014	0.069
1015	0.069
1015	0.069
1016	0.069
1016	0.069
1016	0.068
1017	0.068
1017	0.068
1018	0.068
1018	0.067
1018	0.067
1019	0.067
1019	0.067
1020	0.067
1020	0.067
1021	0.067
1021	0.067
1021	0.067
1022	0.067
1022	0.067
1023	0.068
1023	0.068
1023	0.068
1024	0.068
1024	0.068
1025	0.068
1025	0.068
1026	0.067
1026	0.067
1026	0.067
1027	0.067
1027	0.066
1028	0.066
1028	0.066
1028	0.065
1029	0.065
1029	0.065
1030	0.065
1030	0.066
1031	0.066
1031	0.066
1031	0.066
1032	0.066
1032	0.067
1033	0.067
1033	0.067
1033	0.067
1034	0.067
1034	0.067
1035	0.067
1035	0.067
1036	0.066
1036	0.066
1036	0.066
1037	0.066
1037	0.065
1038	0.065
1038	0.065
1039	0.065
1039	0.065
1039	0.065
1040	0.066
1040	0.066
1041	0.067
1041	0.067
1041	0.067
1042	0.068
1042	0.068
1043	0.068
1043	0.069
1044	0.069
1044	0.07
1044	0.07
1045	0.07
1045	0.071
1046	0.071
1046	0.071
1046	0.072
1047	0.072
1047	0.072
1048	0.073
1048	0.073
1049	0.073
1049	0.074
1049	0.074
1050	0.074
1050	0.074
1051	0.074
1051	0.074
1051	0.074
1052	0.073
1052	0.073
1053	0.072
1053	0.071
1053	0.071
1054	0.07
1054	0.07
1055	0.069
1055	0.069
1056	0.068
1056	0.067
1056	0.066
1057	0.065
1057	0.065
1058	0.064
1058	0.062
1058	0.062
1059	0.061
1059	0.06
1060	0.06
1060	0.059
1061	0.059
1061	0.058
1061	0.058
1062	0.058
1062	0.058
1063	0.058
1063	0.057
1063	0.057
1064	0.056
1064	0.056
1065	0.056
1065	0.056
1066	0.055
1066	0.055
1066	0.054
1067	0.054
1067	0.054
1068	0.054
1068	0.054
1068	0.053
1069	0.053
1069	0.053
1070	0.052
1070	0.052
1071	0.051
1071	0.052
1071	0.051
1072	0.051
1072	0.051
1073	0.05
1073	0.05
1073	0.049
1074	0.05
1074	0.05
1075	0.05
1075	0.05
1076	0.051
1076	0.052
1076	0.052
1077	0.052
1077	0.053
1078	0.053
1078	0.053
1078	0.054
1079	0.053
1079	0.054
1080	0.053
1080	0.053
1080	0.053
1081	0.053
1081	0.053
1082	0.054
1082	0.054
1083	0.054
1083	0.054
1083	0.054
1084	0.054
1084	0.055
1085	0.054
1085	0.055
1085	0.055
1086	0.054
1086	0.053
1087	0.053
1087	0.053
1088	0.052
1088	0.052
1088	0.052
1089	0.051
1089	0.051
1090	0.05
1090	0.049
1090	0.049
1091	0.049
1091	0.049
1092	0.048
1092	0.048
1092	0.048
1093	0.048
1093	0.049
1094	0.049
1094	0.048
1095	0.048
1095	0.048
1095	0.048
1096	0.047
1096	0.047
1097	0.046
1097	0.045
1097	0.045
1098	0.044
1098	0.043
1099	0.043
1099	0.042
1100	0.042
1100	0.041
1100	0.04
1101	0.04
1101	0.04
1102	0.04
1102	0.038
1102	0.037
1103	0.037
1103	0.037
1104	0.038
1104	0.038
1104	0.037
1105	0.036
1105	0.034
1106	0.032
1106	0.031
1107	0.03
1107	0.031
1107	0.03
1108	0.029
1108	0.027
1109	0.026
1109	0.025
1109	0.026
1110	0.026
1110	0.028
1111	0.027
1111	0.031
