Data from reversibility-20sec_Absorbance__68__000000000000068.txt Node

Date: Tue Dec 05 12:35:45 CET 2023
User: Marek
Spectrometer: MAYP115816
Trigger mode: 0
Integration Time (sec): 2.000000E-1
Scans to average: 10
Electric dark correction enabled: true
Nonlinearity correction enabled: true
Boxcar width: 5
XAxis mode: Wavelengths
Number of Pixels in Spectrum: 2068
>>>>>Begin Spectral Data<<<<<
199	-0.182
199	-0.144
200	-0.074
200	-0.019
201	0.007
201	0.024
202	0.037
202	0.046
203	0.052
203	0.055
204	0.067
204	0.08
205	0.093
205	0.097
205	0.092
206	0.091
206	0.09
207	0.092
207	0.089
208	0.087
208	0.088
209	0.092
209	0.09
210	0.086
210	0.086
211	0.088
211	0.091
212	0.09
212	0.092
213	0.097
213	0.102
213	0.101
214	0.102
214	0.105
215	0.109
215	0.11
216	0.11
216	0.109
217	0.115
217	0.117
218	0.116
218	0.117
219	0.122
219	0.124
220	0.127
220	0.126
221	0.126
221	0.128
221	0.131
222	0.133
222	0.135
223	0.141
223	0.143
224	0.148
224	0.152
225	0.161
225	0.17
226	0.181
226	0.195
227	0.207
227	0.22
228	0.236
228	0.25
229	0.268
229	0.29
229	0.314
230	0.337
230	0.368
231	0.399
231	0.436
232	0.469
232	0.512
233	0.557
233	0.605
234	0.653
234	0.707
235	0.758
235	0.81
236	0.861
236	0.914
236	0.963
237	1.017
237	1.062
238	1.107
238	1.154
239	1.201
239	1.24
240	1.281
240	1.316
241	1.351
241	1.384
242	1.417
242	1.446
243	1.477
243	1.5
243	1.524
244	1.544
244	1.567
245	1.586
245	1.607
246	1.624
246	1.641
247	1.652
247	1.667
248	1.679
248	1.692
249	1.699
249	1.708
250	1.713
250	1.718
250	1.72
251	1.723
251	1.722
252	1.725
252	1.724
253	1.725
253	1.721
254	1.719
254	1.717
255	1.714
255	1.713
256	1.711
256	1.709
257	1.71
257	1.707
258	1.706
258	1.705
258	1.704
259	1.704
259	1.704
260	1.704
260	1.706
261	1.706
261	1.708
262	1.709
262	1.711
263	1.713
263	1.715
264	1.717
264	1.717
265	1.718
265	1.719
265	1.718
266	1.717
266	1.717
267	1.716
267	1.717
268	1.716
268	1.717
269	1.717
269	1.716
270	1.715
270	1.714
271	1.711
271	1.71
272	1.705
272	1.702
272	1.697
273	1.691
273	1.683
274	1.676
274	1.671
275	1.662
275	1.655
276	1.648
276	1.64
277	1.633
277	1.624
278	1.613
278	1.601
278	1.586
279	1.57
279	1.548
280	1.523
280	1.492
281	1.454
281	1.414
282	1.373
282	1.33
283	1.289
283	1.249
284	1.21
284	1.173
285	1.138
285	1.107
285	1.078
286	1.054
286	1.033
287	1.014
287	0.999
288	0.985
288	0.974
289	0.965
289	0.957
290	0.95
290	0.944
291	0.939
291	0.935
292	0.932
292	0.928
292	0.925
293	0.923
293	0.92
294	0.918
294	0.916
295	0.914
295	0.912
296	0.91
296	0.907
297	0.906
297	0.904
298	0.902
298	0.9
298	0.898
299	0.896
299	0.894
300	0.892
300	0.889
301	0.888
301	0.886
302	0.884
302	0.882
303	0.88
303	0.878
304	0.876
304	0.875
305	0.873
305	0.871
305	0.869
306	0.867
306	0.865
307	0.864
307	0.861
308	0.859
308	0.857
309	0.855
309	0.852
310	0.85
310	0.848
311	0.845
311	0.842
311	0.84
312	0.837
312	0.834
313	0.83
313	0.827
314	0.824
314	0.82
315	0.816
315	0.812
316	0.808
316	0.804
317	0.8
317	0.795
318	0.79
318	0.786
318	0.781
319	0.776
319	0.771
320	0.765
320	0.76
321	0.754
321	0.749
322	0.743
322	0.737
323	0.731
323	0.725
324	0.719
324	0.713
324	0.706
325	0.7
325	0.694
326	0.687
326	0.681
327	0.674
327	0.668
328	0.661
328	0.655
329	0.648
329	0.641
330	0.634
330	0.627
330	0.621
331	0.614
331	0.607
332	0.6
332	0.593
333	0.587
333	0.58
334	0.573
334	0.566
335	0.56
335	0.553
336	0.547
336	0.54
336	0.534
337	0.528
337	0.522
338	0.516
338	0.51
339	0.504
339	0.498
340	0.493
340	0.488
341	0.482
341	0.477
342	0.472
342	0.466
342	0.461
343	0.456
343	0.451
344	0.447
344	0.442
345	0.437
345	0.433
346	0.429
346	0.424
347	0.42
347	0.416
348	0.412
348	0.408
348	0.405
349	0.401
349	0.397
350	0.394
350	0.39
351	0.387
351	0.384
352	0.381
352	0.378
353	0.375
353	0.373
354	0.37
354	0.367
354	0.364
355	0.361
355	0.359
356	0.356
356	0.353
357	0.35
357	0.347
358	0.345
358	0.342
359	0.34
359	0.338
360	0.336
360	0.334
360	0.332
361	0.331
361	0.329
362	0.328
362	0.326
363	0.324
363	0.323
364	0.321
364	0.319
365	0.317
365	0.316
366	0.314
366	0.312
366	0.311
367	0.309
367	0.307
368	0.306
368	0.304
369	0.303
369	0.301
370	0.3
370	0.299
371	0.297
371	0.296
372	0.295
372	0.294
372	0.293
373	0.292
373	0.291
374	0.29
374	0.289
375	0.288
375	0.287
376	0.286
376	0.285
377	0.284
377	0.283
378	0.282
378	0.281
378	0.28
379	0.279
379	0.278
380	0.278
380	0.277
381	0.276
381	0.275
382	0.275
382	0.274
383	0.274
383	0.273
383	0.272
384	0.271
384	0.271
385	0.27
385	0.27
386	0.269
386	0.269
387	0.268
387	0.268
388	0.267
388	0.266
389	0.266
389	0.266
389	0.265
390	0.265
390	0.264
391	0.264
391	0.263
392	0.263
392	0.263
393	0.262
393	0.262
394	0.261
394	0.261
394	0.261
395	0.26
395	0.26
396	0.259
396	0.259
397	0.258
397	0.258
398	0.257
398	0.257
399	0.257
399	0.256
400	0.256
400	0.256
400	0.255
401	0.255
401	0.255
402	0.254
402	0.254
403	0.254
403	0.253
404	0.253
404	0.253
405	0.253
405	0.252
405	0.252
406	0.251
406	0.251
407	0.251
407	0.25
408	0.25
408	0.25
409	0.249
409	0.249
410	0.249
410	0.248
411	0.248
411	0.248
411	0.248
412	0.248
412	0.247
413	0.247
413	0.247
414	0.247
414	0.246
415	0.246
415	0.246
416	0.246
416	0.246
416	0.245
417	0.245
417	0.244
418	0.244
418	0.244
419	0.243
419	0.243
420	0.243
420	0.243
421	0.242
421	0.242
421	0.242
422	0.242
422	0.242
423	0.241
423	0.241
424	0.241
424	0.241
425	0.24
425	0.24
426	0.24
426	0.239
427	0.239
427	0.239
427	0.239
428	0.238
428	0.238
429	0.238
429	0.238
430	0.238
430	0.238
431	0.238
431	0.238
432	0.237
432	0.237
432	0.237
433	0.237
433	0.237
434	0.237
434	0.237
435	0.236
435	0.236
436	0.236
436	0.236
437	0.236
437	0.236
437	0.236
438	0.235
438	0.235
439	0.235
439	0.235
440	0.234
440	0.234
441	0.234
441	0.234
442	0.234
442	0.234
442	0.234
443	0.233
443	0.233
444	0.233
444	0.233
445	0.233
445	0.233
446	0.233
446	0.233
447	0.233
447	0.232
447	0.232
448	0.232
448	0.232
449	0.232
449	0.232
450	0.232
450	0.231
451	0.231
451	0.231
452	0.231
452	0.231
452	0.231
453	0.231
453	0.231
454	0.231
454	0.231
455	0.23
455	0.23
456	0.23
456	0.23
457	0.23
457	0.23
458	0.23
458	0.23
458	0.23
459	0.23
459	0.23
460	0.23
460	0.23
461	0.23
461	0.23
462	0.229
462	0.229
463	0.229
463	0.229
463	0.229
464	0.229
464	0.229
465	0.228
465	0.229
466	0.228
466	0.228
467	0.228
467	0.229
467	0.229
468	0.229
468	0.229
469	0.229
469	0.229
470	0.229
470	0.229
471	0.229
471	0.23
472	0.23
472	0.23
472	0.23
473	0.23
473	0.23
474	0.23
474	0.23
475	0.23
475	0.231
476	0.231
476	0.231
477	0.231
477	0.232
477	0.232
478	0.232
478	0.233
479	0.233
479	0.233
480	0.233
480	0.233
481	0.234
481	0.234
482	0.234
482	0.235
482	0.235
483	0.236
483	0.236
484	0.237
484	0.237
485	0.238
485	0.238
486	0.239
486	0.239
487	0.239
487	0.24
487	0.24
488	0.24
488	0.241
489	0.242
489	0.242
490	0.243
490	0.244
491	0.244
491	0.245
492	0.246
492	0.246
492	0.247
493	0.248
493	0.248
494	0.249
494	0.249
495	0.25
495	0.251
496	0.252
496	0.253
496	0.254
497	0.254
497	0.255
498	0.256
498	0.257
499	0.258
499	0.259
500	0.26
500	0.261
501	0.262
501	0.262
501	0.263
502	0.264
502	0.265
503	0.266
503	0.267
504	0.267
504	0.268
505	0.269
505	0.269
506	0.27
506	0.27
506	0.271
507	0.272
507	0.273
508	0.273
508	0.274
509	0.275
509	0.276
510	0.276
510	0.277
511	0.278
511	0.279
511	0.28
512	0.281
512	0.281
513	0.282
513	0.283
514	0.284
514	0.284
515	0.285
515	0.286
515	0.286
516	0.287
516	0.288
517	0.288
517	0.289
518	0.289
518	0.29
519	0.29
519	0.29
520	0.291
520	0.291
520	0.291
521	0.291
521	0.291
522	0.292
522	0.292
523	0.292
523	0.292
524	0.292
524	0.292
524	0.292
525	0.293
525	0.292
526	0.292
526	0.292
527	0.292
527	0.292
528	0.292
528	0.292
529	0.291
529	0.291
529	0.291
530	0.29
530	0.29
531	0.29
531	0.289
532	0.289
532	0.288
533	0.288
533	0.288
533	0.287
534	0.287
534	0.286
535	0.286
535	0.285
536	0.284
536	0.284
537	0.283
537	0.282
538	0.282
538	0.281
538	0.28
539	0.28
539	0.279
540	0.278
540	0.278
541	0.277
541	0.276
542	0.275
542	0.275
542	0.274
543	0.273
543	0.272
544	0.272
544	0.271
545	0.27
545	0.269
546	0.268
546	0.268
547	0.267
547	0.266
547	0.265
548	0.264
548	0.263
549	0.262
549	0.261
550	0.26
550	0.259
551	0.258
551	0.257
551	0.257
552	0.256
552	0.255
553	0.254
553	0.253
554	0.252
554	0.251
555	0.25
555	0.249
556	0.248
556	0.247
556	0.246
557	0.246
557	0.245
558	0.245
558	0.244
559	0.244
559	0.243
560	0.242
560	0.242
560	0.241
561	0.24
561	0.24
562	0.239
562	0.237
563	0.236
563	0.235
564	0.234
564	0.233
564	0.233
565	0.232
565	0.231
566	0.231
566	0.23
567	0.229
567	0.229
568	0.228
568	0.227
568	0.226
569	0.226
569	0.225
570	0.224
570	0.224
571	0.223
571	0.222
572	0.222
572	0.221
573	0.22
573	0.22
573	0.219
574	0.218
574	0.218
575	0.217
575	0.217
576	0.216
576	0.216
577	0.215
577	0.215
577	0.214
578	0.213
578	0.213
579	0.212
579	0.212
580	0.211
580	0.21
581	0.21
581	0.209
581	0.209
582	0.208
582	0.208
583	0.208
583	0.207
584	0.206
584	0.205
585	0.205
585	0.204
585	0.203
586	0.203
586	0.202
587	0.201
587	0.2
588	0.2
588	0.199
589	0.199
589	0.198
590	0.198
590	0.198
590	0.198
591	0.197
591	0.197
592	0.197
592	0.196
593	0.196
593	0.195
594	0.195
594	0.194
594	0.194
595	0.194
595	0.193
596	0.192
596	0.192
597	0.192
597	0.192
598	0.191
598	0.191
598	0.191
599	0.19
599	0.19
600	0.189
600	0.189
601	0.189
601	0.188
602	0.188
602	0.187
602	0.187
603	0.186
603	0.186
604	0.186
604	0.186
605	0.186
605	0.186
606	0.185
606	0.185
606	0.184
607	0.184
607	0.183
608	0.183
608	0.182
609	0.182
609	0.182
610	0.181
610	0.181
610	0.181
611	0.18
611	0.18
612	0.18
612	0.18
613	0.18
613	0.179
614	0.179
614	0.178
614	0.178
615	0.178
615	0.177
616	0.177
616	0.176
617	0.176
617	0.176
618	0.175
618	0.175
618	0.175
619	0.175
619	0.175
620	0.175
620	0.175
621	0.174
621	0.174
622	0.174
622	0.173
622	0.173
623	0.173
623	0.172
624	0.172
624	0.172
625	0.171
625	0.171
626	0.17
626	0.17
626	0.17
627	0.17
627	0.17
628	0.169
628	0.169
629	0.168
629	0.168
630	0.168
630	0.167
630	0.167
631	0.167
631	0.167
632	0.167
632	0.167
633	0.167
633	0.168
634	0.168
634	0.169
634	0.169
635	0.169
635	0.169
636	0.169
636	0.169
637	0.168
637	0.169
638	0.168
638	0.168
638	0.167
639	0.166
639	0.166
640	0.166
640	0.165
641	0.165
641	0.165
642	0.164
642	0.164
642	0.164
643	0.164
643	0.164
644	0.164
644	0.164
645	0.163
645	0.163
646	0.163
646	0.163
646	0.163
647	0.163
647	0.163
648	0.163
648	0.163
649	0.163
649	0.163
650	0.163
650	0.162
650	0.162
651	0.162
651	0.162
652	0.162
652	0.161
653	0.161
653	0.162
653	0.166
654	0.131
654	0.105
655	0.107
655	0.108
656	0.108
656	0.109
657	0.109
657	0.11
657	0.11
658	0.109
658	0.102
659	0.128
659	0.163
660	0.166
660	0.165
661	0.165
661	0.165
661	0.164
662	0.164
662	0.163
663	0.163
663	0.163
664	0.162
664	0.162
665	0.162
665	0.162
665	0.162
666	0.162
666	0.162
667	0.162
667	0.162
668	0.163
668	0.163
669	0.163
669	0.163
669	0.163
670	0.163
670	0.163
671	0.163
671	0.163
672	0.163
672	0.162
672	0.162
673	0.162
673	0.162
674	0.162
674	0.162
675	0.162
675	0.162
676	0.163
676	0.163
676	0.163
677	0.163
677	0.163
678	0.163
678	0.163
679	0.163
679	0.163
680	0.163
680	0.162
680	0.162
681	0.163
681	0.163
682	0.163
682	0.164
683	0.164
683	0.165
684	0.165
684	0.165
684	0.166
685	0.166
685	0.166
686	0.166
686	0.166
687	0.166
687	0.166
687	0.166
688	0.166
688	0.166
689	0.166
689	0.166
690	0.166
690	0.165
691	0.166
691	0.166
691	0.166
692	0.167
692	0.167
693	0.167
693	0.168
694	0.168
694	0.168
695	0.169
695	0.17
695	0.17
696	0.17
696	0.17
697	0.17
697	0.17
698	0.17
698	0.17
698	0.17
699	0.17
699	0.17
700	0.17
700	0.17
701	0.17
701	0.17
702	0.17
702	0.169
702	0.169
703	0.169
703	0.168
704	0.168
704	0.168
705	0.168
705	0.167
705	0.167
706	0.167
706	0.167
707	0.168
707	0.168
708	0.168
708	0.169
709	0.169
709	0.169
709	0.169
710	0.17
710	0.17
711	0.17
711	0.17
712	0.171
712	0.171
713	0.171
713	0.171
713	0.171
714	0.171
714	0.171
715	0.171
715	0.171
716	0.171
716	0.171
716	0.17
717	0.17
717	0.17
718	0.169
718	0.169
719	0.169
719	0.17
720	0.17
720	0.17
720	0.17
721	0.171
721	0.171
722	0.171
722	0.171
723	0.171
723	0.171
723	0.171
724	0.171
724	0.171
725	0.17
725	0.169
726	0.169
726	0.168
727	0.168
727	0.168
727	0.168
728	0.168
728	0.168
729	0.169
729	0.169
730	0.169
730	0.17
730	0.17
731	0.171
731	0.171
732	0.172
732	0.172
733	0.172
733	0.172
734	0.172
734	0.172
734	0.173
735	0.173
735	0.173
736	0.173
736	0.173
737	0.173
737	0.174
737	0.174
738	0.173
738	0.173
739	0.173
739	0.173
740	0.173
740	0.173
741	0.173
741	0.173
741	0.173
742	0.173
742	0.173
743	0.174
743	0.174
744	0.174
744	0.174
744	0.174
745	0.174
745	0.174
746	0.174
746	0.174
747	0.175
747	0.175
748	0.175
748	0.175
748	0.175
749	0.175
749	0.175
750	0.175
750	0.175
751	0.175
751	0.175
751	0.175
752	0.175
752	0.174
753	0.174
753	0.175
754	0.175
754	0.175
754	0.176
755	0.176
755	0.176
756	0.176
756	0.175
757	0.175
757	0.175
758	0.175
758	0.174
758	0.174
759	0.174
759	0.174
760	0.174
760	0.175
761	0.175
761	0.175
761	0.176
762	0.176
762	0.177
763	0.177
763	0.177
764	0.176
764	0.176
764	0.176
765	0.175
765	0.174
766	0.174
766	0.173
767	0.173
767	0.172
768	0.172
768	0.171
768	0.171
769	0.171
769	0.171
770	0.172
770	0.172
771	0.172
771	0.172
771	0.173
772	0.173
772	0.173
773	0.173
773	0.174
774	0.174
774	0.174
775	0.174
775	0.174
775	0.174
776	0.174
776	0.174
777	0.175
777	0.175
778	0.175
778	0.174
778	0.175
779	0.175
779	0.175
780	0.175
780	0.175
781	0.175
781	0.176
781	0.176
782	0.176
782	0.177
783	0.177
783	0.177
784	0.178
784	0.178
784	0.178
785	0.178
785	0.178
786	0.178
786	0.179
787	0.179
787	0.178
788	0.178
788	0.178
788	0.178
789	0.177
789	0.177
790	0.177
790	0.177
791	0.176
791	0.176
791	0.175
792	0.175
792	0.174
793	0.174
793	0.174
794	0.173
794	0.173
794	0.172
795	0.172
795	0.172
796	0.173
796	0.173
797	0.173
797	0.174
797	0.174
798	0.175
798	0.175
799	0.175
799	0.175
800	0.175
800	0.175
801	0.175
801	0.175
801	0.175
802	0.175
802	0.175
803	0.175
803	0.175
804	0.175
804	0.175
804	0.176
805	0.176
805	0.177
806	0.177
806	0.177
807	0.177
807	0.177
807	0.177
808	0.178
808	0.178
809	0.178
809	0.179
810	0.179
810	0.179
810	0.179
811	0.179
811	0.18
812	0.18
812	0.18
813	0.18
813	0.18
813	0.179
814	0.179
814	0.179
815	0.179
815	0.179
816	0.179
816	0.179
817	0.179
817	0.179
817	0.179
818	0.178
818	0.178
819	0.178
819	0.177
820	0.176
820	0.176
820	0.175
821	0.175
821	0.174
822	0.174
822	0.174
823	0.173
823	0.173
823	0.173
824	0.174
824	0.174
825	0.175
825	0.175
826	0.176
826	0.176
826	0.176
827	0.176
827	0.176
828	0.177
828	0.176
829	0.176
829	0.176
829	0.176
830	0.176
830	0.175
831	0.176
831	0.175
832	0.175
832	0.175
832	0.175
833	0.175
833	0.174
834	0.174
834	0.174
835	0.174
835	0.173
835	0.173
836	0.172
836	0.172
837	0.171
837	0.17
838	0.169
838	0.168
839	0.167
839	0.166
839	0.165
840	0.164
840	0.163
841	0.162
841	0.161
842	0.16
842	0.16
842	0.16
843	0.16
843	0.159
844	0.159
844	0.159
845	0.159
845	0.159
845	0.158
846	0.158
846	0.157
847	0.157
847	0.157
848	0.157
848	0.157
848	0.158
849	0.158
849	0.158
850	0.158
850	0.159
851	0.159
851	0.159
851	0.159
852	0.159
852	0.158
853	0.158
853	0.158
854	0.158
854	0.158
854	0.159
855	0.159
855	0.16
856	0.16
856	0.16
857	0.161
857	0.161
857	0.16
858	0.16
858	0.159
859	0.158
859	0.157
860	0.156
860	0.155
860	0.154
861	0.153
861	0.152
862	0.152
862	0.151
863	0.15
863	0.15
863	0.15
864	0.15
864	0.149
865	0.149
865	0.149
866	0.149
866	0.148
866	0.148
867	0.147
867	0.147
868	0.147
868	0.147
869	0.147
869	0.146
869	0.146
870	0.146
870	0.146
871	0.146
871	0.146
872	0.147
872	0.147
872	0.147
873	0.147
873	0.147
874	0.146
874	0.146
875	0.146
875	0.146
875	0.146
876	0.146
876	0.146
877	0.146
877	0.146
878	0.146
878	0.147
878	0.147
879	0.147
879	0.147
880	0.147
880	0.147
881	0.147
881	0.146
881	0.145
882	0.144
882	0.143
883	0.143
883	0.142
884	0.141
884	0.14
884	0.139
885	0.138
885	0.137
886	0.136
886	0.135
887	0.134
887	0.133
887	0.132
888	0.131
888	0.13
889	0.129
889	0.129
890	0.128
890	0.128
890	0.128
891	0.128
891	0.128
892	0.128
892	0.129
893	0.129
893	0.13
893	0.13
894	0.13
894	0.13
895	0.13
895	0.13
895	0.13
896	0.129
896	0.128
897	0.127
897	0.126
898	0.125
898	0.124
898	0.124
899	0.123
899	0.123
900	0.122
900	0.122
901	0.121
901	0.121
901	0.122
902	0.121
902	0.122
903	0.121
903	0.121
904	0.121
904	0.121
904	0.12
905	0.12
905	0.12
906	0.119
906	0.119
907	0.119
907	0.119
907	0.119
908	0.119
908	0.119
909	0.119
909	0.119
910	0.118
910	0.118
910	0.118
911	0.117
911	0.117
912	0.116
912	0.116
913	0.115
913	0.115
913	0.114
914	0.113
914	0.112
915	0.112
915	0.111
916	0.111
916	0.11
916	0.109
917	0.108
917	0.108
918	0.107
918	0.107
918	0.107
919	0.107
919	0.107
920	0.107
920	0.107
921	0.108
921	0.108
921	0.108
922	0.109
922	0.109
923	0.109
923	0.11
924	0.11
924	0.11
924	0.11
925	0.111
925	0.111
926	0.111
926	0.111
927	0.111
927	0.112
927	0.111
928	0.111
928	0.111
929	0.111
929	0.111
930	0.11
930	0.11
930	0.109
931	0.109
931	0.109
932	0.108
932	0.107
933	0.107
933	0.106
933	0.106
934	0.105
934	0.104
935	0.103
935	0.103
935	0.102
936	0.101
936	0.101
937	0.1
937	0.099
938	0.099
938	0.099
938	0.098
939	0.098
939	0.098
940	0.098
940	0.098
941	0.098
941	0.098
941	0.098
942	0.098
942	0.098
943	0.098
943	0.098
944	0.098
944	0.098
944	0.097
945	0.097
945	0.097
946	0.097
946	0.096
946	0.096
947	0.096
947	0.095
948	0.095
948	0.095
949	0.094
949	0.094
949	0.094
950	0.093
950	0.093
951	0.093
951	0.092
952	0.091
952	0.091
952	0.09
953	0.089
953	0.088
954	0.087
954	0.086
955	0.085
955	0.084
955	0.083
956	0.083
956	0.082
957	0.082
957	0.081
957	0.081
958	0.081
958	0.081
959	0.081
959	0.08
960	0.08
960	0.08
960	0.08
961	0.08
961	0.08
962	0.08
962	0.079
963	0.079
963	0.079
963	0.079
964	0.079
964	0.079
965	0.079
965	0.079
966	0.08
966	0.08
966	0.081
967	0.082
967	0.082
968	0.083
968	0.083
968	0.083
969	0.083
969	0.083
970	0.083
970	0.083
971	0.082
971	0.082
971	0.081
972	0.081
972	0.08
973	0.08
973	0.08
974	0.08
974	0.08
974	0.08
975	0.08
975	0.08
976	0.08
976	0.08
976	0.08
977	0.08
977	0.08
978	0.08
978	0.079
979	0.079
979	0.078
979	0.078
980	0.077
980	0.077
981	0.076
981	0.075
982	0.074
982	0.074
982	0.073
983	0.073
983	0.072
984	0.071
984	0.07
984	0.07
985	0.069
985	0.069
986	0.068
986	0.067
987	0.067
987	0.067
987	0.066
988	0.066
988	0.066
989	0.066
989	0.066
990	0.066
990	0.066
990	0.066
991	0.066
991	0.066
992	0.066
992	0.066
992	0.066
993	0.066
993	0.066
994	0.066
994	0.066
995	0.065
995	0.066
995	0.066
996	0.066
996	0.066
997	0.067
997	0.068
997	0.068
998	0.069
998	0.069
999	0.07
999	0.071
1000	0.071
1000	0.072
1000	0.071
1001	0.071
1001	0.071
1002	0.071
1002	0.071
1003	0.071
1003	0.071
1003	0.07
1004	0.07
1004	0.069
1005	0.069
1005	0.069
1005	0.068
1006	0.068
1006	0.068
1007	0.067
1007	0.067
1008	0.067
1008	0.067
1008	0.067
1009	0.067
1009	0.067
1010	0.067
1010	0.067
1010	0.066
1011	0.066
1011	0.066
1012	0.066
1012	0.065
1013	0.065
1013	0.064
1013	0.064
1014	0.063
1014	0.063
1015	0.063
1015	0.062
1016	0.062
1016	0.062
1016	0.061
1017	0.061
1017	0.06
1018	0.06
1018	0.06
1018	0.059
1019	0.059
1019	0.058
1020	0.058
1020	0.057
1021	0.057
1021	0.057
1021	0.056
1022	0.056
1022	0.055
1023	0.055
1023	0.055
1023	0.055
1024	0.055
1024	0.055
1025	0.054
1025	0.054
1026	0.054
1026	0.053
1026	0.052
1027	0.052
1027	0.052
1028	0.051
1028	0.05
1028	0.05
1029	0.05
1029	0.049
1030	0.049
1030	0.049
1031	0.049
1031	0.049
1031	0.048
1032	0.048
1032	0.048
1033	0.048
1033	0.048
1033	0.048
1034	0.047
1034	0.047
1035	0.047
1035	0.046
1036	0.046
1036	0.046
1036	0.045
1037	0.045
1037	0.045
1038	0.045
1038	0.045
1039	0.045
1039	0.045
1039	0.045
1040	0.045
1040	0.046
1041	0.046
1041	0.046
1041	0.046
1042	0.047
1042	0.047
1043	0.048
1043	0.048
1044	0.049
1044	0.049
1044	0.05
1045	0.05
1045	0.051
1046	0.052
1046	0.052
1046	0.053
1047	0.053
1047	0.054
1048	0.054
1048	0.055
1049	0.055
1049	0.056
1049	0.056
1050	0.055
1050	0.055
1051	0.055
1051	0.054
1051	0.054
1052	0.053
1052	0.053
1053	0.052
1053	0.051
1053	0.05
1054	0.049
1054	0.049
1055	0.048
1055	0.048
1056	0.048
1056	0.047
1056	0.047
1057	0.046
1057	0.046
1058	0.045
1058	0.045
1058	0.044
1059	0.043
1059	0.043
1060	0.043
1060	0.042
1061	0.042
1061	0.041
1061	0.041
1062	0.041
1062	0.041
1063	0.041
1063	0.04
1063	0.04
1064	0.04
1064	0.039
1065	0.039
1065	0.038
1066	0.038
1066	0.037
1066	0.036
1067	0.036
1067	0.036
1068	0.035
1068	0.035
1068	0.035
1069	0.034
1069	0.034
1070	0.033
1070	0.033
1071	0.032
1071	0.031
1071	0.031
1072	0.03
1072	0.03
1073	0.029
1073	0.029
1073	0.029
1074	0.029
1074	0.029
1075	0.029
1075	0.03
1076	0.03
1076	0.031
1076	0.031
1077	0.031
1077	0.032
1078	0.032
1078	0.032
1078	0.033
1079	0.033
1079	0.033
1080	0.033
1080	0.033
1080	0.033
1081	0.033
1081	0.034
1082	0.034
1082	0.034
1083	0.034
1083	0.034
1083	0.033
1084	0.033
1084	0.033
1085	0.033
1085	0.032
1085	0.032
1086	0.031
1086	0.03
1087	0.03
1087	0.029
1088	0.028
1088	0.028
1088	0.028
1089	0.026
1089	0.026
1090	0.025
1090	0.024
1090	0.023
1091	0.023
1091	0.023
1092	0.023
1092	0.022
1092	0.022
1093	0.022
1093	0.022
1094	0.022
1094	0.023
1095	0.023
1095	0.023
1095	0.023
1096	0.023
1096	0.022
1097	0.022
1097	0.021
1097	0.021
1098	0.021
1098	0.019
1099	0.019
1099	0.018
1100	0.018
1100	0.017
1100	0.016
1101	0.016
1101	0.016
1102	0.016
1102	0.015
1102	0.015
1103	0.015
1103	0.014
1104	0.014
1104	0.013
1104	0.012
1105	0.012
1105	0.01
1106	0.009
1106	0.007
1107	0.006
1107	0.006
1107	0.006
1108	0.005
1108	0.004
1109	0.004
1109	0.002
1109	0.002
1110	0.005
1110	0.005
1111	0.008
1111	0.01
