Data from reversibility-20sec_Absorbance__2839__000000000002839.txt Node

Date: Wed Dec 06 03:59:25 CET 2023
User: Marek
Spectrometer: MAYP115816
Trigger mode: 0
Integration Time (sec): 2.000000E-1
Scans to average: 10
Electric dark correction enabled: true
Nonlinearity correction enabled: true
Boxcar width: 5
XAxis mode: Wavelengths
Number of Pixels in Spectrum: 2068
>>>>>Begin Spectral Data<<<<<
199	-0.133
199	-0.096
200	-0.03
200	0.019
201	0.049
201	0.064
202	0.075
202	0.084
203	0.092
203	0.095
204	0.111
204	0.124
205	0.135
205	0.14
205	0.14
206	0.141
206	0.143
207	0.146
207	0.146
208	0.145
208	0.146
209	0.15
209	0.146
210	0.149
210	0.148
211	0.149
211	0.151
212	0.148
212	0.148
213	0.153
213	0.155
213	0.156
214	0.156
214	0.159
215	0.159
215	0.159
216	0.16
216	0.159
217	0.159
217	0.16
218	0.16
218	0.16
219	0.161
219	0.156
220	0.157
220	0.158
221	0.159
221	0.161
221	0.165
222	0.173
222	0.182
223	0.184
223	0.19
224	0.195
224	0.211
225	0.222
225	0.231
226	0.243
226	0.253
227	0.266
227	0.277
228	0.291
228	0.306
229	0.323
229	0.348
229	0.368
230	0.394
230	0.423
231	0.453
231	0.493
232	0.527
232	0.569
233	0.612
233	0.66
234	0.711
234	0.764
235	0.818
235	0.868
236	0.922
236	0.977
236	1.032
237	1.088
237	1.138
238	1.188
238	1.24
239	1.29
239	1.335
240	1.378
240	1.42
241	1.462
241	1.499
242	1.531
242	1.566
243	1.598
243	1.629
243	1.654
244	1.676
244	1.699
245	1.72
245	1.744
246	1.763
246	1.784
247	1.802
247	1.819
248	1.838
248	1.85
249	1.86
249	1.87
250	1.882
250	1.891
250	1.896
251	1.9
251	1.901
252	1.907
252	1.908
253	1.909
253	1.909
254	1.91
254	1.914
255	1.912
255	1.914
256	1.914
256	1.913
257	1.916
257	1.914
258	1.915
258	1.917
258	1.919
259	1.921
259	1.923
260	1.924
260	1.926
261	1.927
261	1.932
262	1.936
262	1.941
263	1.946
263	1.949
264	1.949
264	1.954
265	1.957
265	1.959
265	1.962
266	1.965
266	1.967
267	1.966
267	1.969
268	1.968
268	1.972
269	1.978
269	1.977
270	1.977
270	1.976
271	1.976
271	1.975
272	1.972
272	1.97
272	1.964
273	1.956
273	1.946
274	1.935
274	1.925
275	1.917
275	1.91
276	1.9
276	1.891
277	1.882
277	1.87
278	1.858
278	1.844
278	1.827
279	1.807
279	1.78
280	1.747
280	1.708
281	1.662
281	1.613
282	1.563
282	1.513
283	1.464
283	1.418
284	1.374
284	1.332
285	1.294
285	1.258
285	1.227
286	1.2
286	1.177
287	1.156
287	1.139
288	1.124
288	1.111
289	1.1
289	1.092
290	1.084
290	1.077
291	1.071
291	1.066
292	1.062
292	1.058
292	1.054
293	1.051
293	1.047
294	1.044
294	1.041
295	1.038
295	1.036
296	1.033
296	1.03
297	1.027
297	1.024
298	1.021
298	1.019
298	1.015
299	1.013
299	1.01
300	1.008
300	1.005
301	1.003
301	1
302	0.998
302	0.995
303	0.993
303	0.99
304	0.989
304	0.987
305	0.985
305	0.982
305	0.98
306	0.978
306	0.976
307	0.973
307	0.971
308	0.968
308	0.966
309	0.963
309	0.96
310	0.957
310	0.955
311	0.952
311	0.948
311	0.945
312	0.942
312	0.938
313	0.935
313	0.931
314	0.927
314	0.923
315	0.918
315	0.914
316	0.91
316	0.905
317	0.901
317	0.896
318	0.891
318	0.886
318	0.88
319	0.875
319	0.869
320	0.864
320	0.858
321	0.852
321	0.846
322	0.839
322	0.833
323	0.826
323	0.82
324	0.813
324	0.807
324	0.8
325	0.793
325	0.786
326	0.779
326	0.773
327	0.766
327	0.759
328	0.752
328	0.745
329	0.737
329	0.731
330	0.723
330	0.716
330	0.709
331	0.702
331	0.694
332	0.687
332	0.68
333	0.673
333	0.666
334	0.659
334	0.652
335	0.645
335	0.638
336	0.632
336	0.625
336	0.618
337	0.612
337	0.606
338	0.599
338	0.593
339	0.587
339	0.581
340	0.575
340	0.57
341	0.564
341	0.558
342	0.553
342	0.547
342	0.542
343	0.537
343	0.532
344	0.527
344	0.522
345	0.517
345	0.512
346	0.507
346	0.503
347	0.499
347	0.494
348	0.49
348	0.487
348	0.483
349	0.479
349	0.475
350	0.471
350	0.468
351	0.464
351	0.461
352	0.458
352	0.455
353	0.451
353	0.448
354	0.445
354	0.442
354	0.439
355	0.437
355	0.434
356	0.431
356	0.428
357	0.425
357	0.422
358	0.42
358	0.417
359	0.414
359	0.412
360	0.41
360	0.408
360	0.406
361	0.403
361	0.401
362	0.4
362	0.398
363	0.396
363	0.395
364	0.393
364	0.391
365	0.389
365	0.387
366	0.385
366	0.383
366	0.382
367	0.38
367	0.379
368	0.377
368	0.375
369	0.374
369	0.372
370	0.371
370	0.369
371	0.368
371	0.366
372	0.365
372	0.364
372	0.362
373	0.361
373	0.36
374	0.359
374	0.358
375	0.357
375	0.356
376	0.355
376	0.354
377	0.353
377	0.353
378	0.351
378	0.351
378	0.35
379	0.349
379	0.348
380	0.347
380	0.346
381	0.345
381	0.345
382	0.344
382	0.343
383	0.343
383	0.342
383	0.342
384	0.341
384	0.34
385	0.34
385	0.339
386	0.339
386	0.338
387	0.337
387	0.336
388	0.336
388	0.335
389	0.335
389	0.334
389	0.334
390	0.333
390	0.333
391	0.333
391	0.332
392	0.332
392	0.332
393	0.331
393	0.33
394	0.33
394	0.33
394	0.329
395	0.329
395	0.328
396	0.328
396	0.327
397	0.327
397	0.326
398	0.326
398	0.326
399	0.325
399	0.325
400	0.325
400	0.324
400	0.324
401	0.324
401	0.323
402	0.323
402	0.322
403	0.322
403	0.322
404	0.321
404	0.321
405	0.32
405	0.32
405	0.32
406	0.319
406	0.319
407	0.318
407	0.318
408	0.317
408	0.317
409	0.317
409	0.316
410	0.316
410	0.316
411	0.316
411	0.315
411	0.315
412	0.315
412	0.314
413	0.314
413	0.314
414	0.313
414	0.313
415	0.312
415	0.312
416	0.312
416	0.311
416	0.311
417	0.31
417	0.31
418	0.31
418	0.31
419	0.31
419	0.309
420	0.309
420	0.308
421	0.308
421	0.308
421	0.308
422	0.307
422	0.307
423	0.306
423	0.306
424	0.305
424	0.305
425	0.305
425	0.304
426	0.304
426	0.304
427	0.303
427	0.303
427	0.303
428	0.302
428	0.302
429	0.302
429	0.301
430	0.301
430	0.301
431	0.3
431	0.3
432	0.3
432	0.3
432	0.299
433	0.299
433	0.299
434	0.299
434	0.299
435	0.299
435	0.299
436	0.299
436	0.299
437	0.298
437	0.298
437	0.298
438	0.298
438	0.297
439	0.297
439	0.297
440	0.296
440	0.296
441	0.296
441	0.295
442	0.295
442	0.294
442	0.294
443	0.294
443	0.294
444	0.294
444	0.293
445	0.293
445	0.293
446	0.293
446	0.293
447	0.293
447	0.293
447	0.292
448	0.292
448	0.292
449	0.292
449	0.292
450	0.292
450	0.291
451	0.291
451	0.291
452	0.291
452	0.291
452	0.29
453	0.29
453	0.29
454	0.29
454	0.29
455	0.289
455	0.289
456	0.289
456	0.288
457	0.288
457	0.288
458	0.288
458	0.288
458	0.287
459	0.287
459	0.287
460	0.287
460	0.287
461	0.287
461	0.287
462	0.287
462	0.287
463	0.287
463	0.286
463	0.286
464	0.286
464	0.285
465	0.285
465	0.285
466	0.285
466	0.285
467	0.285
467	0.285
467	0.285
468	0.285
468	0.285
469	0.285
469	0.285
470	0.285
470	0.285
471	0.285
471	0.285
472	0.286
472	0.286
472	0.286
473	0.286
473	0.286
474	0.285
474	0.285
475	0.285
475	0.285
476	0.286
476	0.286
477	0.286
477	0.286
477	0.286
478	0.286
478	0.286
479	0.286
479	0.286
480	0.287
480	0.287
481	0.287
481	0.287
482	0.287
482	0.288
482	0.288
483	0.288
483	0.289
484	0.29
484	0.289
485	0.289
485	0.29
486	0.29
486	0.29
487	0.29
487	0.291
487	0.291
488	0.291
488	0.291
489	0.291
489	0.292
490	0.293
490	0.293
491	0.294
491	0.295
492	0.296
492	0.296
492	0.297
493	0.298
493	0.299
494	0.299
494	0.3
495	0.301
495	0.302
496	0.302
496	0.303
496	0.304
497	0.304
497	0.305
498	0.305
498	0.306
499	0.306
499	0.307
500	0.308
500	0.309
501	0.309
501	0.31
501	0.311
502	0.312
502	0.312
503	0.313
503	0.313
504	0.314
504	0.314
505	0.315
505	0.315
506	0.316
506	0.316
506	0.317
507	0.318
507	0.318
508	0.319
508	0.32
509	0.32
509	0.321
510	0.322
510	0.323
511	0.323
511	0.324
511	0.325
512	0.326
512	0.327
513	0.327
513	0.328
514	0.328
514	0.329
515	0.33
515	0.33
515	0.33
516	0.331
516	0.331
517	0.331
517	0.332
518	0.332
518	0.332
519	0.332
519	0.333
520	0.333
520	0.334
520	0.334
521	0.334
521	0.335
522	0.335
522	0.335
523	0.336
523	0.336
524	0.336
524	0.336
524	0.336
525	0.336
525	0.336
526	0.336
526	0.336
527	0.335
527	0.335
528	0.335
528	0.335
529	0.334
529	0.334
529	0.334
530	0.333
530	0.333
531	0.333
531	0.333
532	0.333
532	0.332
533	0.332
533	0.332
533	0.331
534	0.331
534	0.33
535	0.33
535	0.329
536	0.329
536	0.328
537	0.327
537	0.326
538	0.326
538	0.325
538	0.324
539	0.324
539	0.323
540	0.323
540	0.322
541	0.321
541	0.321
542	0.32
542	0.32
542	0.319
543	0.319
543	0.318
544	0.317
544	0.317
545	0.316
545	0.315
546	0.315
546	0.314
547	0.313
547	0.312
547	0.311
548	0.31
548	0.31
549	0.309
549	0.308
550	0.307
550	0.306
551	0.305
551	0.305
551	0.304
552	0.303
552	0.302
553	0.302
553	0.301
554	0.3
554	0.299
555	0.298
555	0.296
556	0.295
556	0.295
556	0.294
557	0.293
557	0.293
558	0.293
558	0.292
559	0.292
559	0.291
560	0.291
560	0.291
560	0.29
561	0.29
561	0.289
562	0.288
562	0.287
563	0.285
563	0.284
564	0.283
564	0.282
564	0.281
565	0.28
565	0.28
566	0.279
566	0.278
567	0.278
567	0.277
568	0.277
568	0.276
568	0.275
569	0.275
569	0.274
570	0.273
570	0.272
571	0.271
571	0.27
572	0.27
572	0.269
573	0.269
573	0.268
573	0.267
574	0.267
574	0.267
575	0.267
575	0.266
576	0.266
576	0.265
577	0.264
577	0.263
577	0.263
578	0.262
578	0.261
579	0.261
579	0.261
580	0.26
580	0.259
581	0.258
581	0.257
581	0.257
582	0.257
582	0.257
583	0.257
583	0.256
584	0.255
584	0.254
585	0.254
585	0.253
585	0.253
586	0.252
586	0.252
587	0.251
587	0.25
588	0.249
588	0.248
589	0.248
589	0.248
590	0.247
590	0.247
590	0.247
591	0.247
591	0.246
592	0.245
592	0.244
593	0.243
593	0.243
594	0.242
594	0.241
594	0.241
595	0.24
595	0.24
596	0.239
596	0.24
597	0.24
597	0.24
598	0.24
598	0.24
598	0.24
599	0.24
599	0.24
600	0.239
600	0.239
601	0.238
601	0.238
602	0.237
602	0.236
602	0.235
603	0.235
603	0.235
604	0.235
604	0.235
605	0.234
605	0.234
606	0.234
606	0.233
606	0.233
607	0.232
607	0.232
608	0.231
608	0.23
609	0.229
609	0.229
610	0.228
610	0.228
610	0.228
611	0.227
611	0.227
612	0.228
612	0.228
613	0.228
613	0.228
614	0.227
614	0.227
614	0.227
615	0.227
615	0.226
616	0.226
616	0.226
617	0.226
617	0.226
618	0.225
618	0.225
618	0.225
619	0.225
619	0.226
620	0.225
620	0.225
621	0.225
621	0.224
622	0.224
622	0.223
622	0.223
623	0.222
623	0.222
624	0.222
624	0.221
625	0.221
625	0.221
626	0.22
626	0.22
626	0.22
627	0.22
627	0.219
628	0.219
628	0.219
629	0.219
629	0.218
630	0.218
630	0.218
630	0.218
631	0.218
631	0.218
632	0.217
632	0.217
633	0.217
633	0.217
634	0.217
634	0.217
634	0.217
635	0.217
635	0.216
636	0.216
636	0.216
637	0.216
637	0.215
638	0.215
638	0.215
638	0.214
639	0.214
639	0.214
640	0.214
640	0.213
641	0.213
641	0.213
642	0.213
642	0.213
642	0.213
643	0.214
643	0.214
644	0.214
644	0.214
645	0.214
645	0.214
646	0.214
646	0.214
646	0.214
647	0.214
647	0.214
648	0.213
648	0.213
649	0.212
649	0.212
650	0.212
650	0.212
650	0.212
651	0.211
651	0.211
652	0.211
652	0.211
653	0.212
653	0.213
653	0.219
654	0.171
654	0.136
655	0.138
655	0.138
656	0.139
656	0.139
657	0.14
657	0.14
657	0.14
658	0.139
658	0.128
659	0.162
659	0.21
660	0.214
660	0.214
661	0.213
661	0.212
661	0.212
662	0.211
662	0.21
663	0.21
663	0.21
664	0.209
664	0.209
665	0.209
665	0.209
665	0.209
666	0.209
666	0.21
667	0.21
667	0.21
668	0.211
668	0.21
669	0.211
669	0.211
669	0.211
670	0.211
670	0.211
671	0.211
671	0.21
672	0.21
672	0.21
672	0.209
673	0.209
673	0.209
674	0.209
674	0.208
675	0.208
675	0.209
676	0.209
676	0.209
676	0.209
677	0.21
677	0.21
678	0.21
678	0.209
679	0.209
679	0.209
680	0.209
680	0.209
680	0.209
681	0.209
681	0.209
682	0.209
682	0.209
683	0.209
683	0.209
684	0.21
684	0.209
684	0.209
685	0.209
685	0.209
686	0.209
686	0.209
687	0.209
687	0.21
687	0.21
688	0.21
688	0.21
689	0.211
689	0.211
690	0.211
690	0.211
691	0.211
691	0.211
691	0.211
692	0.211
692	0.212
693	0.212
693	0.213
694	0.212
694	0.212
695	0.213
695	0.214
695	0.214
696	0.214
696	0.214
697	0.214
697	0.214
698	0.213
698	0.213
698	0.213
699	0.213
699	0.212
700	0.212
700	0.212
701	0.212
701	0.212
702	0.211
702	0.211
702	0.211
703	0.211
703	0.211
704	0.211
704	0.211
705	0.211
705	0.211
705	0.21
706	0.21
706	0.21
707	0.21
707	0.21
708	0.21
708	0.21
709	0.21
709	0.21
709	0.21
710	0.21
710	0.21
711	0.211
711	0.211
712	0.211
712	0.211
713	0.212
713	0.212
713	0.212
714	0.212
714	0.212
715	0.212
715	0.212
716	0.211
716	0.211
716	0.211
717	0.21
717	0.21
718	0.209
718	0.208
719	0.208
719	0.208
720	0.208
720	0.208
720	0.208
721	0.208
721	0.209
722	0.21
722	0.21
723	0.211
723	0.211
723	0.211
724	0.211
724	0.211
725	0.211
725	0.21
726	0.209
726	0.209
727	0.208
727	0.208
727	0.207
728	0.207
728	0.207
729	0.207
729	0.208
730	0.208
730	0.209
730	0.209
731	0.21
731	0.211
732	0.212
732	0.212
733	0.213
733	0.213
734	0.213
734	0.213
734	0.213
735	0.213
735	0.212
736	0.212
736	0.212
737	0.211
737	0.211
737	0.21
738	0.209
738	0.209
739	0.208
739	0.208
740	0.208
740	0.209
741	0.209
741	0.209
741	0.209
742	0.209
742	0.21
743	0.211
743	0.211
744	0.212
744	0.212
744	0.212
745	0.212
745	0.211
746	0.211
746	0.211
747	0.211
747	0.212
748	0.212
748	0.212
748	0.213
749	0.213
749	0.214
750	0.214
750	0.214
751	0.215
751	0.215
751	0.215
752	0.215
752	0.215
753	0.214
753	0.213
754	0.213
754	0.212
754	0.212
755	0.211
755	0.211
756	0.21
756	0.209
757	0.208
757	0.208
758	0.208
758	0.208
758	0.209
759	0.209
759	0.209
760	0.209
760	0.209
761	0.21
761	0.211
761	0.211
762	0.211
762	0.212
763	0.212
763	0.212
764	0.212
764	0.213
764	0.213
765	0.213
765	0.213
766	0.213
766	0.213
767	0.213
767	0.212
768	0.211
768	0.211
768	0.211
769	0.211
769	0.211
770	0.212
770	0.212
771	0.212
771	0.212
771	0.213
772	0.213
772	0.214
773	0.214
773	0.215
774	0.215
774	0.215
775	0.216
775	0.216
775	0.216
776	0.216
776	0.216
777	0.216
777	0.216
778	0.216
778	0.215
778	0.215
779	0.214
779	0.214
780	0.213
780	0.213
781	0.213
781	0.212
781	0.212
782	0.212
782	0.212
783	0.212
783	0.213
784	0.213
784	0.213
784	0.214
785	0.214
785	0.214
786	0.214
786	0.214
787	0.214
787	0.214
788	0.214
788	0.213
788	0.213
789	0.212
789	0.212
790	0.212
790	0.212
791	0.212
791	0.212
791	0.212
792	0.213
792	0.213
793	0.214
793	0.214
794	0.214
794	0.214
794	0.214
795	0.215
795	0.215
796	0.215
796	0.215
797	0.215
797	0.215
797	0.215
798	0.215
798	0.215
799	0.215
799	0.215
800	0.214
800	0.214
801	0.213
801	0.213
801	0.213
802	0.213
802	0.213
803	0.213
803	0.213
804	0.213
804	0.214
804	0.214
805	0.214
805	0.215
806	0.215
806	0.215
807	0.216
807	0.216
807	0.216
808	0.216
808	0.216
809	0.216
809	0.217
810	0.217
810	0.217
810	0.217
811	0.217
811	0.217
812	0.217
812	0.217
813	0.217
813	0.217
813	0.217
814	0.217
814	0.217
815	0.217
815	0.217
816	0.217
816	0.216
817	0.215
817	0.215
817	0.214
818	0.214
818	0.214
819	0.213
819	0.213
820	0.212
820	0.212
820	0.212
821	0.212
821	0.212
822	0.212
822	0.213
823	0.213
823	0.213
823	0.214
824	0.215
824	0.216
825	0.217
825	0.217
826	0.218
826	0.218
826	0.218
827	0.218
827	0.218
828	0.218
828	0.218
829	0.218
829	0.217
829	0.217
830	0.217
830	0.217
831	0.217
831	0.217
832	0.217
832	0.217
832	0.217
833	0.217
833	0.217
834	0.217
834	0.216
835	0.216
835	0.216
835	0.215
836	0.215
836	0.215
837	0.215
837	0.214
838	0.214
838	0.213
839	0.213
839	0.212
839	0.211
840	0.21
840	0.21
841	0.209
841	0.208
842	0.207
842	0.206
842	0.206
843	0.205
843	0.205
844	0.205
844	0.205
845	0.205
845	0.205
845	0.206
846	0.206
846	0.206
847	0.207
847	0.207
848	0.207
848	0.208
848	0.208
849	0.208
849	0.208
850	0.208
850	0.208
851	0.208
851	0.207
851	0.207
852	0.206
852	0.205
853	0.204
853	0.204
854	0.203
854	0.203
854	0.203
855	0.203
855	0.204
856	0.204
856	0.205
857	0.206
857	0.206
857	0.207
858	0.207
858	0.206
859	0.206
859	0.205
860	0.204
860	0.203
860	0.202
861	0.201
861	0.2
862	0.199
862	0.198
863	0.198
863	0.197
863	0.197
864	0.197
864	0.197
865	0.197
865	0.197
866	0.196
866	0.196
866	0.196
867	0.195
867	0.195
868	0.195
868	0.194
869	0.194
869	0.193
869	0.192
870	0.191
870	0.191
871	0.19
871	0.19
872	0.19
872	0.19
872	0.19
873	0.19
873	0.19
874	0.19
874	0.19
875	0.189
875	0.189
875	0.188
876	0.188
876	0.188
877	0.187
877	0.187
878	0.188
878	0.188
878	0.189
879	0.19
879	0.191
880	0.191
880	0.192
881	0.192
881	0.193
881	0.193
882	0.192
882	0.192
883	0.191
883	0.19
884	0.189
884	0.188
884	0.187
885	0.186
885	0.186
886	0.185
886	0.184
887	0.183
887	0.182
887	0.181
888	0.18
888	0.18
889	0.179
889	0.178
890	0.178
890	0.177
890	0.177
891	0.176
891	0.176
892	0.175
892	0.175
893	0.175
893	0.175
893	0.175
894	0.174
894	0.174
895	0.173
895	0.173
895	0.173
896	0.172
896	0.172
897	0.172
897	0.172
898	0.171
898	0.171
898	0.171
899	0.171
899	0.171
900	0.171
900	0.171
901	0.171
901	0.171
901	0.171
902	0.171
902	0.171
903	0.171
903	0.17
904	0.17
904	0.17
904	0.17
905	0.17
905	0.17
906	0.17
906	0.17
907	0.17
907	0.171
907	0.171
908	0.171
908	0.171
909	0.171
909	0.171
910	0.171
910	0.171
910	0.17
911	0.169
911	0.169
912	0.168
912	0.167
913	0.166
913	0.165
913	0.164
914	0.163
914	0.162
915	0.162
915	0.161
916	0.16
916	0.16
916	0.159
917	0.159
917	0.158
918	0.158
918	0.157
918	0.156
919	0.155
919	0.154
920	0.154
920	0.153
921	0.152
921	0.152
921	0.151
922	0.15
922	0.15
923	0.15
923	0.15
924	0.15
924	0.15
924	0.15
925	0.151
925	0.151
926	0.151
926	0.151
927	0.152
927	0.152
927	0.152
928	0.153
928	0.153
929	0.153
929	0.154
930	0.154
930	0.154
930	0.154
931	0.154
931	0.155
932	0.155
932	0.155
933	0.155
933	0.155
933	0.155
934	0.155
934	0.155
935	0.155
935	0.155
935	0.154
936	0.154
936	0.153
937	0.153
937	0.152
938	0.151
938	0.15
938	0.149
939	0.148
939	0.147
940	0.147
940	0.146
941	0.145
941	0.145
941	0.144
942	0.144
942	0.144
943	0.144
943	0.143
944	0.143
944	0.142
944	0.142
945	0.142
945	0.141
946	0.141
946	0.141
946	0.141
947	0.141
947	0.14
948	0.14
948	0.14
949	0.139
949	0.139
949	0.138
950	0.138
950	0.137
951	0.136
951	0.135
952	0.134
952	0.133
952	0.132
953	0.131
953	0.13
954	0.129
954	0.129
955	0.129
955	0.128
955	0.128
956	0.128
956	0.129
957	0.129
957	0.129
957	0.13
958	0.13
958	0.131
959	0.131
959	0.132
960	0.132
960	0.132
960	0.132
961	0.132
961	0.132
962	0.132
962	0.132
963	0.132
963	0.131
963	0.132
964	0.132
964	0.132
965	0.133
965	0.133
966	0.134
966	0.134
966	0.135
967	0.135
967	0.135
968	0.135
968	0.135
968	0.135
969	0.134
969	0.134
970	0.133
970	0.132
971	0.132
971	0.131
971	0.131
972	0.131
972	0.13
973	0.13
973	0.13
974	0.13
974	0.13
974	0.13
975	0.13
975	0.13
976	0.13
976	0.13
976	0.13
977	0.129
977	0.129
978	0.128
978	0.127
979	0.127
979	0.126
979	0.125
980	0.124
980	0.123
981	0.122
981	0.122
982	0.121
982	0.12
982	0.12
983	0.12
983	0.119
984	0.118
984	0.118
984	0.117
985	0.117
985	0.116
986	0.115
986	0.115
987	0.114
987	0.114
987	0.113
988	0.113
988	0.113
989	0.112
989	0.112
990	0.112
990	0.112
990	0.112
991	0.111
991	0.111
992	0.111
992	0.111
992	0.11
993	0.11
993	0.11
994	0.109
994	0.109
995	0.109
995	0.108
995	0.108
996	0.108
996	0.108
997	0.108
997	0.108
997	0.108
998	0.108
998	0.108
999	0.109
999	0.109
1000	0.109
1000	0.109
1000	0.109
1001	0.109
1001	0.109
1002	0.109
1002	0.109
1003	0.109
1003	0.108
1003	0.108
1004	0.107
1004	0.107
1005	0.106
1005	0.106
1005	0.106
1006	0.105
1006	0.105
1007	0.105
1007	0.105
1008	0.105
1008	0.105
1008	0.105
1009	0.105
1009	0.105
1010	0.105
1010	0.105
1010	0.105
1011	0.106
1011	0.106
1012	0.106
1012	0.106
1013	0.106
1013	0.106
1013	0.106
1014	0.105
1014	0.105
1015	0.104
1015	0.104
1016	0.103
1016	0.102
1016	0.102
1017	0.101
1017	0.1
1018	0.1
1018	0.1
1018	0.099
1019	0.099
1019	0.099
1020	0.099
1020	0.099
1021	0.1
1021	0.1
1021	0.1
1022	0.1
1022	0.1
1023	0.1
1023	0.101
1023	0.101
1024	0.101
1024	0.101
1025	0.101
1025	0.101
1026	0.1
1026	0.1
1026	0.1
1027	0.1
1027	0.1
1028	0.1
1028	0.1
1028	0.1
1029	0.1
1029	0.1
1030	0.1
1030	0.1
1031	0.1
1031	0.1
1031	0.1
1032	0.1
1032	0.1
1033	0.1
1033	0.1
1033	0.1
1034	0.1
1034	0.1
1035	0.1
1035	0.099
1036	0.099
1036	0.099
1036	0.099
1037	0.099
1037	0.098
1038	0.098
1038	0.098
1039	0.098
1039	0.098
1039	0.098
1040	0.098
1040	0.099
1041	0.099
1041	0.099
1041	0.099
1042	0.099
1042	0.099
1043	0.1
1043	0.1
1044	0.1
1044	0.1
1044	0.1
1045	0.1
1045	0.1
1046	0.1
1046	0.101
1046	0.101
1047	0.101
1047	0.102
1048	0.102
1048	0.103
1049	0.103
1049	0.104
1049	0.104
1050	0.104
1050	0.104
1051	0.104
1051	0.104
1051	0.104
1052	0.103
1052	0.103
1053	0.102
1053	0.101
1053	0.1
1054	0.099
1054	0.099
1055	0.098
1055	0.097
1056	0.097
1056	0.096
1056	0.095
1057	0.094
1057	0.093
1058	0.092
1058	0.092
1058	0.091
1059	0.09
1059	0.09
1060	0.089
1060	0.088
1061	0.088
1061	0.088
1061	0.088
1062	0.088
1062	0.087
1063	0.087
1063	0.087
1063	0.087
1064	0.087
1064	0.086
1065	0.086
1065	0.085
1066	0.085
1066	0.084
1066	0.084
1067	0.084
1067	0.083
1068	0.083
1068	0.083
1068	0.082
1069	0.082
1069	0.081
1070	0.08
1070	0.08
1071	0.08
1071	0.079
1071	0.078
1072	0.078
1072	0.077
1073	0.077
1073	0.076
1073	0.076
1074	0.076
1074	0.076
1075	0.075
1075	0.075
1076	0.075
1076	0.076
1076	0.076
1077	0.076
1077	0.076
1078	0.077
1078	0.077
1078	0.077
1079	0.077
1079	0.077
1080	0.077
1080	0.077
1080	0.077
1081	0.078
1081	0.078
1082	0.079
1082	0.079
1083	0.079
1083	0.078
1083	0.078
1084	0.078
1084	0.078
1085	0.078
1085	0.077
1085	0.077
1086	0.077
1086	0.076
1087	0.076
1087	0.075
1088	0.075
1088	0.075
1088	0.075
1089	0.075
1089	0.074
1090	0.074
1090	0.073
1090	0.072
1091	0.073
1091	0.072
1092	0.072
1092	0.072
1092	0.072
1093	0.072
1093	0.073
1094	0.073
1094	0.073
1095	0.072
1095	0.073
1095	0.072
1096	0.072
1096	0.071
1097	0.07
1097	0.069
1097	0.069
1098	0.067
1098	0.066
1099	0.065
1099	0.064
1100	0.063
1100	0.062
1100	0.062
1101	0.061
1101	0.06
1102	0.06
1102	0.059
1102	0.058
1103	0.058
1103	0.058
1104	0.058
1104	0.058
1104	0.057
1105	0.056
1105	0.055
1106	0.054
1106	0.053
1107	0.053
1107	0.052
1107	0.053
1108	0.052
1108	0.052
1109	0.05
1109	0.05
1109	0.052
1110	0.053
1110	0.052
1111	0.054
1111	0.051
