Data from reversibility-20sec_Absorbance__6016__000000000006016.txt Node

Date: Wed Dec 06 21:38:27 CET 2023
User: Marek
Spectrometer: MAYP115816
Trigger mode: 0
Integration Time (sec): 2.000000E-1
Scans to average: 10
Electric dark correction enabled: true
Nonlinearity correction enabled: true
Boxcar width: 5
XAxis mode: Wavelengths
Number of Pixels in Spectrum: 2068
>>>>>Begin Spectral Data<<<<<
199	-0.136
199	-0.108
200	-0.047
200	0.003
201	0.033
201	0.05
202	0.061
202	0.07
203	0.075
203	0.077
204	0.09
204	0.104
205	0.115
205	0.123
205	0.123
206	0.119
206	0.118
207	0.122
207	0.121
208	0.121
208	0.119
209	0.123
209	0.116
210	0.117
210	0.115
211	0.116
211	0.121
212	0.119
212	0.12
213	0.124
213	0.127
213	0.127
214	0.13
214	0.132
215	0.131
215	0.13
216	0.131
216	0.128
217	0.13
217	0.129
218	0.126
218	0.13
219	0.136
219	0.136
220	0.14
220	0.141
221	0.143
221	0.142
221	0.148
222	0.153
222	0.156
223	0.163
223	0.167
224	0.169
224	0.177
225	0.184
225	0.193
226	0.201
226	0.213
227	0.223
227	0.232
228	0.25
228	0.264
229	0.279
229	0.303
229	0.324
230	0.349
230	0.38
231	0.413
231	0.449
232	0.487
232	0.531
233	0.571
233	0.621
234	0.672
234	0.724
235	0.777
235	0.832
236	0.885
236	0.937
236	0.991
237	1.043
237	1.09
238	1.14
238	1.185
239	1.23
239	1.272
240	1.308
240	1.34
241	1.371
241	1.407
242	1.436
242	1.468
243	1.498
243	1.522
243	1.546
244	1.57
244	1.592
245	1.613
245	1.639
246	1.659
246	1.675
247	1.689
247	1.704
248	1.717
248	1.731
249	1.742
249	1.749
250	1.755
250	1.762
250	1.765
251	1.767
251	1.769
252	1.775
252	1.775
253	1.777
253	1.773
254	1.772
254	1.772
255	1.77
255	1.77
256	1.769
256	1.769
257	1.77
257	1.767
258	1.765
258	1.764
258	1.765
259	1.765
259	1.765
260	1.765
260	1.767
261	1.767
261	1.77
262	1.773
262	1.774
263	1.779
263	1.781
264	1.781
264	1.783
265	1.784
265	1.786
265	1.786
266	1.787
266	1.786
267	1.783
267	1.785
268	1.783
268	1.782
269	1.785
269	1.784
270	1.784
270	1.781
271	1.777
271	1.776
272	1.774
272	1.773
272	1.768
273	1.764
273	1.757
274	1.75
274	1.744
275	1.737
275	1.73
276	1.724
276	1.715
277	1.707
277	1.696
278	1.685
278	1.672
278	1.657
279	1.639
279	1.617
280	1.59
280	1.558
281	1.518
281	1.476
282	1.432
282	1.386
283	1.342
283	1.3
284	1.26
284	1.22
285	1.184
285	1.15
285	1.121
286	1.095
286	1.072
287	1.053
287	1.037
288	1.023
288	1.01
289	1
289	0.991
290	0.984
290	0.977
291	0.971
291	0.966
292	0.961
292	0.957
292	0.954
293	0.95
293	0.947
294	0.944
294	0.941
295	0.938
295	0.935
296	0.932
296	0.93
297	0.927
297	0.924
298	0.921
298	0.919
298	0.916
299	0.913
299	0.911
300	0.908
300	0.906
301	0.903
301	0.901
302	0.898
302	0.896
303	0.893
303	0.891
304	0.889
304	0.887
305	0.885
305	0.882
305	0.88
306	0.878
306	0.876
307	0.874
307	0.871
308	0.869
308	0.866
309	0.864
309	0.861
310	0.858
310	0.856
311	0.853
311	0.85
311	0.847
312	0.843
312	0.84
313	0.837
313	0.833
314	0.83
314	0.826
315	0.822
315	0.817
316	0.813
316	0.809
317	0.805
317	0.8
318	0.795
318	0.79
318	0.785
319	0.779
319	0.774
320	0.769
320	0.763
321	0.757
321	0.751
322	0.745
322	0.739
323	0.733
323	0.726
324	0.72
324	0.713
324	0.707
325	0.7
325	0.693
326	0.686
326	0.679
327	0.672
327	0.665
328	0.658
328	0.651
329	0.645
329	0.638
330	0.63
330	0.624
330	0.616
331	0.609
331	0.602
332	0.596
332	0.589
333	0.582
333	0.575
334	0.568
334	0.561
335	0.555
335	0.548
336	0.542
336	0.535
336	0.528
337	0.522
337	0.516
338	0.509
338	0.503
339	0.498
339	0.491
340	0.486
340	0.48
341	0.474
341	0.469
342	0.463
342	0.458
342	0.453
343	0.448
343	0.442
344	0.437
344	0.433
345	0.428
345	0.424
346	0.419
346	0.415
347	0.411
347	0.406
348	0.402
348	0.398
348	0.395
349	0.391
349	0.387
350	0.384
350	0.38
351	0.377
351	0.374
352	0.37
352	0.367
353	0.364
353	0.361
354	0.359
354	0.356
354	0.353
355	0.35
355	0.347
356	0.344
356	0.342
357	0.339
357	0.337
358	0.334
358	0.332
359	0.33
359	0.327
360	0.325
360	0.324
360	0.322
361	0.32
361	0.318
362	0.316
362	0.315
363	0.313
363	0.311
364	0.309
364	0.308
365	0.306
365	0.304
366	0.302
366	0.301
366	0.299
367	0.297
367	0.296
368	0.294
368	0.293
369	0.291
369	0.29
370	0.289
370	0.287
371	0.286
371	0.285
372	0.284
372	0.283
372	0.281
373	0.28
373	0.28
374	0.279
374	0.278
375	0.277
375	0.276
376	0.275
376	0.275
377	0.274
377	0.273
378	0.272
378	0.271
378	0.271
379	0.27
379	0.269
380	0.269
380	0.268
381	0.267
381	0.267
382	0.266
382	0.266
383	0.265
383	0.264
383	0.264
384	0.263
384	0.263
385	0.262
385	0.262
386	0.262
386	0.261
387	0.261
387	0.26
388	0.26
388	0.26
389	0.259
389	0.259
389	0.259
390	0.258
390	0.258
391	0.258
391	0.258
392	0.257
392	0.257
393	0.257
393	0.257
394	0.256
394	0.256
394	0.256
395	0.255
395	0.255
396	0.255
396	0.254
397	0.254
397	0.254
398	0.253
398	0.253
399	0.253
399	0.252
400	0.252
400	0.252
400	0.252
401	0.251
401	0.251
402	0.251
402	0.251
403	0.25
403	0.25
404	0.25
404	0.25
405	0.25
405	0.25
405	0.25
406	0.249
406	0.249
407	0.248
407	0.248
408	0.248
408	0.248
409	0.247
409	0.247
410	0.247
410	0.247
411	0.246
411	0.246
411	0.246
412	0.246
412	0.246
413	0.245
413	0.245
414	0.245
414	0.245
415	0.244
415	0.244
416	0.243
416	0.243
416	0.243
417	0.243
417	0.242
418	0.242
418	0.241
419	0.241
419	0.24
420	0.24
420	0.24
421	0.239
421	0.239
421	0.239
422	0.238
422	0.238
423	0.238
423	0.237
424	0.237
424	0.237
425	0.237
425	0.236
426	0.236
426	0.236
427	0.235
427	0.235
427	0.235
428	0.234
428	0.234
429	0.234
429	0.233
430	0.233
430	0.233
431	0.233
431	0.233
432	0.233
432	0.233
432	0.232
433	0.232
433	0.232
434	0.232
434	0.232
435	0.231
435	0.231
436	0.231
436	0.231
437	0.23
437	0.23
437	0.23
438	0.23
438	0.23
439	0.229
439	0.229
440	0.229
440	0.229
441	0.229
441	0.229
442	0.228
442	0.228
442	0.228
443	0.228
443	0.228
444	0.227
444	0.227
445	0.227
445	0.227
446	0.226
446	0.226
447	0.225
447	0.225
447	0.225
448	0.225
448	0.224
449	0.224
449	0.224
450	0.224
450	0.224
451	0.224
451	0.224
452	0.224
452	0.223
452	0.223
453	0.223
453	0.223
454	0.223
454	0.222
455	0.222
455	0.222
456	0.222
456	0.221
457	0.221
457	0.221
458	0.221
458	0.22
458	0.22
459	0.22
459	0.22
460	0.22
460	0.22
461	0.219
461	0.219
462	0.219
462	0.219
463	0.218
463	0.218
463	0.218
464	0.217
464	0.217
465	0.216
465	0.216
466	0.216
466	0.216
467	0.216
467	0.216
467	0.215
468	0.215
468	0.215
469	0.215
469	0.216
470	0.216
470	0.216
471	0.216
471	0.216
472	0.216
472	0.216
472	0.216
473	0.216
473	0.216
474	0.216
474	0.215
475	0.215
475	0.215
476	0.215
476	0.215
477	0.215
477	0.214
477	0.215
478	0.215
478	0.215
479	0.215
479	0.215
480	0.215
480	0.214
481	0.214
481	0.214
482	0.214
482	0.215
482	0.214
483	0.214
483	0.215
484	0.215
484	0.214
485	0.214
485	0.214
486	0.214
486	0.214
487	0.215
487	0.215
487	0.215
488	0.215
488	0.215
489	0.216
489	0.216
490	0.217
490	0.217
491	0.218
491	0.218
492	0.218
492	0.218
492	0.219
493	0.219
493	0.219
494	0.219
494	0.22
495	0.22
495	0.22
496	0.22
496	0.221
496	0.221
497	0.221
497	0.222
498	0.222
498	0.222
499	0.223
499	0.223
500	0.224
500	0.224
501	0.224
501	0.225
501	0.225
502	0.225
502	0.225
503	0.226
503	0.226
504	0.227
504	0.227
505	0.227
505	0.228
506	0.228
506	0.228
506	0.228
507	0.229
507	0.229
508	0.229
508	0.229
509	0.23
509	0.23
510	0.231
510	0.231
511	0.232
511	0.232
511	0.233
512	0.233
512	0.234
513	0.234
513	0.235
514	0.235
514	0.236
515	0.236
515	0.236
515	0.236
516	0.236
516	0.237
517	0.237
517	0.238
518	0.238
518	0.238
519	0.238
519	0.239
520	0.239
520	0.239
520	0.24
521	0.24
521	0.24
522	0.24
522	0.24
523	0.241
523	0.24
524	0.241
524	0.241
524	0.241
525	0.242
525	0.242
526	0.242
526	0.242
527	0.242
527	0.242
528	0.242
528	0.243
529	0.243
529	0.243
529	0.243
530	0.243
530	0.243
531	0.243
531	0.243
532	0.243
532	0.243
533	0.242
533	0.242
533	0.242
534	0.242
534	0.242
535	0.242
535	0.242
536	0.242
536	0.242
537	0.242
537	0.242
538	0.242
538	0.241
538	0.241
539	0.241
539	0.241
540	0.241
540	0.241
541	0.24
541	0.24
542	0.24
542	0.24
542	0.24
543	0.24
543	0.239
544	0.239
544	0.239
545	0.239
545	0.239
546	0.239
546	0.238
547	0.238
547	0.238
547	0.237
548	0.237
548	0.237
549	0.237
549	0.237
550	0.237
550	0.236
551	0.236
551	0.236
551	0.235
552	0.235
552	0.235
553	0.234
553	0.234
554	0.233
554	0.233
555	0.232
555	0.232
556	0.231
556	0.231
556	0.231
557	0.231
557	0.231
558	0.231
558	0.231
559	0.231
559	0.231
560	0.231
560	0.231
560	0.231
561	0.231
561	0.23
562	0.23
562	0.229
563	0.228
563	0.228
564	0.227
564	0.227
564	0.226
565	0.226
565	0.226
566	0.225
566	0.225
567	0.225
567	0.225
568	0.225
568	0.225
568	0.225
569	0.224
569	0.224
570	0.223
570	0.222
571	0.222
571	0.221
572	0.221
572	0.22
573	0.22
573	0.219
573	0.219
574	0.219
574	0.219
575	0.219
575	0.219
576	0.219
576	0.218
577	0.218
577	0.217
577	0.217
578	0.216
578	0.216
579	0.216
579	0.216
580	0.216
580	0.215
581	0.214
581	0.214
581	0.214
582	0.215
582	0.215
583	0.215
583	0.214
584	0.214
584	0.213
585	0.213
585	0.213
585	0.212
586	0.212
586	0.211
587	0.21
587	0.21
588	0.209
588	0.209
589	0.208
589	0.208
590	0.208
590	0.208
590	0.209
591	0.209
591	0.209
592	0.208
592	0.208
593	0.208
593	0.207
594	0.207
594	0.207
594	0.206
595	0.206
595	0.205
596	0.205
596	0.205
597	0.206
597	0.206
598	0.206
598	0.206
598	0.206
599	0.206
599	0.205
600	0.205
600	0.204
601	0.204
601	0.204
602	0.203
602	0.203
602	0.202
603	0.202
603	0.202
604	0.202
604	0.202
605	0.202
605	0.202
606	0.202
606	0.201
606	0.201
607	0.201
607	0.201
608	0.201
608	0.2
609	0.199
609	0.199
610	0.199
610	0.199
610	0.199
611	0.199
611	0.199
612	0.199
612	0.199
613	0.199
613	0.198
614	0.198
614	0.198
614	0.198
615	0.198
615	0.198
616	0.198
616	0.198
617	0.198
617	0.197
618	0.197
618	0.198
618	0.198
619	0.198
619	0.198
620	0.199
620	0.198
621	0.198
621	0.197
622	0.197
622	0.196
622	0.196
623	0.195
623	0.195
624	0.194
624	0.194
625	0.193
625	0.193
626	0.192
626	0.192
626	0.192
627	0.192
627	0.192
628	0.192
628	0.191
629	0.191
629	0.191
630	0.19
630	0.19
630	0.19
631	0.19
631	0.19
632	0.19
632	0.189
633	0.189
633	0.19
634	0.19
634	0.19
634	0.19
635	0.19
635	0.19
636	0.19
636	0.19
637	0.19
637	0.19
638	0.189
638	0.189
638	0.189
639	0.188
639	0.188
640	0.189
640	0.188
641	0.188
641	0.188
642	0.188
642	0.188
642	0.189
643	0.189
643	0.189
644	0.189
644	0.189
645	0.189
645	0.189
646	0.188
646	0.188
646	0.188
647	0.188
647	0.187
648	0.187
648	0.186
649	0.186
649	0.186
650	0.186
650	0.186
650	0.186
651	0.186
651	0.186
652	0.186
652	0.186
653	0.187
653	0.188
653	0.195
654	0.153
654	0.122
655	0.123
655	0.123
656	0.124
656	0.124
657	0.124
657	0.125
657	0.125
658	0.124
658	0.113
659	0.143
659	0.184
660	0.189
660	0.189
661	0.189
661	0.189
661	0.188
662	0.188
662	0.188
663	0.187
663	0.187
664	0.186
664	0.186
665	0.186
665	0.186
665	0.186
666	0.186
666	0.186
667	0.186
667	0.186
668	0.187
668	0.187
669	0.188
669	0.188
669	0.189
670	0.189
670	0.189
671	0.19
671	0.19
672	0.189
672	0.189
672	0.189
673	0.188
673	0.188
674	0.188
674	0.187
675	0.186
675	0.186
676	0.186
676	0.186
676	0.186
677	0.186
677	0.186
678	0.186
678	0.185
679	0.185
679	0.186
680	0.186
680	0.186
680	0.186
681	0.186
681	0.187
682	0.187
682	0.187
683	0.188
683	0.188
684	0.189
684	0.189
684	0.188
685	0.188
685	0.188
686	0.188
686	0.188
687	0.188
687	0.188
687	0.187
688	0.187
688	0.187
689	0.187
689	0.188
690	0.188
690	0.187
691	0.188
691	0.188
691	0.188
692	0.188
692	0.188
693	0.188
693	0.189
694	0.188
694	0.188
695	0.189
695	0.19
695	0.19
696	0.189
696	0.189
697	0.189
697	0.189
698	0.189
698	0.188
698	0.188
699	0.189
699	0.188
700	0.188
700	0.188
701	0.188
701	0.188
702	0.189
702	0.189
702	0.189
703	0.19
703	0.19
704	0.19
704	0.191
705	0.191
705	0.191
705	0.191
706	0.191
706	0.191
707	0.191
707	0.191
708	0.191
708	0.191
709	0.191
709	0.191
709	0.191
710	0.191
710	0.191
711	0.192
711	0.192
712	0.192
712	0.192
713	0.192
713	0.192
713	0.192
714	0.191
714	0.191
715	0.191
715	0.191
716	0.19
716	0.19
716	0.189
717	0.189
717	0.189
718	0.188
718	0.188
719	0.188
719	0.189
720	0.189
720	0.19
720	0.19
721	0.19
721	0.191
722	0.192
722	0.192
723	0.193
723	0.193
723	0.194
724	0.193
724	0.193
725	0.193
725	0.192
726	0.192
726	0.191
727	0.191
727	0.191
727	0.19
728	0.19
728	0.19
729	0.19
729	0.19
730	0.19
730	0.19
730	0.191
731	0.192
731	0.192
732	0.193
732	0.193
733	0.194
733	0.194
734	0.194
734	0.195
734	0.195
735	0.196
735	0.196
736	0.195
736	0.196
737	0.196
737	0.196
737	0.196
738	0.195
738	0.195
739	0.194
739	0.194
740	0.194
740	0.194
741	0.194
741	0.194
741	0.194
742	0.194
742	0.194
743	0.195
743	0.196
744	0.197
744	0.197
744	0.198
745	0.198
745	0.198
746	0.199
746	0.199
747	0.199
747	0.199
748	0.198
748	0.198
748	0.198
749	0.197
749	0.197
750	0.197
750	0.196
751	0.196
751	0.196
751	0.196
752	0.196
752	0.195
753	0.195
753	0.195
754	0.195
754	0.194
754	0.194
755	0.194
755	0.194
756	0.194
756	0.193
757	0.193
757	0.193
758	0.193
758	0.194
758	0.194
759	0.195
759	0.195
760	0.195
760	0.195
761	0.195
761	0.196
761	0.197
762	0.197
762	0.197
763	0.197
763	0.197
764	0.196
764	0.196
764	0.196
765	0.196
765	0.196
766	0.196
766	0.196
767	0.196
767	0.195
768	0.194
768	0.194
768	0.194
769	0.195
769	0.195
770	0.195
770	0.196
771	0.197
771	0.197
771	0.198
772	0.199
772	0.2
773	0.201
773	0.201
774	0.202
774	0.202
775	0.203
775	0.203
775	0.203
776	0.204
776	0.204
777	0.205
777	0.205
778	0.205
778	0.204
778	0.204
779	0.205
779	0.204
780	0.204
780	0.203
781	0.203
781	0.202
781	0.202
782	0.202
782	0.202
783	0.202
783	0.203
784	0.203
784	0.203
784	0.204
785	0.205
785	0.205
786	0.205
786	0.206
787	0.206
787	0.205
788	0.205
788	0.204
788	0.203
789	0.202
789	0.202
790	0.202
790	0.201
791	0.201
791	0.2
791	0.2
792	0.201
792	0.202
793	0.202
793	0.202
794	0.203
794	0.203
794	0.203
795	0.203
795	0.204
796	0.204
796	0.205
797	0.204
797	0.205
797	0.205
798	0.205
798	0.206
799	0.205
799	0.205
800	0.205
800	0.204
801	0.204
801	0.204
801	0.204
802	0.204
802	0.204
803	0.205
803	0.205
804	0.205
804	0.206
804	0.206
805	0.206
805	0.206
806	0.206
806	0.206
807	0.206
807	0.205
807	0.205
808	0.205
808	0.205
809	0.205
809	0.205
810	0.205
810	0.205
810	0.206
811	0.206
811	0.207
812	0.208
812	0.209
813	0.209
813	0.21
813	0.211
814	0.211
814	0.212
815	0.213
815	0.213
816	0.213
816	0.213
817	0.212
817	0.212
817	0.212
818	0.212
818	0.211
819	0.211
819	0.21
820	0.209
820	0.209
820	0.209
821	0.209
821	0.209
822	0.209
822	0.209
823	0.209
823	0.209
823	0.21
824	0.21
824	0.211
825	0.212
825	0.213
826	0.213
826	0.213
826	0.213
827	0.214
827	0.214
828	0.214
828	0.214
829	0.214
829	0.215
829	0.215
830	0.215
830	0.216
831	0.217
831	0.217
832	0.217
832	0.217
832	0.217
833	0.217
833	0.217
834	0.216
834	0.216
835	0.215
835	0.215
835	0.215
836	0.215
836	0.215
837	0.214
837	0.214
838	0.214
838	0.214
839	0.214
839	0.213
839	0.212
840	0.211
840	0.21
841	0.209
841	0.208
842	0.207
842	0.207
842	0.206
843	0.205
843	0.205
844	0.204
844	0.204
845	0.203
845	0.203
845	0.203
846	0.203
846	0.203
847	0.203
847	0.204
848	0.204
848	0.205
848	0.206
849	0.207
849	0.207
850	0.208
850	0.209
851	0.209
851	0.21
851	0.209
852	0.209
852	0.209
853	0.208
853	0.208
854	0.208
854	0.208
854	0.209
855	0.209
855	0.21
856	0.21
856	0.21
857	0.211
857	0.212
857	0.213
858	0.213
858	0.213
859	0.212
859	0.212
860	0.211
860	0.211
860	0.21
861	0.209
861	0.208
862	0.207
862	0.206
863	0.206
863	0.205
863	0.205
864	0.205
864	0.205
865	0.205
865	0.206
866	0.206
866	0.206
866	0.206
867	0.207
867	0.208
868	0.208
868	0.209
869	0.209
869	0.209
869	0.209
870	0.209
870	0.209
871	0.209
871	0.209
872	0.209
872	0.209
872	0.209
873	0.208
873	0.208
874	0.207
874	0.207
875	0.207
875	0.206
875	0.206
876	0.206
876	0.205
877	0.205
877	0.205
878	0.205
878	0.205
878	0.205
879	0.206
879	0.206
880	0.206
880	0.207
881	0.207
881	0.207
881	0.208
882	0.207
882	0.208
883	0.208
883	0.208
884	0.208
884	0.208
884	0.208
885	0.207
885	0.207
886	0.206
886	0.206
887	0.205
887	0.204
887	0.203
888	0.202
888	0.201
889	0.201
889	0.2
890	0.2
890	0.2
890	0.2
891	0.199
891	0.199
892	0.199
892	0.199
893	0.199
893	0.199
893	0.199
894	0.199
894	0.199
895	0.199
895	0.199
895	0.199
896	0.199
896	0.2
897	0.2
897	0.2
898	0.199
898	0.199
898	0.199
899	0.198
899	0.198
900	0.197
900	0.196
901	0.196
901	0.195
901	0.195
902	0.194
902	0.193
903	0.193
903	0.192
904	0.192
904	0.192
904	0.191
905	0.191
905	0.191
906	0.19
906	0.19
907	0.19
907	0.191
907	0.191
908	0.19
908	0.19
909	0.19
909	0.19
910	0.19
910	0.19
910	0.189
911	0.189
911	0.189
912	0.188
912	0.188
913	0.188
913	0.188
913	0.188
914	0.188
914	0.188
915	0.188
915	0.189
916	0.189
916	0.189
916	0.189
917	0.188
917	0.188
918	0.187
918	0.187
918	0.186
919	0.186
919	0.185
920	0.185
920	0.184
921	0.184
921	0.183
921	0.183
922	0.183
922	0.183
923	0.183
923	0.184
924	0.184
924	0.184
924	0.184
925	0.185
925	0.186
926	0.186
926	0.187
927	0.187
927	0.187
927	0.187
928	0.187
928	0.187
929	0.187
929	0.187
930	0.186
930	0.185
930	0.185
931	0.184
931	0.183
932	0.183
932	0.182
933	0.181
933	0.18
933	0.18
934	0.18
934	0.179
935	0.179
935	0.178
935	0.178
936	0.178
936	0.178
937	0.178
937	0.177
938	0.177
938	0.177
938	0.176
939	0.176
939	0.175
940	0.175
940	0.175
941	0.175
941	0.175
941	0.175
942	0.175
942	0.174
943	0.174
943	0.174
944	0.174
944	0.174
944	0.174
945	0.174
945	0.174
946	0.174
946	0.174
946	0.174
947	0.174
947	0.174
948	0.174
948	0.174
949	0.173
949	0.173
949	0.173
950	0.172
950	0.172
951	0.172
951	0.171
952	0.17
952	0.17
952	0.169
953	0.169
953	0.169
954	0.168
954	0.168
955	0.168
955	0.167
955	0.167
956	0.167
956	0.167
957	0.167
957	0.167
957	0.166
958	0.166
958	0.165
959	0.165
959	0.165
960	0.164
960	0.164
960	0.164
961	0.163
961	0.163
962	0.163
962	0.162
963	0.162
963	0.163
963	0.163
964	0.163
964	0.164
965	0.164
965	0.164
966	0.164
966	0.164
966	0.163
967	0.163
967	0.163
968	0.163
968	0.162
968	0.161
969	0.161
969	0.16
970	0.159
970	0.158
971	0.158
971	0.157
971	0.157
972	0.156
972	0.155
973	0.155
973	0.154
974	0.154
974	0.154
974	0.154
975	0.154
975	0.154
976	0.155
976	0.155
976	0.156
977	0.156
977	0.156
978	0.156
978	0.156
979	0.155
979	0.155
979	0.155
980	0.155
980	0.154
981	0.153
981	0.153
982	0.153
982	0.153
982	0.152
983	0.152
983	0.152
984	0.152
984	0.152
984	0.152
985	0.152
985	0.152
986	0.152
986	0.151
987	0.151
987	0.151
987	0.151
988	0.151
988	0.15
989	0.15
989	0.149
990	0.149
990	0.148
990	0.148
991	0.147
991	0.146
992	0.146
992	0.145
992	0.144
993	0.143
993	0.142
994	0.14
994	0.14
995	0.139
995	0.138
995	0.137
996	0.137
996	0.137
997	0.138
997	0.138
997	0.138
998	0.139
998	0.14
999	0.14
999	0.141
1000	0.142
1000	0.142
1000	0.143
1001	0.143
1001	0.143
1002	0.143
1002	0.142
1003	0.142
1003	0.142
1003	0.141
1004	0.14
1004	0.139
1005	0.139
1005	0.138
1005	0.137
1006	0.136
1006	0.136
1007	0.135
1007	0.134
1008	0.134
1008	0.134
1008	0.134
1009	0.134
1009	0.134
1010	0.134
1010	0.135
1010	0.135
1011	0.135
1011	0.135
1012	0.135
1012	0.135
1013	0.135
1013	0.135
1013	0.134
1014	0.134
1014	0.133
1015	0.133
1015	0.133
1016	0.132
1016	0.132
1016	0.131
1017	0.131
1017	0.13
1018	0.13
1018	0.13
1018	0.129
1019	0.129
1019	0.129
1020	0.128
1020	0.128
1021	0.128
1021	0.128
1021	0.129
1022	0.129
1022	0.129
1023	0.129
1023	0.13
1023	0.13
1024	0.13
1024	0.13
1025	0.13
1025	0.131
1026	0.131
1026	0.13
1026	0.13
1027	0.13
1027	0.13
1028	0.13
1028	0.13
1028	0.13
1029	0.13
1029	0.13
1030	0.13
1030	0.13
1031	0.131
1031	0.131
1031	0.13
1032	0.131
1032	0.131
1033	0.131
1033	0.131
1033	0.131
1034	0.131
1034	0.131
1035	0.13
1035	0.13
1036	0.13
1036	0.13
1036	0.13
1037	0.13
1037	0.129
1038	0.129
1038	0.128
1039	0.128
1039	0.128
1039	0.128
1040	0.128
1040	0.128
1041	0.127
1041	0.127
1041	0.127
1042	0.127
1042	0.127
1043	0.126
1043	0.126
1044	0.126
1044	0.125
1044	0.125
1045	0.125
1045	0.125
1046	0.124
1046	0.124
1046	0.124
1047	0.124
1047	0.124
1048	0.124
1048	0.125
1049	0.125
1049	0.125
1049	0.124
1050	0.124
1050	0.124
1051	0.124
1051	0.123
1051	0.123
1052	0.122
1052	0.121
1053	0.12
1053	0.119
1053	0.119
1054	0.118
1054	0.117
1055	0.117
1055	0.116
1056	0.115
1056	0.114
1056	0.114
1057	0.113
1057	0.112
1058	0.112
1058	0.111
1058	0.11
1059	0.11
1059	0.109
1060	0.108
1060	0.108
1061	0.107
1061	0.107
1061	0.107
1062	0.106
1062	0.106
1063	0.105
1063	0.105
1063	0.105
1064	0.104
1064	0.104
1065	0.104
1065	0.104
1066	0.104
1066	0.103
1066	0.103
1067	0.102
1067	0.102
1068	0.102
1068	0.101
1068	0.101
1069	0.101
1069	0.1
1070	0.1
1070	0.1
1071	0.099
1071	0.099
1071	0.098
1072	0.097
1072	0.097
1073	0.096
1073	0.096
1073	0.095
1074	0.095
1074	0.095
1075	0.095
1075	0.096
1076	0.096
1076	0.097
1076	0.097
1077	0.097
1077	0.097
1078	0.097
1078	0.097
1078	0.096
1079	0.095
1079	0.095
1080	0.094
1080	0.094
1080	0.093
1081	0.093
1081	0.093
1082	0.093
1082	0.093
1083	0.092
1083	0.092
1083	0.092
1084	0.092
1084	0.092
1085	0.092
1085	0.093
1085	0.093
1086	0.093
1086	0.092
1087	0.092
1087	0.092
1088	0.091
1088	0.091
1088	0.091
1089	0.09
1089	0.089
1090	0.089
1090	0.088
1090	0.087
1091	0.087
1091	0.087
1092	0.087
1092	0.088
1092	0.088
1093	0.087
1093	0.087
1094	0.088
1094	0.087
1095	0.086
1095	0.087
1095	0.086
1096	0.085
1096	0.084
1097	0.083
1097	0.081
1097	0.08
1098	0.079
1098	0.077
1099	0.077
1099	0.075
1100	0.073
1100	0.072
1100	0.07
1101	0.069
1101	0.068
1102	0.067
1102	0.066
1102	0.064
1103	0.064
1103	0.064
1104	0.063
1104	0.063
1104	0.062
1105	0.062
1105	0.06
1106	0.059
1106	0.057
1107	0.056
1107	0.056
1107	0.055
1108	0.052
1108	0.051
1109	0.049
1109	0.048
1109	0.048
1110	0.049
1110	0.048
1111	0.048
1111	0.049
