Data from reversibility-20sec_Absorbance__5675__000000000005675.txt Node

Date: Wed Dec 06 19:44:45 CET 2023
User: Marek
Spectrometer: MAYP115816
Trigger mode: 0
Integration Time (sec): 2.000000E-1
Scans to average: 10
Electric dark correction enabled: true
Nonlinearity correction enabled: true
Boxcar width: 5
XAxis mode: Wavelengths
Number of Pixels in Spectrum: 2068
>>>>>Begin Spectral Data<<<<<
199	-0.219
199	-0.19
200	-0.121
200	-0.067
201	-0.038
201	-0.019
202	-0.005
202	0.006
203	0.013
203	0.017
204	0.033
204	0.045
205	0.057
205	0.062
205	0.059
206	0.058
206	0.059
207	0.061
207	0.059
208	0.059
208	0.058
209	0.06
209	0.058
210	0.059
210	0.06
211	0.063
211	0.066
212	0.065
212	0.066
213	0.068
213	0.069
213	0.07
214	0.073
214	0.075
215	0.074
215	0.075
216	0.076
216	0.075
217	0.076
217	0.078
218	0.077
218	0.079
219	0.082
219	0.081
220	0.085
220	0.088
221	0.088
221	0.091
221	0.096
222	0.102
222	0.104
223	0.111
223	0.116
224	0.122
224	0.13
225	0.14
225	0.15
226	0.161
226	0.17
227	0.181
227	0.192
228	0.208
228	0.222
229	0.239
229	0.263
229	0.286
230	0.31
230	0.338
231	0.368
231	0.406
232	0.444
232	0.486
233	0.528
233	0.576
234	0.629
234	0.68
235	0.732
235	0.787
236	0.841
236	0.895
236	0.946
237	0.997
237	1.047
238	1.096
238	1.143
239	1.188
239	1.232
240	1.27
240	1.304
241	1.337
241	1.371
242	1.405
242	1.437
243	1.464
243	1.49
243	1.516
244	1.537
244	1.555
245	1.576
245	1.598
246	1.618
246	1.636
247	1.648
247	1.662
248	1.677
248	1.694
249	1.705
249	1.712
250	1.721
250	1.731
250	1.737
251	1.742
251	1.747
252	1.753
252	1.757
253	1.759
253	1.76
254	1.759
254	1.762
255	1.763
255	1.764
256	1.764
256	1.764
257	1.765
257	1.764
258	1.764
258	1.765
258	1.763
259	1.765
259	1.763
260	1.763
260	1.764
261	1.764
261	1.765
262	1.766
262	1.765
263	1.767
263	1.767
264	1.767
264	1.767
265	1.769
265	1.771
265	1.77
266	1.77
266	1.771
267	1.77
267	1.771
268	1.77
268	1.771
269	1.773
269	1.771
270	1.769
270	1.767
271	1.765
271	1.764
272	1.76
272	1.758
272	1.757
273	1.752
273	1.748
274	1.744
274	1.74
275	1.734
275	1.729
276	1.723
276	1.715
277	1.71
277	1.7
278	1.689
278	1.678
278	1.666
279	1.652
279	1.636
280	1.618
280	1.595
281	1.568
281	1.537
282	1.503
282	1.469
283	1.434
283	1.399
284	1.364
284	1.329
285	1.296
285	1.265
285	1.237
286	1.211
286	1.189
287	1.169
287	1.151
288	1.136
288	1.123
289	1.112
289	1.101
290	1.093
290	1.085
291	1.078
291	1.072
292	1.066
292	1.061
292	1.057
293	1.052
293	1.048
294	1.044
294	1.04
295	1.037
295	1.034
296	1.03
296	1.026
297	1.023
297	1.019
298	1.016
298	1.013
298	1.01
299	1.007
299	1.004
300	1.001
300	0.998
301	0.995
301	0.992
302	0.989
302	0.987
303	0.984
303	0.981
304	0.978
304	0.975
305	0.973
305	0.97
305	0.967
306	0.965
306	0.962
307	0.959
307	0.956
308	0.953
308	0.95
309	0.947
309	0.945
310	0.942
310	0.939
311	0.935
311	0.932
311	0.928
312	0.924
312	0.921
313	0.917
313	0.913
314	0.908
314	0.904
315	0.9
315	0.895
316	0.891
316	0.886
317	0.882
317	0.877
318	0.872
318	0.867
318	0.862
319	0.856
319	0.851
320	0.845
320	0.839
321	0.833
321	0.827
322	0.821
322	0.815
323	0.809
323	0.802
324	0.796
324	0.789
324	0.783
325	0.776
325	0.77
326	0.763
326	0.756
327	0.749
327	0.743
328	0.736
328	0.729
329	0.722
329	0.715
330	0.708
330	0.701
330	0.694
331	0.687
331	0.68
332	0.673
332	0.666
333	0.66
333	0.653
334	0.646
334	0.639
335	0.633
335	0.626
336	0.62
336	0.613
336	0.607
337	0.6
337	0.594
338	0.588
338	0.582
339	0.576
339	0.57
340	0.564
340	0.559
341	0.553
341	0.547
342	0.542
342	0.536
342	0.531
343	0.526
343	0.521
344	0.516
344	0.511
345	0.506
345	0.502
346	0.497
346	0.493
347	0.489
347	0.484
348	0.48
348	0.476
348	0.473
349	0.469
349	0.465
350	0.461
350	0.458
351	0.454
351	0.451
352	0.448
352	0.445
353	0.442
353	0.439
354	0.435
354	0.433
354	0.43
355	0.427
355	0.424
356	0.421
356	0.418
357	0.414
357	0.411
358	0.409
358	0.406
359	0.404
359	0.401
360	0.399
360	0.397
360	0.395
361	0.393
361	0.392
362	0.391
362	0.389
363	0.387
363	0.385
364	0.383
364	0.381
365	0.379
365	0.377
366	0.375
366	0.373
366	0.372
367	0.37
367	0.368
368	0.366
368	0.365
369	0.363
369	0.361
370	0.36
370	0.358
371	0.357
371	0.355
372	0.354
372	0.352
372	0.351
373	0.35
373	0.349
374	0.348
374	0.347
375	0.346
375	0.345
376	0.344
376	0.343
377	0.342
377	0.341
378	0.34
378	0.339
378	0.338
379	0.337
379	0.336
380	0.335
380	0.334
381	0.333
381	0.332
382	0.332
382	0.331
383	0.33
383	0.329
383	0.329
384	0.328
384	0.327
385	0.327
385	0.326
386	0.326
386	0.325
387	0.324
387	0.324
388	0.323
388	0.322
389	0.322
389	0.321
389	0.321
390	0.32
390	0.319
391	0.319
391	0.318
392	0.318
392	0.318
393	0.317
393	0.317
394	0.316
394	0.316
394	0.315
395	0.314
395	0.314
396	0.314
396	0.313
397	0.312
397	0.312
398	0.311
398	0.311
399	0.311
399	0.31
400	0.31
400	0.31
400	0.309
401	0.309
401	0.309
402	0.308
402	0.308
403	0.307
403	0.307
404	0.307
404	0.306
405	0.306
405	0.305
405	0.305
406	0.305
406	0.304
407	0.303
407	0.303
408	0.303
408	0.302
409	0.302
409	0.302
410	0.301
410	0.301
411	0.301
411	0.3
411	0.3
412	0.3
412	0.3
413	0.299
413	0.299
414	0.299
414	0.299
415	0.298
415	0.298
416	0.297
416	0.297
416	0.297
417	0.296
417	0.296
418	0.295
418	0.295
419	0.294
419	0.294
420	0.293
420	0.293
421	0.292
421	0.292
421	0.291
422	0.291
422	0.291
423	0.29
423	0.29
424	0.29
424	0.29
425	0.29
425	0.289
426	0.289
426	0.289
427	0.289
427	0.288
427	0.288
428	0.288
428	0.288
429	0.287
429	0.287
430	0.287
430	0.287
431	0.286
431	0.286
432	0.286
432	0.286
432	0.286
433	0.285
433	0.285
434	0.285
434	0.285
435	0.285
435	0.284
436	0.284
436	0.284
437	0.284
437	0.284
437	0.283
438	0.283
438	0.283
439	0.283
439	0.283
440	0.282
440	0.282
441	0.282
441	0.282
442	0.282
442	0.282
442	0.281
443	0.281
443	0.281
444	0.281
444	0.281
445	0.281
445	0.281
446	0.28
446	0.28
447	0.28
447	0.28
447	0.28
448	0.28
448	0.28
449	0.28
449	0.28
450	0.28
450	0.28
451	0.28
451	0.28
452	0.28
452	0.28
452	0.28
453	0.28
453	0.28
454	0.28
454	0.28
455	0.28
455	0.279
456	0.279
456	0.279
457	0.28
457	0.28
458	0.279
458	0.279
458	0.279
459	0.279
459	0.28
460	0.28
460	0.28
461	0.28
461	0.28
462	0.279
462	0.279
463	0.279
463	0.279
463	0.279
464	0.279
464	0.279
465	0.279
465	0.279
466	0.28
466	0.28
467	0.28
467	0.28
467	0.28
468	0.281
468	0.281
469	0.281
469	0.282
470	0.283
470	0.283
471	0.283
471	0.284
472	0.284
472	0.285
472	0.285
473	0.286
473	0.286
474	0.287
474	0.287
475	0.287
475	0.288
476	0.288
476	0.288
477	0.289
477	0.289
477	0.29
478	0.29
478	0.291
479	0.291
479	0.292
480	0.292
480	0.293
481	0.293
481	0.294
482	0.295
482	0.295
482	0.296
483	0.297
483	0.298
484	0.299
484	0.299
485	0.3
485	0.3
486	0.301
486	0.302
487	0.303
487	0.303
487	0.304
488	0.305
488	0.306
489	0.307
489	0.309
490	0.31
490	0.312
491	0.313
491	0.314
492	0.315
492	0.317
492	0.318
493	0.319
493	0.32
494	0.321
494	0.322
495	0.324
495	0.325
496	0.326
496	0.327
496	0.328
497	0.33
497	0.331
498	0.332
498	0.333
499	0.335
499	0.336
500	0.338
500	0.339
501	0.341
501	0.342
501	0.343
502	0.344
502	0.345
503	0.347
503	0.348
504	0.349
504	0.35
505	0.351
505	0.352
506	0.353
506	0.354
506	0.356
507	0.357
507	0.358
508	0.359
508	0.36
509	0.361
509	0.362
510	0.363
510	0.364
511	0.366
511	0.367
511	0.368
512	0.369
512	0.37
513	0.371
513	0.372
514	0.373
514	0.374
515	0.374
515	0.375
515	0.375
516	0.376
516	0.377
517	0.378
517	0.378
518	0.379
518	0.379
519	0.379
519	0.38
520	0.38
520	0.38
520	0.38
521	0.38
521	0.38
522	0.38
522	0.379
523	0.379
523	0.379
524	0.379
524	0.378
524	0.378
525	0.378
525	0.377
526	0.377
526	0.376
527	0.376
527	0.375
528	0.375
528	0.374
529	0.373
529	0.373
529	0.371
530	0.37
530	0.37
531	0.369
531	0.368
532	0.366
532	0.365
533	0.363
533	0.362
533	0.361
534	0.359
534	0.358
535	0.357
535	0.355
536	0.353
536	0.352
537	0.35
537	0.349
538	0.348
538	0.346
538	0.344
539	0.342
539	0.341
540	0.339
540	0.337
541	0.335
541	0.333
542	0.331
542	0.329
542	0.327
543	0.325
543	0.322
544	0.32
544	0.318
545	0.316
545	0.314
546	0.313
546	0.311
547	0.308
547	0.306
547	0.304
548	0.302
548	0.3
549	0.298
549	0.296
550	0.294
550	0.292
551	0.29
551	0.287
551	0.285
552	0.283
552	0.281
553	0.279
553	0.277
554	0.274
554	0.272
555	0.269
555	0.267
556	0.265
556	0.263
556	0.261
557	0.26
557	0.258
558	0.256
558	0.255
559	0.253
559	0.252
560	0.25
560	0.248
560	0.247
561	0.245
561	0.243
562	0.241
562	0.239
563	0.237
563	0.235
564	0.233
564	0.231
564	0.23
565	0.228
565	0.226
566	0.225
566	0.223
567	0.222
567	0.22
568	0.219
568	0.217
568	0.215
569	0.214
569	0.212
570	0.21
570	0.208
571	0.207
571	0.205
572	0.203
572	0.202
573	0.2
573	0.199
573	0.197
574	0.196
574	0.195
575	0.194
575	0.193
576	0.192
576	0.191
577	0.189
577	0.188
577	0.187
578	0.186
578	0.184
579	0.184
579	0.183
580	0.181
580	0.179
581	0.178
581	0.177
581	0.176
582	0.175
582	0.175
583	0.174
583	0.173
584	0.172
584	0.17
585	0.169
585	0.168
585	0.167
586	0.166
586	0.165
587	0.163
587	0.162
588	0.161
588	0.159
589	0.159
589	0.158
590	0.158
590	0.157
590	0.157
591	0.156
591	0.155
592	0.155
592	0.154
593	0.153
593	0.152
594	0.151
594	0.15
594	0.149
595	0.149
595	0.148
596	0.147
596	0.146
597	0.147
597	0.146
598	0.145
598	0.144
598	0.144
599	0.143
599	0.142
600	0.141
600	0.141
601	0.14
601	0.139
602	0.138
602	0.138
602	0.137
603	0.136
603	0.136
604	0.136
604	0.135
605	0.135
605	0.135
606	0.134
606	0.133
606	0.132
607	0.132
607	0.131
608	0.131
608	0.13
609	0.129
609	0.128
610	0.127
610	0.127
610	0.126
611	0.126
611	0.126
612	0.125
612	0.125
613	0.125
613	0.125
614	0.125
614	0.124
614	0.124
615	0.123
615	0.123
616	0.123
616	0.122
617	0.122
617	0.122
618	0.121
618	0.121
618	0.12
619	0.12
619	0.12
620	0.121
620	0.12
621	0.119
621	0.118
622	0.118
622	0.117
622	0.116
623	0.116
623	0.115
624	0.115
624	0.114
625	0.113
625	0.112
626	0.112
626	0.111
626	0.111
627	0.111
627	0.111
628	0.11
628	0.11
629	0.109
629	0.109
630	0.108
630	0.108
630	0.108
631	0.107
631	0.107
632	0.106
632	0.106
633	0.106
633	0.106
634	0.106
634	0.106
634	0.106
635	0.106
635	0.106
636	0.105
636	0.106
637	0.105
637	0.105
638	0.104
638	0.104
638	0.103
639	0.103
639	0.102
640	0.102
640	0.102
641	0.101
641	0.101
642	0.101
642	0.101
642	0.101
643	0.1
643	0.1
644	0.1
644	0.1
645	0.1
645	0.1
646	0.1
646	0.099
646	0.099
647	0.099
647	0.098
648	0.097
648	0.097
649	0.096
649	0.096
650	0.096
650	0.096
650	0.096
651	0.096
651	0.095
652	0.095
652	0.095
653	0.095
653	0.097
653	0.103
654	0.083
654	0.068
655	0.065
655	0.065
656	0.065
656	0.065
657	0.066
657	0.066
657	0.066
658	0.065
658	0.057
659	0.071
659	0.09
660	0.096
660	0.096
661	0.096
661	0.095
661	0.095
662	0.094
662	0.094
663	0.093
663	0.092
664	0.092
664	0.091
665	0.091
665	0.091
665	0.091
666	0.092
666	0.092
667	0.092
667	0.092
668	0.092
668	0.093
669	0.093
669	0.093
669	0.094
670	0.094
670	0.094
671	0.093
671	0.093
672	0.092
672	0.092
672	0.091
673	0.091
673	0.091
674	0.09
674	0.09
675	0.089
675	0.089
676	0.089
676	0.089
676	0.089
677	0.088
677	0.088
678	0.088
678	0.087
679	0.086
679	0.086
680	0.086
680	0.086
680	0.085
681	0.085
681	0.085
682	0.086
682	0.086
683	0.086
683	0.087
684	0.088
684	0.088
684	0.088
685	0.088
685	0.088
686	0.088
686	0.088
687	0.088
687	0.087
687	0.087
688	0.087
688	0.086
689	0.087
689	0.087
690	0.086
690	0.086
691	0.086
691	0.086
691	0.086
692	0.086
692	0.086
693	0.086
693	0.086
694	0.086
694	0.085
695	0.086
695	0.087
695	0.087
696	0.087
696	0.086
697	0.086
697	0.086
698	0.086
698	0.086
698	0.086
699	0.087
699	0.086
700	0.086
700	0.086
701	0.086
701	0.086
702	0.086
702	0.086
702	0.086
703	0.085
703	0.085
704	0.084
704	0.084
705	0.084
705	0.084
705	0.083
706	0.083
706	0.083
707	0.083
707	0.083
708	0.084
708	0.084
709	0.084
709	0.083
709	0.083
710	0.083
710	0.083
711	0.083
711	0.082
712	0.082
712	0.082
713	0.082
713	0.081
713	0.081
714	0.08
714	0.08
715	0.08
715	0.079
716	0.079
716	0.079
716	0.078
717	0.078
717	0.077
718	0.077
718	0.076
719	0.077
719	0.077
720	0.077
720	0.077
720	0.078
721	0.078
721	0.078
722	0.079
722	0.079
723	0.079
723	0.079
723	0.079
724	0.079
724	0.079
725	0.078
725	0.077
726	0.076
726	0.076
727	0.075
727	0.075
727	0.074
728	0.074
728	0.073
729	0.074
729	0.073
730	0.073
730	0.073
730	0.074
731	0.074
731	0.075
732	0.075
732	0.075
733	0.075
733	0.075
734	0.075
734	0.076
734	0.076
735	0.076
735	0.076
736	0.075
736	0.075
737	0.075
737	0.074
737	0.074
738	0.073
738	0.072
739	0.072
739	0.071
740	0.071
740	0.071
741	0.071
741	0.071
741	0.071
742	0.071
742	0.071
743	0.072
743	0.073
744	0.074
744	0.074
744	0.074
745	0.075
745	0.074
746	0.074
746	0.074
747	0.074
747	0.074
748	0.074
748	0.074
748	0.073
749	0.073
749	0.073
750	0.073
750	0.072
751	0.072
751	0.072
751	0.072
752	0.071
752	0.07
753	0.069
753	0.069
754	0.068
754	0.068
754	0.068
755	0.068
755	0.068
756	0.068
756	0.067
757	0.067
757	0.067
758	0.067
758	0.067
758	0.068
759	0.068
759	0.068
760	0.068
760	0.068
761	0.068
761	0.069
761	0.069
762	0.069
762	0.069
763	0.069
763	0.068
764	0.067
764	0.067
764	0.066
765	0.066
765	0.065
766	0.065
766	0.064
767	0.064
767	0.063
768	0.062
768	0.062
768	0.062
769	0.062
769	0.062
770	0.063
770	0.063
771	0.064
771	0.064
771	0.065
772	0.065
772	0.066
773	0.066
773	0.066
774	0.066
774	0.067
775	0.067
775	0.066
775	0.066
776	0.066
776	0.065
777	0.065
777	0.065
778	0.065
778	0.064
778	0.064
779	0.065
779	0.065
780	0.064
780	0.064
781	0.064
781	0.064
781	0.064
782	0.064
782	0.064
783	0.064
783	0.065
784	0.064
784	0.065
784	0.065
785	0.065
785	0.066
786	0.066
786	0.066
787	0.066
787	0.065
788	0.065
788	0.064
788	0.063
789	0.062
789	0.061
790	0.06
790	0.059
791	0.059
791	0.058
791	0.057
792	0.058
792	0.057
793	0.057
793	0.057
794	0.057
794	0.056
794	0.056
795	0.056
795	0.056
796	0.057
796	0.057
797	0.056
797	0.056
797	0.057
798	0.057
798	0.057
799	0.057
799	0.057
800	0.057
800	0.056
801	0.056
801	0.056
801	0.056
802	0.056
802	0.057
803	0.057
803	0.057
804	0.057
804	0.058
804	0.058
805	0.057
805	0.057
806	0.057
806	0.056
807	0.055
807	0.055
807	0.054
808	0.054
808	0.054
809	0.054
809	0.054
810	0.054
810	0.054
810	0.054
811	0.055
811	0.056
812	0.056
812	0.057
813	0.057
813	0.057
813	0.058
814	0.058
814	0.058
815	0.059
815	0.059
816	0.059
816	0.059
817	0.058
817	0.058
817	0.058
818	0.058
818	0.058
819	0.057
819	0.056
820	0.056
820	0.055
820	0.055
821	0.055
821	0.055
822	0.055
822	0.054
823	0.054
823	0.054
823	0.054
824	0.055
824	0.055
825	0.056
825	0.056
826	0.056
826	0.056
826	0.056
827	0.057
827	0.057
828	0.057
828	0.057
829	0.057
829	0.057
829	0.057
830	0.057
830	0.057
831	0.058
831	0.058
832	0.058
832	0.058
832	0.058
833	0.057
833	0.057
834	0.057
834	0.056
835	0.056
835	0.056
835	0.055
836	0.055
836	0.054
837	0.054
837	0.054
838	0.054
838	0.053
839	0.053
839	0.052
839	0.052
840	0.051
840	0.05
841	0.049
841	0.049
842	0.048
842	0.047
842	0.046
843	0.046
843	0.045
844	0.045
844	0.044
845	0.043
845	0.043
845	0.043
846	0.042
846	0.042
847	0.042
847	0.043
848	0.043
848	0.044
848	0.044
849	0.045
849	0.046
850	0.047
850	0.048
851	0.049
851	0.049
851	0.049
852	0.049
852	0.049
853	0.048
853	0.048
854	0.048
854	0.048
854	0.048
855	0.048
855	0.048
856	0.048
856	0.048
857	0.048
857	0.048
857	0.049
858	0.049
858	0.048
859	0.048
859	0.047
860	0.047
860	0.047
860	0.047
861	0.046
861	0.046
862	0.046
862	0.045
863	0.045
863	0.045
863	0.045
864	0.044
864	0.044
865	0.044
865	0.044
866	0.044
866	0.044
866	0.044
867	0.045
867	0.045
868	0.046
868	0.047
869	0.047
869	0.048
869	0.048
870	0.048
870	0.048
871	0.048
871	0.048
872	0.048
872	0.048
872	0.048
873	0.048
873	0.047
874	0.046
874	0.046
875	0.045
875	0.045
875	0.044
876	0.044
876	0.044
877	0.043
877	0.043
878	0.043
878	0.044
878	0.044
879	0.044
879	0.045
880	0.045
880	0.045
881	0.046
881	0.046
881	0.046
882	0.046
882	0.046
883	0.046
883	0.047
884	0.047
884	0.047
884	0.047
885	0.047
885	0.046
886	0.046
886	0.045
887	0.045
887	0.044
887	0.043
888	0.042
888	0.042
889	0.041
889	0.041
890	0.04
890	0.04
890	0.04
891	0.04
891	0.04
892	0.04
892	0.039
893	0.039
893	0.039
893	0.039
894	0.039
894	0.038
895	0.038
895	0.038
895	0.039
896	0.039
896	0.04
897	0.04
897	0.041
898	0.042
898	0.042
898	0.043
899	0.043
899	0.043
900	0.044
900	0.044
901	0.044
901	0.043
901	0.043
902	0.043
902	0.043
903	0.043
903	0.042
904	0.042
904	0.042
904	0.042
905	0.042
905	0.041
906	0.041
906	0.041
907	0.041
907	0.042
907	0.042
908	0.042
908	0.042
909	0.042
909	0.042
910	0.041
910	0.041
910	0.04
911	0.04
911	0.039
912	0.039
912	0.039
913	0.039
913	0.039
913	0.039
914	0.039
914	0.039
915	0.04
915	0.04
916	0.04
916	0.04
916	0.04
917	0.04
917	0.04
918	0.04
918	0.04
918	0.039
919	0.039
919	0.039
920	0.039
920	0.039
921	0.039
921	0.039
921	0.039
922	0.039
922	0.039
923	0.039
923	0.039
924	0.039
924	0.039
924	0.04
925	0.04
925	0.041
926	0.042
926	0.042
927	0.043
927	0.043
927	0.043
928	0.043
928	0.043
929	0.043
929	0.043
930	0.043
930	0.042
930	0.042
931	0.041
931	0.041
932	0.04
932	0.04
933	0.04
933	0.04
933	0.04
934	0.04
934	0.039
935	0.039
935	0.039
935	0.039
936	0.038
936	0.038
937	0.038
937	0.038
938	0.038
938	0.038
938	0.038
939	0.038
939	0.037
940	0.037
940	0.038
941	0.038
941	0.038
941	0.038
942	0.038
942	0.038
943	0.038
943	0.038
944	0.038
944	0.038
944	0.038
945	0.039
945	0.039
946	0.039
946	0.039
946	0.039
947	0.039
947	0.039
948	0.04
948	0.04
949	0.04
949	0.04
949	0.04
950	0.04
950	0.04
951	0.04
951	0.04
952	0.04
952	0.04
952	0.041
953	0.041
953	0.041
954	0.041
954	0.041
955	0.041
955	0.04
955	0.04
956	0.04
956	0.041
957	0.041
957	0.04
957	0.04
958	0.04
958	0.04
959	0.04
959	0.039
960	0.039
960	0.039
960	0.039
961	0.038
961	0.038
962	0.038
962	0.038
963	0.039
963	0.039
963	0.039
964	0.04
964	0.04
965	0.04
965	0.041
966	0.041
966	0.041
966	0.041
967	0.041
967	0.041
968	0.041
968	0.041
968	0.041
969	0.04
969	0.04
970	0.039
970	0.039
971	0.038
971	0.038
971	0.037
972	0.036
972	0.036
973	0.035
973	0.035
974	0.035
974	0.035
974	0.035
975	0.035
975	0.036
976	0.036
976	0.036
976	0.037
977	0.037
977	0.037
978	0.037
978	0.037
979	0.036
979	0.036
979	0.036
980	0.035
980	0.034
981	0.034
981	0.033
982	0.033
982	0.032
982	0.032
983	0.032
983	0.031
984	0.031
984	0.031
984	0.031
985	0.031
985	0.031
986	0.031
986	0.031
987	0.032
987	0.032
987	0.032
988	0.032
988	0.032
989	0.032
989	0.031
990	0.031
990	0.031
990	0.03
991	0.03
991	0.03
992	0.029
992	0.029
992	0.028
993	0.027
993	0.027
994	0.026
994	0.026
995	0.025
995	0.024
995	0.024
996	0.024
996	0.024
997	0.025
997	0.025
997	0.026
998	0.026
998	0.027
999	0.028
999	0.029
1000	0.03
1000	0.031
1000	0.031
1001	0.032
1001	0.032
1002	0.032
1002	0.032
1003	0.031
1003	0.031
1003	0.03
1004	0.029
1004	0.028
1005	0.027
1005	0.026
1005	0.026
1006	0.025
1006	0.024
1007	0.024
1007	0.024
1008	0.024
1008	0.024
1008	0.024
1009	0.025
1009	0.025
1010	0.025
1010	0.026
1010	0.026
1011	0.027
1011	0.027
1012	0.027
1012	0.027
1013	0.027
1013	0.027
1013	0.027
1014	0.027
1014	0.027
1015	0.027
1015	0.027
1016	0.027
1016	0.027
1016	0.027
1017	0.027
1017	0.027
1018	0.028
1018	0.028
1018	0.028
1019	0.028
1019	0.028
1020	0.028
1020	0.029
1021	0.029
1021	0.03
1021	0.03
1022	0.03
1022	0.03
1023	0.031
1023	0.031
1023	0.031
1024	0.032
1024	0.032
1025	0.032
1025	0.032
1026	0.031
1026	0.031
1026	0.031
1027	0.03
1027	0.03
1028	0.03
1028	0.029
1028	0.029
1029	0.029
1029	0.029
1030	0.029
1030	0.029
1031	0.029
1031	0.029
1031	0.029
1032	0.029
1032	0.03
1033	0.03
1033	0.03
1033	0.031
1034	0.031
1034	0.031
1035	0.031
1035	0.031
1036	0.031
1036	0.031
1036	0.031
1037	0.031
1037	0.031
1038	0.031
1038	0.031
1039	0.031
1039	0.031
1039	0.031
1040	0.031
1040	0.031
1041	0.031
1041	0.031
1041	0.031
1042	0.031
1042	0.031
1043	0.031
1043	0.031
1044	0.031
1044	0.031
1044	0.031
1045	0.031
1045	0.031
1046	0.032
1046	0.032
1046	0.032
1047	0.033
1047	0.033
1048	0.034
1048	0.034
1049	0.034
1049	0.034
1049	0.034
1050	0.034
1050	0.034
1051	0.034
1051	0.033
1051	0.033
1052	0.032
1052	0.031
1053	0.03
1053	0.029
1053	0.028
1054	0.027
1054	0.027
1055	0.027
1055	0.026
1056	0.026
1056	0.025
1056	0.025
1057	0.025
1057	0.024
1058	0.024
1058	0.024
1058	0.023
1059	0.023
1059	0.023
1060	0.022
1060	0.022
1061	0.022
1061	0.022
1061	0.022
1062	0.022
1062	0.022
1063	0.022
1063	0.022
1063	0.021
1064	0.021
1064	0.021
1065	0.021
1065	0.021
1066	0.021
1066	0.021
1066	0.021
1067	0.021
1067	0.021
1068	0.021
1068	0.021
1068	0.02
1069	0.02
1069	0.02
1070	0.019
1070	0.019
1071	0.018
1071	0.017
1071	0.017
1072	0.016
1072	0.016
1073	0.015
1073	0.015
1073	0.014
1074	0.015
1074	0.015
1075	0.015
1075	0.015
1076	0.015
1076	0.016
1076	0.016
1077	0.017
1077	0.017
1078	0.017
1078	0.017
1078	0.017
1079	0.017
1079	0.018
1080	0.017
1080	0.017
1080	0.017
1081	0.017
1081	0.017
1082	0.018
1082	0.018
1083	0.018
1083	0.018
1083	0.017
1084	0.017
1084	0.018
1085	0.018
1085	0.018
1085	0.018
1086	0.019
1086	0.018
1087	0.018
1087	0.018
1088	0.018
1088	0.018
1088	0.019
1089	0.018
1089	0.017
1090	0.017
1090	0.016
1090	0.015
1091	0.015
1091	0.015
1092	0.014
1092	0.014
1092	0.014
1093	0.014
1093	0.014
1094	0.014
1094	0.013
1095	0.013
1095	0.013
1095	0.012
1096	0.012
1096	0.011
1097	0.011
1097	0.009
1097	0.009
1098	0.009
1098	0.007
1099	0.007
1099	0.005
1100	0.005
1100	0.004
1100	0.003
1101	0.001
1101	0
1102	0
1102	-0.002
1102	-0.003
1103	-0.003
1103	-0.004
1104	-0.005
1104	-0.006
1104	-0.007
1105	-0.008
1105	-0.01
1106	-0.012
1106	-0.014
1107	-0.015
1107	-0.016
1107	-0.017
1108	-0.018
1108	-0.019
1109	-0.021
1109	-0.023
1109	-0.022
1110	-0.02
1110	-0.02
1111	-0.022
1111	-0.024
