Data from reversibility-20sec_Absorbance__1423__000000000001423.txt Node

Date: Tue Dec 05 20:07:26 CET 2023
User: Marek
Spectrometer: MAYP115816
Trigger mode: 0
Integration Time (sec): 2.000000E-1
Scans to average: 10
Electric dark correction enabled: true
Nonlinearity correction enabled: true
Boxcar width: 5
XAxis mode: Wavelengths
Number of Pixels in Spectrum: 2068
>>>>>Begin Spectral Data<<<<<
199	-0.186
199	-0.147
200	-0.083
200	-0.034
201	-0.001
201	0.02
202	0.035
202	0.046
203	0.052
203	0.058
204	0.07
204	0.084
205	0.097
205	0.104
205	0.106
206	0.105
206	0.104
207	0.106
207	0.101
208	0.101
208	0.099
209	0.103
209	0.1
210	0.099
210	0.1
211	0.1
211	0.102
212	0.099
212	0.102
213	0.106
213	0.107
213	0.107
214	0.113
214	0.114
215	0.115
215	0.113
216	0.115
216	0.114
217	0.119
217	0.118
218	0.119
218	0.123
219	0.126
219	0.123
220	0.125
220	0.126
221	0.126
221	0.13
221	0.135
222	0.139
222	0.143
223	0.148
223	0.151
224	0.156
224	0.164
225	0.173
225	0.184
226	0.194
226	0.202
227	0.212
227	0.223
228	0.236
228	0.25
229	0.268
229	0.29
229	0.314
230	0.336
230	0.365
231	0.398
231	0.436
232	0.471
232	0.512
233	0.56
233	0.611
234	0.661
234	0.715
235	0.768
235	0.825
236	0.88
236	0.934
236	0.989
237	1.043
237	1.096
238	1.144
238	1.192
239	1.244
239	1.287
240	1.329
240	1.367
241	1.406
241	1.444
242	1.479
242	1.519
243	1.55
243	1.58
243	1.608
244	1.633
244	1.658
245	1.677
245	1.706
246	1.729
246	1.747
247	1.763
247	1.781
248	1.8
248	1.817
249	1.832
249	1.84
250	1.852
250	1.867
250	1.872
251	1.875
251	1.879
252	1.885
252	1.887
253	1.891
253	1.889
254	1.889
254	1.893
255	1.891
255	1.892
256	1.892
256	1.892
257	1.895
257	1.895
258	1.896
258	1.897
258	1.901
259	1.906
259	1.907
260	1.91
260	1.914
261	1.916
261	1.922
262	1.929
262	1.935
263	1.939
263	1.944
264	1.945
264	1.948
265	1.951
265	1.953
265	1.954
266	1.959
266	1.96
267	1.958
267	1.959
268	1.962
268	1.963
269	1.967
269	1.968
270	1.971
270	1.972
271	1.969
271	1.969
272	1.967
272	1.967
272	1.96
273	1.95
273	1.94
274	1.931
274	1.921
275	1.911
275	1.904
276	1.897
276	1.888
277	1.88
277	1.869
278	1.857
278	1.843
278	1.829
279	1.808
279	1.781
280	1.748
280	1.707
281	1.661
281	1.609
282	1.558
282	1.507
283	1.457
283	1.41
284	1.365
284	1.322
285	1.283
285	1.248
285	1.217
286	1.19
286	1.167
287	1.146
287	1.129
288	1.115
288	1.102
289	1.092
289	1.083
290	1.075
290	1.068
291	1.062
291	1.058
292	1.053
292	1.05
292	1.046
293	1.042
293	1.039
294	1.036
294	1.034
295	1.031
295	1.029
296	1.026
296	1.023
297	1.021
297	1.018
298	1.016
298	1.014
298	1.011
299	1.009
299	1.006
300	1.004
300	1.002
301	1
301	0.998
302	0.996
302	0.994
303	0.992
303	0.99
304	0.988
304	0.986
305	0.983
305	0.981
305	0.979
306	0.977
306	0.975
307	0.973
307	0.971
308	0.968
308	0.966
309	0.964
309	0.961
310	0.958
310	0.956
311	0.953
311	0.95
311	0.946
312	0.943
312	0.939
313	0.936
313	0.932
314	0.928
314	0.924
315	0.92
315	0.916
316	0.912
316	0.907
317	0.902
317	0.897
318	0.893
318	0.888
318	0.882
319	0.877
319	0.872
320	0.866
320	0.86
321	0.854
321	0.848
322	0.841
322	0.835
323	0.828
323	0.822
324	0.815
324	0.808
324	0.801
325	0.794
325	0.788
326	0.781
326	0.773
327	0.767
327	0.76
328	0.753
328	0.746
329	0.739
329	0.732
330	0.724
330	0.717
330	0.71
331	0.702
331	0.695
332	0.688
332	0.681
333	0.674
333	0.666
334	0.659
334	0.652
335	0.645
335	0.638
336	0.631
336	0.624
336	0.618
337	0.611
337	0.604
338	0.598
338	0.591
339	0.585
339	0.579
340	0.573
340	0.567
341	0.561
341	0.555
342	0.55
342	0.544
342	0.539
343	0.533
343	0.528
344	0.523
344	0.518
345	0.513
345	0.508
346	0.503
346	0.499
347	0.494
347	0.49
348	0.486
348	0.482
348	0.478
349	0.474
349	0.47
350	0.466
350	0.463
351	0.459
351	0.456
352	0.452
352	0.449
353	0.446
353	0.443
354	0.44
354	0.437
354	0.434
355	0.431
355	0.428
356	0.425
356	0.423
357	0.419
357	0.416
358	0.414
358	0.411
359	0.408
359	0.406
360	0.404
360	0.402
360	0.4
361	0.397
361	0.395
362	0.394
362	0.392
363	0.39
363	0.388
364	0.386
364	0.384
365	0.383
365	0.381
366	0.379
366	0.377
366	0.376
367	0.374
367	0.372
368	0.37
368	0.369
369	0.367
369	0.366
370	0.364
370	0.363
371	0.361
371	0.36
372	0.358
372	0.357
372	0.356
373	0.355
373	0.353
374	0.352
374	0.351
375	0.35
375	0.349
376	0.348
376	0.347
377	0.346
377	0.345
378	0.344
378	0.343
378	0.342
379	0.341
379	0.34
380	0.34
380	0.339
381	0.338
381	0.337
382	0.337
382	0.336
383	0.335
383	0.334
383	0.334
384	0.333
384	0.333
385	0.332
385	0.331
386	0.331
386	0.33
387	0.33
387	0.329
388	0.329
388	0.328
389	0.327
389	0.327
389	0.326
390	0.326
390	0.325
391	0.325
391	0.324
392	0.324
392	0.324
393	0.323
393	0.323
394	0.322
394	0.322
394	0.321
395	0.321
395	0.32
396	0.32
396	0.319
397	0.318
397	0.318
398	0.317
398	0.317
399	0.316
399	0.316
400	0.316
400	0.315
400	0.315
401	0.315
401	0.314
402	0.314
402	0.314
403	0.314
403	0.313
404	0.313
404	0.313
405	0.312
405	0.312
405	0.312
406	0.311
406	0.311
407	0.311
407	0.31
408	0.31
408	0.309
409	0.309
409	0.308
410	0.308
410	0.308
411	0.307
411	0.307
411	0.306
412	0.306
412	0.306
413	0.306
413	0.305
414	0.305
414	0.305
415	0.304
415	0.304
416	0.303
416	0.303
416	0.303
417	0.302
417	0.302
418	0.302
418	0.301
419	0.301
419	0.3
420	0.3
420	0.3
421	0.299
421	0.299
421	0.298
422	0.298
422	0.298
423	0.297
423	0.297
424	0.297
424	0.296
425	0.296
425	0.295
426	0.295
426	0.295
427	0.294
427	0.294
427	0.294
428	0.293
428	0.293
429	0.293
429	0.292
430	0.292
430	0.292
431	0.291
431	0.291
432	0.291
432	0.291
432	0.29
433	0.29
433	0.29
434	0.29
434	0.289
435	0.289
435	0.289
436	0.289
436	0.289
437	0.288
437	0.288
437	0.288
438	0.288
438	0.287
439	0.287
439	0.287
440	0.286
440	0.286
441	0.286
441	0.286
442	0.285
442	0.285
442	0.285
443	0.285
443	0.284
444	0.284
444	0.284
445	0.284
445	0.284
446	0.284
446	0.283
447	0.283
447	0.283
447	0.283
448	0.282
448	0.282
449	0.282
449	0.282
450	0.282
450	0.281
451	0.281
451	0.281
452	0.281
452	0.28
452	0.28
453	0.28
453	0.28
454	0.28
454	0.279
455	0.279
455	0.279
456	0.278
456	0.278
457	0.278
457	0.278
458	0.277
458	0.277
458	0.277
459	0.277
459	0.276
460	0.276
460	0.276
461	0.276
461	0.276
462	0.276
462	0.276
463	0.275
463	0.275
463	0.274
464	0.274
464	0.274
465	0.273
465	0.273
466	0.273
466	0.272
467	0.272
467	0.272
467	0.272
468	0.272
468	0.272
469	0.272
469	0.272
470	0.272
470	0.272
471	0.272
471	0.272
472	0.272
472	0.272
472	0.272
473	0.272
473	0.272
474	0.272
474	0.271
475	0.271
475	0.272
476	0.272
476	0.272
477	0.272
477	0.272
477	0.272
478	0.272
478	0.272
479	0.273
479	0.273
480	0.273
480	0.273
481	0.272
481	0.272
482	0.272
482	0.272
482	0.272
483	0.273
483	0.273
484	0.273
484	0.273
485	0.273
485	0.273
486	0.273
486	0.274
487	0.274
487	0.274
487	0.275
488	0.275
488	0.275
489	0.275
489	0.276
490	0.277
490	0.277
491	0.278
491	0.279
492	0.279
492	0.279
492	0.28
493	0.28
493	0.28
494	0.281
494	0.281
495	0.282
495	0.282
496	0.283
496	0.283
496	0.284
497	0.284
497	0.284
498	0.285
498	0.286
499	0.286
499	0.287
500	0.287
500	0.288
501	0.289
501	0.289
501	0.289
502	0.29
502	0.29
503	0.291
503	0.291
504	0.292
504	0.292
505	0.293
505	0.293
506	0.294
506	0.294
506	0.295
507	0.295
507	0.296
508	0.296
508	0.297
509	0.297
509	0.298
510	0.299
510	0.299
511	0.3
511	0.3
511	0.301
512	0.301
512	0.302
513	0.302
513	0.303
514	0.303
514	0.304
515	0.304
515	0.305
515	0.305
516	0.306
516	0.307
517	0.307
517	0.308
518	0.308
518	0.308
519	0.308
519	0.308
520	0.308
520	0.309
520	0.309
521	0.309
521	0.309
522	0.308
522	0.309
523	0.309
523	0.309
524	0.309
524	0.31
524	0.31
525	0.31
525	0.31
526	0.31
526	0.311
527	0.311
527	0.311
528	0.31
528	0.31
529	0.31
529	0.31
529	0.309
530	0.309
530	0.309
531	0.309
531	0.308
532	0.308
532	0.308
533	0.308
533	0.308
533	0.308
534	0.308
534	0.308
535	0.307
535	0.307
536	0.307
536	0.307
537	0.307
537	0.307
538	0.306
538	0.306
538	0.305
539	0.305
539	0.305
540	0.304
540	0.304
541	0.304
541	0.303
542	0.303
542	0.303
542	0.302
543	0.302
543	0.301
544	0.301
544	0.3
545	0.3
545	0.299
546	0.299
546	0.298
547	0.298
547	0.297
547	0.296
548	0.296
548	0.296
549	0.295
549	0.295
550	0.294
550	0.294
551	0.293
551	0.292
551	0.292
552	0.291
552	0.291
553	0.29
553	0.29
554	0.289
554	0.288
555	0.288
555	0.287
556	0.287
556	0.286
556	0.286
557	0.285
557	0.285
558	0.284
558	0.284
559	0.284
559	0.284
560	0.283
560	0.283
560	0.283
561	0.282
561	0.282
562	0.281
562	0.28
563	0.279
563	0.279
564	0.278
564	0.277
564	0.277
565	0.277
565	0.276
566	0.276
566	0.275
567	0.275
567	0.275
568	0.275
568	0.274
568	0.274
569	0.273
569	0.273
570	0.272
570	0.271
571	0.271
571	0.27
572	0.269
572	0.269
573	0.268
573	0.268
573	0.267
574	0.266
574	0.266
575	0.266
575	0.266
576	0.265
576	0.265
577	0.264
577	0.264
577	0.263
578	0.263
578	0.263
579	0.263
579	0.263
580	0.262
580	0.261
581	0.26
581	0.26
581	0.26
582	0.26
582	0.26
583	0.26
583	0.26
584	0.259
584	0.257
585	0.257
585	0.257
585	0.256
586	0.256
586	0.255
587	0.254
587	0.253
588	0.252
588	0.252
589	0.251
589	0.251
590	0.251
590	0.251
590	0.252
591	0.252
591	0.251
592	0.251
592	0.25
593	0.25
593	0.25
594	0.249
594	0.249
594	0.248
595	0.248
595	0.247
596	0.246
596	0.246
597	0.247
597	0.246
598	0.246
598	0.246
598	0.245
599	0.245
599	0.244
600	0.244
600	0.243
601	0.243
601	0.242
602	0.242
602	0.241
602	0.241
603	0.24
603	0.24
604	0.24
604	0.24
605	0.24
605	0.24
606	0.24
606	0.239
606	0.239
607	0.239
607	0.238
608	0.238
608	0.237
609	0.236
609	0.236
610	0.235
610	0.235
610	0.235
611	0.235
611	0.235
612	0.235
612	0.235
613	0.235
613	0.235
614	0.235
614	0.234
614	0.234
615	0.234
615	0.234
616	0.234
616	0.233
617	0.233
617	0.232
618	0.232
618	0.232
618	0.232
619	0.231
619	0.231
620	0.232
620	0.231
621	0.231
621	0.23
622	0.229
622	0.229
622	0.229
623	0.228
623	0.228
624	0.228
624	0.228
625	0.227
625	0.227
626	0.227
626	0.227
626	0.227
627	0.227
627	0.227
628	0.226
628	0.226
629	0.226
629	0.225
630	0.225
630	0.224
630	0.224
631	0.224
631	0.224
632	0.224
632	0.224
633	0.224
633	0.224
634	0.224
634	0.224
634	0.224
635	0.224
635	0.224
636	0.223
636	0.223
637	0.223
637	0.222
638	0.222
638	0.222
638	0.221
639	0.221
639	0.221
640	0.22
640	0.22
641	0.22
641	0.22
642	0.22
642	0.22
642	0.22
643	0.22
643	0.219
644	0.219
644	0.219
645	0.219
645	0.219
646	0.219
646	0.219
646	0.219
647	0.219
647	0.219
648	0.219
648	0.218
649	0.218
649	0.218
650	0.219
650	0.219
650	0.219
651	0.219
651	0.219
652	0.218
652	0.218
653	0.219
653	0.221
653	0.228
654	0.177
654	0.141
655	0.143
655	0.143
656	0.143
656	0.144
657	0.144
657	0.144
657	0.144
658	0.143
658	0.13
659	0.165
659	0.214
660	0.218
660	0.217
661	0.217
661	0.216
661	0.216
662	0.215
662	0.215
663	0.215
663	0.214
664	0.214
664	0.214
665	0.214
665	0.214
665	0.214
666	0.214
666	0.214
667	0.214
667	0.215
668	0.215
668	0.215
669	0.215
669	0.215
669	0.216
670	0.216
670	0.216
671	0.216
671	0.216
672	0.215
672	0.215
672	0.215
673	0.215
673	0.215
674	0.215
674	0.214
675	0.214
675	0.214
676	0.214
676	0.214
676	0.214
677	0.214
677	0.214
678	0.214
678	0.214
679	0.214
679	0.214
680	0.214
680	0.214
680	0.214
681	0.214
681	0.215
682	0.215
682	0.215
683	0.216
683	0.217
684	0.218
684	0.218
684	0.218
685	0.218
685	0.218
686	0.218
686	0.218
687	0.218
687	0.218
687	0.218
688	0.218
688	0.218
689	0.218
689	0.218
690	0.218
690	0.218
691	0.218
691	0.218
691	0.218
692	0.219
692	0.219
693	0.219
693	0.22
694	0.22
694	0.22
695	0.221
695	0.222
695	0.222
696	0.222
696	0.222
697	0.223
697	0.222
698	0.222
698	0.222
698	0.222
699	0.222
699	0.221
700	0.221
700	0.221
701	0.221
701	0.221
702	0.221
702	0.221
702	0.221
703	0.221
703	0.221
704	0.22
704	0.221
705	0.221
705	0.221
705	0.221
706	0.221
706	0.221
707	0.221
707	0.221
708	0.221
708	0.221
709	0.221
709	0.221
709	0.22
710	0.22
710	0.22
711	0.22
711	0.22
712	0.221
712	0.221
713	0.221
713	0.222
713	0.222
714	0.222
714	0.223
715	0.223
715	0.223
716	0.223
716	0.223
716	0.223
717	0.223
717	0.222
718	0.222
718	0.221
719	0.222
719	0.222
720	0.222
720	0.222
720	0.223
721	0.223
721	0.224
722	0.224
722	0.225
723	0.225
723	0.226
723	0.226
724	0.226
724	0.226
725	0.225
725	0.224
726	0.224
726	0.224
727	0.223
727	0.223
727	0.223
728	0.222
728	0.222
729	0.222
729	0.222
730	0.222
730	0.223
730	0.223
731	0.223
731	0.224
732	0.224
732	0.224
733	0.224
733	0.224
734	0.224
734	0.224
734	0.225
735	0.225
735	0.225
736	0.225
736	0.226
737	0.226
737	0.226
737	0.226
738	0.226
738	0.225
739	0.225
739	0.225
740	0.224
740	0.224
741	0.224
741	0.223
741	0.223
742	0.223
742	0.223
743	0.224
743	0.224
744	0.225
744	0.225
744	0.226
745	0.226
745	0.226
746	0.227
746	0.227
747	0.228
747	0.228
748	0.228
748	0.229
748	0.229
749	0.228
749	0.228
750	0.228
750	0.227
751	0.227
751	0.227
751	0.227
752	0.226
752	0.225
753	0.225
753	0.225
754	0.225
754	0.225
754	0.226
755	0.226
755	0.226
756	0.226
756	0.225
757	0.224
757	0.224
758	0.223
758	0.223
758	0.222
759	0.222
759	0.222
760	0.222
760	0.222
761	0.223
761	0.224
761	0.225
762	0.226
762	0.227
763	0.228
763	0.228
764	0.228
764	0.228
764	0.228
765	0.227
765	0.226
766	0.226
766	0.225
767	0.225
767	0.224
768	0.223
768	0.222
768	0.222
769	0.222
769	0.222
770	0.222
770	0.222
771	0.222
771	0.223
771	0.223
772	0.224
772	0.224
773	0.225
773	0.225
774	0.226
774	0.226
775	0.227
775	0.227
775	0.227
776	0.227
776	0.227
777	0.227
777	0.227
778	0.226
778	0.226
778	0.225
779	0.225
779	0.225
780	0.224
780	0.224
781	0.223
781	0.223
781	0.223
782	0.223
782	0.223
783	0.224
783	0.225
784	0.225
784	0.225
784	0.226
785	0.226
785	0.226
786	0.226
786	0.227
787	0.227
787	0.227
788	0.227
788	0.226
788	0.226
789	0.226
789	0.226
790	0.226
790	0.226
791	0.226
791	0.226
791	0.226
792	0.226
792	0.227
793	0.227
793	0.227
794	0.227
794	0.226
794	0.226
795	0.226
795	0.226
796	0.226
796	0.226
797	0.226
797	0.226
797	0.226
798	0.226
798	0.226
799	0.226
799	0.226
800	0.226
800	0.226
801	0.226
801	0.226
801	0.227
802	0.227
802	0.227
803	0.228
803	0.228
804	0.229
804	0.229
804	0.23
805	0.23
805	0.229
806	0.229
806	0.229
807	0.229
807	0.228
807	0.228
808	0.228
808	0.228
809	0.227
809	0.227
810	0.227
810	0.228
810	0.228
811	0.228
811	0.228
812	0.229
812	0.229
813	0.23
813	0.23
813	0.231
814	0.231
814	0.232
815	0.233
815	0.233
816	0.234
816	0.234
817	0.233
817	0.233
817	0.233
818	0.233
818	0.233
819	0.232
819	0.231
820	0.23
820	0.23
820	0.229
821	0.229
821	0.229
822	0.228
822	0.228
823	0.228
823	0.228
823	0.228
824	0.229
824	0.229
825	0.23
825	0.231
826	0.231
826	0.231
826	0.231
827	0.231
827	0.231
828	0.231
828	0.231
829	0.231
829	0.231
829	0.231
830	0.231
830	0.231
831	0.232
831	0.232
832	0.232
832	0.232
832	0.232
833	0.231
833	0.231
834	0.23
834	0.23
835	0.23
835	0.229
835	0.229
836	0.229
836	0.229
837	0.229
837	0.229
838	0.229
838	0.228
839	0.228
839	0.227
839	0.226
840	0.225
840	0.224
841	0.223
841	0.223
842	0.222
842	0.222
842	0.221
843	0.221
843	0.221
844	0.221
844	0.221
845	0.221
845	0.222
845	0.222
846	0.222
846	0.222
847	0.223
847	0.223
848	0.224
848	0.224
848	0.225
849	0.225
849	0.226
850	0.226
850	0.226
851	0.227
851	0.227
851	0.226
852	0.226
852	0.225
853	0.225
853	0.224
854	0.224
854	0.224
854	0.224
855	0.224
855	0.224
856	0.225
856	0.225
857	0.225
857	0.225
857	0.225
858	0.224
858	0.223
859	0.222
859	0.221
860	0.219
860	0.218
860	0.216
861	0.215
861	0.214
862	0.213
862	0.212
863	0.212
863	0.211
863	0.211
864	0.211
864	0.211
865	0.211
865	0.212
866	0.212
866	0.212
866	0.212
867	0.212
867	0.213
868	0.213
868	0.213
869	0.213
869	0.213
869	0.213
870	0.213
870	0.213
871	0.213
871	0.214
872	0.214
872	0.214
872	0.214
873	0.214
873	0.213
874	0.213
874	0.212
875	0.212
875	0.212
875	0.211
876	0.211
876	0.211
877	0.21
877	0.211
878	0.211
878	0.211
878	0.212
879	0.213
879	0.213
880	0.213
880	0.213
881	0.213
881	0.212
881	0.212
882	0.211
882	0.21
883	0.209
883	0.208
884	0.207
884	0.206
884	0.205
885	0.204
885	0.203
886	0.203
886	0.202
887	0.202
887	0.201
887	0.201
888	0.2
888	0.2
889	0.199
889	0.199
890	0.199
890	0.199
890	0.199
891	0.199
891	0.199
892	0.2
892	0.2
893	0.201
893	0.201
893	0.202
894	0.202
894	0.202
895	0.202
895	0.202
895	0.201
896	0.201
896	0.201
897	0.2
897	0.199
898	0.198
898	0.197
898	0.197
899	0.196
899	0.195
900	0.194
900	0.194
901	0.193
901	0.193
901	0.192
902	0.192
902	0.192
903	0.191
903	0.191
904	0.19
904	0.19
904	0.189
905	0.189
905	0.189
906	0.189
906	0.189
907	0.189
907	0.19
907	0.19
908	0.19
908	0.19
909	0.191
909	0.191
910	0.191
910	0.191
910	0.191
911	0.191
911	0.19
912	0.19
912	0.19
913	0.189
913	0.189
913	0.188
914	0.188
914	0.188
915	0.187
915	0.187
916	0.186
916	0.185
916	0.184
917	0.184
917	0.183
918	0.182
918	0.181
918	0.18
919	0.18
919	0.179
920	0.179
920	0.179
921	0.179
921	0.179
921	0.179
922	0.178
922	0.179
923	0.179
923	0.179
924	0.178
924	0.178
924	0.178
925	0.178
925	0.178
926	0.178
926	0.177
927	0.177
927	0.176
927	0.176
928	0.175
928	0.175
929	0.175
929	0.174
930	0.173
930	0.172
930	0.172
931	0.171
931	0.171
932	0.171
932	0.17
933	0.17
933	0.169
933	0.169
934	0.169
934	0.168
935	0.168
935	0.168
935	0.167
936	0.167
936	0.167
937	0.166
937	0.166
938	0.166
938	0.165
938	0.165
939	0.164
939	0.164
940	0.164
940	0.163
941	0.163
941	0.163
941	0.163
942	0.163
942	0.163
943	0.163
943	0.163
944	0.162
944	0.162
944	0.162
945	0.162
945	0.162
946	0.162
946	0.161
946	0.161
947	0.162
947	0.161
948	0.161
948	0.161
949	0.161
949	0.161
949	0.161
950	0.161
950	0.161
951	0.161
951	0.16
952	0.16
952	0.16
952	0.159
953	0.159
953	0.158
954	0.157
954	0.156
955	0.155
955	0.155
955	0.154
956	0.154
956	0.154
957	0.154
957	0.154
957	0.153
958	0.153
958	0.153
959	0.153
959	0.153
960	0.153
960	0.153
960	0.153
961	0.152
961	0.152
962	0.152
962	0.151
963	0.151
963	0.15
963	0.15
964	0.149
964	0.149
965	0.149
965	0.148
966	0.148
966	0.148
966	0.148
967	0.148
967	0.149
968	0.149
968	0.149
968	0.148
969	0.148
969	0.148
970	0.148
970	0.147
971	0.147
971	0.147
971	0.146
972	0.146
972	0.146
973	0.145
973	0.145
974	0.145
974	0.145
974	0.145
975	0.145
975	0.144
976	0.144
976	0.144
976	0.144
977	0.144
977	0.144
978	0.144
978	0.144
979	0.143
979	0.143
979	0.143
980	0.143
980	0.142
981	0.141
981	0.141
982	0.14
982	0.14
982	0.139
983	0.139
983	0.138
984	0.137
984	0.136
984	0.135
985	0.134
985	0.133
986	0.131
986	0.13
987	0.129
987	0.127
987	0.126
988	0.125
988	0.124
989	0.123
989	0.123
990	0.122
990	0.122
990	0.122
991	0.121
991	0.122
992	0.122
992	0.122
992	0.122
993	0.122
993	0.122
994	0.122
994	0.122
995	0.122
995	0.122
995	0.122
996	0.122
996	0.122
997	0.122
997	0.123
997	0.123
998	0.124
998	0.124
999	0.125
999	0.126
1000	0.126
1000	0.127
1000	0.127
1001	0.128
1001	0.129
1002	0.129
1002	0.129
1003	0.129
1003	0.129
1003	0.129
1004	0.129
1004	0.128
1005	0.127
1005	0.127
1005	0.126
1006	0.126
1006	0.125
1007	0.125
1007	0.124
1008	0.124
1008	0.124
1008	0.123
1009	0.123
1009	0.123
1010	0.122
1010	0.122
1010	0.121
1011	0.12
1011	0.12
1012	0.119
1012	0.118
1013	0.118
1013	0.117
1013	0.117
1014	0.116
1014	0.116
1015	0.116
1015	0.116
1016	0.115
1016	0.115
1016	0.114
1017	0.114
1017	0.113
1018	0.113
1018	0.113
1018	0.112
1019	0.112
1019	0.112
1020	0.111
1020	0.111
1021	0.111
1021	0.111
1021	0.111
1022	0.111
1022	0.11
1023	0.11
1023	0.111
1023	0.111
1024	0.11
1024	0.11
1025	0.11
1025	0.11
1026	0.109
1026	0.109
1026	0.108
1027	0.108
1027	0.107
1028	0.106
1028	0.106
1028	0.106
1029	0.105
1029	0.105
1030	0.105
1030	0.105
1031	0.105
1031	0.105
1031	0.105
1032	0.105
1032	0.105
1033	0.106
1033	0.106
1033	0.106
1034	0.106
1034	0.105
1035	0.105
1035	0.105
1036	0.105
1036	0.104
1036	0.104
1037	0.104
1037	0.103
1038	0.103
1038	0.102
1039	0.102
1039	0.102
1039	0.102
1040	0.102
1040	0.103
1041	0.103
1041	0.103
1041	0.102
1042	0.103
1042	0.103
1043	0.103
1043	0.103
1044	0.103
1044	0.103
1044	0.103
1045	0.103
1045	0.104
1046	0.104
1046	0.104
1046	0.105
1047	0.105
1047	0.106
1048	0.106
1048	0.107
1049	0.107
1049	0.107
1049	0.107
1050	0.107
1050	0.106
1051	0.105
1051	0.105
1051	0.104
1052	0.103
1052	0.102
1053	0.101
1053	0.1
1053	0.099
1054	0.099
1054	0.098
1055	0.098
1055	0.098
1056	0.097
1056	0.096
1056	0.096
1057	0.095
1057	0.095
1058	0.094
1058	0.093
1058	0.092
1059	0.091
1059	0.09
1060	0.09
1060	0.089
1061	0.088
1061	0.088
1061	0.088
1062	0.087
1062	0.087
1063	0.087
1063	0.086
1063	0.086
1064	0.086
1064	0.085
1065	0.085
1065	0.085
1066	0.085
1066	0.084
1066	0.084
1067	0.084
1067	0.084
1068	0.084
1068	0.083
1068	0.083
1069	0.083
1069	0.082
1070	0.081
1070	0.081
1071	0.08
1071	0.079
1071	0.079
1072	0.078
1072	0.078
1073	0.077
1073	0.076
1073	0.076
1074	0.076
1074	0.076
1075	0.076
1075	0.076
1076	0.076
1076	0.077
1076	0.077
1077	0.077
1077	0.077
1078	0.077
1078	0.078
1078	0.078
1079	0.078
1079	0.078
1080	0.078
1080	0.078
1080	0.078
1081	0.078
1081	0.078
1082	0.079
1082	0.079
1083	0.079
1083	0.078
1083	0.078
1084	0.078
1084	0.078
1085	0.078
1085	0.077
1085	0.077
1086	0.077
1086	0.075
1087	0.074
1087	0.074
1088	0.073
1088	0.072
1088	0.072
1089	0.071
1089	0.07
1090	0.069
1090	0.068
1090	0.068
1091	0.067
1091	0.067
1092	0.067
1092	0.067
1092	0.067
1093	0.067
1093	0.068
1094	0.068
1094	0.068
1095	0.068
1095	0.067
1095	0.067
1096	0.066
1096	0.065
1097	0.065
1097	0.064
1097	0.062
1098	0.062
1098	0.06
1099	0.059
1099	0.058
1100	0.056
1100	0.055
1100	0.054
1101	0.053
1101	0.052
1102	0.052
1102	0.051
1102	0.049
1103	0.049
1103	0.048
1104	0.047
1104	0.047
1104	0.047
1105	0.046
1105	0.043
1106	0.042
1106	0.04
1107	0.039
1107	0.039
1107	0.037
1108	0.037
1108	0.036
1109	0.034
1109	0.033
1109	0.033
1110	0.034
1110	0.033
1111	0.035
1111	0.031
