Data from reversibility-20sec_Absorbance__5255__000000000005255.txt Node

Date: Wed Dec 06 17:24:46 CET 2023
User: Marek
Spectrometer: MAYP115816
Trigger mode: 0
Integration Time (sec): 2.000000E-1
Scans to average: 10
Electric dark correction enabled: true
Nonlinearity correction enabled: true
Boxcar width: 5
XAxis mode: Wavelengths
Number of Pixels in Spectrum: 2068
>>>>>Begin Spectral Data<<<<<
199	-0.163
199	-0.126
200	-0.063
200	-0.009
201	0.019
201	0.032
202	0.04
202	0.051
203	0.057
203	0.06
204	0.072
204	0.084
205	0.096
205	0.102
205	0.1
206	0.099
206	0.102
207	0.106
207	0.105
208	0.105
208	0.104
209	0.107
209	0.105
210	0.103
210	0.101
211	0.099
211	0.101
212	0.096
212	0.097
213	0.099
213	0.099
213	0.1
214	0.103
214	0.104
215	0.106
215	0.106
216	0.11
216	0.109
217	0.114
217	0.116
218	0.112
218	0.117
219	0.12
219	0.119
220	0.121
220	0.12
221	0.12
221	0.121
221	0.126
222	0.131
222	0.135
223	0.142
223	0.143
224	0.149
224	0.156
225	0.165
225	0.177
226	0.187
226	0.199
227	0.21
227	0.219
228	0.234
228	0.249
229	0.268
229	0.291
229	0.314
230	0.341
230	0.371
231	0.403
231	0.442
232	0.479
232	0.523
233	0.566
233	0.614
234	0.663
234	0.714
235	0.766
235	0.816
236	0.868
236	0.92
236	0.969
237	1.018
237	1.065
238	1.113
238	1.159
239	1.209
239	1.253
240	1.294
240	1.331
241	1.365
241	1.398
242	1.431
242	1.465
243	1.496
243	1.521
243	1.546
244	1.567
244	1.588
245	1.606
245	1.63
246	1.649
246	1.667
247	1.679
247	1.692
248	1.708
248	1.721
249	1.731
249	1.738
250	1.745
250	1.753
250	1.757
251	1.76
251	1.763
252	1.767
252	1.768
253	1.766
253	1.765
254	1.764
254	1.765
255	1.763
255	1.763
256	1.762
256	1.761
257	1.762
257	1.761
258	1.76
258	1.762
258	1.761
259	1.762
259	1.761
260	1.761
260	1.762
261	1.761
261	1.765
262	1.766
262	1.768
263	1.772
263	1.774
264	1.776
264	1.776
265	1.777
265	1.778
265	1.781
266	1.782
266	1.782
267	1.781
267	1.781
268	1.779
268	1.779
269	1.781
269	1.78
270	1.781
270	1.78
271	1.776
271	1.776
272	1.771
272	1.769
272	1.766
273	1.76
273	1.754
274	1.748
274	1.741
275	1.733
275	1.728
276	1.721
276	1.712
277	1.705
277	1.695
278	1.683
278	1.671
278	1.656
279	1.639
279	1.618
280	1.592
280	1.56
281	1.523
281	1.482
282	1.44
282	1.396
283	1.354
283	1.313
284	1.273
284	1.234
285	1.198
285	1.165
285	1.137
286	1.11
286	1.089
287	1.07
287	1.053
288	1.039
288	1.027
289	1.017
289	1.008
290	1.001
290	0.994
291	0.989
291	0.984
292	0.979
292	0.975
292	0.971
293	0.968
293	0.964
294	0.961
294	0.958
295	0.955
295	0.952
296	0.949
296	0.946
297	0.943
297	0.941
298	0.938
298	0.935
298	0.933
299	0.93
299	0.927
300	0.925
300	0.922
301	0.92
301	0.918
302	0.915
302	0.913
303	0.911
303	0.909
304	0.907
304	0.904
305	0.902
305	0.9
305	0.897
306	0.895
306	0.893
307	0.891
307	0.888
308	0.886
308	0.883
309	0.88
309	0.878
310	0.875
310	0.872
311	0.869
311	0.866
311	0.863
312	0.86
312	0.857
313	0.853
313	0.85
314	0.846
314	0.842
315	0.838
315	0.834
316	0.83
316	0.825
317	0.821
317	0.816
318	0.811
318	0.807
318	0.801
319	0.796
319	0.791
320	0.786
320	0.78
321	0.774
321	0.768
322	0.762
322	0.756
323	0.75
323	0.743
324	0.737
324	0.73
324	0.724
325	0.717
325	0.71
326	0.704
326	0.697
327	0.69
327	0.683
328	0.676
328	0.669
329	0.663
329	0.656
330	0.648
330	0.642
330	0.635
331	0.628
331	0.621
332	0.614
332	0.608
333	0.601
333	0.594
334	0.587
334	0.58
335	0.574
335	0.567
336	0.56
336	0.554
336	0.547
337	0.541
337	0.535
338	0.529
338	0.523
339	0.517
339	0.511
340	0.505
340	0.5
341	0.494
341	0.489
342	0.483
342	0.478
342	0.473
343	0.467
343	0.462
344	0.457
344	0.453
345	0.448
345	0.443
346	0.439
346	0.434
347	0.43
347	0.426
348	0.422
348	0.418
348	0.414
349	0.411
349	0.407
350	0.404
350	0.4
351	0.397
351	0.393
352	0.39
352	0.388
353	0.385
353	0.382
354	0.379
354	0.376
354	0.373
355	0.37
355	0.367
356	0.365
356	0.362
357	0.358
357	0.356
358	0.353
358	0.351
359	0.348
359	0.346
360	0.344
360	0.342
360	0.341
361	0.339
361	0.337
362	0.336
362	0.334
363	0.332
363	0.331
364	0.329
364	0.327
365	0.325
365	0.324
366	0.322
366	0.32
366	0.319
367	0.317
367	0.315
368	0.314
368	0.312
369	0.311
369	0.31
370	0.308
370	0.307
371	0.306
371	0.304
372	0.303
372	0.302
372	0.301
373	0.3
373	0.299
374	0.298
374	0.297
375	0.296
375	0.295
376	0.295
376	0.294
377	0.293
377	0.292
378	0.291
378	0.29
378	0.289
379	0.288
379	0.288
380	0.287
380	0.286
381	0.286
381	0.285
382	0.285
382	0.284
383	0.284
383	0.283
383	0.283
384	0.282
384	0.282
385	0.281
385	0.281
386	0.28
386	0.28
387	0.279
387	0.279
388	0.278
388	0.278
389	0.278
389	0.277
389	0.277
390	0.277
390	0.276
391	0.276
391	0.275
392	0.275
392	0.275
393	0.274
393	0.274
394	0.274
394	0.274
394	0.273
395	0.273
395	0.273
396	0.272
396	0.272
397	0.271
397	0.271
398	0.271
398	0.27
399	0.27
399	0.27
400	0.269
400	0.269
400	0.269
401	0.269
401	0.268
402	0.268
402	0.268
403	0.268
403	0.267
404	0.267
404	0.267
405	0.267
405	0.267
405	0.266
406	0.266
406	0.266
407	0.265
407	0.265
408	0.265
408	0.265
409	0.264
409	0.264
410	0.264
410	0.263
411	0.263
411	0.263
411	0.262
412	0.262
412	0.262
413	0.261
413	0.261
414	0.261
414	0.261
415	0.26
415	0.26
416	0.26
416	0.259
416	0.259
417	0.259
417	0.258
418	0.258
418	0.258
419	0.257
419	0.257
420	0.257
420	0.256
421	0.256
421	0.255
421	0.255
422	0.255
422	0.255
423	0.254
423	0.254
424	0.254
424	0.253
425	0.253
425	0.253
426	0.252
426	0.252
427	0.251
427	0.251
427	0.251
428	0.251
428	0.25
429	0.25
429	0.25
430	0.25
430	0.249
431	0.249
431	0.249
432	0.249
432	0.249
432	0.248
433	0.248
433	0.248
434	0.248
434	0.248
435	0.248
435	0.247
436	0.247
436	0.247
437	0.247
437	0.247
437	0.246
438	0.246
438	0.246
439	0.246
439	0.246
440	0.245
440	0.245
441	0.245
441	0.245
442	0.245
442	0.245
442	0.244
443	0.244
443	0.244
444	0.244
444	0.243
445	0.243
445	0.243
446	0.243
446	0.242
447	0.242
447	0.242
447	0.242
448	0.242
448	0.242
449	0.242
449	0.242
450	0.241
450	0.241
451	0.241
451	0.241
452	0.241
452	0.24
452	0.24
453	0.24
453	0.24
454	0.24
454	0.239
455	0.239
455	0.239
456	0.239
456	0.239
457	0.238
457	0.238
458	0.238
458	0.238
458	0.237
459	0.237
459	0.237
460	0.237
460	0.236
461	0.236
461	0.236
462	0.236
462	0.236
463	0.236
463	0.235
463	0.235
464	0.235
464	0.235
465	0.234
465	0.234
466	0.234
466	0.234
467	0.234
467	0.234
467	0.233
468	0.233
468	0.233
469	0.233
469	0.234
470	0.234
470	0.234
471	0.234
471	0.234
472	0.234
472	0.234
472	0.234
473	0.234
473	0.234
474	0.234
474	0.234
475	0.234
475	0.234
476	0.234
476	0.234
477	0.234
477	0.234
477	0.234
478	0.234
478	0.234
479	0.234
479	0.234
480	0.234
480	0.234
481	0.234
481	0.234
482	0.234
482	0.234
482	0.234
483	0.235
483	0.235
484	0.236
484	0.236
485	0.236
485	0.236
486	0.236
486	0.236
487	0.236
487	0.236
487	0.237
488	0.237
488	0.237
489	0.237
489	0.238
490	0.238
490	0.239
491	0.239
491	0.24
492	0.24
492	0.241
492	0.241
493	0.241
493	0.242
494	0.242
494	0.243
495	0.243
495	0.244
496	0.244
496	0.245
496	0.246
497	0.246
497	0.247
498	0.247
498	0.248
499	0.248
499	0.249
500	0.25
500	0.25
501	0.251
501	0.251
501	0.251
502	0.251
502	0.252
503	0.252
503	0.253
504	0.253
504	0.253
505	0.254
505	0.254
506	0.255
506	0.255
506	0.256
507	0.256
507	0.257
508	0.257
508	0.258
509	0.258
509	0.259
510	0.259
510	0.259
511	0.26
511	0.261
511	0.261
512	0.262
512	0.263
513	0.263
513	0.264
514	0.265
514	0.265
515	0.266
515	0.266
515	0.267
516	0.267
516	0.267
517	0.268
517	0.268
518	0.268
518	0.268
519	0.268
519	0.269
520	0.269
520	0.269
520	0.269
521	0.269
521	0.269
522	0.269
522	0.269
523	0.27
523	0.27
524	0.27
524	0.27
524	0.27
525	0.271
525	0.27
526	0.271
526	0.271
527	0.271
527	0.271
528	0.271
528	0.271
529	0.271
529	0.271
529	0.271
530	0.271
530	0.271
531	0.271
531	0.271
532	0.27
532	0.27
533	0.27
533	0.27
533	0.269
534	0.269
534	0.269
535	0.269
535	0.268
536	0.268
536	0.268
537	0.268
537	0.267
538	0.267
538	0.267
538	0.266
539	0.266
539	0.266
540	0.265
540	0.265
541	0.264
541	0.263
542	0.263
542	0.262
542	0.262
543	0.262
543	0.261
544	0.261
544	0.261
545	0.26
545	0.26
546	0.26
546	0.259
547	0.258
547	0.258
547	0.257
548	0.257
548	0.256
549	0.256
549	0.256
550	0.255
550	0.255
551	0.254
551	0.254
551	0.254
552	0.253
552	0.252
553	0.251
553	0.251
554	0.25
554	0.249
555	0.248
555	0.247
556	0.246
556	0.246
556	0.246
557	0.245
557	0.246
558	0.246
558	0.245
559	0.245
559	0.245
560	0.245
560	0.245
560	0.245
561	0.245
561	0.244
562	0.243
562	0.242
563	0.241
563	0.24
564	0.239
564	0.238
564	0.237
565	0.237
565	0.237
566	0.236
566	0.235
567	0.235
567	0.235
568	0.235
568	0.234
568	0.234
569	0.234
569	0.233
570	0.232
570	0.231
571	0.231
571	0.23
572	0.23
572	0.229
573	0.229
573	0.228
573	0.228
574	0.227
574	0.227
575	0.227
575	0.227
576	0.227
576	0.227
577	0.226
577	0.225
577	0.225
578	0.225
578	0.224
579	0.225
579	0.224
580	0.224
580	0.222
581	0.221
581	0.221
581	0.221
582	0.221
582	0.221
583	0.221
583	0.22
584	0.219
584	0.218
585	0.218
585	0.218
585	0.217
586	0.217
586	0.217
587	0.216
587	0.215
588	0.214
588	0.214
589	0.214
589	0.214
590	0.213
590	0.213
590	0.214
591	0.214
591	0.213
592	0.213
592	0.212
593	0.212
593	0.212
594	0.211
594	0.211
594	0.21
595	0.21
595	0.209
596	0.209
596	0.209
597	0.209
597	0.21
598	0.209
598	0.209
598	0.209
599	0.209
599	0.208
600	0.208
600	0.207
601	0.207
601	0.207
602	0.206
602	0.206
602	0.205
603	0.205
603	0.205
604	0.205
604	0.205
605	0.205
605	0.205
606	0.205
606	0.204
606	0.203
607	0.203
607	0.203
608	0.203
608	0.202
609	0.202
609	0.202
610	0.201
610	0.201
610	0.201
611	0.201
611	0.201
612	0.201
612	0.201
613	0.201
613	0.2
614	0.2
614	0.199
614	0.199
615	0.199
615	0.198
616	0.198
616	0.198
617	0.198
617	0.197
618	0.197
618	0.197
618	0.197
619	0.197
619	0.197
620	0.198
620	0.197
621	0.197
621	0.197
622	0.196
622	0.196
622	0.195
623	0.195
623	0.195
624	0.195
624	0.194
625	0.193
625	0.193
626	0.193
626	0.192
626	0.193
627	0.193
627	0.193
628	0.192
628	0.192
629	0.191
629	0.191
630	0.191
630	0.191
630	0.191
631	0.191
631	0.191
632	0.191
632	0.19
633	0.191
633	0.191
634	0.191
634	0.191
634	0.191
635	0.191
635	0.19
636	0.19
636	0.19
637	0.189
637	0.189
638	0.189
638	0.188
638	0.188
639	0.187
639	0.187
640	0.187
640	0.187
641	0.187
641	0.187
642	0.187
642	0.188
642	0.188
643	0.188
643	0.189
644	0.189
644	0.188
645	0.188
645	0.188
646	0.188
646	0.188
646	0.188
647	0.188
647	0.187
648	0.187
648	0.186
649	0.186
649	0.186
650	0.186
650	0.185
650	0.185
651	0.185
651	0.185
652	0.185
652	0.184
653	0.185
653	0.186
653	0.193
654	0.152
654	0.121
655	0.122
655	0.122
656	0.122
656	0.123
657	0.123
657	0.124
657	0.124
658	0.123
658	0.113
659	0.142
659	0.183
660	0.189
660	0.189
661	0.188
661	0.188
661	0.188
662	0.187
662	0.187
663	0.186
663	0.186
664	0.186
664	0.185
665	0.185
665	0.185
665	0.186
666	0.186
666	0.186
667	0.186
667	0.186
668	0.186
668	0.186
669	0.187
669	0.187
669	0.187
670	0.187
670	0.187
671	0.186
671	0.186
672	0.186
672	0.185
672	0.185
673	0.185
673	0.185
674	0.184
674	0.184
675	0.184
675	0.184
676	0.184
676	0.184
676	0.184
677	0.184
677	0.184
678	0.184
678	0.184
679	0.184
679	0.184
680	0.184
680	0.183
680	0.183
681	0.183
681	0.184
682	0.184
682	0.184
683	0.184
683	0.185
684	0.185
684	0.185
684	0.184
685	0.184
685	0.185
686	0.185
686	0.184
687	0.184
687	0.184
687	0.184
688	0.184
688	0.184
689	0.184
689	0.185
690	0.185
690	0.184
691	0.184
691	0.185
691	0.185
692	0.185
692	0.184
693	0.185
693	0.185
694	0.185
694	0.185
695	0.186
695	0.187
695	0.187
696	0.187
696	0.187
697	0.188
697	0.188
698	0.187
698	0.187
698	0.187
699	0.187
699	0.187
700	0.186
700	0.186
701	0.186
701	0.185
702	0.185
702	0.184
702	0.184
703	0.184
703	0.184
704	0.184
704	0.184
705	0.184
705	0.185
705	0.185
706	0.186
706	0.186
707	0.187
707	0.187
708	0.188
708	0.189
709	0.19
709	0.19
709	0.19
710	0.19
710	0.19
711	0.191
711	0.191
712	0.191
712	0.191
713	0.19
713	0.19
713	0.19
714	0.189
714	0.189
715	0.188
715	0.188
716	0.187
716	0.186
716	0.185
717	0.185
717	0.185
718	0.184
718	0.184
719	0.185
719	0.185
720	0.186
720	0.187
720	0.187
721	0.188
721	0.188
722	0.189
722	0.189
723	0.189
723	0.19
723	0.19
724	0.189
724	0.189
725	0.189
725	0.188
726	0.188
726	0.188
727	0.187
727	0.187
727	0.187
728	0.187
728	0.187
729	0.188
729	0.188
730	0.188
730	0.189
730	0.189
731	0.19
731	0.19
732	0.191
732	0.191
733	0.191
733	0.192
734	0.192
734	0.193
734	0.193
735	0.194
735	0.194
736	0.194
736	0.194
737	0.194
737	0.194
737	0.194
738	0.194
738	0.193
739	0.192
739	0.192
740	0.191
740	0.191
741	0.191
741	0.191
741	0.191
742	0.191
742	0.191
743	0.192
743	0.193
744	0.194
744	0.195
744	0.195
745	0.196
745	0.196
746	0.196
746	0.197
747	0.196
747	0.196
748	0.196
748	0.196
748	0.195
749	0.195
749	0.195
750	0.194
750	0.194
751	0.194
751	0.194
751	0.194
752	0.194
752	0.193
753	0.193
753	0.193
754	0.192
754	0.192
754	0.192
755	0.192
755	0.192
756	0.192
756	0.191
757	0.19
757	0.19
758	0.191
758	0.191
758	0.191
759	0.192
759	0.191
760	0.191
760	0.191
761	0.191
761	0.192
761	0.192
762	0.192
762	0.193
763	0.193
763	0.193
764	0.193
764	0.193
764	0.193
765	0.193
765	0.193
766	0.193
766	0.193
767	0.194
767	0.193
768	0.193
768	0.193
768	0.194
769	0.194
769	0.194
770	0.195
770	0.196
771	0.196
771	0.196
771	0.197
772	0.197
772	0.198
773	0.198
773	0.198
774	0.197
774	0.197
775	0.198
775	0.198
775	0.197
776	0.197
776	0.198
777	0.198
777	0.198
778	0.198
778	0.198
778	0.198
779	0.199
779	0.199
780	0.198
780	0.198
781	0.199
781	0.199
781	0.199
782	0.199
782	0.199
783	0.2
783	0.201
784	0.201
784	0.201
784	0.202
785	0.202
785	0.202
786	0.202
786	0.202
787	0.202
787	0.202
788	0.201
788	0.201
788	0.2
789	0.199
789	0.199
790	0.198
790	0.198
791	0.197
791	0.196
791	0.195
792	0.196
792	0.196
793	0.195
793	0.195
794	0.195
794	0.195
794	0.195
795	0.195
795	0.196
796	0.196
796	0.197
797	0.197
797	0.197
797	0.198
798	0.198
798	0.199
799	0.199
799	0.199
800	0.199
800	0.199
801	0.199
801	0.199
801	0.199
802	0.199
802	0.199
803	0.199
803	0.199
804	0.199
804	0.2
804	0.2
805	0.2
805	0.2
806	0.2
806	0.2
807	0.2
807	0.2
807	0.2
808	0.201
808	0.201
809	0.201
809	0.201
810	0.202
810	0.202
810	0.202
811	0.202
811	0.203
812	0.203
812	0.203
813	0.203
813	0.203
813	0.204
814	0.204
814	0.205
815	0.205
815	0.206
816	0.206
816	0.205
817	0.205
817	0.205
817	0.205
818	0.204
818	0.204
819	0.204
819	0.204
820	0.203
820	0.203
820	0.203
821	0.203
821	0.203
822	0.203
822	0.203
823	0.203
823	0.204
823	0.204
824	0.205
824	0.206
825	0.206
825	0.207
826	0.207
826	0.207
826	0.207
827	0.207
827	0.207
828	0.207
828	0.207
829	0.207
829	0.207
829	0.207
830	0.207
830	0.207
831	0.208
831	0.208
832	0.208
832	0.208
832	0.209
833	0.209
833	0.208
834	0.208
834	0.208
835	0.207
835	0.207
835	0.206
836	0.206
836	0.205
837	0.205
837	0.204
838	0.204
838	0.203
839	0.203
839	0.202
839	0.201
840	0.2
840	0.199
841	0.198
841	0.198
842	0.197
842	0.196
842	0.196
843	0.196
843	0.195
844	0.195
844	0.195
845	0.194
845	0.194
845	0.194
846	0.194
846	0.194
847	0.194
847	0.194
848	0.194
848	0.194
848	0.194
849	0.194
849	0.195
850	0.195
850	0.195
851	0.196
851	0.196
851	0.196
852	0.196
852	0.196
853	0.196
853	0.196
854	0.197
854	0.197
854	0.198
855	0.198
855	0.199
856	0.199
856	0.2
857	0.201
857	0.201
857	0.201
858	0.202
858	0.201
859	0.201
859	0.2
860	0.2
860	0.199
860	0.198
861	0.198
861	0.197
862	0.196
862	0.195
863	0.195
863	0.194
863	0.194
864	0.194
864	0.193
865	0.193
865	0.193
866	0.193
866	0.193
866	0.193
867	0.193
867	0.194
868	0.194
868	0.195
869	0.195
869	0.195
869	0.194
870	0.194
870	0.194
871	0.194
871	0.194
872	0.193
872	0.193
872	0.193
873	0.192
873	0.191
874	0.191
874	0.191
875	0.19
875	0.19
875	0.19
876	0.19
876	0.19
877	0.19
877	0.19
878	0.19
878	0.19
878	0.191
879	0.191
879	0.191
880	0.191
880	0.191
881	0.19
881	0.19
881	0.19
882	0.189
882	0.189
883	0.188
883	0.188
884	0.188
884	0.188
884	0.188
885	0.188
885	0.188
886	0.188
886	0.187
887	0.186
887	0.186
887	0.185
888	0.184
888	0.182
889	0.181
889	0.181
890	0.18
890	0.18
890	0.179
891	0.179
891	0.179
892	0.179
892	0.178
893	0.178
893	0.179
893	0.179
894	0.179
894	0.179
895	0.179
895	0.179
895	0.179
896	0.18
896	0.18
897	0.18
897	0.181
898	0.181
898	0.181
898	0.181
899	0.181
899	0.18
900	0.18
900	0.18
901	0.179
901	0.178
901	0.178
902	0.177
902	0.176
903	0.175
903	0.175
904	0.174
904	0.174
904	0.173
905	0.172
905	0.172
906	0.171
906	0.171
907	0.171
907	0.171
907	0.172
908	0.172
908	0.171
909	0.171
909	0.171
910	0.171
910	0.171
910	0.171
911	0.171
911	0.17
912	0.17
912	0.17
913	0.169
913	0.169
913	0.169
914	0.168
914	0.168
915	0.168
915	0.168
916	0.168
916	0.168
916	0.168
917	0.168
917	0.167
918	0.167
918	0.167
918	0.167
919	0.167
919	0.166
920	0.166
920	0.166
921	0.166
921	0.166
921	0.166
922	0.165
922	0.166
923	0.166
923	0.166
924	0.166
924	0.167
924	0.167
925	0.167
925	0.168
926	0.168
926	0.169
927	0.169
927	0.169
927	0.169
928	0.168
928	0.168
929	0.167
929	0.166
930	0.165
930	0.164
930	0.163
931	0.161
931	0.16
932	0.16
932	0.159
933	0.158
933	0.158
933	0.157
934	0.157
934	0.156
935	0.156
935	0.155
935	0.155
936	0.155
936	0.154
937	0.154
937	0.153
938	0.153
938	0.153
938	0.153
939	0.153
939	0.152
940	0.152
940	0.152
941	0.153
941	0.153
941	0.153
942	0.153
942	0.152
943	0.153
943	0.152
944	0.152
944	0.152
944	0.153
945	0.153
945	0.153
946	0.153
946	0.153
946	0.153
947	0.153
947	0.153
948	0.153
948	0.152
949	0.151
949	0.151
949	0.15
950	0.149
950	0.149
951	0.149
951	0.148
952	0.147
952	0.146
952	0.146
953	0.145
953	0.145
954	0.145
954	0.144
955	0.144
955	0.144
955	0.144
956	0.144
956	0.144
957	0.144
957	0.144
957	0.144
958	0.144
958	0.144
959	0.144
959	0.143
960	0.143
960	0.143
960	0.142
961	0.142
961	0.141
962	0.141
962	0.14
963	0.14
963	0.14
963	0.14
964	0.14
964	0.14
965	0.14
965	0.139
966	0.139
966	0.139
966	0.139
967	0.139
967	0.138
968	0.138
968	0.138
968	0.137
969	0.137
969	0.136
970	0.136
970	0.135
971	0.135
971	0.134
971	0.133
972	0.132
972	0.132
973	0.131
973	0.13
974	0.13
974	0.129
974	0.129
975	0.129
975	0.129
976	0.129
976	0.129
976	0.129
977	0.129
977	0.129
978	0.129
978	0.128
979	0.128
979	0.128
979	0.128
980	0.128
980	0.127
981	0.126
981	0.126
982	0.126
982	0.125
982	0.125
983	0.126
983	0.125
984	0.125
984	0.125
984	0.126
985	0.126
985	0.126
986	0.126
986	0.126
987	0.126
987	0.126
987	0.126
988	0.126
988	0.125
989	0.125
989	0.125
990	0.125
990	0.125
990	0.125
991	0.125
991	0.125
992	0.124
992	0.124
992	0.123
993	0.122
993	0.121
994	0.12
994	0.12
995	0.119
995	0.118
995	0.118
996	0.118
996	0.118
997	0.118
997	0.119
997	0.119
998	0.12
998	0.12
999	0.121
999	0.122
1000	0.122
1000	0.123
1000	0.123
1001	0.123
1001	0.122
1002	0.122
1002	0.122
1003	0.121
1003	0.121
1003	0.12
1004	0.119
1004	0.118
1005	0.118
1005	0.117
1005	0.117
1006	0.116
1006	0.116
1007	0.116
1007	0.115
1008	0.115
1008	0.115
1008	0.115
1009	0.115
1009	0.115
1010	0.115
1010	0.115
1010	0.114
1011	0.114
1011	0.114
1012	0.113
1012	0.113
1013	0.112
1013	0.112
1013	0.112
1014	0.111
1014	0.111
1015	0.11
1015	0.11
1016	0.11
1016	0.11
1016	0.109
1017	0.109
1017	0.109
1018	0.109
1018	0.108
1018	0.108
1019	0.108
1019	0.108
1020	0.107
1020	0.107
1021	0.107
1021	0.107
1021	0.107
1022	0.108
1022	0.108
1023	0.108
1023	0.108
1023	0.109
1024	0.109
1024	0.11
1025	0.11
1025	0.11
1026	0.11
1026	0.11
1026	0.11
1027	0.11
1027	0.11
1028	0.11
1028	0.109
1028	0.109
1029	0.109
1029	0.109
1030	0.108
1030	0.108
1031	0.108
1031	0.108
1031	0.108
1032	0.108
1032	0.108
1033	0.108
1033	0.108
1033	0.108
1034	0.108
1034	0.107
1035	0.107
1035	0.107
1036	0.107
1036	0.106
1036	0.106
1037	0.106
1037	0.106
1038	0.105
1038	0.106
1039	0.105
1039	0.105
1039	0.105
1040	0.105
1040	0.105
1041	0.105
1041	0.105
1041	0.105
1042	0.105
1042	0.104
1043	0.104
1043	0.104
1044	0.104
1044	0.103
1044	0.103
1045	0.103
1045	0.103
1046	0.103
1046	0.103
1046	0.103
1047	0.103
1047	0.103
1048	0.103
1048	0.103
1049	0.102
1049	0.102
1049	0.102
1050	0.101
1050	0.1
1051	0.099
1051	0.098
1051	0.098
1052	0.097
1052	0.097
1053	0.096
1053	0.095
1053	0.095
1054	0.095
1054	0.095
1055	0.095
1055	0.095
1056	0.094
1056	0.094
1056	0.093
1057	0.092
1057	0.092
1058	0.091
1058	0.09
1058	0.089
1059	0.088
1059	0.088
1060	0.087
1060	0.086
1061	0.085
1061	0.085
1061	0.085
1062	0.084
1062	0.084
1063	0.084
1063	0.084
1063	0.084
1064	0.084
1064	0.084
1065	0.084
1065	0.084
1066	0.084
1066	0.084
1066	0.084
1067	0.084
1067	0.084
1068	0.084
1068	0.084
1068	0.084
1069	0.084
1069	0.083
1070	0.083
1070	0.082
1071	0.082
1071	0.082
1071	0.081
1072	0.08
1072	0.08
1073	0.079
1073	0.078
1073	0.078
1074	0.078
1074	0.078
1075	0.078
1075	0.078
1076	0.077
1076	0.078
1076	0.078
1077	0.077
1077	0.077
1078	0.077
1078	0.077
1078	0.076
1079	0.076
1079	0.076
1080	0.076
1080	0.076
1080	0.075
1081	0.075
1081	0.075
1082	0.075
1082	0.075
1083	0.075
1083	0.075
1083	0.074
1084	0.074
1084	0.075
1085	0.074
1085	0.075
1085	0.075
1086	0.075
1086	0.075
1087	0.075
1087	0.075
1088	0.075
1088	0.075
1088	0.075
1089	0.074
1089	0.073
1090	0.072
1090	0.072
1090	0.071
1091	0.071
1091	0.07
1092	0.071
1092	0.07
1092	0.07
1093	0.07
1093	0.071
1094	0.071
1094	0.071
1095	0.07
1095	0.069
1095	0.069
1096	0.068
1096	0.066
1097	0.066
1097	0.064
1097	0.063
1098	0.062
1098	0.061
1099	0.059
1099	0.058
1100	0.057
1100	0.056
1100	0.054
1101	0.053
1101	0.051
1102	0.051
1102	0.049
1102	0.047
1103	0.046
1103	0.045
1104	0.045
1104	0.044
1104	0.043
1105	0.043
1105	0.041
1106	0.04
1106	0.038
1107	0.037
1107	0.037
1107	0.037
1108	0.035
1108	0.035
1109	0.033
1109	0.032
1109	0.031
1110	0.033
1110	0.031
1111	0.032
1111	0.031
