Data from reversibility-20sec_Absorbance__3550__000000000003550.txt Node

Date: Wed Dec 06 07:56:27 CET 2023
User: Marek
Spectrometer: MAYP115816
Trigger mode: 0
Integration Time (sec): 2.000000E-1
Scans to average: 10
Electric dark correction enabled: true
Nonlinearity correction enabled: true
Boxcar width: 5
XAxis mode: Wavelengths
Number of Pixels in Spectrum: 2068
>>>>>Begin Spectral Data<<<<<
199	-0.155
199	-0.131
200	-0.067
200	-0.02
201	0.009
201	0.028
202	0.039
202	0.047
203	0.053
203	0.058
204	0.074
204	0.085
205	0.1
205	0.105
205	0.104
206	0.104
206	0.105
207	0.106
207	0.109
208	0.111
208	0.109
209	0.11
209	0.11
210	0.11
210	0.112
211	0.115
211	0.116
212	0.114
212	0.116
213	0.119
213	0.118
213	0.122
214	0.124
214	0.128
215	0.129
215	0.131
216	0.131
216	0.132
217	0.135
217	0.137
218	0.136
218	0.141
219	0.144
219	0.145
220	0.148
220	0.147
221	0.146
221	0.149
221	0.155
222	0.159
222	0.163
223	0.17
223	0.175
224	0.181
224	0.189
225	0.194
225	0.208
226	0.218
226	0.232
227	0.242
227	0.254
228	0.269
228	0.284
229	0.299
229	0.323
229	0.346
230	0.373
230	0.403
231	0.437
231	0.472
232	0.509
232	0.552
233	0.595
233	0.643
234	0.695
234	0.745
235	0.798
235	0.85
236	0.899
236	0.951
236	1.004
237	1.058
237	1.107
238	1.155
238	1.2
239	1.247
239	1.288
240	1.327
240	1.365
241	1.4
241	1.432
242	1.464
242	1.496
243	1.524
243	1.553
243	1.578
244	1.598
244	1.622
245	1.642
245	1.663
246	1.681
246	1.697
247	1.712
247	1.724
248	1.738
248	1.749
249	1.76
249	1.77
250	1.777
250	1.784
250	1.789
251	1.794
251	1.798
252	1.803
252	1.804
253	1.805
253	1.804
254	1.801
254	1.804
255	1.802
255	1.802
256	1.801
256	1.8
257	1.8
257	1.797
258	1.796
258	1.796
258	1.794
259	1.795
259	1.793
260	1.791
260	1.792
261	1.791
261	1.792
262	1.793
262	1.795
263	1.797
263	1.797
264	1.798
264	1.798
265	1.799
265	1.799
265	1.799
266	1.799
266	1.799
267	1.797
267	1.797
268	1.797
268	1.798
269	1.799
269	1.797
270	1.798
270	1.796
271	1.795
271	1.794
272	1.793
272	1.791
272	1.788
273	1.783
273	1.777
274	1.772
274	1.767
275	1.761
275	1.756
276	1.748
276	1.739
277	1.731
277	1.722
278	1.712
278	1.699
278	1.686
279	1.672
279	1.655
280	1.634
280	1.609
281	1.579
281	1.547
282	1.511
282	1.475
283	1.439
283	1.403
284	1.368
284	1.333
285	1.3
285	1.269
285	1.241
286	1.216
286	1.195
287	1.176
287	1.159
288	1.144
288	1.132
289	1.121
289	1.111
290	1.103
290	1.096
291	1.09
291	1.084
292	1.079
292	1.074
292	1.07
293	1.065
293	1.062
294	1.058
294	1.055
295	1.051
295	1.048
296	1.045
296	1.042
297	1.039
297	1.035
298	1.032
298	1.029
298	1.026
299	1.023
299	1.02
300	1.017
300	1.014
301	1.011
301	1.008
302	1.005
302	1.003
303	1
303	0.998
304	0.995
304	0.992
305	0.99
305	0.987
305	0.985
306	0.983
306	0.98
307	0.978
307	0.975
308	0.972
308	0.969
309	0.966
309	0.963
310	0.96
310	0.957
311	0.954
311	0.951
311	0.947
312	0.944
312	0.94
313	0.937
313	0.933
314	0.929
314	0.925
315	0.921
315	0.916
316	0.912
316	0.907
317	0.903
317	0.898
318	0.893
318	0.888
318	0.883
319	0.877
319	0.872
320	0.867
320	0.861
321	0.855
321	0.849
322	0.843
322	0.837
323	0.831
323	0.824
324	0.818
324	0.812
324	0.805
325	0.798
325	0.791
326	0.785
326	0.778
327	0.771
327	0.765
328	0.758
328	0.751
329	0.744
329	0.737
330	0.73
330	0.723
330	0.717
331	0.71
331	0.703
332	0.696
332	0.689
333	0.682
333	0.676
334	0.669
334	0.663
335	0.656
335	0.649
336	0.642
336	0.636
336	0.63
337	0.624
337	0.618
338	0.611
338	0.605
339	0.599
339	0.593
340	0.588
340	0.582
341	0.577
341	0.571
342	0.566
342	0.561
342	0.555
343	0.55
343	0.545
344	0.54
344	0.535
345	0.531
345	0.526
346	0.522
346	0.517
347	0.513
347	0.509
348	0.505
348	0.501
348	0.497
349	0.494
349	0.49
350	0.486
350	0.483
351	0.48
351	0.476
352	0.473
352	0.47
353	0.467
353	0.464
354	0.461
354	0.458
354	0.455
355	0.452
355	0.449
356	0.446
356	0.443
357	0.439
357	0.437
358	0.434
358	0.431
359	0.429
359	0.427
360	0.424
360	0.422
360	0.421
361	0.419
361	0.417
362	0.416
362	0.414
363	0.412
363	0.41
364	0.408
364	0.406
365	0.404
365	0.402
366	0.401
366	0.399
366	0.397
367	0.395
367	0.393
368	0.391
368	0.39
369	0.388
369	0.387
370	0.385
370	0.384
371	0.382
371	0.381
372	0.379
372	0.378
372	0.377
373	0.376
373	0.375
374	0.374
374	0.372
375	0.371
375	0.37
376	0.369
376	0.368
377	0.367
377	0.365
378	0.364
378	0.363
378	0.362
379	0.361
379	0.36
380	0.359
380	0.358
381	0.357
381	0.357
382	0.356
382	0.355
383	0.355
383	0.354
383	0.353
384	0.352
384	0.352
385	0.351
385	0.35
386	0.35
386	0.349
387	0.348
387	0.347
388	0.347
388	0.346
389	0.346
389	0.345
389	0.344
390	0.344
390	0.343
391	0.343
391	0.342
392	0.342
392	0.342
393	0.341
393	0.341
394	0.34
394	0.34
394	0.339
395	0.339
395	0.339
396	0.338
396	0.337
397	0.337
397	0.336
398	0.336
398	0.335
399	0.335
399	0.334
400	0.334
400	0.333
400	0.333
401	0.332
401	0.332
402	0.331
402	0.331
403	0.33
403	0.33
404	0.329
404	0.329
405	0.329
405	0.328
405	0.328
406	0.328
406	0.327
407	0.327
407	0.327
408	0.326
408	0.326
409	0.325
409	0.325
410	0.325
410	0.324
411	0.324
411	0.324
411	0.323
412	0.323
412	0.322
413	0.322
413	0.321
414	0.321
414	0.321
415	0.32
415	0.32
416	0.32
416	0.319
416	0.319
417	0.319
417	0.318
418	0.318
418	0.317
419	0.317
419	0.317
420	0.316
420	0.316
421	0.315
421	0.315
421	0.315
422	0.314
422	0.314
423	0.314
423	0.313
424	0.313
424	0.313
425	0.313
425	0.312
426	0.312
426	0.312
427	0.311
427	0.311
427	0.31
428	0.31
428	0.31
429	0.309
429	0.309
430	0.309
430	0.309
431	0.308
431	0.308
432	0.308
432	0.308
432	0.308
433	0.308
433	0.308
434	0.308
434	0.307
435	0.307
435	0.307
436	0.307
436	0.307
437	0.307
437	0.307
437	0.306
438	0.306
438	0.306
439	0.306
439	0.306
440	0.305
440	0.305
441	0.305
441	0.304
442	0.304
442	0.304
442	0.304
443	0.304
443	0.303
444	0.303
444	0.303
445	0.303
445	0.303
446	0.303
446	0.303
447	0.303
447	0.303
447	0.303
448	0.303
448	0.303
449	0.303
449	0.303
450	0.303
450	0.303
451	0.303
451	0.303
452	0.303
452	0.303
452	0.303
453	0.303
453	0.302
454	0.302
454	0.302
455	0.302
455	0.302
456	0.302
456	0.302
457	0.302
457	0.302
458	0.302
458	0.302
458	0.302
459	0.302
459	0.302
460	0.302
460	0.302
461	0.302
461	0.302
462	0.303
462	0.303
463	0.303
463	0.303
463	0.303
464	0.303
464	0.303
465	0.303
465	0.303
466	0.303
466	0.303
467	0.304
467	0.304
467	0.304
468	0.304
468	0.304
469	0.305
469	0.306
470	0.306
470	0.307
471	0.307
471	0.307
472	0.308
472	0.308
472	0.308
473	0.309
473	0.309
474	0.31
474	0.309
475	0.31
475	0.31
476	0.311
476	0.311
477	0.312
477	0.312
477	0.313
478	0.313
478	0.314
479	0.315
479	0.316
480	0.316
480	0.317
481	0.318
481	0.318
482	0.319
482	0.32
482	0.321
483	0.322
483	0.323
484	0.324
484	0.324
485	0.324
485	0.325
486	0.325
486	0.326
487	0.327
487	0.328
487	0.329
488	0.329
488	0.33
489	0.331
489	0.333
490	0.334
490	0.336
491	0.337
491	0.339
492	0.34
492	0.341
492	0.343
493	0.344
493	0.346
494	0.347
494	0.349
495	0.35
495	0.351
496	0.353
496	0.354
496	0.355
497	0.357
497	0.358
498	0.359
498	0.36
499	0.362
499	0.363
500	0.365
500	0.367
501	0.368
501	0.369
501	0.37
502	0.372
502	0.373
503	0.375
503	0.376
504	0.377
504	0.379
505	0.38
505	0.381
506	0.382
506	0.383
506	0.385
507	0.386
507	0.387
508	0.388
508	0.389
509	0.39
509	0.392
510	0.393
510	0.394
511	0.395
511	0.396
511	0.397
512	0.399
512	0.4
513	0.401
513	0.402
514	0.403
514	0.403
515	0.404
515	0.405
515	0.405
516	0.406
516	0.407
517	0.407
517	0.408
518	0.408
518	0.408
519	0.409
519	0.409
520	0.409
520	0.409
520	0.41
521	0.41
521	0.41
522	0.41
522	0.41
523	0.41
523	0.41
524	0.409
524	0.409
524	0.409
525	0.409
525	0.408
526	0.407
526	0.407
527	0.406
527	0.406
528	0.405
528	0.404
529	0.403
529	0.402
529	0.401
530	0.4
530	0.399
531	0.398
531	0.397
532	0.396
532	0.394
533	0.393
533	0.391
533	0.39
534	0.389
534	0.387
535	0.385
535	0.384
536	0.382
536	0.38
537	0.378
537	0.377
538	0.375
538	0.373
538	0.371
539	0.369
539	0.368
540	0.366
540	0.364
541	0.362
541	0.36
542	0.359
542	0.357
542	0.354
543	0.353
543	0.35
544	0.348
544	0.346
545	0.344
545	0.342
546	0.34
546	0.338
547	0.336
547	0.334
547	0.331
548	0.329
548	0.327
549	0.325
549	0.323
550	0.321
550	0.318
551	0.316
551	0.313
551	0.311
552	0.309
552	0.307
553	0.304
553	0.302
554	0.3
554	0.298
555	0.295
555	0.293
556	0.291
556	0.289
556	0.287
557	0.285
557	0.284
558	0.282
558	0.28
559	0.279
559	0.276
560	0.275
560	0.273
560	0.272
561	0.27
561	0.268
562	0.266
562	0.264
563	0.261
563	0.259
564	0.257
564	0.255
564	0.253
565	0.251
565	0.249
566	0.247
566	0.245
567	0.244
567	0.242
568	0.241
568	0.239
568	0.238
569	0.236
569	0.234
570	0.233
570	0.231
571	0.229
571	0.228
572	0.226
572	0.225
573	0.223
573	0.222
573	0.22
574	0.219
574	0.218
575	0.217
575	0.216
576	0.214
576	0.213
577	0.211
577	0.21
577	0.209
578	0.208
578	0.207
579	0.206
579	0.205
580	0.203
580	0.202
581	0.2
581	0.199
581	0.198
582	0.198
582	0.197
583	0.196
583	0.195
584	0.193
584	0.191
585	0.19
585	0.189
585	0.187
586	0.187
586	0.186
587	0.185
587	0.184
588	0.183
588	0.182
589	0.181
589	0.181
590	0.18
590	0.179
590	0.179
591	0.178
591	0.177
592	0.175
592	0.174
593	0.173
593	0.172
594	0.171
594	0.169
594	0.168
595	0.167
595	0.166
596	0.165
596	0.165
597	0.165
597	0.165
598	0.164
598	0.164
598	0.163
599	0.163
599	0.162
600	0.162
600	0.161
601	0.16
601	0.16
602	0.159
602	0.158
602	0.157
603	0.156
603	0.155
604	0.155
604	0.154
605	0.154
605	0.154
606	0.153
606	0.152
606	0.151
607	0.151
607	0.15
608	0.15
608	0.149
609	0.148
609	0.148
610	0.147
610	0.146
610	0.146
611	0.146
611	0.146
612	0.145
612	0.145
613	0.145
613	0.144
614	0.144
614	0.143
614	0.143
615	0.142
615	0.142
616	0.141
616	0.141
617	0.141
617	0.14
618	0.14
618	0.14
618	0.14
619	0.14
619	0.14
620	0.139
620	0.139
621	0.138
621	0.138
622	0.137
622	0.137
622	0.136
623	0.135
623	0.135
624	0.134
624	0.133
625	0.133
625	0.132
626	0.132
626	0.132
626	0.131
627	0.131
627	0.13
628	0.13
628	0.129
629	0.129
629	0.128
630	0.128
630	0.127
630	0.127
631	0.127
631	0.127
632	0.127
632	0.126
633	0.126
633	0.126
634	0.127
634	0.127
634	0.127
635	0.127
635	0.126
636	0.126
636	0.126
637	0.125
637	0.124
638	0.124
638	0.124
638	0.123
639	0.122
639	0.121
640	0.121
640	0.121
641	0.12
641	0.12
642	0.12
642	0.12
642	0.12
643	0.12
643	0.12
644	0.12
644	0.12
645	0.12
645	0.12
646	0.12
646	0.12
646	0.12
647	0.12
647	0.12
648	0.119
648	0.119
649	0.119
649	0.118
650	0.118
650	0.118
650	0.118
651	0.118
651	0.118
652	0.118
652	0.118
653	0.118
653	0.119
653	0.124
654	0.099
654	0.081
655	0.079
655	0.079
656	0.079
656	0.079
657	0.079
657	0.08
657	0.08
658	0.078
658	0.071
659	0.088
659	0.111
660	0.116
660	0.116
661	0.115
661	0.114
661	0.114
662	0.113
662	0.112
663	0.112
663	0.111
664	0.111
664	0.11
665	0.11
665	0.11
665	0.109
666	0.11
666	0.109
667	0.11
667	0.11
668	0.11
668	0.11
669	0.11
669	0.11
669	0.111
670	0.111
670	0.111
671	0.111
671	0.111
672	0.111
672	0.11
672	0.11
673	0.109
673	0.109
674	0.108
674	0.108
675	0.108
675	0.108
676	0.108
676	0.108
676	0.109
677	0.109
677	0.109
678	0.109
678	0.109
679	0.109
679	0.108
680	0.108
680	0.108
680	0.107
681	0.107
681	0.107
682	0.107
682	0.107
683	0.107
683	0.107
684	0.108
684	0.107
684	0.107
685	0.107
685	0.107
686	0.107
686	0.107
687	0.107
687	0.107
687	0.107
688	0.107
688	0.107
689	0.108
689	0.108
690	0.108
690	0.108
691	0.108
691	0.108
691	0.108
692	0.108
692	0.108
693	0.108
693	0.108
694	0.107
694	0.107
695	0.107
695	0.108
695	0.108
696	0.108
696	0.108
697	0.107
697	0.107
698	0.107
698	0.106
698	0.106
699	0.106
699	0.106
700	0.105
700	0.105
701	0.104
701	0.104
702	0.103
702	0.103
702	0.103
703	0.103
703	0.102
704	0.102
704	0.102
705	0.102
705	0.102
705	0.102
706	0.102
706	0.102
707	0.102
707	0.102
708	0.102
708	0.102
709	0.102
709	0.101
709	0.1
710	0.1
710	0.1
711	0.1
711	0.1
712	0.099
712	0.099
713	0.099
713	0.099
713	0.099
714	0.098
714	0.098
715	0.098
715	0.098
716	0.097
716	0.097
716	0.096
717	0.096
717	0.095
718	0.095
718	0.095
719	0.095
719	0.095
720	0.095
720	0.096
720	0.096
721	0.096
721	0.097
722	0.098
722	0.098
723	0.098
723	0.098
723	0.098
724	0.097
724	0.097
725	0.095
725	0.094
726	0.094
726	0.093
727	0.092
727	0.092
727	0.092
728	0.091
728	0.091
729	0.092
729	0.092
730	0.093
730	0.093
730	0.094
731	0.094
731	0.095
732	0.095
732	0.095
733	0.095
733	0.095
734	0.095
734	0.094
734	0.094
735	0.094
735	0.093
736	0.093
736	0.092
737	0.091
737	0.091
737	0.091
738	0.09
738	0.089
739	0.089
739	0.088
740	0.088
740	0.088
741	0.088
741	0.088
741	0.088
742	0.088
742	0.089
743	0.09
743	0.09
744	0.09
744	0.09
744	0.09
745	0.09
745	0.089
746	0.089
746	0.089
747	0.089
747	0.089
748	0.089
748	0.089
748	0.089
749	0.089
749	0.089
750	0.089
750	0.089
751	0.089
751	0.089
751	0.089
752	0.089
752	0.088
753	0.088
753	0.087
754	0.087
754	0.086
754	0.086
755	0.086
755	0.086
756	0.085
756	0.083
757	0.083
757	0.083
758	0.083
758	0.082
758	0.082
759	0.082
759	0.081
760	0.081
760	0.081
761	0.081
761	0.081
761	0.081
762	0.081
762	0.081
763	0.081
763	0.081
764	0.081
764	0.081
764	0.081
765	0.08
765	0.08
766	0.08
766	0.079
767	0.079
767	0.078
768	0.078
768	0.078
768	0.078
769	0.078
769	0.078
770	0.079
770	0.079
771	0.079
771	0.079
771	0.079
772	0.079
772	0.079
773	0.079
773	0.079
774	0.078
774	0.079
775	0.079
775	0.079
775	0.079
776	0.079
776	0.079
777	0.079
777	0.079
778	0.079
778	0.079
778	0.078
779	0.078
779	0.077
780	0.076
780	0.076
781	0.075
781	0.075
781	0.074
782	0.074
782	0.074
783	0.074
783	0.075
784	0.074
784	0.075
784	0.075
785	0.076
785	0.076
786	0.076
786	0.076
787	0.076
787	0.076
788	0.076
788	0.075
788	0.074
789	0.074
789	0.073
790	0.073
790	0.072
791	0.071
791	0.07
791	0.07
792	0.07
792	0.07
793	0.069
793	0.069
794	0.068
794	0.068
794	0.067
795	0.067
795	0.068
796	0.068
796	0.068
797	0.067
797	0.067
797	0.068
798	0.068
798	0.069
799	0.069
799	0.069
800	0.068
800	0.068
801	0.067
801	0.067
801	0.067
802	0.067
802	0.066
803	0.067
803	0.067
804	0.067
804	0.068
804	0.068
805	0.068
805	0.068
806	0.068
806	0.068
807	0.068
807	0.068
807	0.068
808	0.068
808	0.068
809	0.068
809	0.068
810	0.068
810	0.067
810	0.067
811	0.067
811	0.067
812	0.068
812	0.067
813	0.067
813	0.068
813	0.068
814	0.068
814	0.068
815	0.068
815	0.068
816	0.068
816	0.067
817	0.067
817	0.066
817	0.066
818	0.066
818	0.066
819	0.065
819	0.064
820	0.064
820	0.063
820	0.063
821	0.063
821	0.063
822	0.062
822	0.062
823	0.063
823	0.062
823	0.063
824	0.064
824	0.065
825	0.066
825	0.067
826	0.067
826	0.068
826	0.068
827	0.069
827	0.069
828	0.069
828	0.068
829	0.068
829	0.068
829	0.068
830	0.068
830	0.068
831	0.069
831	0.069
832	0.07
832	0.07
832	0.07
833	0.069
833	0.069
834	0.068
834	0.067
835	0.066
835	0.065
835	0.064
836	0.063
836	0.062
837	0.062
837	0.061
838	0.061
838	0.06
839	0.06
839	0.06
839	0.059
840	0.059
840	0.058
841	0.058
841	0.057
842	0.057
842	0.056
842	0.056
843	0.056
843	0.056
844	0.056
844	0.057
845	0.057
845	0.057
845	0.058
846	0.058
846	0.059
847	0.059
847	0.059
848	0.059
848	0.059
848	0.059
849	0.058
849	0.058
850	0.057
850	0.057
851	0.056
851	0.056
851	0.056
852	0.055
852	0.055
853	0.055
853	0.055
854	0.055
854	0.056
854	0.056
855	0.057
855	0.058
856	0.058
856	0.059
857	0.06
857	0.06
857	0.061
858	0.061
858	0.061
859	0.06
859	0.06
860	0.059
860	0.058
860	0.057
861	0.057
861	0.056
862	0.055
862	0.054
863	0.054
863	0.053
863	0.053
864	0.053
864	0.053
865	0.053
865	0.053
866	0.053
866	0.053
866	0.053
867	0.053
867	0.053
868	0.053
868	0.053
869	0.052
869	0.052
869	0.051
870	0.05
870	0.05
871	0.05
871	0.05
872	0.049
872	0.049
872	0.049
873	0.049
873	0.049
874	0.049
874	0.049
875	0.049
875	0.049
875	0.049
876	0.049
876	0.048
877	0.048
877	0.048
878	0.048
878	0.049
878	0.049
879	0.05
879	0.05
880	0.05
880	0.05
881	0.05
881	0.05
881	0.05
882	0.05
882	0.05
883	0.05
883	0.049
884	0.049
884	0.049
884	0.05
885	0.05
885	0.05
886	0.05
886	0.05
887	0.049
887	0.049
887	0.049
888	0.048
888	0.048
889	0.048
889	0.048
890	0.048
890	0.048
890	0.047
891	0.047
891	0.047
892	0.047
892	0.047
893	0.047
893	0.047
893	0.046
894	0.046
894	0.046
895	0.045
895	0.045
895	0.045
896	0.045
896	0.045
897	0.045
897	0.044
898	0.044
898	0.044
898	0.044
899	0.043
899	0.043
900	0.043
900	0.043
901	0.043
901	0.043
901	0.043
902	0.043
902	0.042
903	0.042
903	0.042
904	0.043
904	0.042
904	0.042
905	0.043
905	0.043
906	0.043
906	0.044
907	0.044
907	0.045
907	0.046
908	0.046
908	0.047
909	0.047
909	0.048
910	0.048
910	0.049
910	0.049
911	0.049
911	0.049
912	0.049
912	0.049
913	0.049
913	0.049
913	0.049
914	0.049
914	0.049
915	0.049
915	0.048
916	0.048
916	0.048
916	0.047
917	0.047
917	0.046
918	0.046
918	0.045
918	0.045
919	0.044
919	0.044
920	0.044
920	0.043
921	0.043
921	0.043
921	0.043
922	0.043
922	0.044
923	0.044
923	0.045
924	0.045
924	0.045
924	0.046
925	0.046
925	0.046
926	0.046
926	0.046
927	0.046
927	0.045
927	0.045
928	0.045
928	0.045
929	0.045
929	0.045
930	0.045
930	0.045
930	0.045
931	0.046
931	0.046
932	0.047
932	0.047
933	0.047
933	0.047
933	0.047
934	0.047
934	0.047
935	0.047
935	0.047
935	0.047
936	0.047
936	0.046
937	0.046
937	0.046
938	0.045
938	0.045
938	0.044
939	0.044
939	0.043
940	0.043
940	0.042
941	0.042
941	0.042
941	0.042
942	0.041
942	0.041
943	0.041
943	0.042
944	0.042
944	0.042
944	0.043
945	0.043
945	0.044
946	0.044
946	0.044
946	0.045
947	0.045
947	0.045
948	0.046
948	0.046
949	0.046
949	0.046
949	0.046
950	0.046
950	0.046
951	0.046
951	0.045
952	0.045
952	0.044
952	0.044
953	0.043
953	0.042
954	0.041
954	0.041
955	0.04
955	0.04
955	0.039
956	0.039
956	0.039
957	0.039
957	0.039
957	0.039
958	0.04
958	0.04
959	0.04
959	0.04
960	0.041
960	0.041
960	0.041
961	0.041
961	0.041
962	0.041
962	0.041
963	0.041
963	0.041
963	0.041
964	0.041
964	0.041
965	0.041
965	0.041
966	0.042
966	0.042
966	0.043
967	0.044
967	0.044
968	0.045
968	0.045
968	0.045
969	0.046
969	0.046
970	0.045
970	0.045
971	0.045
971	0.044
971	0.043
972	0.043
972	0.042
973	0.042
973	0.042
974	0.041
974	0.041
974	0.041
975	0.041
975	0.041
976	0.041
976	0.041
976	0.041
977	0.041
977	0.041
978	0.041
978	0.041
979	0.041
979	0.041
979	0.041
980	0.041
980	0.041
981	0.041
981	0.041
982	0.041
982	0.041
982	0.042
983	0.042
983	0.042
984	0.042
984	0.042
984	0.042
985	0.042
985	0.042
986	0.042
986	0.042
987	0.042
987	0.042
987	0.041
988	0.041
988	0.04
989	0.04
989	0.039
990	0.039
990	0.038
990	0.038
991	0.037
991	0.037
992	0.037
992	0.036
992	0.036
993	0.035
993	0.035
994	0.035
994	0.035
995	0.034
995	0.035
995	0.035
996	0.035
996	0.036
997	0.036
997	0.037
997	0.037
998	0.038
998	0.039
999	0.039
999	0.04
1000	0.04
1000	0.041
1000	0.041
1001	0.041
1001	0.041
1002	0.04
1002	0.04
1003	0.039
1003	0.038
1003	0.038
1004	0.037
1004	0.036
1005	0.035
1005	0.034
1005	0.033
1006	0.032
1006	0.032
1007	0.032
1007	0.032
1008	0.032
1008	0.032
1008	0.032
1009	0.032
1009	0.033
1010	0.033
1010	0.034
1010	0.034
1011	0.034
1011	0.035
1012	0.035
1012	0.035
1013	0.035
1013	0.035
1013	0.035
1014	0.034
1014	0.034
1015	0.034
1015	0.034
1016	0.033
1016	0.033
1016	0.033
1017	0.032
1017	0.032
1018	0.032
1018	0.031
1018	0.031
1019	0.031
1019	0.031
1020	0.031
1020	0.031
1021	0.031
1021	0.031
1021	0.031
1022	0.031
1022	0.031
1023	0.031
1023	0.031
1023	0.031
1024	0.031
1024	0.031
1025	0.031
1025	0.032
1026	0.032
1026	0.032
1026	0.032
1027	0.032
1027	0.032
1028	0.032
1028	0.032
1028	0.032
1029	0.033
1029	0.033
1030	0.033
1030	0.033
1031	0.034
1031	0.034
1031	0.034
1032	0.034
1032	0.034
1033	0.035
1033	0.035
1033	0.035
1034	0.035
1034	0.034
1035	0.034
1035	0.034
1036	0.033
1036	0.033
1036	0.032
1037	0.032
1037	0.031
1038	0.031
1038	0.031
1039	0.031
1039	0.03
1039	0.03
1040	0.03
1040	0.031
1041	0.031
1041	0.031
1041	0.031
1042	0.031
1042	0.032
1043	0.032
1043	0.033
1044	0.033
1044	0.034
1044	0.034
1045	0.035
1045	0.035
1046	0.036
1046	0.036
1046	0.037
1047	0.037
1047	0.038
1048	0.038
1048	0.038
1049	0.039
1049	0.039
1049	0.039
1050	0.039
1050	0.039
1051	0.039
1051	0.039
1051	0.039
1052	0.038
1052	0.038
1053	0.037
1053	0.036
1053	0.036
1054	0.035
1054	0.035
1055	0.034
1055	0.034
1056	0.033
1056	0.033
1056	0.032
1057	0.032
1057	0.031
1058	0.031
1058	0.03
1058	0.029
1059	0.028
1059	0.028
1060	0.028
1060	0.027
1061	0.027
1061	0.027
1061	0.027
1062	0.027
1062	0.027
1063	0.027
1063	0.027
1063	0.027
1064	0.027
1064	0.027
1065	0.027
1065	0.027
1066	0.026
1066	0.026
1066	0.026
1067	0.026
1067	0.027
1068	0.026
1068	0.026
1068	0.026
1069	0.026
1069	0.026
1070	0.026
1070	0.026
1071	0.026
1071	0.026
1071	0.025
1072	0.025
1072	0.025
1073	0.025
1073	0.024
1073	0.024
1074	0.024
1074	0.025
1075	0.025
1075	0.025
1076	0.026
1076	0.026
1076	0.026
1077	0.027
1077	0.026
1078	0.026
1078	0.027
1078	0.027
1079	0.026
1079	0.027
1080	0.026
1080	0.026
1080	0.025
1081	0.025
1081	0.025
1082	0.026
1082	0.026
1083	0.026
1083	0.026
1083	0.026
1084	0.026
1084	0.027
1085	0.027
1085	0.027
1085	0.027
1086	0.027
1086	0.027
1087	0.027
1087	0.026
1088	0.026
1088	0.025
1088	0.025
1089	0.024
1089	0.023
1090	0.023
1090	0.022
1090	0.021
1091	0.021
1091	0.02
1092	0.02
1092	0.021
1092	0.02
1093	0.02
1093	0.021
1094	0.021
1094	0.02
1095	0.02
1095	0.02
1095	0.02
1096	0.019
1096	0.019
1097	0.018
1097	0.018
1097	0.018
1098	0.018
1098	0.017
1099	0.017
1099	0.017
1100	0.016
1100	0.015
1100	0.015
1101	0.015
1101	0.015
1102	0.014
1102	0.013
1102	0.012
1103	0.012
1103	0.012
1104	0.011
1104	0.011
1104	0.011
1105	0.011
1105	0.009
1106	0.008
1106	0.007
1107	0.007
1107	0.007
1107	0.006
1108	0.004
1108	0.003
1109	0.002
1109	0.001
1109	0.001
1110	0.002
1110	0.002
1111	0.002
1111	-0
