Data from reversibility-20sec_Absorbance__6169__000000000006169.txt Node

Date: Wed Dec 06 22:29:26 CET 2023
User: Marek
Spectrometer: MAYP115816
Trigger mode: 0
Integration Time (sec): 2.000000E-1
Scans to average: 10
Electric dark correction enabled: true
Nonlinearity correction enabled: true
Boxcar width: 5
XAxis mode: Wavelengths
Number of Pixels in Spectrum: 2068
>>>>>Begin Spectral Data<<<<<
199	-0.153
199	-0.123
200	-0.054
200	0
201	0.029
201	0.046
202	0.06
202	0.069
203	0.077
203	0.081
204	0.099
204	0.113
205	0.127
205	0.132
205	0.131
206	0.133
206	0.132
207	0.134
207	0.133
208	0.131
208	0.134
209	0.133
209	0.131
210	0.134
210	0.134
211	0.137
211	0.138
212	0.136
212	0.135
213	0.14
213	0.14
213	0.139
214	0.143
214	0.145
215	0.144
215	0.144
216	0.142
216	0.14
217	0.144
217	0.144
218	0.142
218	0.146
219	0.151
219	0.152
220	0.152
220	0.152
221	0.156
221	0.159
221	0.16
222	0.166
222	0.172
223	0.179
223	0.182
224	0.184
224	0.187
225	0.198
225	0.208
226	0.215
226	0.225
227	0.239
227	0.249
228	0.264
228	0.277
229	0.293
229	0.318
229	0.343
230	0.368
230	0.397
231	0.428
231	0.466
232	0.501
232	0.543
233	0.588
233	0.638
234	0.694
234	0.745
235	0.796
235	0.847
236	0.897
236	0.95
236	1
237	1.055
237	1.104
238	1.147
238	1.194
239	1.24
239	1.283
240	1.323
240	1.359
241	1.395
241	1.428
242	1.46
242	1.491
243	1.521
243	1.549
243	1.572
244	1.592
244	1.612
245	1.631
245	1.653
246	1.674
246	1.691
247	1.704
247	1.716
248	1.728
248	1.742
249	1.75
249	1.755
250	1.763
250	1.77
250	1.772
251	1.774
251	1.776
252	1.779
252	1.778
253	1.777
253	1.774
254	1.773
254	1.774
255	1.772
255	1.773
256	1.771
256	1.771
257	1.769
257	1.768
258	1.769
258	1.77
258	1.771
259	1.771
259	1.772
260	1.771
260	1.771
261	1.772
261	1.776
262	1.78
262	1.78
263	1.783
263	1.785
264	1.786
264	1.789
265	1.79
265	1.793
265	1.794
266	1.794
266	1.794
267	1.791
267	1.794
268	1.792
268	1.793
269	1.795
269	1.793
270	1.792
270	1.79
271	1.786
271	1.785
272	1.782
272	1.78
272	1.775
273	1.77
273	1.763
274	1.755
274	1.748
275	1.739
275	1.732
276	1.724
276	1.717
277	1.708
277	1.698
278	1.686
278	1.674
278	1.658
279	1.64
279	1.619
280	1.592
280	1.559
281	1.52
281	1.477
282	1.432
282	1.388
283	1.343
283	1.3
284	1.259
284	1.219
285	1.183
285	1.149
285	1.119
286	1.094
286	1.072
287	1.053
287	1.036
288	1.022
288	1.01
289	1
289	0.991
290	0.984
290	0.977
291	0.971
291	0.966
292	0.961
292	0.957
292	0.953
293	0.95
293	0.946
294	0.943
294	0.94
295	0.937
295	0.934
296	0.931
296	0.929
297	0.926
297	0.923
298	0.92
298	0.918
298	0.915
299	0.912
299	0.91
300	0.907
300	0.904
301	0.902
301	0.9
302	0.897
302	0.895
303	0.893
303	0.891
304	0.889
304	0.886
305	0.884
305	0.882
305	0.88
306	0.878
306	0.875
307	0.873
307	0.871
308	0.868
308	0.866
309	0.863
309	0.86
310	0.858
310	0.855
311	0.852
311	0.849
311	0.846
312	0.843
312	0.839
313	0.836
313	0.832
314	0.829
314	0.825
315	0.821
315	0.816
316	0.812
316	0.807
317	0.803
317	0.798
318	0.794
318	0.788
318	0.783
319	0.778
319	0.773
320	0.768
320	0.762
321	0.756
321	0.75
322	0.744
322	0.738
323	0.731
323	0.725
324	0.718
324	0.712
324	0.705
325	0.698
325	0.691
326	0.684
326	0.678
327	0.671
327	0.664
328	0.657
328	0.65
329	0.643
329	0.636
330	0.629
330	0.622
330	0.615
331	0.608
331	0.601
332	0.594
332	0.587
333	0.58
333	0.573
334	0.566
334	0.56
335	0.553
335	0.546
336	0.54
336	0.533
336	0.527
337	0.52
337	0.514
338	0.508
338	0.502
339	0.496
339	0.49
340	0.484
340	0.478
341	0.473
341	0.467
342	0.462
342	0.456
342	0.451
343	0.446
343	0.441
344	0.435
344	0.431
345	0.426
345	0.421
346	0.417
346	0.412
347	0.408
347	0.404
348	0.4
348	0.396
348	0.392
349	0.389
349	0.385
350	0.382
350	0.378
351	0.375
351	0.372
352	0.368
352	0.366
353	0.363
353	0.36
354	0.357
354	0.354
354	0.351
355	0.348
355	0.345
356	0.343
356	0.34
357	0.337
357	0.334
358	0.332
358	0.329
359	0.327
359	0.325
360	0.323
360	0.321
360	0.319
361	0.317
361	0.315
362	0.314
362	0.313
363	0.311
363	0.309
364	0.307
364	0.306
365	0.304
365	0.302
366	0.3
366	0.299
366	0.297
367	0.295
367	0.294
368	0.292
368	0.291
369	0.289
369	0.288
370	0.287
370	0.285
371	0.284
371	0.283
372	0.282
372	0.281
372	0.28
373	0.278
373	0.278
374	0.277
374	0.275
375	0.275
375	0.274
376	0.273
376	0.272
377	0.271
377	0.271
378	0.27
378	0.269
378	0.268
379	0.268
379	0.267
380	0.266
380	0.266
381	0.265
381	0.264
382	0.264
382	0.263
383	0.263
383	0.262
383	0.262
384	0.261
384	0.261
385	0.26
385	0.26
386	0.26
386	0.26
387	0.259
387	0.259
388	0.258
388	0.258
389	0.258
389	0.258
389	0.257
390	0.257
390	0.256
391	0.256
391	0.256
392	0.256
392	0.256
393	0.255
393	0.255
394	0.254
394	0.254
394	0.254
395	0.253
395	0.253
396	0.253
396	0.253
397	0.252
397	0.252
398	0.252
398	0.251
399	0.251
399	0.251
400	0.251
400	0.25
400	0.25
401	0.25
401	0.249
402	0.249
402	0.249
403	0.249
403	0.249
404	0.249
404	0.248
405	0.248
405	0.248
405	0.248
406	0.247
406	0.247
407	0.247
407	0.246
408	0.246
408	0.246
409	0.245
409	0.245
410	0.245
410	0.245
411	0.244
411	0.244
411	0.244
412	0.244
412	0.243
413	0.243
413	0.243
414	0.243
414	0.242
415	0.242
415	0.242
416	0.242
416	0.241
416	0.241
417	0.241
417	0.241
418	0.24
418	0.24
419	0.239
419	0.239
420	0.239
420	0.238
421	0.238
421	0.237
421	0.237
422	0.237
422	0.236
423	0.236
423	0.236
424	0.235
424	0.235
425	0.235
425	0.234
426	0.234
426	0.234
427	0.233
427	0.233
427	0.233
428	0.232
428	0.232
429	0.232
429	0.231
430	0.231
430	0.231
431	0.231
431	0.231
432	0.231
432	0.231
432	0.231
433	0.23
433	0.23
434	0.23
434	0.23
435	0.23
435	0.23
436	0.23
436	0.229
437	0.229
437	0.229
437	0.228
438	0.228
438	0.228
439	0.228
439	0.228
440	0.227
440	0.227
441	0.226
441	0.226
442	0.226
442	0.226
442	0.226
443	0.225
443	0.225
444	0.225
444	0.225
445	0.225
445	0.224
446	0.224
446	0.224
447	0.223
447	0.223
447	0.223
448	0.223
448	0.223
449	0.222
449	0.222
450	0.222
450	0.222
451	0.222
451	0.222
452	0.222
452	0.222
452	0.221
453	0.221
453	0.221
454	0.221
454	0.221
455	0.22
455	0.22
456	0.22
456	0.22
457	0.22
457	0.219
458	0.219
458	0.219
458	0.218
459	0.218
459	0.218
460	0.218
460	0.217
461	0.217
461	0.216
462	0.216
462	0.216
463	0.216
463	0.215
463	0.215
464	0.215
464	0.214
465	0.214
465	0.214
466	0.214
466	0.214
467	0.213
467	0.213
467	0.213
468	0.213
468	0.213
469	0.213
469	0.214
470	0.214
470	0.214
471	0.214
471	0.214
472	0.214
472	0.214
472	0.214
473	0.214
473	0.214
474	0.214
474	0.213
475	0.213
475	0.213
476	0.213
476	0.213
477	0.213
477	0.213
477	0.213
478	0.212
478	0.212
479	0.212
479	0.212
480	0.212
480	0.212
481	0.212
481	0.212
482	0.212
482	0.212
482	0.212
483	0.212
483	0.212
484	0.213
484	0.212
485	0.212
485	0.212
486	0.212
486	0.212
487	0.212
487	0.212
487	0.212
488	0.212
488	0.212
489	0.213
489	0.213
490	0.214
490	0.214
491	0.214
491	0.215
492	0.215
492	0.215
492	0.215
493	0.216
493	0.216
494	0.216
494	0.216
495	0.216
495	0.217
496	0.217
496	0.217
496	0.218
497	0.218
497	0.218
498	0.218
498	0.218
499	0.219
499	0.219
500	0.22
500	0.22
501	0.221
501	0.221
501	0.221
502	0.222
502	0.222
503	0.223
503	0.223
504	0.223
504	0.224
505	0.224
505	0.224
506	0.225
506	0.225
506	0.225
507	0.225
507	0.226
508	0.226
508	0.226
509	0.226
509	0.227
510	0.227
510	0.228
511	0.228
511	0.229
511	0.229
512	0.23
512	0.23
513	0.23
513	0.231
514	0.231
514	0.232
515	0.232
515	0.232
515	0.232
516	0.232
516	0.233
517	0.233
517	0.234
518	0.234
518	0.234
519	0.235
519	0.235
520	0.235
520	0.235
520	0.236
521	0.236
521	0.236
522	0.237
522	0.237
523	0.237
523	0.237
524	0.237
524	0.238
524	0.238
525	0.238
525	0.238
526	0.238
526	0.238
527	0.238
527	0.238
528	0.238
528	0.239
529	0.239
529	0.239
529	0.239
530	0.239
530	0.239
531	0.239
531	0.239
532	0.239
532	0.239
533	0.239
533	0.238
533	0.239
534	0.238
534	0.238
535	0.238
535	0.239
536	0.238
536	0.238
537	0.239
537	0.239
538	0.239
538	0.238
538	0.238
539	0.238
539	0.238
540	0.238
540	0.238
541	0.238
541	0.238
542	0.238
542	0.237
542	0.237
543	0.237
543	0.237
544	0.237
544	0.236
545	0.236
545	0.236
546	0.236
546	0.236
547	0.236
547	0.235
547	0.235
548	0.235
548	0.235
549	0.235
549	0.234
550	0.234
550	0.234
551	0.234
551	0.233
551	0.233
552	0.233
552	0.233
553	0.232
553	0.232
554	0.231
554	0.231
555	0.23
555	0.23
556	0.229
556	0.229
556	0.229
557	0.229
557	0.229
558	0.229
558	0.229
559	0.229
559	0.229
560	0.229
560	0.229
560	0.229
561	0.229
561	0.228
562	0.228
562	0.227
563	0.226
563	0.226
564	0.225
564	0.225
564	0.225
565	0.225
565	0.224
566	0.224
566	0.224
567	0.224
567	0.224
568	0.224
568	0.223
568	0.223
569	0.223
569	0.222
570	0.222
570	0.221
571	0.221
571	0.22
572	0.22
572	0.219
573	0.219
573	0.218
573	0.218
574	0.218
574	0.218
575	0.218
575	0.218
576	0.218
576	0.217
577	0.216
577	0.216
577	0.216
578	0.215
578	0.215
579	0.215
579	0.215
580	0.215
580	0.214
581	0.213
581	0.213
581	0.214
582	0.214
582	0.214
583	0.214
583	0.214
584	0.213
584	0.212
585	0.212
585	0.212
585	0.212
586	0.211
586	0.21
587	0.21
587	0.209
588	0.208
588	0.208
589	0.207
589	0.207
590	0.207
590	0.207
590	0.208
591	0.208
591	0.208
592	0.208
592	0.207
593	0.207
593	0.207
594	0.207
594	0.206
594	0.206
595	0.205
595	0.205
596	0.204
596	0.205
597	0.205
597	0.205
598	0.205
598	0.205
598	0.205
599	0.205
599	0.204
600	0.204
600	0.203
601	0.203
601	0.203
602	0.202
602	0.202
602	0.201
603	0.201
603	0.201
604	0.201
604	0.201
605	0.201
605	0.201
606	0.201
606	0.2
606	0.2
607	0.2
607	0.2
608	0.2
608	0.199
609	0.199
609	0.199
610	0.199
610	0.198
610	0.198
611	0.198
611	0.198
612	0.198
612	0.199
613	0.199
613	0.198
614	0.198
614	0.198
614	0.198
615	0.198
615	0.198
616	0.198
616	0.197
617	0.198
617	0.197
618	0.197
618	0.197
618	0.198
619	0.198
619	0.198
620	0.199
620	0.199
621	0.198
621	0.198
622	0.197
622	0.197
622	0.196
623	0.195
623	0.195
624	0.195
624	0.194
625	0.193
625	0.193
626	0.192
626	0.192
626	0.192
627	0.192
627	0.192
628	0.192
628	0.191
629	0.191
629	0.191
630	0.191
630	0.191
630	0.191
631	0.191
631	0.19
632	0.19
632	0.19
633	0.19
633	0.19
634	0.19
634	0.191
634	0.191
635	0.191
635	0.19
636	0.19
636	0.191
637	0.19
637	0.19
638	0.19
638	0.19
638	0.189
639	0.189
639	0.189
640	0.189
640	0.189
641	0.189
641	0.189
642	0.188
642	0.189
642	0.189
643	0.189
643	0.189
644	0.189
644	0.189
645	0.189
645	0.189
646	0.189
646	0.189
646	0.189
647	0.188
647	0.188
648	0.187
648	0.187
649	0.186
649	0.186
650	0.186
650	0.186
650	0.186
651	0.186
651	0.186
652	0.187
652	0.187
653	0.187
653	0.189
653	0.195
654	0.153
654	0.123
655	0.123
655	0.124
656	0.124
656	0.124
657	0.125
657	0.125
657	0.125
658	0.124
658	0.114
659	0.143
659	0.184
660	0.189
660	0.189
661	0.189
661	0.189
661	0.189
662	0.188
662	0.188
663	0.188
663	0.187
664	0.187
664	0.187
665	0.187
665	0.186
665	0.186
666	0.186
666	0.186
667	0.186
667	0.187
668	0.187
668	0.187
669	0.187
669	0.188
669	0.189
670	0.189
670	0.189
671	0.189
671	0.189
672	0.189
672	0.189
672	0.188
673	0.188
673	0.188
674	0.187
674	0.187
675	0.186
675	0.186
676	0.186
676	0.186
676	0.186
677	0.186
677	0.186
678	0.186
678	0.186
679	0.186
679	0.186
680	0.186
680	0.186
680	0.186
681	0.187
681	0.187
682	0.187
682	0.188
683	0.188
683	0.189
684	0.189
684	0.188
684	0.188
685	0.188
685	0.188
686	0.188
686	0.188
687	0.187
687	0.187
687	0.187
688	0.187
688	0.187
689	0.187
689	0.188
690	0.188
690	0.188
691	0.188
691	0.188
691	0.188
692	0.188
692	0.188
693	0.189
693	0.189
694	0.189
694	0.188
695	0.189
695	0.19
695	0.19
696	0.19
696	0.19
697	0.19
697	0.189
698	0.189
698	0.189
698	0.189
699	0.189
699	0.188
700	0.188
700	0.188
701	0.189
701	0.189
702	0.189
702	0.19
702	0.19
703	0.19
703	0.19
704	0.19
704	0.191
705	0.191
705	0.191
705	0.191
706	0.191
706	0.191
707	0.191
707	0.191
708	0.191
708	0.191
709	0.191
709	0.191
709	0.191
710	0.191
710	0.191
711	0.192
711	0.192
712	0.192
712	0.192
713	0.192
713	0.192
713	0.192
714	0.192
714	0.192
715	0.191
715	0.191
716	0.191
716	0.19
716	0.19
717	0.189
717	0.189
718	0.188
718	0.188
719	0.189
719	0.189
720	0.189
720	0.19
720	0.19
721	0.19
721	0.191
722	0.192
722	0.192
723	0.193
723	0.193
723	0.193
724	0.194
724	0.193
725	0.193
725	0.193
726	0.192
726	0.192
727	0.191
727	0.191
727	0.191
728	0.19
728	0.19
729	0.191
729	0.191
730	0.191
730	0.191
730	0.192
731	0.193
731	0.193
732	0.194
732	0.195
733	0.195
733	0.195
734	0.195
734	0.196
734	0.196
735	0.196
735	0.196
736	0.196
736	0.196
737	0.196
737	0.196
737	0.196
738	0.195
738	0.194
739	0.194
739	0.194
740	0.193
740	0.193
741	0.193
741	0.193
741	0.193
742	0.193
742	0.194
743	0.195
743	0.195
744	0.196
744	0.197
744	0.198
745	0.198
745	0.198
746	0.199
746	0.199
747	0.199
747	0.199
748	0.198
748	0.198
748	0.198
749	0.198
749	0.198
750	0.197
750	0.197
751	0.197
751	0.197
751	0.197
752	0.196
752	0.196
753	0.196
753	0.195
754	0.195
754	0.195
754	0.195
755	0.195
755	0.195
756	0.195
756	0.194
757	0.194
757	0.194
758	0.194
758	0.194
758	0.195
759	0.195
759	0.195
760	0.195
760	0.195
761	0.196
761	0.196
761	0.197
762	0.197
762	0.197
763	0.197
763	0.197
764	0.197
764	0.197
764	0.197
765	0.196
765	0.196
766	0.196
766	0.196
767	0.196
767	0.195
768	0.194
768	0.194
768	0.194
769	0.195
769	0.195
770	0.195
770	0.196
771	0.197
771	0.197
771	0.198
772	0.199
772	0.2
773	0.201
773	0.201
774	0.202
774	0.202
775	0.203
775	0.203
775	0.203
776	0.203
776	0.204
777	0.204
777	0.204
778	0.204
778	0.204
778	0.204
779	0.204
779	0.204
780	0.203
780	0.203
781	0.202
781	0.202
781	0.202
782	0.202
782	0.202
783	0.203
783	0.203
784	0.203
784	0.204
784	0.204
785	0.205
785	0.205
786	0.206
786	0.206
787	0.206
787	0.206
788	0.205
788	0.204
788	0.203
789	0.203
789	0.202
790	0.202
790	0.202
791	0.202
791	0.201
791	0.201
792	0.202
792	0.203
793	0.203
793	0.203
794	0.203
794	0.204
794	0.204
795	0.204
795	0.205
796	0.205
796	0.205
797	0.205
797	0.205
797	0.206
798	0.206
798	0.206
799	0.206
799	0.206
800	0.205
800	0.205
801	0.205
801	0.205
801	0.205
802	0.205
802	0.205
803	0.205
803	0.206
804	0.206
804	0.207
804	0.207
805	0.207
805	0.207
806	0.207
806	0.207
807	0.206
807	0.206
807	0.206
808	0.206
808	0.205
809	0.205
809	0.205
810	0.206
810	0.206
810	0.206
811	0.206
811	0.207
812	0.208
812	0.208
813	0.209
813	0.21
813	0.21
814	0.211
814	0.212
815	0.212
815	0.212
816	0.213
816	0.212
817	0.212
817	0.212
817	0.211
818	0.211
818	0.211
819	0.21
819	0.21
820	0.209
820	0.209
820	0.209
821	0.209
821	0.209
822	0.209
822	0.21
823	0.21
823	0.21
823	0.21
824	0.211
824	0.212
825	0.213
825	0.214
826	0.214
826	0.214
826	0.214
827	0.215
827	0.215
828	0.215
828	0.215
829	0.216
829	0.216
829	0.216
830	0.217
830	0.217
831	0.218
831	0.219
832	0.218
832	0.219
832	0.219
833	0.218
833	0.218
834	0.218
834	0.217
835	0.217
835	0.216
835	0.216
836	0.216
836	0.216
837	0.215
837	0.215
838	0.215
838	0.215
839	0.214
839	0.213
839	0.213
840	0.212
840	0.211
841	0.21
841	0.209
842	0.208
842	0.207
842	0.206
843	0.206
843	0.205
844	0.205
844	0.205
845	0.204
845	0.204
845	0.204
846	0.204
846	0.204
847	0.205
847	0.205
848	0.206
848	0.206
848	0.207
849	0.207
849	0.208
850	0.209
850	0.209
851	0.21
851	0.21
851	0.21
852	0.209
852	0.209
853	0.209
853	0.209
854	0.209
854	0.209
854	0.209
855	0.21
855	0.21
856	0.21
856	0.211
857	0.212
857	0.213
857	0.213
858	0.214
858	0.214
859	0.213
859	0.213
860	0.213
860	0.212
860	0.211
861	0.211
861	0.21
862	0.209
862	0.208
863	0.207
863	0.207
863	0.206
864	0.206
864	0.206
865	0.207
865	0.207
866	0.207
866	0.207
866	0.207
867	0.208
867	0.209
868	0.21
868	0.21
869	0.21
869	0.21
869	0.21
870	0.21
870	0.21
871	0.21
871	0.21
872	0.21
872	0.21
872	0.209
873	0.209
873	0.209
874	0.208
874	0.208
875	0.207
875	0.207
875	0.207
876	0.206
876	0.206
877	0.206
877	0.206
878	0.206
878	0.206
878	0.206
879	0.207
879	0.207
880	0.207
880	0.208
881	0.208
881	0.208
881	0.208
882	0.208
882	0.209
883	0.209
883	0.209
884	0.209
884	0.209
884	0.209
885	0.208
885	0.208
886	0.207
886	0.207
887	0.206
887	0.205
887	0.205
888	0.204
888	0.203
889	0.203
889	0.202
890	0.202
890	0.202
890	0.202
891	0.201
891	0.201
892	0.201
892	0.201
893	0.201
893	0.201
893	0.201
894	0.201
894	0.201
895	0.201
895	0.201
895	0.201
896	0.201
896	0.202
897	0.201
897	0.201
898	0.201
898	0.201
898	0.2
899	0.199
899	0.199
900	0.198
900	0.197
901	0.196
901	0.196
901	0.195
902	0.195
902	0.194
903	0.194
903	0.193
904	0.193
904	0.193
904	0.193
905	0.192
905	0.192
906	0.192
906	0.192
907	0.193
907	0.193
907	0.193
908	0.193
908	0.193
909	0.193
909	0.193
910	0.193
910	0.192
910	0.192
911	0.192
911	0.192
912	0.191
912	0.191
913	0.191
913	0.191
913	0.191
914	0.191
914	0.191
915	0.191
915	0.191
916	0.192
916	0.191
916	0.191
917	0.191
917	0.19
918	0.19
918	0.189
918	0.188
919	0.188
919	0.187
920	0.186
920	0.186
921	0.185
921	0.185
921	0.184
922	0.184
922	0.184
923	0.184
923	0.185
924	0.185
924	0.185
924	0.186
925	0.186
925	0.187
926	0.187
926	0.188
927	0.188
927	0.189
927	0.189
928	0.189
928	0.189
929	0.189
929	0.189
930	0.189
930	0.188
930	0.188
931	0.187
931	0.187
932	0.186
932	0.185
933	0.185
933	0.184
933	0.183
934	0.183
934	0.182
935	0.182
935	0.182
935	0.181
936	0.181
936	0.18
937	0.18
937	0.18
938	0.18
938	0.179
938	0.179
939	0.178
939	0.178
940	0.178
940	0.178
941	0.177
941	0.177
941	0.177
942	0.177
942	0.177
943	0.177
943	0.177
944	0.177
944	0.177
944	0.177
945	0.177
945	0.177
946	0.177
946	0.177
946	0.177
947	0.177
947	0.177
948	0.177
948	0.176
949	0.176
949	0.175
949	0.175
950	0.174
950	0.174
951	0.173
951	0.172
952	0.172
952	0.171
952	0.171
953	0.171
953	0.17
954	0.17
954	0.17
955	0.17
955	0.17
955	0.17
956	0.17
956	0.17
957	0.17
957	0.17
957	0.169
958	0.169
958	0.169
959	0.168
959	0.168
960	0.168
960	0.167
960	0.167
961	0.167
961	0.166
962	0.166
962	0.166
963	0.166
963	0.166
963	0.166
964	0.167
964	0.167
965	0.167
965	0.167
966	0.167
966	0.167
966	0.167
967	0.166
967	0.166
968	0.166
968	0.165
968	0.164
969	0.163
969	0.163
970	0.162
970	0.161
971	0.16
971	0.16
971	0.159
972	0.159
972	0.158
973	0.158
973	0.157
974	0.157
974	0.157
974	0.158
975	0.158
975	0.158
976	0.159
976	0.159
976	0.16
977	0.16
977	0.16
978	0.16
978	0.159
979	0.159
979	0.159
979	0.158
980	0.158
980	0.158
981	0.157
981	0.156
982	0.156
982	0.156
982	0.156
983	0.156
983	0.156
984	0.156
984	0.156
984	0.155
985	0.155
985	0.155
986	0.155
986	0.155
987	0.155
987	0.155
987	0.154
988	0.154
988	0.154
989	0.153
989	0.153
990	0.152
990	0.152
990	0.151
991	0.151
991	0.15
992	0.149
992	0.148
992	0.147
993	0.146
993	0.145
994	0.144
994	0.143
995	0.142
995	0.141
995	0.141
996	0.141
996	0.141
997	0.141
997	0.142
997	0.142
998	0.142
998	0.143
999	0.144
999	0.145
1000	0.145
1000	0.146
1000	0.146
1001	0.146
1001	0.146
1002	0.146
1002	0.146
1003	0.146
1003	0.145
1003	0.144
1004	0.144
1004	0.143
1005	0.142
1005	0.141
1005	0.14
1006	0.139
1006	0.138
1007	0.138
1007	0.137
1008	0.137
1008	0.137
1008	0.137
1009	0.137
1009	0.138
1010	0.138
1010	0.138
1010	0.138
1011	0.139
1011	0.139
1012	0.139
1012	0.139
1013	0.138
1013	0.138
1013	0.138
1014	0.137
1014	0.136
1015	0.136
1015	0.136
1016	0.135
1016	0.135
1016	0.134
1017	0.134
1017	0.133
1018	0.133
1018	0.133
1018	0.132
1019	0.132
1019	0.131
1020	0.131
1020	0.131
1021	0.131
1021	0.131
1021	0.131
1022	0.132
1022	0.132
1023	0.132
1023	0.133
1023	0.133
1024	0.133
1024	0.134
1025	0.134
1025	0.134
1026	0.134
1026	0.134
1026	0.134
1027	0.134
1027	0.134
1028	0.134
1028	0.134
1028	0.134
1029	0.134
1029	0.134
1030	0.134
1030	0.134
1031	0.134
1031	0.134
1031	0.135
1032	0.135
1032	0.135
1033	0.135
1033	0.135
1033	0.135
1034	0.135
1034	0.135
1035	0.134
1035	0.134
1036	0.134
1036	0.134
1036	0.133
1037	0.133
1037	0.132
1038	0.132
1038	0.131
1039	0.131
1039	0.131
1039	0.131
1040	0.13
1040	0.13
1041	0.13
1041	0.13
1041	0.13
1042	0.129
1042	0.129
1043	0.129
1043	0.128
1044	0.128
1044	0.128
1044	0.128
1045	0.127
1045	0.127
1046	0.126
1046	0.126
1046	0.126
1047	0.126
1047	0.126
1048	0.126
1048	0.127
1049	0.127
1049	0.126
1049	0.126
1050	0.126
1050	0.126
1051	0.126
1051	0.126
1051	0.125
1052	0.125
1052	0.124
1053	0.123
1053	0.122
1053	0.121
1054	0.121
1054	0.12
1055	0.119
1055	0.119
1056	0.118
1056	0.117
1056	0.117
1057	0.116
1057	0.115
1058	0.114
1058	0.114
1058	0.113
1059	0.112
1059	0.112
1060	0.111
1060	0.11
1061	0.109
1061	0.109
1061	0.109
1062	0.108
1062	0.108
1063	0.108
1063	0.108
1063	0.108
1064	0.107
1064	0.107
1065	0.107
1065	0.107
1066	0.107
1066	0.106
1066	0.106
1067	0.105
1067	0.105
1068	0.104
1068	0.104
1068	0.104
1069	0.104
1069	0.103
1070	0.103
1070	0.102
1071	0.102
1071	0.102
1071	0.101
1072	0.101
1072	0.1
1073	0.099
1073	0.099
1073	0.099
1074	0.099
1074	0.1
1075	0.1
1075	0.1
1076	0.1
1076	0.101
1076	0.101
1077	0.101
1077	0.101
1078	0.1
1078	0.1
1078	0.099
1079	0.099
1079	0.098
1080	0.097
1080	0.097
1080	0.097
1081	0.096
1081	0.096
1082	0.096
1082	0.097
1083	0.097
1083	0.096
1083	0.097
1084	0.097
1084	0.097
1085	0.096
1085	0.096
1085	0.096
1086	0.097
1086	0.096
1087	0.096
1087	0.095
1088	0.095
1088	0.095
1088	0.095
1089	0.094
1089	0.094
1090	0.093
1090	0.092
1090	0.091
1091	0.09
1091	0.09
1092	0.09
1092	0.09
1092	0.09
1093	0.089
1093	0.089
1094	0.089
1094	0.088
1095	0.088
1095	0.088
1095	0.088
1096	0.088
1096	0.087
1097	0.086
1097	0.084
1097	0.083
1098	0.082
1098	0.081
1099	0.08
1099	0.078
1100	0.077
1100	0.075
1100	0.074
1101	0.073
1101	0.071
1102	0.071
1102	0.07
1102	0.069
1103	0.068
1103	0.068
1104	0.068
1104	0.068
1104	0.067
1105	0.066
1105	0.064
1106	0.063
1106	0.061
1107	0.06
1107	0.06
1107	0.059
1108	0.058
1108	0.057
1109	0.055
1109	0.055
1109	0.054
1110	0.056
1110	0.054
1111	0.056
1111	0.054
