Data from reversibility-20sec_Absorbance__2683__000000000002683.txt Node

Date: Wed Dec 06 03:07:26 CET 2023
User: Marek
Spectrometer: MAYP115816
Trigger mode: 0
Integration Time (sec): 2.000000E-1
Scans to average: 10
Electric dark correction enabled: true
Nonlinearity correction enabled: true
Boxcar width: 5
XAxis mode: Wavelengths
Number of Pixels in Spectrum: 2068
>>>>>Begin Spectral Data<<<<<
199	-0.164
199	-0.135
200	-0.064
200	-0.013
201	0.02
201	0.037
202	0.051
202	0.061
203	0.071
203	0.075
204	0.092
204	0.105
205	0.119
205	0.124
205	0.125
206	0.123
206	0.123
207	0.127
207	0.126
208	0.123
208	0.12
209	0.122
209	0.121
210	0.12
210	0.122
211	0.12
211	0.125
212	0.121
212	0.12
213	0.125
213	0.127
213	0.13
214	0.131
214	0.133
215	0.136
215	0.134
216	0.138
216	0.135
217	0.14
217	0.143
218	0.14
218	0.144
219	0.147
219	0.148
220	0.147
220	0.146
221	0.148
221	0.149
221	0.154
222	0.163
222	0.167
223	0.174
223	0.18
224	0.187
224	0.195
225	0.207
225	0.219
226	0.227
226	0.237
227	0.25
227	0.258
228	0.272
228	0.288
229	0.302
229	0.324
229	0.348
230	0.374
230	0.404
231	0.438
231	0.478
232	0.514
232	0.559
233	0.603
233	0.65
234	0.703
234	0.756
235	0.807
235	0.862
236	0.916
236	0.969
236	1.021
237	1.076
237	1.125
238	1.174
238	1.225
239	1.276
239	1.321
240	1.363
240	1.401
241	1.438
241	1.475
242	1.511
242	1.55
243	1.582
243	1.612
243	1.639
244	1.663
244	1.69
245	1.715
245	1.741
246	1.762
246	1.783
247	1.796
247	1.809
248	1.828
248	1.844
249	1.856
249	1.864
250	1.875
250	1.884
250	1.888
251	1.896
251	1.899
252	1.907
252	1.909
253	1.911
253	1.908
254	1.907
254	1.911
255	1.909
255	1.91
256	1.911
256	1.911
257	1.912
257	1.914
258	1.916
258	1.918
258	1.922
259	1.925
259	1.928
260	1.929
260	1.931
261	1.933
261	1.937
262	1.943
262	1.945
263	1.949
263	1.952
264	1.955
264	1.957
265	1.959
265	1.962
265	1.964
266	1.967
266	1.969
267	1.967
267	1.97
268	1.971
268	1.972
269	1.974
269	1.975
270	1.975
270	1.975
271	1.973
271	1.974
272	1.971
272	1.968
272	1.963
273	1.955
273	1.948
274	1.94
274	1.933
275	1.926
275	1.919
276	1.91
276	1.902
277	1.894
277	1.884
278	1.873
278	1.86
278	1.844
279	1.824
279	1.799
280	1.768
280	1.731
281	1.688
281	1.642
282	1.593
282	1.544
283	1.497
283	1.452
284	1.409
284	1.367
285	1.329
285	1.294
285	1.264
286	1.236
286	1.213
287	1.193
287	1.175
288	1.16
288	1.148
289	1.137
289	1.128
290	1.12
290	1.113
291	1.107
291	1.102
292	1.097
292	1.092
292	1.088
293	1.085
293	1.081
294	1.077
294	1.074
295	1.071
295	1.068
296	1.065
296	1.063
297	1.06
297	1.057
298	1.054
298	1.051
298	1.048
299	1.045
299	1.043
300	1.04
300	1.037
301	1.034
301	1.032
302	1.03
302	1.027
303	1.025
303	1.023
304	1.02
304	1.018
305	1.015
305	1.012
305	1.01
306	1.008
306	1.005
307	1.003
307	1
308	0.997
308	0.994
309	0.992
309	0.989
310	0.986
310	0.983
311	0.98
311	0.976
311	0.973
312	0.97
312	0.966
313	0.963
313	0.959
314	0.955
314	0.951
315	0.946
315	0.942
316	0.938
316	0.933
317	0.928
317	0.923
318	0.918
318	0.913
318	0.907
319	0.901
319	0.896
320	0.89
320	0.884
321	0.878
321	0.872
322	0.866
322	0.859
323	0.852
323	0.846
324	0.84
324	0.833
324	0.826
325	0.819
325	0.812
326	0.805
326	0.798
327	0.791
327	0.784
328	0.778
328	0.771
329	0.763
329	0.756
330	0.749
330	0.741
330	0.734
331	0.727
331	0.72
332	0.712
332	0.705
333	0.698
333	0.691
334	0.684
334	0.677
335	0.671
335	0.664
336	0.657
336	0.651
336	0.644
337	0.638
337	0.631
338	0.625
338	0.618
339	0.612
339	0.606
340	0.6
340	0.595
341	0.589
341	0.583
342	0.578
342	0.572
342	0.567
343	0.562
343	0.556
344	0.551
344	0.546
345	0.541
345	0.537
346	0.532
346	0.528
347	0.523
347	0.518
348	0.514
348	0.51
348	0.507
349	0.503
349	0.499
350	0.495
350	0.491
351	0.488
351	0.485
352	0.481
352	0.478
353	0.475
353	0.472
354	0.469
354	0.466
354	0.463
355	0.46
355	0.457
356	0.455
356	0.452
357	0.448
357	0.446
358	0.443
358	0.44
359	0.438
359	0.436
360	0.433
360	0.431
360	0.429
361	0.427
361	0.425
362	0.424
362	0.422
363	0.42
363	0.418
364	0.416
364	0.414
365	0.412
365	0.41
366	0.409
366	0.407
366	0.405
367	0.403
367	0.401
368	0.399
368	0.398
369	0.396
369	0.395
370	0.393
370	0.392
371	0.39
371	0.389
372	0.387
372	0.386
372	0.385
373	0.384
373	0.383
374	0.382
374	0.381
375	0.38
375	0.378
376	0.377
376	0.376
377	0.375
377	0.374
378	0.373
378	0.372
378	0.37
379	0.369
379	0.369
380	0.368
380	0.367
381	0.366
381	0.365
382	0.365
382	0.364
383	0.363
383	0.363
383	0.362
384	0.361
384	0.361
385	0.36
385	0.359
386	0.358
386	0.358
387	0.357
387	0.357
388	0.356
388	0.355
389	0.355
389	0.354
389	0.354
390	0.354
390	0.353
391	0.352
391	0.352
392	0.351
392	0.351
393	0.35
393	0.35
394	0.35
394	0.349
394	0.349
395	0.348
395	0.348
396	0.347
396	0.347
397	0.346
397	0.345
398	0.345
398	0.345
399	0.344
399	0.344
400	0.343
400	0.342
400	0.342
401	0.341
401	0.341
402	0.341
402	0.34
403	0.34
403	0.339
404	0.339
404	0.339
405	0.338
405	0.338
405	0.337
406	0.337
406	0.336
407	0.336
407	0.335
408	0.335
408	0.334
409	0.334
409	0.334
410	0.333
410	0.333
411	0.333
411	0.332
411	0.332
412	0.332
412	0.332
413	0.331
413	0.331
414	0.331
414	0.33
415	0.33
415	0.33
416	0.329
416	0.329
416	0.328
417	0.328
417	0.328
418	0.328
418	0.327
419	0.327
419	0.326
420	0.326
420	0.325
421	0.325
421	0.325
421	0.324
422	0.324
422	0.323
423	0.323
423	0.322
424	0.322
424	0.322
425	0.321
425	0.321
426	0.32
426	0.32
427	0.32
427	0.319
427	0.319
428	0.319
428	0.318
429	0.318
429	0.318
430	0.318
430	0.318
431	0.317
431	0.317
432	0.317
432	0.317
432	0.317
433	0.316
433	0.316
434	0.316
434	0.316
435	0.316
435	0.315
436	0.315
436	0.315
437	0.315
437	0.315
437	0.314
438	0.314
438	0.314
439	0.314
439	0.314
440	0.313
440	0.313
441	0.313
441	0.312
442	0.312
442	0.312
442	0.312
443	0.311
443	0.311
444	0.311
444	0.311
445	0.311
445	0.31
446	0.31
446	0.31
447	0.31
447	0.309
447	0.309
448	0.309
448	0.309
449	0.309
449	0.309
450	0.308
450	0.308
451	0.308
451	0.308
452	0.308
452	0.308
452	0.308
453	0.308
453	0.307
454	0.307
454	0.307
455	0.307
455	0.307
456	0.307
456	0.307
457	0.306
457	0.306
458	0.306
458	0.306
458	0.306
459	0.306
459	0.306
460	0.306
460	0.306
461	0.306
461	0.306
462	0.306
462	0.306
463	0.305
463	0.305
463	0.305
464	0.305
464	0.305
465	0.305
465	0.305
466	0.305
466	0.305
467	0.305
467	0.305
467	0.305
468	0.305
468	0.305
469	0.305
469	0.306
470	0.306
470	0.306
471	0.307
471	0.307
472	0.307
472	0.307
472	0.308
473	0.308
473	0.308
474	0.308
474	0.308
475	0.308
475	0.308
476	0.308
476	0.308
477	0.309
477	0.309
477	0.309
478	0.309
478	0.309
479	0.31
479	0.31
480	0.311
480	0.311
481	0.311
481	0.312
482	0.312
482	0.313
482	0.313
483	0.314
483	0.315
484	0.315
484	0.315
485	0.315
485	0.316
486	0.316
486	0.316
487	0.317
487	0.317
487	0.318
488	0.318
488	0.318
489	0.319
489	0.32
490	0.321
490	0.322
491	0.323
491	0.324
492	0.325
492	0.326
492	0.327
493	0.328
493	0.329
494	0.33
494	0.331
495	0.332
495	0.333
496	0.334
496	0.335
496	0.336
497	0.337
497	0.338
498	0.338
498	0.339
499	0.34
499	0.341
500	0.342
500	0.344
501	0.345
501	0.346
501	0.346
502	0.347
502	0.349
503	0.35
503	0.351
504	0.352
504	0.353
505	0.353
505	0.354
506	0.355
506	0.355
506	0.356
507	0.357
507	0.357
508	0.358
508	0.359
509	0.36
509	0.36
510	0.361
510	0.362
511	0.363
511	0.364
511	0.365
512	0.366
512	0.368
513	0.368
513	0.369
514	0.37
514	0.371
515	0.372
515	0.372
515	0.372
516	0.373
516	0.374
517	0.374
517	0.374
518	0.375
518	0.375
519	0.375
519	0.376
520	0.376
520	0.376
520	0.377
521	0.377
521	0.377
522	0.377
522	0.377
523	0.377
523	0.377
524	0.377
524	0.377
524	0.377
525	0.377
525	0.377
526	0.376
526	0.376
527	0.376
527	0.376
528	0.375
528	0.375
529	0.375
529	0.374
529	0.374
530	0.373
530	0.373
531	0.372
531	0.371
532	0.371
532	0.37
533	0.369
533	0.368
533	0.367
534	0.366
534	0.365
535	0.364
535	0.364
536	0.363
536	0.362
537	0.361
537	0.36
538	0.359
538	0.358
538	0.357
539	0.356
539	0.354
540	0.353
540	0.352
541	0.351
541	0.349
542	0.348
542	0.347
542	0.346
543	0.344
543	0.343
544	0.342
544	0.341
545	0.34
545	0.339
546	0.338
546	0.336
547	0.335
547	0.333
547	0.332
548	0.331
548	0.33
549	0.328
549	0.327
550	0.326
550	0.325
551	0.323
551	0.322
551	0.321
552	0.32
552	0.318
553	0.317
553	0.316
554	0.314
554	0.313
555	0.312
555	0.31
556	0.309
556	0.307
556	0.306
557	0.305
557	0.304
558	0.303
558	0.301
559	0.3
559	0.299
560	0.298
560	0.297
560	0.296
561	0.295
561	0.294
562	0.293
562	0.291
563	0.29
563	0.288
564	0.287
564	0.286
564	0.285
565	0.284
565	0.283
566	0.281
566	0.28
567	0.279
567	0.279
568	0.278
568	0.276
568	0.275
569	0.275
569	0.273
570	0.272
570	0.27
571	0.269
571	0.268
572	0.267
572	0.266
573	0.265
573	0.265
573	0.264
574	0.263
574	0.262
575	0.262
575	0.261
576	0.261
576	0.259
577	0.258
577	0.257
577	0.256
578	0.255
578	0.255
579	0.254
579	0.254
580	0.253
580	0.251
581	0.25
581	0.249
581	0.249
582	0.249
582	0.249
583	0.248
583	0.248
584	0.246
584	0.245
585	0.244
585	0.244
585	0.243
586	0.242
586	0.241
587	0.24
587	0.239
588	0.238
588	0.237
589	0.236
589	0.236
590	0.235
590	0.235
590	0.235
591	0.234
591	0.233
592	0.232
592	0.231
593	0.23
593	0.23
594	0.229
594	0.228
594	0.227
595	0.227
595	0.226
596	0.225
596	0.225
597	0.226
597	0.226
598	0.226
598	0.225
598	0.225
599	0.225
599	0.224
600	0.223
600	0.223
601	0.222
601	0.221
602	0.22
602	0.22
602	0.219
603	0.218
603	0.218
604	0.218
604	0.218
605	0.217
605	0.217
606	0.216
606	0.215
606	0.215
607	0.214
607	0.214
608	0.213
608	0.212
609	0.212
609	0.212
610	0.211
610	0.21
610	0.21
611	0.21
611	0.21
612	0.21
612	0.21
613	0.21
613	0.21
614	0.209
614	0.209
614	0.208
615	0.208
615	0.208
616	0.208
616	0.207
617	0.207
617	0.207
618	0.206
618	0.206
618	0.206
619	0.206
619	0.207
620	0.207
620	0.206
621	0.205
621	0.205
622	0.204
622	0.204
622	0.203
623	0.202
623	0.202
624	0.201
624	0.2
625	0.2
625	0.199
626	0.199
626	0.199
626	0.199
627	0.199
627	0.198
628	0.198
628	0.198
629	0.197
629	0.197
630	0.197
630	0.197
630	0.197
631	0.197
631	0.196
632	0.196
632	0.196
633	0.196
633	0.195
634	0.196
634	0.196
634	0.195
635	0.195
635	0.194
636	0.194
636	0.194
637	0.193
637	0.193
638	0.193
638	0.192
638	0.192
639	0.191
639	0.191
640	0.191
640	0.191
641	0.191
641	0.191
642	0.191
642	0.191
642	0.191
643	0.191
643	0.191
644	0.192
644	0.192
645	0.192
645	0.192
646	0.192
646	0.192
646	0.192
647	0.191
647	0.191
648	0.19
648	0.189
649	0.189
649	0.188
650	0.188
650	0.188
650	0.188
651	0.187
651	0.187
652	0.187
652	0.187
653	0.188
653	0.189
653	0.195
654	0.153
654	0.123
655	0.123
655	0.124
656	0.124
656	0.124
657	0.125
657	0.125
657	0.125
658	0.124
658	0.114
659	0.143
659	0.184
660	0.189
660	0.189
661	0.188
661	0.188
661	0.188
662	0.187
662	0.186
663	0.186
663	0.185
664	0.185
664	0.185
665	0.184
665	0.184
665	0.184
666	0.184
666	0.185
667	0.185
667	0.185
668	0.185
668	0.185
669	0.185
669	0.185
669	0.186
670	0.186
670	0.186
671	0.186
671	0.185
672	0.185
672	0.184
672	0.184
673	0.184
673	0.184
674	0.184
674	0.183
675	0.183
675	0.183
676	0.183
676	0.183
676	0.183
677	0.183
677	0.183
678	0.183
678	0.182
679	0.182
679	0.182
680	0.182
680	0.182
680	0.181
681	0.181
681	0.181
682	0.182
682	0.182
683	0.182
683	0.182
684	0.182
684	0.182
684	0.181
685	0.182
685	0.182
686	0.182
686	0.182
687	0.182
687	0.182
687	0.182
688	0.182
688	0.182
689	0.183
689	0.183
690	0.183
690	0.183
691	0.183
691	0.184
691	0.184
692	0.184
692	0.184
693	0.184
693	0.185
694	0.184
694	0.184
695	0.185
695	0.185
695	0.185
696	0.185
696	0.185
697	0.185
697	0.184
698	0.184
698	0.183
698	0.183
699	0.184
699	0.183
700	0.183
700	0.183
701	0.183
701	0.183
702	0.183
702	0.183
702	0.183
703	0.183
703	0.183
704	0.182
704	0.182
705	0.182
705	0.182
705	0.181
706	0.181
706	0.181
707	0.18
707	0.18
708	0.18
708	0.18
709	0.18
709	0.18
709	0.18
710	0.18
710	0.18
711	0.18
711	0.181
712	0.181
712	0.181
713	0.181
713	0.182
713	0.182
714	0.182
714	0.182
715	0.182
715	0.182
716	0.182
716	0.181
716	0.181
717	0.18
717	0.18
718	0.179
718	0.178
719	0.178
719	0.178
720	0.178
720	0.179
720	0.179
721	0.179
721	0.18
722	0.181
722	0.181
723	0.182
723	0.182
723	0.183
724	0.183
724	0.183
725	0.182
725	0.182
726	0.181
726	0.18
727	0.18
727	0.179
727	0.179
728	0.178
728	0.178
729	0.178
729	0.178
730	0.178
730	0.179
730	0.179
731	0.18
731	0.181
732	0.182
732	0.182
733	0.182
733	0.183
734	0.182
734	0.182
734	0.182
735	0.182
735	0.182
736	0.181
736	0.181
737	0.18
737	0.18
737	0.179
738	0.179
738	0.178
739	0.178
739	0.178
740	0.178
740	0.179
741	0.179
741	0.179
741	0.179
742	0.18
742	0.18
743	0.181
743	0.182
744	0.182
744	0.182
744	0.182
745	0.182
745	0.182
746	0.181
746	0.181
747	0.181
747	0.181
748	0.182
748	0.182
748	0.182
749	0.182
749	0.183
750	0.183
750	0.184
751	0.184
751	0.184
751	0.185
752	0.184
752	0.184
753	0.183
753	0.183
754	0.183
754	0.182
754	0.182
755	0.182
755	0.182
756	0.181
756	0.18
757	0.18
757	0.18
758	0.18
758	0.179
758	0.18
759	0.18
759	0.179
760	0.18
760	0.179
761	0.18
761	0.18
761	0.181
762	0.181
762	0.181
763	0.181
763	0.181
764	0.181
764	0.181
764	0.181
765	0.181
765	0.181
766	0.181
766	0.181
767	0.18
767	0.18
768	0.179
768	0.179
768	0.179
769	0.179
769	0.179
770	0.179
770	0.179
771	0.179
771	0.179
771	0.18
772	0.18
772	0.181
773	0.181
773	0.181
774	0.182
774	0.182
775	0.182
775	0.182
775	0.182
776	0.182
776	0.182
777	0.182
777	0.182
778	0.181
778	0.181
778	0.181
779	0.18
779	0.18
780	0.179
780	0.179
781	0.179
781	0.178
781	0.178
782	0.177
782	0.177
783	0.177
783	0.177
784	0.177
784	0.177
784	0.177
785	0.177
785	0.177
786	0.178
786	0.178
787	0.178
787	0.178
788	0.177
788	0.177
788	0.176
789	0.176
789	0.176
790	0.175
790	0.175
791	0.175
791	0.174
791	0.174
792	0.175
792	0.176
793	0.176
793	0.176
794	0.176
794	0.176
794	0.176
795	0.176
795	0.177
796	0.177
796	0.177
797	0.176
797	0.176
797	0.176
798	0.176
798	0.176
799	0.175
799	0.174
800	0.174
800	0.173
801	0.172
801	0.172
801	0.171
802	0.171
802	0.171
803	0.171
803	0.171
804	0.171
804	0.171
804	0.172
805	0.172
805	0.172
806	0.172
806	0.172
807	0.172
807	0.172
807	0.172
808	0.172
808	0.172
809	0.172
809	0.172
810	0.173
810	0.173
810	0.172
811	0.172
811	0.172
812	0.172
812	0.172
813	0.172
813	0.172
813	0.171
814	0.171
814	0.171
815	0.171
815	0.171
816	0.17
816	0.169
817	0.169
817	0.168
817	0.168
818	0.167
818	0.167
819	0.166
819	0.165
820	0.164
820	0.164
820	0.163
821	0.163
821	0.163
822	0.163
822	0.163
823	0.163
823	0.163
823	0.164
824	0.164
824	0.165
825	0.166
825	0.166
826	0.167
826	0.166
826	0.167
827	0.167
827	0.166
828	0.166
828	0.166
829	0.165
829	0.165
829	0.164
830	0.164
830	0.164
831	0.164
831	0.164
832	0.164
832	0.164
832	0.164
833	0.164
833	0.164
834	0.164
834	0.164
835	0.163
835	0.163
835	0.163
836	0.163
836	0.163
837	0.162
837	0.162
838	0.162
838	0.161
839	0.16
839	0.159
839	0.159
840	0.158
840	0.157
841	0.155
841	0.154
842	0.153
842	0.152
842	0.151
843	0.151
843	0.15
844	0.15
844	0.15
845	0.149
845	0.149
845	0.15
846	0.15
846	0.15
847	0.15
847	0.15
848	0.151
848	0.151
848	0.151
849	0.152
849	0.152
850	0.152
850	0.151
851	0.151
851	0.151
851	0.15
852	0.149
852	0.149
853	0.148
853	0.147
854	0.146
854	0.146
854	0.146
855	0.146
855	0.147
856	0.147
856	0.148
857	0.148
857	0.149
857	0.149
858	0.149
858	0.148
859	0.148
859	0.147
860	0.146
860	0.145
860	0.144
861	0.143
861	0.143
862	0.142
862	0.141
863	0.14
863	0.14
863	0.139
864	0.139
864	0.139
865	0.138
865	0.138
866	0.138
866	0.138
866	0.137
867	0.137
867	0.137
868	0.137
868	0.137
869	0.137
869	0.136
869	0.135
870	0.134
870	0.134
871	0.134
871	0.134
872	0.134
872	0.134
872	0.134
873	0.134
873	0.134
874	0.134
874	0.134
875	0.133
875	0.133
875	0.133
876	0.132
876	0.132
877	0.131
877	0.131
878	0.131
878	0.132
878	0.133
879	0.133
879	0.134
880	0.134
880	0.135
881	0.135
881	0.136
881	0.135
882	0.135
882	0.134
883	0.133
883	0.133
884	0.132
884	0.131
884	0.13
885	0.129
885	0.129
886	0.128
886	0.128
887	0.127
887	0.126
887	0.125
888	0.124
888	0.123
889	0.122
889	0.122
890	0.121
890	0.12
890	0.119
891	0.119
891	0.118
892	0.118
892	0.118
893	0.118
893	0.118
893	0.118
894	0.118
894	0.117
895	0.117
895	0.117
895	0.117
896	0.117
896	0.117
897	0.117
897	0.117
898	0.117
898	0.117
898	0.116
899	0.116
899	0.116
900	0.116
900	0.116
901	0.116
901	0.117
901	0.117
902	0.117
902	0.116
903	0.116
903	0.116
904	0.116
904	0.115
904	0.115
905	0.115
905	0.115
906	0.115
906	0.115
907	0.116
907	0.116
907	0.117
908	0.117
908	0.117
909	0.118
909	0.118
910	0.117
910	0.117
910	0.117
911	0.116
911	0.115
912	0.114
912	0.114
913	0.113
913	0.112
913	0.111
914	0.111
914	0.11
915	0.109
915	0.108
916	0.108
916	0.107
916	0.106
917	0.106
917	0.105
918	0.105
918	0.104
918	0.104
919	0.103
919	0.102
920	0.102
920	0.101
921	0.101
921	0.1
921	0.1
922	0.099
922	0.099
923	0.099
923	0.099
924	0.099
924	0.099
924	0.099
925	0.099
925	0.099
926	0.099
926	0.1
927	0.1
927	0.1
927	0.101
928	0.101
928	0.102
929	0.102
929	0.103
930	0.103
930	0.103
930	0.104
931	0.104
931	0.105
932	0.105
932	0.106
933	0.106
933	0.106
933	0.106
934	0.107
934	0.107
935	0.107
935	0.107
935	0.107
936	0.107
936	0.106
937	0.106
937	0.106
938	0.105
938	0.104
938	0.104
939	0.103
939	0.102
940	0.101
940	0.101
941	0.101
941	0.1
941	0.1
942	0.1
942	0.1
943	0.1
943	0.099
944	0.099
944	0.099
944	0.098
945	0.098
945	0.098
946	0.098
946	0.098
946	0.098
947	0.098
947	0.097
948	0.097
948	0.096
949	0.096
949	0.095
949	0.094
950	0.093
950	0.093
951	0.092
951	0.091
952	0.09
952	0.089
952	0.088
953	0.087
953	0.087
954	0.086
954	0.086
955	0.086
955	0.086
955	0.086
956	0.087
956	0.087
957	0.088
957	0.088
957	0.089
958	0.09
958	0.09
959	0.091
959	0.091
960	0.092
960	0.092
960	0.092
961	0.092
961	0.092
962	0.092
962	0.092
963	0.092
963	0.092
963	0.092
964	0.093
964	0.093
965	0.093
965	0.093
966	0.094
966	0.094
966	0.094
967	0.095
967	0.095
968	0.095
968	0.095
968	0.095
969	0.095
969	0.095
970	0.094
970	0.094
971	0.094
971	0.093
971	0.093
972	0.093
972	0.092
973	0.092
973	0.091
974	0.091
974	0.091
974	0.092
975	0.092
975	0.092
976	0.092
976	0.092
976	0.092
977	0.092
977	0.091
978	0.091
978	0.091
979	0.09
979	0.09
979	0.089
980	0.088
980	0.088
981	0.087
981	0.086
982	0.086
982	0.085
982	0.085
983	0.084
983	0.084
984	0.083
984	0.083
984	0.082
985	0.081
985	0.081
986	0.08
986	0.079
987	0.079
987	0.078
987	0.077
988	0.077
988	0.077
989	0.076
989	0.076
990	0.076
990	0.076
990	0.076
991	0.077
991	0.077
992	0.077
992	0.076
992	0.076
993	0.076
993	0.076
994	0.075
994	0.075
995	0.075
995	0.075
995	0.074
996	0.074
996	0.074
997	0.074
997	0.074
997	0.075
998	0.075
998	0.075
999	0.075
999	0.075
1000	0.076
1000	0.076
1000	0.076
1001	0.076
1001	0.076
1002	0.076
1002	0.076
1003	0.076
1003	0.076
1003	0.076
1004	0.076
1004	0.076
1005	0.075
1005	0.075
1005	0.075
1006	0.075
1006	0.075
1007	0.075
1007	0.075
1008	0.075
1008	0.075
1008	0.075
1009	0.075
1009	0.075
1010	0.075
1010	0.075
1010	0.076
1011	0.076
1011	0.076
1012	0.076
1012	0.076
1013	0.076
1013	0.076
1013	0.076
1014	0.076
1014	0.075
1015	0.075
1015	0.075
1016	0.074
1016	0.074
1016	0.073
1017	0.072
1017	0.072
1018	0.071
1018	0.071
1018	0.071
1019	0.071
1019	0.071
1020	0.071
1020	0.071
1021	0.071
1021	0.072
1021	0.072
1022	0.072
1022	0.072
1023	0.073
1023	0.073
1023	0.073
1024	0.073
1024	0.073
1025	0.073
1025	0.073
1026	0.073
1026	0.073
1026	0.073
1027	0.073
1027	0.073
1028	0.073
1028	0.073
1028	0.073
1029	0.073
1029	0.073
1030	0.073
1030	0.073
1031	0.073
1031	0.073
1031	0.073
1032	0.073
1032	0.073
1033	0.073
1033	0.073
1033	0.073
1034	0.073
1034	0.072
1035	0.072
1035	0.072
1036	0.072
1036	0.072
1036	0.072
1037	0.072
1037	0.071
1038	0.071
1038	0.072
1039	0.072
1039	0.072
1039	0.072
1040	0.073
1040	0.073
1041	0.073
1041	0.074
1041	0.074
1042	0.075
1042	0.075
1043	0.075
1043	0.075
1044	0.075
1044	0.075
1044	0.076
1045	0.076
1045	0.076
1046	0.076
1046	0.077
1046	0.077
1047	0.077
1047	0.078
1048	0.078
1048	0.078
1049	0.079
1049	0.079
1049	0.079
1050	0.079
1050	0.079
1051	0.079
1051	0.079
1051	0.079
1052	0.078
1052	0.078
1053	0.077
1053	0.076
1053	0.075
1054	0.075
1054	0.074
1055	0.074
1055	0.073
1056	0.072
1056	0.072
1056	0.071
1057	0.07
1057	0.069
1058	0.069
1058	0.068
1058	0.067
1059	0.066
1059	0.066
1060	0.066
1060	0.065
1061	0.065
1061	0.064
1061	0.064
1062	0.064
1062	0.064
1063	0.064
1063	0.064
1063	0.064
1064	0.063
1064	0.063
1065	0.063
1065	0.062
1066	0.062
1066	0.062
1066	0.062
1067	0.061
1067	0.061
1068	0.061
1068	0.06
1068	0.059
1069	0.059
1069	0.058
1070	0.057
1070	0.057
1071	0.056
1071	0.055
1071	0.054
1072	0.054
1072	0.053
1073	0.052
1073	0.052
1073	0.051
1074	0.051
1074	0.051
1075	0.051
1075	0.051
1076	0.052
1076	0.052
1076	0.053
1077	0.053
1077	0.054
1078	0.054
1078	0.054
1078	0.054
1079	0.054
1079	0.055
1080	0.054
1080	0.055
1080	0.055
1081	0.055
1081	0.055
1082	0.055
1082	0.055
1083	0.055
1083	0.055
1083	0.055
1084	0.055
1084	0.055
1085	0.055
1085	0.055
1085	0.055
1086	0.055
1086	0.055
1087	0.055
1087	0.054
1088	0.054
1088	0.054
1088	0.054
1089	0.054
1089	0.053
1090	0.052
1090	0.051
1090	0.051
1091	0.05
1091	0.05
1092	0.05
1092	0.05
1092	0.05
1093	0.049
1093	0.05
1094	0.05
1094	0.05
1095	0.05
1095	0.05
1095	0.05
1096	0.05
1096	0.049
1097	0.048
1097	0.048
1097	0.047
1098	0.046
1098	0.046
1099	0.045
1099	0.044
1100	0.044
1100	0.043
1100	0.042
1101	0.041
1101	0.041
1102	0.04
1102	0.04
1102	0.038
1103	0.038
1103	0.038
1104	0.038
1104	0.038
1104	0.037
1105	0.036
1105	0.035
1106	0.033
1106	0.032
1107	0.031
1107	0.031
1107	0.03
1108	0.029
1108	0.027
1109	0.026
1109	0.025
1109	0.025
1110	0.026
1110	0.026
1111	0.026
1111	0.025
