Data from reversibility-20sec_Absorbance__7776__000000000007776.txt Node

Date: Thu Dec 07 07:25:06 CET 2023
User: Marek
Spectrometer: MAYP115816
Trigger mode: 0
Integration Time (sec): 2.000000E-1
Scans to average: 10
Electric dark correction enabled: true
Nonlinearity correction enabled: true
Boxcar width: 5
XAxis mode: Wavelengths
Number of Pixels in Spectrum: 2068
>>>>>Begin Spectral Data<<<<<
199	-0.094
199	-0.07
200	-0.011
200	0.036
201	0.065
201	0.082
202	0.09
202	0.096
203	0.103
203	0.106
204	0.118
204	0.132
205	0.142
205	0.145
205	0.145
206	0.144
206	0.143
207	0.145
207	0.145
208	0.144
208	0.143
209	0.145
209	0.14
210	0.144
210	0.146
211	0.147
211	0.15
212	0.149
212	0.152
213	0.156
213	0.155
213	0.157
214	0.159
214	0.163
215	0.163
215	0.162
216	0.163
216	0.159
217	0.163
217	0.163
218	0.162
218	0.166
219	0.171
219	0.173
220	0.176
220	0.175
221	0.179
221	0.182
221	0.193
222	0.196
222	0.199
223	0.206
223	0.213
224	0.215
224	0.221
225	0.229
225	0.241
226	0.248
226	0.259
227	0.267
227	0.277
228	0.292
228	0.307
229	0.323
229	0.348
229	0.375
230	0.402
230	0.43
231	0.461
231	0.497
232	0.539
232	0.583
233	0.628
233	0.673
234	0.723
234	0.774
235	0.828
235	0.879
236	0.929
236	0.981
236	1.031
237	1.079
237	1.125
238	1.17
238	1.22
239	1.265
239	1.306
240	1.338
240	1.373
241	1.412
241	1.446
242	1.478
242	1.512
243	1.542
243	1.569
243	1.593
244	1.615
244	1.637
245	1.657
245	1.68
246	1.697
246	1.714
247	1.727
247	1.738
248	1.751
248	1.762
249	1.771
249	1.776
250	1.782
250	1.788
250	1.792
251	1.795
251	1.797
252	1.802
252	1.802
253	1.802
253	1.8
254	1.797
254	1.798
255	1.797
255	1.797
256	1.797
256	1.795
257	1.793
257	1.79
258	1.79
258	1.789
258	1.79
259	1.791
259	1.793
260	1.792
260	1.791
261	1.791
261	1.794
262	1.796
262	1.797
263	1.798
263	1.8
264	1.8
264	1.8
265	1.8
265	1.8
265	1.801
266	1.801
266	1.801
267	1.799
267	1.8
268	1.8
268	1.798
269	1.8
269	1.799
270	1.798
270	1.797
271	1.794
271	1.793
272	1.79
272	1.788
272	1.783
273	1.779
273	1.773
274	1.769
274	1.764
275	1.757
275	1.752
276	1.744
276	1.736
277	1.728
277	1.718
278	1.708
278	1.696
278	1.682
279	1.666
279	1.647
280	1.624
280	1.595
281	1.562
281	1.525
282	1.484
282	1.443
283	1.402
283	1.361
284	1.321
284	1.283
285	1.246
285	1.212
285	1.182
286	1.155
286	1.131
287	1.111
287	1.094
288	1.078
288	1.065
289	1.054
289	1.044
290	1.036
290	1.028
291	1.022
291	1.016
292	1.011
292	1.006
292	1.001
293	0.997
293	0.993
294	0.989
294	0.985
295	0.982
295	0.979
296	0.975
296	0.971
297	0.968
297	0.965
298	0.962
298	0.959
298	0.956
299	0.952
299	0.949
300	0.946
300	0.943
301	0.94
301	0.938
302	0.935
302	0.932
303	0.93
303	0.927
304	0.925
304	0.922
305	0.919
305	0.917
305	0.914
306	0.912
306	0.909
307	0.907
307	0.904
308	0.902
308	0.899
309	0.896
309	0.893
310	0.89
310	0.887
311	0.885
311	0.882
311	0.878
312	0.874
312	0.871
313	0.867
313	0.863
314	0.859
314	0.855
315	0.851
315	0.846
316	0.842
316	0.837
317	0.833
317	0.828
318	0.823
318	0.817
318	0.812
319	0.807
319	0.801
320	0.796
320	0.79
321	0.784
321	0.777
322	0.771
322	0.765
323	0.758
323	0.752
324	0.745
324	0.738
324	0.731
325	0.724
325	0.717
326	0.71
326	0.703
327	0.696
327	0.689
328	0.682
328	0.675
329	0.668
329	0.661
330	0.653
330	0.646
330	0.639
331	0.632
331	0.625
332	0.618
332	0.611
333	0.603
333	0.596
334	0.589
334	0.582
335	0.575
335	0.568
336	0.562
336	0.555
336	0.548
337	0.542
337	0.535
338	0.529
338	0.523
339	0.517
339	0.51
340	0.505
340	0.499
341	0.493
341	0.487
342	0.482
342	0.476
342	0.471
343	0.465
343	0.46
344	0.455
344	0.45
345	0.445
345	0.44
346	0.435
346	0.431
347	0.427
347	0.422
348	0.418
348	0.414
348	0.41
349	0.406
349	0.402
350	0.399
350	0.395
351	0.392
351	0.389
352	0.385
352	0.382
353	0.379
353	0.376
354	0.373
354	0.371
354	0.368
355	0.365
355	0.362
356	0.359
356	0.356
357	0.352
357	0.35
358	0.347
358	0.344
359	0.342
359	0.34
360	0.338
360	0.336
360	0.334
361	0.332
361	0.33
362	0.329
362	0.327
363	0.325
363	0.323
364	0.321
364	0.319
365	0.318
365	0.316
366	0.314
366	0.312
366	0.31
367	0.309
367	0.307
368	0.305
368	0.304
369	0.302
369	0.301
370	0.3
370	0.298
371	0.297
371	0.296
372	0.294
372	0.293
372	0.292
373	0.291
373	0.29
374	0.289
374	0.288
375	0.287
375	0.286
376	0.285
376	0.284
377	0.283
377	0.282
378	0.281
378	0.28
378	0.28
379	0.279
379	0.278
380	0.277
380	0.276
381	0.276
381	0.275
382	0.275
382	0.274
383	0.274
383	0.273
383	0.272
384	0.272
384	0.271
385	0.271
385	0.27
386	0.27
386	0.27
387	0.269
387	0.269
388	0.268
388	0.268
389	0.267
389	0.267
389	0.267
390	0.266
390	0.266
391	0.266
391	0.265
392	0.265
392	0.265
393	0.264
393	0.264
394	0.264
394	0.263
394	0.263
395	0.262
395	0.262
396	0.262
396	0.261
397	0.261
397	0.261
398	0.26
398	0.26
399	0.26
399	0.259
400	0.259
400	0.259
400	0.258
401	0.258
401	0.258
402	0.257
402	0.257
403	0.257
403	0.256
404	0.256
404	0.256
405	0.256
405	0.255
405	0.255
406	0.255
406	0.255
407	0.254
407	0.254
408	0.254
408	0.254
409	0.253
409	0.253
410	0.253
410	0.253
411	0.252
411	0.252
411	0.252
412	0.252
412	0.251
413	0.251
413	0.251
414	0.251
414	0.25
415	0.25
415	0.25
416	0.249
416	0.249
416	0.249
417	0.248
417	0.248
418	0.248
418	0.247
419	0.247
419	0.246
420	0.246
420	0.245
421	0.245
421	0.245
421	0.244
422	0.244
422	0.243
423	0.243
423	0.243
424	0.242
424	0.242
425	0.242
425	0.241
426	0.241
426	0.241
427	0.241
427	0.24
427	0.24
428	0.24
428	0.239
429	0.239
429	0.238
430	0.238
430	0.238
431	0.238
431	0.238
432	0.237
432	0.237
432	0.237
433	0.237
433	0.237
434	0.237
434	0.237
435	0.237
435	0.236
436	0.236
436	0.236
437	0.236
437	0.235
437	0.235
438	0.235
438	0.235
439	0.235
439	0.234
440	0.234
440	0.234
441	0.233
441	0.233
442	0.233
442	0.232
442	0.232
443	0.232
443	0.232
444	0.232
444	0.231
445	0.231
445	0.231
446	0.231
446	0.231
447	0.231
447	0.231
447	0.23
448	0.231
448	0.23
449	0.23
449	0.23
450	0.23
450	0.23
451	0.23
451	0.23
452	0.229
452	0.229
452	0.229
453	0.229
453	0.229
454	0.229
454	0.228
455	0.228
455	0.228
456	0.228
456	0.227
457	0.227
457	0.227
458	0.227
458	0.226
458	0.226
459	0.226
459	0.226
460	0.226
460	0.226
461	0.226
461	0.225
462	0.226
462	0.225
463	0.225
463	0.225
463	0.225
464	0.225
464	0.224
465	0.224
465	0.224
466	0.224
466	0.224
467	0.224
467	0.224
467	0.224
468	0.224
468	0.224
469	0.224
469	0.225
470	0.225
470	0.225
471	0.225
471	0.225
472	0.225
472	0.225
472	0.225
473	0.225
473	0.225
474	0.225
474	0.225
475	0.225
475	0.225
476	0.225
476	0.225
477	0.225
477	0.225
477	0.225
478	0.225
478	0.225
479	0.225
479	0.226
480	0.226
480	0.226
481	0.226
481	0.226
482	0.226
482	0.227
482	0.227
483	0.227
483	0.227
484	0.228
484	0.227
485	0.227
485	0.227
486	0.227
486	0.227
487	0.228
487	0.228
487	0.228
488	0.229
488	0.229
489	0.229
489	0.23
490	0.231
490	0.232
491	0.232
491	0.233
492	0.234
492	0.234
492	0.235
493	0.236
493	0.236
494	0.237
494	0.237
495	0.238
495	0.238
496	0.239
496	0.239
496	0.24
497	0.24
497	0.24
498	0.241
498	0.241
499	0.242
499	0.242
500	0.243
500	0.244
501	0.244
501	0.245
501	0.245
502	0.246
502	0.246
503	0.247
503	0.247
504	0.248
504	0.249
505	0.249
505	0.25
506	0.25
506	0.251
506	0.252
507	0.252
507	0.253
508	0.253
508	0.254
509	0.254
509	0.255
510	0.255
510	0.256
511	0.256
511	0.257
511	0.257
512	0.258
512	0.258
513	0.259
513	0.259
514	0.26
514	0.26
515	0.26
515	0.261
515	0.261
516	0.261
516	0.262
517	0.262
517	0.262
518	0.263
518	0.263
519	0.263
519	0.263
520	0.263
520	0.263
520	0.264
521	0.264
521	0.264
522	0.264
522	0.264
523	0.265
523	0.265
524	0.265
524	0.265
524	0.265
525	0.265
525	0.265
526	0.265
526	0.265
527	0.265
527	0.265
528	0.265
528	0.265
529	0.264
529	0.264
529	0.263
530	0.263
530	0.263
531	0.262
531	0.262
532	0.261
532	0.261
533	0.26
533	0.26
533	0.259
534	0.259
534	0.259
535	0.258
535	0.258
536	0.258
536	0.257
537	0.256
537	0.256
538	0.255
538	0.255
538	0.254
539	0.254
539	0.253
540	0.253
540	0.252
541	0.251
541	0.251
542	0.25
542	0.25
542	0.249
543	0.249
543	0.248
544	0.247
544	0.246
545	0.246
545	0.245
546	0.244
546	0.243
547	0.242
547	0.241
547	0.24
548	0.24
548	0.239
549	0.238
549	0.237
550	0.236
550	0.236
551	0.235
551	0.235
551	0.234
552	0.234
552	0.233
553	0.232
553	0.231
554	0.231
554	0.23
555	0.229
555	0.228
556	0.227
556	0.226
556	0.226
557	0.225
557	0.225
558	0.225
558	0.225
559	0.224
559	0.224
560	0.223
560	0.223
560	0.222
561	0.221
561	0.221
562	0.22
562	0.219
563	0.217
563	0.217
564	0.215
564	0.215
564	0.214
565	0.214
565	0.213
566	0.212
566	0.212
567	0.211
567	0.211
568	0.21
568	0.209
568	0.209
569	0.208
569	0.207
570	0.206
570	0.205
571	0.204
571	0.203
572	0.203
572	0.202
573	0.201
573	0.201
573	0.2
574	0.199
574	0.199
575	0.199
575	0.199
576	0.198
576	0.197
577	0.197
577	0.196
577	0.195
578	0.195
578	0.194
579	0.194
579	0.194
580	0.193
580	0.192
581	0.192
581	0.191
581	0.191
582	0.191
582	0.191
583	0.19
583	0.19
584	0.189
584	0.187
585	0.187
585	0.187
585	0.187
586	0.186
586	0.186
587	0.185
587	0.185
588	0.184
588	0.184
589	0.184
589	0.184
590	0.183
590	0.183
590	0.183
591	0.183
591	0.182
592	0.181
592	0.181
593	0.18
593	0.18
594	0.179
594	0.178
594	0.177
595	0.177
595	0.176
596	0.176
596	0.176
597	0.176
597	0.176
598	0.176
598	0.176
598	0.176
599	0.175
599	0.175
600	0.174
600	0.174
601	0.174
601	0.173
602	0.173
602	0.172
602	0.172
603	0.172
603	0.172
604	0.172
604	0.172
605	0.172
605	0.172
606	0.171
606	0.171
606	0.17
607	0.17
607	0.169
608	0.169
608	0.168
609	0.167
609	0.167
610	0.166
610	0.166
610	0.166
611	0.166
611	0.166
612	0.166
612	0.166
613	0.166
613	0.166
614	0.166
614	0.165
614	0.166
615	0.166
615	0.166
616	0.166
616	0.166
617	0.166
617	0.165
618	0.165
618	0.165
618	0.165
619	0.165
619	0.165
620	0.165
620	0.165
621	0.164
621	0.164
622	0.163
622	0.163
622	0.162
623	0.162
623	0.162
624	0.161
624	0.161
625	0.16
625	0.16
626	0.16
626	0.16
626	0.16
627	0.16
627	0.16
628	0.16
628	0.16
629	0.16
629	0.159
630	0.159
630	0.158
630	0.158
631	0.158
631	0.158
632	0.157
632	0.157
633	0.157
633	0.156
634	0.157
634	0.157
634	0.157
635	0.156
635	0.156
636	0.156
636	0.156
637	0.156
637	0.155
638	0.155
638	0.155
638	0.155
639	0.154
639	0.154
640	0.154
640	0.154
641	0.153
641	0.153
642	0.153
642	0.153
642	0.154
643	0.154
643	0.154
644	0.154
644	0.154
645	0.154
645	0.155
646	0.155
646	0.155
646	0.155
647	0.154
647	0.154
648	0.153
648	0.152
649	0.152
649	0.152
650	0.152
650	0.152
650	0.152
651	0.152
651	0.152
652	0.152
652	0.153
653	0.153
653	0.155
653	0.16
654	0.127
654	0.102
655	0.101
655	0.102
656	0.102
656	0.102
657	0.102
657	0.102
657	0.103
658	0.101
658	0.093
659	0.117
659	0.149
660	0.154
660	0.154
661	0.153
661	0.153
661	0.153
662	0.152
662	0.152
663	0.151
663	0.151
664	0.151
664	0.151
665	0.15
665	0.15
665	0.15
666	0.15
666	0.151
667	0.151
667	0.151
668	0.151
668	0.151
669	0.152
669	0.152
669	0.153
670	0.153
670	0.153
671	0.152
671	0.152
672	0.152
672	0.151
672	0.15
673	0.15
673	0.15
674	0.15
674	0.149
675	0.149
675	0.149
676	0.149
676	0.149
676	0.149
677	0.15
677	0.15
678	0.15
678	0.15
679	0.15
679	0.15
680	0.151
680	0.151
680	0.15
681	0.151
681	0.152
682	0.152
682	0.152
683	0.152
683	0.153
684	0.153
684	0.153
684	0.152
685	0.152
685	0.152
686	0.152
686	0.152
687	0.151
687	0.151
687	0.151
688	0.151
688	0.151
689	0.152
689	0.152
690	0.152
690	0.152
691	0.152
691	0.152
691	0.152
692	0.152
692	0.152
693	0.153
693	0.153
694	0.153
694	0.153
695	0.154
695	0.155
695	0.155
696	0.155
696	0.155
697	0.155
697	0.155
698	0.155
698	0.155
698	0.155
699	0.155
699	0.155
700	0.154
700	0.154
701	0.153
701	0.153
702	0.152
702	0.151
702	0.151
703	0.15
703	0.15
704	0.149
704	0.149
705	0.149
705	0.149
705	0.149
706	0.149
706	0.15
707	0.15
707	0.15
708	0.151
708	0.151
709	0.152
709	0.152
709	0.151
710	0.151
710	0.152
711	0.152
711	0.152
712	0.153
712	0.152
713	0.152
713	0.152
713	0.152
714	0.151
714	0.151
715	0.151
715	0.15
716	0.15
716	0.149
716	0.149
717	0.149
717	0.149
718	0.148
718	0.149
719	0.15
719	0.15
720	0.151
720	0.152
720	0.153
721	0.154
721	0.155
722	0.156
722	0.156
723	0.156
723	0.157
723	0.156
724	0.156
724	0.155
725	0.154
725	0.153
726	0.153
726	0.152
727	0.152
727	0.151
727	0.151
728	0.151
728	0.151
729	0.151
729	0.151
730	0.152
730	0.152
730	0.153
731	0.153
731	0.154
732	0.154
732	0.154
733	0.154
733	0.155
734	0.155
734	0.155
734	0.155
735	0.155
735	0.155
736	0.155
736	0.155
737	0.154
737	0.154
737	0.154
738	0.154
738	0.153
739	0.153
739	0.153
740	0.153
740	0.154
741	0.155
741	0.155
741	0.156
742	0.156
742	0.157
743	0.158
743	0.158
744	0.159
744	0.159
744	0.159
745	0.159
745	0.159
746	0.158
746	0.158
747	0.158
747	0.158
748	0.158
748	0.158
748	0.158
749	0.158
749	0.159
750	0.159
750	0.159
751	0.159
751	0.159
751	0.159
752	0.159
752	0.159
753	0.158
753	0.158
754	0.158
754	0.157
754	0.157
755	0.157
755	0.156
756	0.156
756	0.155
757	0.154
757	0.154
758	0.154
758	0.155
758	0.155
759	0.155
759	0.155
760	0.155
760	0.155
761	0.155
761	0.156
761	0.156
762	0.156
762	0.157
763	0.157
763	0.157
764	0.156
764	0.157
764	0.156
765	0.156
765	0.156
766	0.156
766	0.156
767	0.156
767	0.155
768	0.155
768	0.155
768	0.155
769	0.155
769	0.156
770	0.156
770	0.156
771	0.157
771	0.157
771	0.157
772	0.157
772	0.157
773	0.157
773	0.158
774	0.158
774	0.158
775	0.159
775	0.159
775	0.16
776	0.16
776	0.161
777	0.162
777	0.162
778	0.162
778	0.162
778	0.162
779	0.161
779	0.16
780	0.159
780	0.158
781	0.156
781	0.155
781	0.154
782	0.153
782	0.153
783	0.153
783	0.153
784	0.153
784	0.153
784	0.154
785	0.154
785	0.155
786	0.155
786	0.156
787	0.156
787	0.156
788	0.156
788	0.156
788	0.156
789	0.156
789	0.156
790	0.157
790	0.156
791	0.156
791	0.156
791	0.156
792	0.156
792	0.156
793	0.156
793	0.155
794	0.155
794	0.155
794	0.155
795	0.154
795	0.154
796	0.154
796	0.154
797	0.154
797	0.154
797	0.155
798	0.155
798	0.155
799	0.155
799	0.155
800	0.155
800	0.155
801	0.155
801	0.156
801	0.156
802	0.156
802	0.157
803	0.157
803	0.157
804	0.158
804	0.159
804	0.159
805	0.159
805	0.159
806	0.159
806	0.159
807	0.159
807	0.158
807	0.158
808	0.158
808	0.158
809	0.157
809	0.157
810	0.157
810	0.157
810	0.157
811	0.157
811	0.157
812	0.157
812	0.157
813	0.157
813	0.157
813	0.158
814	0.158
814	0.158
815	0.158
815	0.158
816	0.158
816	0.157
817	0.157
817	0.157
817	0.156
818	0.155
818	0.155
819	0.155
819	0.154
820	0.154
820	0.153
820	0.153
821	0.153
821	0.153
822	0.152
822	0.152
823	0.152
823	0.151
823	0.152
824	0.152
824	0.153
825	0.154
825	0.155
826	0.156
826	0.156
826	0.157
827	0.158
827	0.158
828	0.159
828	0.159
829	0.16
829	0.16
829	0.16
830	0.16
830	0.161
831	0.161
831	0.161
832	0.161
832	0.161
832	0.161
833	0.161
833	0.16
834	0.16
834	0.159
835	0.158
835	0.158
835	0.157
836	0.157
836	0.156
837	0.156
837	0.155
838	0.154
838	0.154
839	0.153
839	0.152
839	0.151
840	0.15
840	0.149
841	0.148
841	0.147
842	0.146
842	0.145
842	0.145
843	0.144
843	0.143
844	0.143
844	0.142
845	0.142
845	0.142
845	0.142
846	0.142
846	0.142
847	0.142
847	0.142
848	0.143
848	0.143
848	0.143
849	0.142
849	0.142
850	0.142
850	0.142
851	0.141
851	0.141
851	0.141
852	0.14
852	0.14
853	0.14
853	0.14
854	0.141
854	0.142
854	0.143
855	0.144
855	0.145
856	0.146
856	0.147
857	0.149
857	0.15
857	0.15
858	0.151
858	0.15
859	0.15
859	0.15
860	0.15
860	0.149
860	0.148
861	0.148
861	0.147
862	0.146
862	0.145
863	0.144
863	0.144
863	0.144
864	0.144
864	0.144
865	0.144
865	0.144
866	0.144
866	0.144
866	0.144
867	0.144
867	0.144
868	0.144
868	0.144
869	0.144
869	0.144
869	0.144
870	0.143
870	0.143
871	0.143
871	0.143
872	0.143
872	0.142
872	0.142
873	0.142
873	0.142
874	0.141
874	0.141
875	0.14
875	0.14
875	0.14
876	0.139
876	0.139
877	0.139
877	0.139
878	0.138
878	0.139
878	0.139
879	0.139
879	0.139
880	0.139
880	0.139
881	0.139
881	0.139
881	0.139
882	0.139
882	0.139
883	0.139
883	0.139
884	0.139
884	0.139
884	0.139
885	0.139
885	0.138
886	0.138
886	0.138
887	0.137
887	0.137
887	0.137
888	0.136
888	0.136
889	0.136
889	0.136
890	0.136
890	0.136
890	0.136
891	0.136
891	0.136
892	0.136
892	0.136
893	0.136
893	0.135
893	0.135
894	0.134
894	0.133
895	0.133
895	0.133
895	0.133
896	0.133
896	0.133
897	0.133
897	0.133
898	0.134
898	0.134
898	0.134
899	0.134
899	0.134
900	0.134
900	0.134
901	0.133
901	0.133
901	0.132
902	0.132
902	0.131
903	0.131
903	0.131
904	0.131
904	0.13
904	0.129
905	0.129
905	0.128
906	0.128
906	0.128
907	0.127
907	0.127
907	0.127
908	0.127
908	0.126
909	0.126
909	0.126
910	0.125
910	0.125
910	0.125
911	0.124
911	0.123
912	0.123
912	0.123
913	0.122
913	0.122
913	0.122
914	0.121
914	0.121
915	0.121
915	0.121
916	0.121
916	0.12
916	0.12
917	0.119
917	0.119
918	0.119
918	0.118
918	0.118
919	0.117
919	0.117
920	0.117
920	0.117
921	0.117
921	0.116
921	0.116
922	0.116
922	0.117
923	0.117
923	0.117
924	0.118
924	0.118
924	0.119
925	0.119
925	0.119
926	0.119
926	0.12
927	0.12
927	0.12
927	0.12
928	0.121
928	0.121
929	0.121
929	0.121
930	0.121
930	0.121
930	0.121
931	0.121
931	0.121
932	0.121
932	0.121
933	0.12
933	0.12
933	0.119
934	0.118
934	0.118
935	0.117
935	0.116
935	0.116
936	0.115
936	0.115
937	0.114
937	0.113
938	0.113
938	0.112
938	0.111
939	0.111
939	0.11
940	0.109
940	0.109
941	0.109
941	0.109
941	0.109
942	0.109
942	0.11
943	0.11
943	0.11
944	0.111
944	0.112
944	0.112
945	0.113
945	0.113
946	0.114
946	0.114
946	0.114
947	0.114
947	0.114
948	0.114
948	0.114
949	0.113
949	0.113
949	0.112
950	0.111
950	0.111
951	0.11
951	0.109
952	0.108
952	0.107
952	0.106
953	0.106
953	0.105
954	0.105
954	0.105
955	0.105
955	0.104
955	0.104
956	0.105
956	0.105
957	0.106
957	0.107
957	0.107
958	0.108
958	0.108
959	0.108
959	0.109
960	0.109
960	0.109
960	0.11
961	0.11
961	0.109
962	0.109
962	0.109
963	0.108
963	0.108
963	0.107
964	0.107
964	0.107
965	0.106
965	0.106
966	0.106
966	0.106
966	0.106
967	0.106
967	0.106
968	0.106
968	0.106
968	0.106
969	0.106
969	0.106
970	0.105
970	0.104
971	0.103
971	0.103
971	0.102
972	0.102
972	0.101
973	0.101
973	0.1
974	0.1
974	0.1
974	0.1
975	0.101
975	0.101
976	0.101
976	0.102
976	0.102
977	0.102
977	0.102
978	0.102
978	0.103
979	0.103
979	0.103
979	0.104
980	0.104
980	0.104
981	0.104
981	0.104
982	0.104
982	0.104
982	0.104
983	0.104
983	0.104
984	0.104
984	0.103
984	0.103
985	0.102
985	0.102
986	0.101
986	0.101
987	0.1
987	0.1
987	0.099
988	0.099
988	0.098
989	0.098
989	0.097
990	0.097
990	0.096
990	0.096
991	0.096
991	0.095
992	0.095
992	0.094
992	0.093
993	0.093
993	0.092
994	0.091
994	0.09
995	0.09
995	0.089
995	0.089
996	0.089
996	0.089
997	0.089
997	0.09
997	0.09
998	0.09
998	0.09
999	0.091
999	0.091
1000	0.092
1000	0.092
1000	0.092
1001	0.092
1001	0.092
1002	0.092
1002	0.092
1003	0.093
1003	0.092
1003	0.092
1004	0.092
1004	0.092
1005	0.091
1005	0.091
1005	0.091
1006	0.09
1006	0.09
1007	0.09
1007	0.09
1008	0.089
1008	0.089
1008	0.089
1009	0.089
1009	0.089
1010	0.088
1010	0.088
1010	0.088
1011	0.088
1011	0.087
1012	0.086
1012	0.086
1013	0.086
1013	0.085
1013	0.085
1014	0.084
1014	0.084
1015	0.083
1015	0.083
1016	0.083
1016	0.083
1016	0.083
1017	0.083
1017	0.084
1018	0.084
1018	0.084
1018	0.084
1019	0.084
1019	0.084
1020	0.084
1020	0.084
1021	0.085
1021	0.085
1021	0.085
1022	0.086
1022	0.086
1023	0.086
1023	0.086
1023	0.086
1024	0.086
1024	0.086
1025	0.086
1025	0.086
1026	0.086
1026	0.086
1026	0.086
1027	0.086
1027	0.086
1028	0.087
1028	0.087
1028	0.087
1029	0.087
1029	0.087
1030	0.087
1030	0.087
1031	0.087
1031	0.087
1031	0.087
1032	0.087
1032	0.087
1033	0.088
1033	0.088
1033	0.088
1034	0.088
1034	0.088
1035	0.088
1035	0.087
1036	0.088
1036	0.087
1036	0.087
1037	0.087
1037	0.087
1038	0.087
1038	0.087
1039	0.087
1039	0.087
1039	0.086
1040	0.086
1040	0.086
1041	0.085
1041	0.085
1041	0.085
1042	0.084
1042	0.084
1043	0.084
1043	0.084
1044	0.083
1044	0.083
1044	0.083
1045	0.083
1045	0.083
1046	0.083
1046	0.083
1046	0.082
1047	0.082
1047	0.082
1048	0.082
1048	0.082
1049	0.082
1049	0.082
1049	0.082
1050	0.081
1050	0.081
1051	0.081
1051	0.08
1051	0.08
1052	0.079
1052	0.079
1053	0.078
1053	0.077
1053	0.076
1054	0.076
1054	0.075
1055	0.075
1055	0.074
1056	0.074
1056	0.074
1056	0.073
1057	0.073
1057	0.072
1058	0.072
1058	0.071
1058	0.071
1059	0.071
1059	0.071
1060	0.071
1060	0.07
1061	0.07
1061	0.07
1061	0.07
1062	0.07
1062	0.071
1063	0.071
1063	0.071
1063	0.071
1064	0.071
1064	0.071
1065	0.071
1065	0.071
1066	0.071
1066	0.071
1066	0.071
1067	0.071
1067	0.071
1068	0.07
1068	0.07
1068	0.07
1069	0.07
1069	0.069
1070	0.069
1070	0.069
1071	0.068
1071	0.068
1071	0.067
1072	0.067
1072	0.067
1073	0.066
1073	0.066
1073	0.066
1074	0.066
1074	0.066
1075	0.066
1075	0.067
1076	0.067
1076	0.067
1076	0.068
1077	0.068
1077	0.068
1078	0.069
1078	0.069
1078	0.07
1079	0.069
1079	0.069
1080	0.069
1080	0.069
1080	0.069
1081	0.07
1081	0.07
1082	0.071
1082	0.071
1083	0.071
1083	0.071
1083	0.071
1084	0.071
1084	0.071
1085	0.071
1085	0.071
1085	0.071
1086	0.071
1086	0.07
1087	0.07
1087	0.07
1088	0.07
1088	0.069
1088	0.069
1089	0.068
1089	0.067
1090	0.066
1090	0.065
1090	0.064
1091	0.064
1091	0.063
1092	0.062
1092	0.062
1092	0.062
1093	0.062
1093	0.063
1094	0.062
1094	0.062
1095	0.062
1095	0.062
1095	0.061
1096	0.061
1096	0.061
1097	0.06
1097	0.059
1097	0.059
1098	0.058
1098	0.057
1099	0.056
1099	0.056
1100	0.055
1100	0.055
1100	0.054
1101	0.053
1101	0.053
1102	0.053
1102	0.052
1102	0.051
1103	0.051
1103	0.051
1104	0.05
1104	0.05
1104	0.05
1105	0.049
1105	0.048
1106	0.047
1106	0.045
1107	0.045
1107	0.045
1107	0.045
1108	0.044
1108	0.044
1109	0.043
1109	0.041
1109	0.042
1110	0.043
1110	0.043
1111	0.046
1111	0.045
