Data from reversibility-20sec_Absorbance__5691__000000000005691.txt Node

Date: Wed Dec 06 19:50:05 CET 2023
User: Marek
Spectrometer: MAYP115816
Trigger mode: 0
Integration Time (sec): 2.000000E-1
Scans to average: 10
Electric dark correction enabled: true
Nonlinearity correction enabled: true
Boxcar width: 5
XAxis mode: Wavelengths
Number of Pixels in Spectrum: 2068
>>>>>Begin Spectral Data<<<<<
199	-0.215
199	-0.184
200	-0.116
200	-0.065
201	-0.034
201	-0.017
202	-0.007
202	0.002
203	0.009
203	0.015
204	0.029
204	0.044
205	0.058
205	0.064
205	0.062
206	0.062
206	0.063
207	0.065
207	0.063
208	0.063
208	0.062
209	0.064
209	0.062
210	0.062
210	0.062
211	0.063
211	0.066
212	0.065
212	0.068
213	0.07
213	0.071
213	0.072
214	0.077
214	0.077
215	0.08
215	0.081
216	0.082
216	0.08
217	0.084
217	0.086
218	0.085
218	0.089
219	0.095
219	0.095
220	0.098
220	0.096
221	0.096
221	0.102
221	0.105
222	0.109
222	0.111
223	0.118
223	0.121
224	0.123
224	0.129
225	0.139
225	0.151
226	0.163
226	0.172
227	0.183
227	0.195
228	0.209
228	0.226
229	0.243
229	0.269
229	0.292
230	0.317
230	0.343
231	0.374
231	0.412
232	0.45
232	0.492
233	0.538
233	0.589
234	0.637
234	0.687
235	0.739
235	0.793
236	0.846
236	0.895
236	0.945
237	0.995
237	1.044
238	1.092
238	1.136
239	1.184
239	1.227
240	1.266
240	1.301
241	1.338
241	1.374
242	1.406
242	1.441
243	1.471
243	1.496
243	1.52
244	1.542
244	1.561
245	1.582
245	1.606
246	1.625
246	1.644
247	1.657
247	1.671
248	1.686
248	1.7
249	1.711
249	1.721
250	1.732
250	1.742
250	1.745
251	1.75
251	1.754
252	1.761
252	1.764
253	1.766
253	1.767
254	1.767
254	1.767
255	1.766
255	1.767
256	1.767
256	1.767
257	1.767
257	1.765
258	1.765
258	1.764
258	1.763
259	1.764
259	1.764
260	1.764
260	1.766
261	1.766
261	1.769
262	1.771
262	1.772
263	1.775
263	1.775
264	1.775
264	1.777
265	1.777
265	1.778
265	1.777
266	1.776
266	1.776
267	1.773
267	1.775
268	1.775
268	1.775
269	1.777
269	1.777
270	1.777
270	1.776
271	1.774
271	1.774
272	1.771
272	1.771
272	1.767
273	1.763
273	1.758
274	1.754
274	1.749
275	1.744
275	1.739
276	1.733
276	1.725
277	1.718
277	1.708
278	1.698
278	1.686
278	1.674
279	1.66
279	1.644
280	1.624
280	1.601
281	1.573
281	1.543
282	1.509
282	1.473
283	1.437
283	1.402
284	1.366
284	1.331
285	1.298
285	1.267
285	1.239
286	1.214
286	1.191
287	1.172
287	1.155
288	1.14
288	1.127
289	1.115
289	1.105
290	1.097
290	1.088
291	1.082
291	1.076
292	1.069
292	1.064
292	1.059
293	1.055
293	1.051
294	1.047
294	1.043
295	1.04
295	1.036
296	1.033
296	1.029
297	1.026
297	1.023
298	1.02
298	1.017
298	1.013
299	1.01
299	1.007
300	1.004
300	1.001
301	0.998
301	0.995
302	0.992
302	0.989
303	0.987
303	0.984
304	0.981
304	0.978
305	0.976
305	0.973
305	0.97
306	0.968
306	0.965
307	0.962
307	0.959
308	0.956
308	0.953
309	0.95
309	0.947
310	0.944
310	0.941
311	0.938
311	0.934
311	0.931
312	0.927
312	0.924
313	0.92
313	0.916
314	0.913
314	0.908
315	0.904
315	0.899
316	0.895
316	0.89
317	0.885
317	0.881
318	0.875
318	0.87
318	0.865
319	0.859
319	0.854
320	0.848
320	0.843
321	0.837
321	0.831
322	0.825
322	0.819
323	0.813
323	0.806
324	0.8
324	0.793
324	0.786
325	0.78
325	0.773
326	0.766
326	0.759
327	0.752
327	0.745
328	0.738
328	0.731
329	0.724
329	0.717
330	0.71
330	0.703
330	0.696
331	0.69
331	0.683
332	0.676
332	0.669
333	0.662
333	0.655
334	0.648
334	0.642
335	0.635
335	0.628
336	0.622
336	0.615
336	0.609
337	0.603
337	0.597
338	0.59
338	0.584
339	0.579
339	0.573
340	0.567
340	0.561
341	0.556
341	0.55
342	0.545
342	0.539
342	0.534
343	0.529
343	0.524
344	0.519
344	0.514
345	0.509
345	0.504
346	0.5
346	0.496
347	0.491
347	0.487
348	0.483
348	0.479
348	0.475
349	0.471
349	0.467
350	0.464
350	0.46
351	0.457
351	0.453
352	0.45
352	0.447
353	0.444
353	0.441
354	0.438
354	0.435
354	0.432
355	0.429
355	0.426
356	0.423
356	0.42
357	0.416
357	0.414
358	0.411
358	0.408
359	0.406
359	0.403
360	0.401
360	0.399
360	0.397
361	0.395
361	0.394
362	0.392
362	0.391
363	0.389
363	0.387
364	0.385
364	0.383
365	0.381
365	0.379
366	0.377
366	0.375
366	0.373
367	0.371
367	0.37
368	0.368
368	0.366
369	0.364
369	0.363
370	0.361
370	0.36
371	0.358
371	0.357
372	0.356
372	0.354
372	0.353
373	0.352
373	0.351
374	0.35
374	0.349
375	0.348
375	0.347
376	0.346
376	0.345
377	0.344
377	0.342
378	0.341
378	0.34
378	0.339
379	0.338
379	0.338
380	0.337
380	0.336
381	0.335
381	0.334
382	0.333
382	0.333
383	0.332
383	0.331
383	0.33
384	0.33
384	0.329
385	0.328
385	0.327
386	0.327
386	0.326
387	0.326
387	0.325
388	0.324
388	0.324
389	0.323
389	0.323
389	0.322
390	0.322
390	0.321
391	0.321
391	0.32
392	0.32
392	0.319
393	0.319
393	0.318
394	0.318
394	0.317
394	0.317
395	0.316
395	0.316
396	0.315
396	0.315
397	0.314
397	0.314
398	0.313
398	0.313
399	0.313
399	0.312
400	0.312
400	0.311
400	0.311
401	0.311
401	0.31
402	0.31
402	0.309
403	0.309
403	0.308
404	0.308
404	0.308
405	0.307
405	0.307
405	0.307
406	0.306
406	0.306
407	0.305
407	0.305
408	0.304
408	0.304
409	0.303
409	0.303
410	0.302
410	0.302
411	0.302
411	0.302
411	0.301
412	0.301
412	0.301
413	0.3
413	0.3
414	0.3
414	0.3
415	0.299
415	0.299
416	0.299
416	0.298
416	0.298
417	0.298
417	0.297
418	0.297
418	0.297
419	0.296
419	0.296
420	0.295
420	0.295
421	0.294
421	0.294
421	0.293
422	0.293
422	0.293
423	0.292
423	0.292
424	0.291
424	0.291
425	0.291
425	0.291
426	0.29
426	0.29
427	0.29
427	0.289
427	0.289
428	0.288
428	0.288
429	0.288
429	0.287
430	0.287
430	0.287
431	0.287
431	0.287
432	0.287
432	0.287
432	0.286
433	0.286
433	0.286
434	0.286
434	0.286
435	0.286
435	0.286
436	0.285
436	0.285
437	0.285
437	0.285
437	0.284
438	0.284
438	0.284
439	0.284
439	0.284
440	0.284
440	0.283
441	0.283
441	0.283
442	0.283
442	0.283
442	0.283
443	0.283
443	0.283
444	0.282
444	0.282
445	0.282
445	0.282
446	0.282
446	0.282
447	0.281
447	0.281
447	0.281
448	0.281
448	0.281
449	0.281
449	0.281
450	0.281
450	0.281
451	0.281
451	0.281
452	0.281
452	0.281
452	0.281
453	0.281
453	0.281
454	0.281
454	0.281
455	0.281
455	0.281
456	0.281
456	0.281
457	0.281
457	0.281
458	0.281
458	0.281
458	0.281
459	0.28
459	0.28
460	0.281
460	0.281
461	0.281
461	0.281
462	0.281
462	0.281
463	0.281
463	0.281
463	0.281
464	0.281
464	0.281
465	0.281
465	0.281
466	0.281
466	0.281
467	0.281
467	0.282
467	0.282
468	0.282
468	0.282
469	0.283
469	0.283
470	0.284
470	0.284
471	0.285
471	0.285
472	0.285
472	0.286
472	0.286
473	0.287
473	0.288
474	0.288
474	0.288
475	0.288
475	0.289
476	0.289
476	0.29
477	0.291
477	0.291
477	0.292
478	0.292
478	0.292
479	0.293
479	0.294
480	0.294
480	0.295
481	0.295
481	0.296
482	0.296
482	0.297
482	0.297
483	0.298
483	0.299
484	0.3
484	0.301
485	0.301
485	0.302
486	0.302
486	0.303
487	0.304
487	0.305
487	0.306
488	0.306
488	0.307
489	0.308
489	0.31
490	0.311
490	0.312
491	0.314
491	0.315
492	0.316
492	0.318
492	0.319
493	0.32
493	0.321
494	0.323
494	0.324
495	0.325
495	0.326
496	0.328
496	0.329
496	0.33
497	0.332
497	0.333
498	0.334
498	0.335
499	0.336
499	0.337
500	0.339
500	0.34
501	0.342
501	0.343
501	0.343
502	0.345
502	0.346
503	0.347
503	0.349
504	0.35
504	0.351
505	0.353
505	0.354
506	0.355
506	0.356
506	0.358
507	0.359
507	0.36
508	0.361
508	0.362
509	0.363
509	0.364
510	0.365
510	0.367
511	0.368
511	0.369
511	0.37
512	0.371
512	0.372
513	0.373
513	0.374
514	0.375
514	0.375
515	0.376
515	0.377
515	0.378
516	0.378
516	0.379
517	0.38
517	0.38
518	0.381
518	0.381
519	0.382
519	0.382
520	0.382
520	0.382
520	0.382
521	0.382
521	0.382
522	0.382
522	0.382
523	0.381
523	0.381
524	0.381
524	0.38
524	0.38
525	0.38
525	0.379
526	0.379
526	0.378
527	0.378
527	0.377
528	0.377
528	0.376
529	0.375
529	0.374
529	0.373
530	0.372
530	0.371
531	0.37
531	0.369
532	0.368
532	0.366
533	0.365
533	0.364
533	0.362
534	0.361
534	0.359
535	0.358
535	0.357
536	0.355
536	0.353
537	0.352
537	0.35
538	0.349
538	0.347
538	0.345
539	0.343
539	0.342
540	0.34
540	0.338
541	0.336
541	0.334
542	0.332
542	0.33
542	0.328
543	0.326
543	0.324
544	0.322
544	0.32
545	0.318
545	0.317
546	0.314
546	0.312
547	0.31
547	0.308
547	0.306
548	0.304
548	0.302
549	0.299
549	0.297
550	0.295
550	0.293
551	0.291
551	0.289
551	0.286
552	0.284
552	0.282
553	0.28
553	0.277
554	0.275
554	0.273
555	0.271
555	0.268
556	0.266
556	0.264
556	0.262
557	0.261
557	0.259
558	0.257
558	0.256
559	0.254
559	0.252
560	0.251
560	0.249
560	0.247
561	0.246
561	0.244
562	0.242
562	0.239
563	0.237
563	0.235
564	0.233
564	0.232
564	0.23
565	0.228
565	0.227
566	0.225
566	0.223
567	0.221
567	0.22
568	0.218
568	0.216
568	0.215
569	0.213
569	0.211
570	0.209
570	0.207
571	0.206
571	0.204
572	0.202
572	0.201
573	0.2
573	0.198
573	0.197
574	0.195
574	0.194
575	0.193
575	0.193
576	0.192
576	0.19
577	0.189
577	0.187
577	0.186
578	0.185
578	0.184
579	0.183
579	0.183
580	0.181
580	0.179
581	0.177
581	0.176
581	0.176
582	0.175
582	0.174
583	0.174
583	0.172
584	0.171
584	0.169
585	0.168
585	0.167
585	0.166
586	0.165
586	0.164
587	0.162
587	0.161
588	0.159
588	0.158
589	0.157
589	0.157
590	0.156
590	0.155
590	0.155
591	0.155
591	0.154
592	0.153
592	0.152
593	0.151
593	0.15
594	0.149
594	0.148
594	0.147
595	0.147
595	0.146
596	0.145
596	0.144
597	0.145
597	0.144
598	0.144
598	0.143
598	0.142
599	0.142
599	0.141
600	0.14
600	0.139
601	0.139
601	0.138
602	0.137
602	0.136
602	0.135
603	0.135
603	0.134
604	0.134
604	0.134
605	0.133
605	0.133
606	0.132
606	0.131
606	0.13
607	0.13
607	0.129
608	0.128
608	0.127
609	0.126
609	0.126
610	0.125
610	0.125
610	0.124
611	0.124
611	0.124
612	0.124
612	0.124
613	0.123
613	0.123
614	0.123
614	0.122
614	0.121
615	0.121
615	0.121
616	0.12
616	0.12
617	0.119
617	0.119
618	0.118
618	0.118
618	0.118
619	0.118
619	0.118
620	0.118
620	0.118
621	0.117
621	0.117
622	0.116
622	0.115
622	0.114
623	0.114
623	0.113
624	0.112
624	0.111
625	0.11
625	0.11
626	0.11
626	0.109
626	0.109
627	0.109
627	0.109
628	0.108
628	0.108
629	0.107
629	0.107
630	0.106
630	0.106
630	0.105
631	0.105
631	0.105
632	0.104
632	0.103
633	0.103
633	0.103
634	0.103
634	0.104
634	0.104
635	0.104
635	0.103
636	0.103
636	0.103
637	0.103
637	0.102
638	0.102
638	0.102
638	0.101
639	0.1
639	0.1
640	0.1
640	0.099
641	0.099
641	0.098
642	0.098
642	0.097
642	0.097
643	0.097
643	0.097
644	0.097
644	0.097
645	0.096
645	0.096
646	0.096
646	0.096
646	0.096
647	0.095
647	0.095
648	0.094
648	0.094
649	0.093
649	0.093
650	0.092
650	0.092
650	0.092
651	0.092
651	0.092
652	0.092
652	0.092
653	0.092
653	0.094
653	0.1
654	0.081
654	0.066
655	0.063
655	0.063
656	0.064
656	0.064
657	0.064
657	0.064
657	0.064
658	0.063
658	0.056
659	0.069
659	0.087
660	0.093
660	0.093
661	0.092
661	0.092
661	0.092
662	0.091
662	0.091
663	0.09
663	0.09
664	0.09
664	0.089
665	0.089
665	0.088
665	0.088
666	0.088
666	0.088
667	0.088
667	0.088
668	0.088
668	0.088
669	0.089
669	0.089
669	0.09
670	0.09
670	0.09
671	0.09
671	0.09
672	0.09
672	0.089
672	0.089
673	0.088
673	0.088
674	0.087
674	0.086
675	0.085
675	0.085
676	0.085
676	0.085
676	0.085
677	0.085
677	0.084
678	0.084
678	0.084
679	0.083
679	0.083
680	0.084
680	0.083
680	0.083
681	0.083
681	0.083
682	0.083
682	0.083
683	0.083
683	0.084
684	0.084
684	0.084
684	0.084
685	0.084
685	0.084
686	0.084
686	0.083
687	0.083
687	0.083
687	0.083
688	0.082
688	0.082
689	0.083
689	0.083
690	0.083
690	0.082
691	0.082
691	0.082
691	0.082
692	0.082
692	0.082
693	0.082
693	0.082
694	0.082
694	0.081
695	0.082
695	0.083
695	0.083
696	0.082
696	0.082
697	0.082
697	0.082
698	0.081
698	0.08
698	0.08
699	0.08
699	0.08
700	0.079
700	0.079
701	0.08
701	0.08
702	0.08
702	0.08
702	0.08
703	0.08
703	0.08
704	0.08
704	0.079
705	0.079
705	0.079
705	0.079
706	0.079
706	0.079
707	0.079
707	0.079
708	0.079
708	0.079
709	0.079
709	0.079
709	0.078
710	0.078
710	0.078
711	0.078
711	0.078
712	0.078
712	0.077
713	0.077
713	0.077
713	0.077
714	0.077
714	0.077
715	0.076
715	0.076
716	0.076
716	0.076
716	0.075
717	0.075
717	0.074
718	0.074
718	0.073
719	0.073
719	0.073
720	0.073
720	0.074
720	0.074
721	0.074
721	0.074
722	0.075
722	0.075
723	0.075
723	0.076
723	0.076
724	0.076
724	0.076
725	0.075
725	0.074
726	0.074
726	0.073
727	0.073
727	0.072
727	0.072
728	0.071
728	0.071
729	0.071
729	0.071
730	0.07
730	0.071
730	0.071
731	0.071
731	0.072
732	0.072
732	0.072
733	0.072
733	0.072
734	0.072
734	0.072
734	0.073
735	0.073
735	0.073
736	0.072
736	0.072
737	0.072
737	0.072
737	0.072
738	0.072
738	0.071
739	0.07
739	0.07
740	0.069
740	0.069
741	0.069
741	0.068
741	0.068
742	0.068
742	0.068
743	0.069
743	0.07
744	0.07
744	0.071
744	0.071
745	0.071
745	0.071
746	0.071
746	0.071
747	0.071
747	0.071
748	0.071
748	0.071
748	0.07
749	0.07
749	0.07
750	0.07
750	0.07
751	0.069
751	0.069
751	0.069
752	0.068
752	0.067
753	0.066
753	0.066
754	0.065
754	0.064
754	0.064
755	0.064
755	0.064
756	0.063
756	0.062
757	0.061
757	0.062
758	0.062
758	0.062
758	0.063
759	0.063
759	0.063
760	0.063
760	0.063
761	0.063
761	0.064
761	0.064
762	0.064
762	0.064
763	0.063
763	0.062
764	0.061
764	0.061
764	0.061
765	0.06
765	0.06
766	0.059
766	0.059
767	0.058
767	0.057
768	0.056
768	0.056
768	0.056
769	0.056
769	0.056
770	0.057
770	0.057
771	0.057
771	0.058
771	0.058
772	0.059
772	0.06
773	0.061
773	0.061
774	0.061
774	0.061
775	0.062
775	0.062
775	0.062
776	0.062
776	0.062
777	0.062
777	0.061
778	0.061
778	0.061
778	0.061
779	0.061
779	0.061
780	0.06
780	0.059
781	0.059
781	0.059
781	0.059
782	0.059
782	0.059
783	0.06
783	0.06
784	0.06
784	0.06
784	0.061
785	0.062
785	0.062
786	0.062
786	0.062
787	0.062
787	0.062
788	0.061
788	0.06
788	0.058
789	0.057
789	0.056
790	0.056
790	0.055
791	0.054
791	0.053
791	0.052
792	0.052
792	0.052
793	0.052
793	0.052
794	0.052
794	0.051
794	0.051
795	0.051
795	0.052
796	0.052
796	0.052
797	0.052
797	0.052
797	0.052
798	0.053
798	0.053
799	0.054
799	0.054
800	0.054
800	0.053
801	0.053
801	0.053
801	0.053
802	0.054
802	0.054
803	0.054
803	0.054
804	0.054
804	0.054
804	0.054
805	0.053
805	0.053
806	0.053
806	0.052
807	0.052
807	0.051
807	0.051
808	0.051
808	0.051
809	0.051
809	0.051
810	0.052
810	0.052
810	0.052
811	0.053
811	0.053
812	0.054
812	0.054
813	0.054
813	0.055
813	0.055
814	0.055
814	0.055
815	0.056
815	0.056
816	0.056
816	0.055
817	0.054
817	0.054
817	0.054
818	0.054
818	0.054
819	0.053
819	0.053
820	0.052
820	0.051
820	0.051
821	0.051
821	0.051
822	0.051
822	0.051
823	0.051
823	0.05
823	0.05
824	0.051
824	0.052
825	0.052
825	0.053
826	0.053
826	0.052
826	0.053
827	0.053
827	0.053
828	0.053
828	0.053
829	0.053
829	0.053
829	0.053
830	0.054
830	0.054
831	0.055
831	0.055
832	0.055
832	0.055
832	0.055
833	0.055
833	0.054
834	0.054
834	0.054
835	0.054
835	0.053
835	0.053
836	0.053
836	0.053
837	0.053
837	0.053
838	0.053
838	0.053
839	0.052
839	0.052
839	0.051
840	0.05
840	0.049
841	0.048
841	0.047
842	0.046
842	0.045
842	0.044
843	0.043
843	0.042
844	0.041
844	0.04
845	0.039
845	0.038
845	0.038
846	0.037
846	0.037
847	0.037
847	0.037
848	0.038
848	0.039
848	0.04
849	0.041
849	0.043
850	0.044
850	0.045
851	0.046
851	0.046
851	0.046
852	0.046
852	0.046
853	0.045
853	0.045
854	0.044
854	0.044
854	0.044
855	0.045
855	0.045
856	0.045
856	0.045
857	0.045
857	0.046
857	0.047
858	0.047
858	0.047
859	0.046
859	0.046
860	0.046
860	0.045
860	0.044
861	0.044
861	0.043
862	0.042
862	0.042
863	0.041
863	0.041
863	0.04
864	0.04
864	0.041
865	0.041
865	0.041
866	0.041
866	0.042
866	0.042
867	0.043
867	0.044
868	0.045
868	0.045
869	0.046
869	0.046
869	0.046
870	0.046
870	0.046
871	0.046
871	0.046
872	0.047
872	0.046
872	0.046
873	0.046
873	0.046
874	0.046
874	0.045
875	0.045
875	0.045
875	0.045
876	0.045
876	0.044
877	0.044
877	0.044
878	0.044
878	0.044
878	0.044
879	0.045
879	0.045
880	0.045
880	0.045
881	0.045
881	0.046
881	0.046
882	0.046
882	0.046
883	0.046
883	0.046
884	0.046
884	0.046
884	0.046
885	0.045
885	0.045
886	0.044
886	0.044
887	0.043
887	0.043
887	0.042
888	0.041
888	0.04
889	0.04
889	0.04
890	0.04
890	0.04
890	0.04
891	0.039
891	0.039
892	0.039
892	0.039
893	0.039
893	0.039
893	0.038
894	0.038
894	0.038
895	0.038
895	0.038
895	0.038
896	0.038
896	0.039
897	0.039
897	0.039
898	0.039
898	0.04
898	0.04
899	0.04
899	0.04
900	0.039
900	0.039
901	0.039
901	0.039
901	0.038
902	0.038
902	0.037
903	0.037
903	0.037
904	0.036
904	0.036
904	0.036
905	0.036
905	0.036
906	0.036
906	0.036
907	0.036
907	0.036
907	0.036
908	0.036
908	0.036
909	0.036
909	0.036
910	0.036
910	0.036
910	0.036
911	0.035
911	0.035
912	0.035
912	0.035
913	0.034
913	0.035
913	0.035
914	0.035
914	0.036
915	0.036
915	0.037
916	0.037
916	0.038
916	0.038
917	0.038
917	0.038
918	0.038
918	0.038
918	0.038
919	0.038
919	0.038
920	0.038
920	0.038
921	0.038
921	0.038
921	0.038
922	0.038
922	0.038
923	0.038
923	0.038
924	0.038
924	0.038
924	0.038
925	0.039
925	0.039
926	0.04
926	0.041
927	0.041
927	0.042
927	0.042
928	0.042
928	0.042
929	0.041
929	0.041
930	0.041
930	0.04
930	0.04
931	0.039
931	0.039
932	0.038
932	0.038
933	0.038
933	0.037
933	0.037
934	0.037
934	0.037
935	0.037
935	0.037
935	0.037
936	0.037
936	0.037
937	0.037
937	0.036
938	0.036
938	0.036
938	0.036
939	0.036
939	0.035
940	0.035
940	0.035
941	0.035
941	0.035
941	0.035
942	0.035
942	0.034
943	0.034
943	0.034
944	0.034
944	0.034
944	0.034
945	0.034
945	0.034
946	0.034
946	0.035
946	0.035
947	0.035
947	0.036
948	0.036
948	0.037
949	0.037
949	0.037
949	0.037
950	0.038
950	0.038
951	0.038
951	0.038
952	0.038
952	0.038
952	0.038
953	0.039
953	0.039
954	0.039
954	0.039
955	0.039
955	0.038
955	0.038
956	0.038
956	0.038
957	0.039
957	0.038
957	0.038
958	0.038
958	0.038
959	0.038
959	0.039
960	0.039
960	0.039
960	0.039
961	0.039
961	0.039
962	0.039
962	0.039
963	0.039
963	0.039
963	0.04
964	0.04
964	0.04
965	0.041
965	0.041
966	0.041
966	0.041
966	0.042
967	0.042
967	0.042
968	0.042
968	0.042
968	0.042
969	0.041
969	0.041
970	0.04
970	0.04
971	0.039
971	0.039
971	0.038
972	0.037
972	0.037
973	0.036
973	0.036
974	0.036
974	0.036
974	0.036
975	0.036
975	0.036
976	0.037
976	0.037
976	0.037
977	0.037
977	0.037
978	0.037
978	0.036
979	0.036
979	0.035
979	0.035
980	0.034
980	0.033
981	0.032
981	0.032
982	0.032
982	0.031
982	0.031
983	0.031
983	0.031
984	0.031
984	0.031
984	0.032
985	0.032
985	0.032
986	0.033
986	0.033
987	0.033
987	0.033
987	0.033
988	0.033
988	0.033
989	0.033
989	0.032
990	0.032
990	0.032
990	0.032
991	0.031
991	0.031
992	0.031
992	0.03
992	0.03
993	0.03
993	0.029
994	0.029
994	0.029
995	0.028
995	0.028
995	0.028
996	0.028
996	0.029
997	0.029
997	0.03
997	0.03
998	0.03
998	0.031
999	0.032
999	0.032
1000	0.033
1000	0.034
1000	0.034
1001	0.034
1001	0.034
1002	0.034
1002	0.034
1003	0.033
1003	0.033
1003	0.032
1004	0.032
1004	0.031
1005	0.03
1005	0.029
1005	0.029
1006	0.028
1006	0.028
1007	0.027
1007	0.027
1008	0.027
1008	0.027
1008	0.027
1009	0.027
1009	0.028
1010	0.028
1010	0.029
1010	0.029
1011	0.03
1011	0.03
1012	0.03
1012	0.031
1013	0.031
1013	0.031
1013	0.031
1014	0.031
1014	0.031
1015	0.031
1015	0.031
1016	0.031
1016	0.03
1016	0.03
1017	0.03
1017	0.03
1018	0.029
1018	0.029
1018	0.029
1019	0.028
1019	0.028
1020	0.028
1020	0.028
1021	0.028
1021	0.028
1021	0.028
1022	0.029
1022	0.029
1023	0.029
1023	0.029
1023	0.03
1024	0.03
1024	0.03
1025	0.03
1025	0.03
1026	0.03
1026	0.03
1026	0.03
1027	0.03
1027	0.03
1028	0.03
1028	0.03
1028	0.031
1029	0.031
1029	0.031
1030	0.031
1030	0.031
1031	0.032
1031	0.032
1031	0.032
1032	0.032
1032	0.032
1033	0.033
1033	0.033
1033	0.033
1034	0.033
1034	0.033
1035	0.032
1035	0.032
1036	0.033
1036	0.033
1036	0.033
1037	0.033
1037	0.033
1038	0.033
1038	0.034
1039	0.034
1039	0.034
1039	0.034
1040	0.035
1040	0.035
1041	0.035
1041	0.035
1041	0.035
1042	0.035
1042	0.035
1043	0.035
1043	0.035
1044	0.035
1044	0.035
1044	0.035
1045	0.035
1045	0.035
1046	0.035
1046	0.035
1046	0.035
1047	0.035
1047	0.035
1048	0.035
1048	0.035
1049	0.035
1049	0.035
1049	0.035
1050	0.035
1050	0.034
1051	0.034
1051	0.034
1051	0.033
1052	0.033
1052	0.032
1053	0.032
1053	0.031
1053	0.031
1054	0.031
1054	0.031
1055	0.03
1055	0.03
1056	0.03
1056	0.029
1056	0.029
1057	0.028
1057	0.028
1058	0.028
1058	0.027
1058	0.026
1059	0.026
1059	0.026
1060	0.025
1060	0.025
1061	0.024
1061	0.024
1061	0.024
1062	0.023
1062	0.023
1063	0.023
1063	0.023
1063	0.023
1064	0.022
1064	0.022
1065	0.022
1065	0.022
1066	0.023
1066	0.022
1066	0.022
1067	0.022
1067	0.023
1068	0.022
1068	0.022
1068	0.022
1069	0.021
1069	0.021
1070	0.02
1070	0.02
1071	0.019
1071	0.018
1071	0.018
1072	0.017
1072	0.017
1073	0.017
1073	0.016
1073	0.016
1074	0.017
1074	0.017
1075	0.017
1075	0.018
1076	0.018
1076	0.018
1076	0.018
1077	0.019
1077	0.019
1078	0.019
1078	0.019
1078	0.019
1079	0.019
1079	0.019
1080	0.018
1080	0.018
1080	0.018
1081	0.018
1081	0.018
1082	0.018
1082	0.018
1083	0.018
1083	0.018
1083	0.018
1084	0.018
1084	0.018
1085	0.019
1085	0.018
1085	0.019
1086	0.019
1086	0.019
1087	0.018
1087	0.018
1088	0.018
1088	0.018
1088	0.018
1089	0.017
1089	0.016
1090	0.016
1090	0.015
1090	0.015
1091	0.014
1091	0.014
1092	0.014
1092	0.015
1092	0.015
1093	0.014
1093	0.014
1094	0.015
1094	0.014
1095	0.014
1095	0.014
1095	0.014
1096	0.013
1096	0.012
1097	0.012
1097	0.011
1097	0.011
1098	0.01
1098	0.008
1099	0.007
1099	0.005
1100	0.004
1100	0.002
1100	0.001
1101	-0
1101	-0.002
1102	-0.003
1102	-0.004
1102	-0.005
1103	-0.006
1103	-0.007
1104	-0.007
1104	-0.007
1104	-0.008
1105	-0.009
1105	-0.011
1106	-0.012
1106	-0.014
1107	-0.014
1107	-0.015
1107	-0.016
1108	-0.017
1108	-0.018
1109	-0.02
1109	-0.02
1109	-0.02
1110	-0.018
1110	-0.019
1111	-0.017
1111	-0.018
