Data from reversibility-20sec_Absorbance__6724__000000000006724.txt Node

Date: Thu Dec 07 01:34:26 CET 2023
User: Marek
Spectrometer: MAYP115816
Trigger mode: 0
Integration Time (sec): 2.000000E-1
Scans to average: 10
Electric dark correction enabled: true
Nonlinearity correction enabled: true
Boxcar width: 5
XAxis mode: Wavelengths
Number of Pixels in Spectrum: 2068
>>>>>Begin Spectral Data<<<<<
199	-0.182
199	-0.148
200	-0.078
200	-0.027
201	-0.002
201	0.015
202	0.025
202	0.036
203	0.044
203	0.047
204	0.062
204	0.078
205	0.09
205	0.096
205	0.097
206	0.099
206	0.1
207	0.104
207	0.105
208	0.105
208	0.108
209	0.109
209	0.106
210	0.108
210	0.109
211	0.11
211	0.112
212	0.109
212	0.112
213	0.113
213	0.113
213	0.11
214	0.114
214	0.116
215	0.115
215	0.114
216	0.116
216	0.114
217	0.12
217	0.119
218	0.119
218	0.125
219	0.131
219	0.131
220	0.133
220	0.137
221	0.139
221	0.14
221	0.146
222	0.15
222	0.155
223	0.161
223	0.163
224	0.169
224	0.176
225	0.184
225	0.194
226	0.203
226	0.214
227	0.225
227	0.236
228	0.252
228	0.267
229	0.284
229	0.306
229	0.328
230	0.355
230	0.382
231	0.415
231	0.454
232	0.491
232	0.532
233	0.577
233	0.625
234	0.675
234	0.727
235	0.78
235	0.834
236	0.886
236	0.938
236	0.99
237	1.04
237	1.09
238	1.134
238	1.18
239	1.228
239	1.268
240	1.307
240	1.341
241	1.376
241	1.41
242	1.44
242	1.474
243	1.503
243	1.529
243	1.554
244	1.574
244	1.595
245	1.615
245	1.637
246	1.656
246	1.672
247	1.683
247	1.695
248	1.707
248	1.721
249	1.732
249	1.74
250	1.747
250	1.756
250	1.76
251	1.764
251	1.767
252	1.774
252	1.776
253	1.777
253	1.775
254	1.776
254	1.777
255	1.777
255	1.777
256	1.777
256	1.778
257	1.779
257	1.778
258	1.78
258	1.781
258	1.781
259	1.78
259	1.78
260	1.78
260	1.781
261	1.781
261	1.781
262	1.783
262	1.785
263	1.787
263	1.788
264	1.788
264	1.789
265	1.789
265	1.789
265	1.789
266	1.79
266	1.79
267	1.788
267	1.787
268	1.784
268	1.784
269	1.785
269	1.784
270	1.783
270	1.782
271	1.78
271	1.779
272	1.777
272	1.777
272	1.774
273	1.77
273	1.765
274	1.76
274	1.755
275	1.749
275	1.742
276	1.735
276	1.728
277	1.72
277	1.709
278	1.698
278	1.687
278	1.674
279	1.66
279	1.643
280	1.623
280	1.599
281	1.569
281	1.536
282	1.499
282	1.462
283	1.425
283	1.387
284	1.35
284	1.314
285	1.279
285	1.247
285	1.218
286	1.192
286	1.169
287	1.149
287	1.131
288	1.116
288	1.103
289	1.092
289	1.082
290	1.074
290	1.066
291	1.06
291	1.054
292	1.049
292	1.044
292	1.039
293	1.035
293	1.031
294	1.027
294	1.023
295	1.019
295	1.016
296	1.012
296	1.009
297	1.005
297	1.002
298	0.999
298	0.995
298	0.992
299	0.989
299	0.986
300	0.983
300	0.98
301	0.977
301	0.974
302	0.971
302	0.968
303	0.966
303	0.963
304	0.96
304	0.958
305	0.955
305	0.952
305	0.949
306	0.947
306	0.944
307	0.941
307	0.938
308	0.936
308	0.933
309	0.93
309	0.927
310	0.924
310	0.921
311	0.918
311	0.914
311	0.911
312	0.908
312	0.904
313	0.9
313	0.896
314	0.892
314	0.888
315	0.884
315	0.88
316	0.875
316	0.871
317	0.866
317	0.861
318	0.856
318	0.851
318	0.846
319	0.84
319	0.835
320	0.829
320	0.823
321	0.817
321	0.811
322	0.805
322	0.798
323	0.792
323	0.785
324	0.778
324	0.772
324	0.765
325	0.758
325	0.751
326	0.744
326	0.737
327	0.73
327	0.723
328	0.717
328	0.71
329	0.703
329	0.696
330	0.689
330	0.682
330	0.675
331	0.668
331	0.661
332	0.654
332	0.647
333	0.64
333	0.633
334	0.626
334	0.619
335	0.613
335	0.605
336	0.599
336	0.592
336	0.586
337	0.58
337	0.573
338	0.567
338	0.561
339	0.555
339	0.549
340	0.543
340	0.537
341	0.532
341	0.526
342	0.52
342	0.515
342	0.51
343	0.505
343	0.5
344	0.494
344	0.49
345	0.485
345	0.48
346	0.476
346	0.471
347	0.467
347	0.462
348	0.458
348	0.454
348	0.45
349	0.446
349	0.443
350	0.439
350	0.436
351	0.432
351	0.429
352	0.426
352	0.423
353	0.42
353	0.417
354	0.414
354	0.41
354	0.407
355	0.404
355	0.401
356	0.398
356	0.395
357	0.393
357	0.39
358	0.387
358	0.384
359	0.382
359	0.38
360	0.378
360	0.376
360	0.374
361	0.372
361	0.37
362	0.368
362	0.366
363	0.364
363	0.363
364	0.361
364	0.359
365	0.357
365	0.355
366	0.353
366	0.351
366	0.349
367	0.348
367	0.346
368	0.344
368	0.342
369	0.341
369	0.339
370	0.338
370	0.337
371	0.335
371	0.334
372	0.333
372	0.331
372	0.33
373	0.329
373	0.328
374	0.327
374	0.326
375	0.325
375	0.324
376	0.323
376	0.322
377	0.321
377	0.32
378	0.318
378	0.318
378	0.317
379	0.316
379	0.315
380	0.314
380	0.313
381	0.312
381	0.311
382	0.311
382	0.31
383	0.31
383	0.309
383	0.308
384	0.308
384	0.307
385	0.307
385	0.306
386	0.306
386	0.305
387	0.304
387	0.304
388	0.303
388	0.302
389	0.302
389	0.301
389	0.301
390	0.301
390	0.3
391	0.299
391	0.299
392	0.299
392	0.299
393	0.298
393	0.298
394	0.297
394	0.297
394	0.296
395	0.296
395	0.295
396	0.295
396	0.294
397	0.294
397	0.294
398	0.293
398	0.293
399	0.292
399	0.292
400	0.292
400	0.291
400	0.291
401	0.29
401	0.29
402	0.29
402	0.289
403	0.289
403	0.288
404	0.288
404	0.287
405	0.287
405	0.287
405	0.286
406	0.286
406	0.286
407	0.286
407	0.285
408	0.285
408	0.285
409	0.284
409	0.284
410	0.284
410	0.284
411	0.283
411	0.283
411	0.283
412	0.282
412	0.282
413	0.282
413	0.281
414	0.281
414	0.281
415	0.281
415	0.28
416	0.28
416	0.279
416	0.279
417	0.279
417	0.279
418	0.278
418	0.278
419	0.277
419	0.276
420	0.276
420	0.275
421	0.275
421	0.274
421	0.274
422	0.274
422	0.273
423	0.273
423	0.273
424	0.273
424	0.272
425	0.272
425	0.272
426	0.272
426	0.271
427	0.271
427	0.271
427	0.271
428	0.27
428	0.27
429	0.269
429	0.269
430	0.269
430	0.268
431	0.268
431	0.268
432	0.268
432	0.268
432	0.268
433	0.268
433	0.267
434	0.267
434	0.267
435	0.267
435	0.267
436	0.266
436	0.266
437	0.266
437	0.266
437	0.266
438	0.265
438	0.265
439	0.265
439	0.265
440	0.264
440	0.264
441	0.264
441	0.264
442	0.263
442	0.263
442	0.263
443	0.263
443	0.263
444	0.262
444	0.262
445	0.262
445	0.262
446	0.262
446	0.262
447	0.262
447	0.262
447	0.261
448	0.261
448	0.261
449	0.261
449	0.261
450	0.261
450	0.261
451	0.261
451	0.261
452	0.261
452	0.261
452	0.261
453	0.261
453	0.261
454	0.261
454	0.26
455	0.26
455	0.26
456	0.26
456	0.26
457	0.26
457	0.26
458	0.26
458	0.26
458	0.26
459	0.26
459	0.26
460	0.26
460	0.26
461	0.26
461	0.26
462	0.26
462	0.26
463	0.26
463	0.26
463	0.26
464	0.26
464	0.259
465	0.259
465	0.259
466	0.259
466	0.259
467	0.259
467	0.26
467	0.26
468	0.26
468	0.26
469	0.261
469	0.261
470	0.262
470	0.262
471	0.262
471	0.263
472	0.263
472	0.263
472	0.263
473	0.263
473	0.263
474	0.263
474	0.263
475	0.264
475	0.264
476	0.264
476	0.264
477	0.265
477	0.265
477	0.265
478	0.266
478	0.266
479	0.266
479	0.267
480	0.267
480	0.268
481	0.268
481	0.269
482	0.269
482	0.27
482	0.27
483	0.271
483	0.271
484	0.272
484	0.272
485	0.273
485	0.273
486	0.273
486	0.274
487	0.274
487	0.275
487	0.275
488	0.276
488	0.276
489	0.277
489	0.279
490	0.28
490	0.281
491	0.282
491	0.283
492	0.284
492	0.285
492	0.286
493	0.287
493	0.288
494	0.289
494	0.29
495	0.291
495	0.292
496	0.292
496	0.294
496	0.295
497	0.296
497	0.296
498	0.297
498	0.298
499	0.299
499	0.3
500	0.302
500	0.303
501	0.304
501	0.305
501	0.305
502	0.306
502	0.307
503	0.308
503	0.309
504	0.31
504	0.311
505	0.312
505	0.313
506	0.314
506	0.315
506	0.316
507	0.317
507	0.318
508	0.318
508	0.319
509	0.32
509	0.321
510	0.322
510	0.323
511	0.324
511	0.325
511	0.326
512	0.327
512	0.328
513	0.328
513	0.329
514	0.329
514	0.33
515	0.331
515	0.331
515	0.332
516	0.332
516	0.333
517	0.333
517	0.334
518	0.334
518	0.335
519	0.335
519	0.335
520	0.335
520	0.336
520	0.336
521	0.336
521	0.336
522	0.336
522	0.336
523	0.335
523	0.335
524	0.335
524	0.335
524	0.335
525	0.335
525	0.335
526	0.334
526	0.334
527	0.333
527	0.333
528	0.333
528	0.332
529	0.331
529	0.331
529	0.33
530	0.329
530	0.328
531	0.327
531	0.326
532	0.326
532	0.325
533	0.324
533	0.323
533	0.322
534	0.321
534	0.32
535	0.319
535	0.318
536	0.316
536	0.315
537	0.314
537	0.313
538	0.312
538	0.31
538	0.309
539	0.308
539	0.307
540	0.306
540	0.304
541	0.303
541	0.302
542	0.301
542	0.299
542	0.298
543	0.296
543	0.295
544	0.293
544	0.292
545	0.29
545	0.289
546	0.287
546	0.285
547	0.283
547	0.282
547	0.28
548	0.279
548	0.277
549	0.275
549	0.274
550	0.272
550	0.271
551	0.269
551	0.267
551	0.266
552	0.265
552	0.263
553	0.262
553	0.26
554	0.259
554	0.257
555	0.255
555	0.253
556	0.252
556	0.25
556	0.249
557	0.248
557	0.247
558	0.246
558	0.244
559	0.243
559	0.242
560	0.24
560	0.239
560	0.238
561	0.237
561	0.236
562	0.234
562	0.232
563	0.23
563	0.229
564	0.227
564	0.226
564	0.224
565	0.223
565	0.222
566	0.22
566	0.219
567	0.218
567	0.216
568	0.215
568	0.214
568	0.213
569	0.211
569	0.21
570	0.209
570	0.207
571	0.206
571	0.205
572	0.204
572	0.202
573	0.202
573	0.201
573	0.199
574	0.198
574	0.198
575	0.197
575	0.197
576	0.196
576	0.194
577	0.193
577	0.192
577	0.191
578	0.19
578	0.189
579	0.189
579	0.188
580	0.187
580	0.185
581	0.184
581	0.183
581	0.183
582	0.182
582	0.182
583	0.181
583	0.18
584	0.179
584	0.178
585	0.177
585	0.176
585	0.175
586	0.175
586	0.174
587	0.173
587	0.172
588	0.171
588	0.17
589	0.169
589	0.169
590	0.168
590	0.168
590	0.168
591	0.168
591	0.167
592	0.166
592	0.165
593	0.164
593	0.164
594	0.163
594	0.162
594	0.161
595	0.16
595	0.16
596	0.159
596	0.158
597	0.159
597	0.159
598	0.158
598	0.158
598	0.157
599	0.157
599	0.156
600	0.155
600	0.155
601	0.154
601	0.154
602	0.153
602	0.152
602	0.152
603	0.151
603	0.151
604	0.151
604	0.151
605	0.15
605	0.15
606	0.149
606	0.148
606	0.148
607	0.147
607	0.147
608	0.147
608	0.146
609	0.145
609	0.144
610	0.144
610	0.143
610	0.143
611	0.143
611	0.142
612	0.142
612	0.142
613	0.142
613	0.142
614	0.142
614	0.142
614	0.142
615	0.142
615	0.141
616	0.141
616	0.141
617	0.14
617	0.14
618	0.139
618	0.139
618	0.139
619	0.139
619	0.139
620	0.139
620	0.139
621	0.138
621	0.138
622	0.137
622	0.136
622	0.136
623	0.135
623	0.135
624	0.134
624	0.134
625	0.133
625	0.133
626	0.132
626	0.132
626	0.132
627	0.132
627	0.132
628	0.132
628	0.131
629	0.131
629	0.131
630	0.131
630	0.131
630	0.131
631	0.13
631	0.13
632	0.13
632	0.129
633	0.129
633	0.129
634	0.129
634	0.129
634	0.129
635	0.128
635	0.128
636	0.128
636	0.128
637	0.128
637	0.128
638	0.128
638	0.127
638	0.127
639	0.126
639	0.126
640	0.126
640	0.126
641	0.125
641	0.125
642	0.125
642	0.125
642	0.125
643	0.125
643	0.124
644	0.125
644	0.125
645	0.124
645	0.124
646	0.124
646	0.123
646	0.123
647	0.123
647	0.122
648	0.121
648	0.121
649	0.12
649	0.12
650	0.12
650	0.12
650	0.12
651	0.12
651	0.12
652	0.12
652	0.12
653	0.121
653	0.122
653	0.128
654	0.103
654	0.083
655	0.081
655	0.082
656	0.082
656	0.082
657	0.082
657	0.083
657	0.083
658	0.082
658	0.074
659	0.092
659	0.117
660	0.122
660	0.122
661	0.122
661	0.121
661	0.121
662	0.12
662	0.12
663	0.119
663	0.119
664	0.119
664	0.119
665	0.118
665	0.118
665	0.118
666	0.118
666	0.118
667	0.118
667	0.119
668	0.119
668	0.119
669	0.12
669	0.12
669	0.12
670	0.121
670	0.12
671	0.12
671	0.119
672	0.119
672	0.118
672	0.117
673	0.117
673	0.116
674	0.116
674	0.115
675	0.115
675	0.115
676	0.115
676	0.116
676	0.116
677	0.116
677	0.116
678	0.116
678	0.116
679	0.116
679	0.116
680	0.115
680	0.115
680	0.115
681	0.115
681	0.115
682	0.115
682	0.115
683	0.116
683	0.116
684	0.117
684	0.117
684	0.116
685	0.117
685	0.117
686	0.117
686	0.117
687	0.117
687	0.116
687	0.116
688	0.116
688	0.116
689	0.116
689	0.117
690	0.116
690	0.116
691	0.116
691	0.116
691	0.116
692	0.116
692	0.116
693	0.116
693	0.116
694	0.116
694	0.116
695	0.117
695	0.118
695	0.118
696	0.118
696	0.118
697	0.118
697	0.118
698	0.118
698	0.118
698	0.118
699	0.118
699	0.118
700	0.117
700	0.117
701	0.117
701	0.117
702	0.116
702	0.116
702	0.116
703	0.115
703	0.115
704	0.114
704	0.114
705	0.114
705	0.114
705	0.114
706	0.114
706	0.114
707	0.114
707	0.114
708	0.114
708	0.114
709	0.114
709	0.114
709	0.114
710	0.114
710	0.114
711	0.114
711	0.114
712	0.114
712	0.114
713	0.114
713	0.114
713	0.114
714	0.114
714	0.113
715	0.113
715	0.112
716	0.112
716	0.112
716	0.111
717	0.111
717	0.11
718	0.11
718	0.11
719	0.11
719	0.111
720	0.111
720	0.112
720	0.112
721	0.113
721	0.114
722	0.115
722	0.115
723	0.115
723	0.115
723	0.115
724	0.115
724	0.114
725	0.113
725	0.112
726	0.112
726	0.111
727	0.11
727	0.11
727	0.11
728	0.11
728	0.109
729	0.11
729	0.11
730	0.11
730	0.11
730	0.111
731	0.111
731	0.112
732	0.112
732	0.113
733	0.113
733	0.113
734	0.114
734	0.114
734	0.114
735	0.115
735	0.114
736	0.114
736	0.113
737	0.113
737	0.112
737	0.112
738	0.111
738	0.11
739	0.11
739	0.11
740	0.109
740	0.109
741	0.11
741	0.11
741	0.11
742	0.11
742	0.111
743	0.112
743	0.112
744	0.113
744	0.113
744	0.113
745	0.113
745	0.113
746	0.112
746	0.112
747	0.112
747	0.111
748	0.111
748	0.111
748	0.11
749	0.11
749	0.11
750	0.11
750	0.11
751	0.11
751	0.11
751	0.11
752	0.11
752	0.109
753	0.109
753	0.108
754	0.108
754	0.107
754	0.107
755	0.107
755	0.107
756	0.107
756	0.106
757	0.106
757	0.106
758	0.106
758	0.106
758	0.107
759	0.107
759	0.107
760	0.107
760	0.106
761	0.107
761	0.107
761	0.108
762	0.107
762	0.107
763	0.107
763	0.106
764	0.105
764	0.105
764	0.105
765	0.105
765	0.104
766	0.104
766	0.104
767	0.103
767	0.102
768	0.102
768	0.102
768	0.103
769	0.103
769	0.103
770	0.104
770	0.105
771	0.105
771	0.106
771	0.107
772	0.108
772	0.108
773	0.109
773	0.109
774	0.109
774	0.109
775	0.11
775	0.11
775	0.11
776	0.11
776	0.11
777	0.11
777	0.11
778	0.11
778	0.109
778	0.109
779	0.109
779	0.108
780	0.107
780	0.106
781	0.106
781	0.105
781	0.104
782	0.103
782	0.103
783	0.103
783	0.103
784	0.103
784	0.103
784	0.103
785	0.103
785	0.103
786	0.103
786	0.103
787	0.103
787	0.102
788	0.102
788	0.101
788	0.1
789	0.099
789	0.099
790	0.099
790	0.099
791	0.099
791	0.098
791	0.098
792	0.098
792	0.098
793	0.098
793	0.097
794	0.097
794	0.097
794	0.096
795	0.096
795	0.096
796	0.096
796	0.096
797	0.096
797	0.096
797	0.097
798	0.097
798	0.098
799	0.098
799	0.098
800	0.098
800	0.097
801	0.097
801	0.097
801	0.097
802	0.097
802	0.097
803	0.097
803	0.097
804	0.097
804	0.098
804	0.098
805	0.097
805	0.097
806	0.097
806	0.097
807	0.097
807	0.096
807	0.096
808	0.096
808	0.095
809	0.095
809	0.095
810	0.095
810	0.095
810	0.094
811	0.094
811	0.095
812	0.095
812	0.095
813	0.095
813	0.094
813	0.094
814	0.095
814	0.095
815	0.095
815	0.094
816	0.094
816	0.093
817	0.092
817	0.092
817	0.092
818	0.092
818	0.092
819	0.092
819	0.092
820	0.092
820	0.092
820	0.092
821	0.092
821	0.092
822	0.092
822	0.092
823	0.092
823	0.092
823	0.092
824	0.092
824	0.093
825	0.094
825	0.094
826	0.094
826	0.094
826	0.094
827	0.095
827	0.095
828	0.095
828	0.095
829	0.095
829	0.095
829	0.095
830	0.095
830	0.095
831	0.096
831	0.097
832	0.097
832	0.097
832	0.097
833	0.097
833	0.097
834	0.097
834	0.096
835	0.096
835	0.095
835	0.095
836	0.094
836	0.094
837	0.093
837	0.092
838	0.092
838	0.091
839	0.091
839	0.09
839	0.089
840	0.088
840	0.087
841	0.086
841	0.085
842	0.084
842	0.084
842	0.083
843	0.082
843	0.081
844	0.081
844	0.08
845	0.08
845	0.079
845	0.079
846	0.079
846	0.079
847	0.079
847	0.079
848	0.08
848	0.081
848	0.081
849	0.082
849	0.082
850	0.083
850	0.083
851	0.083
851	0.083
851	0.083
852	0.083
852	0.082
853	0.082
853	0.081
854	0.081
854	0.082
854	0.082
855	0.082
855	0.083
856	0.083
856	0.083
857	0.084
857	0.085
857	0.085
858	0.085
858	0.085
859	0.085
859	0.084
860	0.084
860	0.084
860	0.083
861	0.082
861	0.082
862	0.081
862	0.08
863	0.08
863	0.079
863	0.079
864	0.079
864	0.079
865	0.079
865	0.079
866	0.079
866	0.078
866	0.079
867	0.079
867	0.079
868	0.08
868	0.08
869	0.08
869	0.08
869	0.08
870	0.079
870	0.079
871	0.079
871	0.079
872	0.078
872	0.077
872	0.077
873	0.076
873	0.075
874	0.075
874	0.074
875	0.074
875	0.074
875	0.074
876	0.074
876	0.074
877	0.074
877	0.075
878	0.075
878	0.075
878	0.075
879	0.075
879	0.075
880	0.075
880	0.075
881	0.075
881	0.075
881	0.075
882	0.075
882	0.075
883	0.075
883	0.075
884	0.075
884	0.075
884	0.075
885	0.075
885	0.075
886	0.075
886	0.075
887	0.074
887	0.074
887	0.073
888	0.072
888	0.072
889	0.071
889	0.071
890	0.071
890	0.071
890	0.07
891	0.07
891	0.07
892	0.07
892	0.07
893	0.07
893	0.069
893	0.069
894	0.068
894	0.068
895	0.067
895	0.067
895	0.068
896	0.068
896	0.068
897	0.069
897	0.069
898	0.069
898	0.07
898	0.07
899	0.07
899	0.07
900	0.07
900	0.07
901	0.07
901	0.07
901	0.07
902	0.069
902	0.069
903	0.068
903	0.068
904	0.068
904	0.067
904	0.067
905	0.067
905	0.066
906	0.066
906	0.066
907	0.066
907	0.066
907	0.067
908	0.067
908	0.067
909	0.067
909	0.066
910	0.066
910	0.066
910	0.065
911	0.065
911	0.064
912	0.064
912	0.063
913	0.063
913	0.063
913	0.062
914	0.062
914	0.062
915	0.062
915	0.062
916	0.062
916	0.062
916	0.062
917	0.062
917	0.061
918	0.061
918	0.06
918	0.06
919	0.06
919	0.059
920	0.059
920	0.058
921	0.058
921	0.058
921	0.057
922	0.057
922	0.057
923	0.057
923	0.057
924	0.058
924	0.058
924	0.059
925	0.06
925	0.06
926	0.061
926	0.062
927	0.062
927	0.063
927	0.064
928	0.064
928	0.064
929	0.065
929	0.065
930	0.065
930	0.065
930	0.066
931	0.066
931	0.066
932	0.066
932	0.066
933	0.066
933	0.066
933	0.066
934	0.065
934	0.065
935	0.064
935	0.064
935	0.063
936	0.063
936	0.062
937	0.061
937	0.06
938	0.06
938	0.059
938	0.058
939	0.058
939	0.057
940	0.057
940	0.057
941	0.058
941	0.058
941	0.058
942	0.059
942	0.059
943	0.059
943	0.059
944	0.059
944	0.059
944	0.06
945	0.06
945	0.06
946	0.06
946	0.06
946	0.06
947	0.06
947	0.06
948	0.06
948	0.059
949	0.059
949	0.058
949	0.058
950	0.057
950	0.057
951	0.057
951	0.056
952	0.055
952	0.055
952	0.055
953	0.055
953	0.055
954	0.055
954	0.055
955	0.055
955	0.055
955	0.055
956	0.056
956	0.056
957	0.056
957	0.057
957	0.057
958	0.057
958	0.057
959	0.057
959	0.057
960	0.057
960	0.057
960	0.057
961	0.056
961	0.056
962	0.056
962	0.056
963	0.056
963	0.055
963	0.055
964	0.055
964	0.056
965	0.056
965	0.056
966	0.057
966	0.057
966	0.057
967	0.057
967	0.057
968	0.058
968	0.058
968	0.057
969	0.057
969	0.057
970	0.056
970	0.055
971	0.054
971	0.054
971	0.053
972	0.053
972	0.052
973	0.052
973	0.052
974	0.052
974	0.052
974	0.052
975	0.053
975	0.053
976	0.054
976	0.055
976	0.055
977	0.056
977	0.056
978	0.056
978	0.056
979	0.056
979	0.056
979	0.056
980	0.055
980	0.055
981	0.054
981	0.054
982	0.053
982	0.053
982	0.053
983	0.052
983	0.052
984	0.052
984	0.052
984	0.052
985	0.052
985	0.052
986	0.053
986	0.053
987	0.053
987	0.053
987	0.053
988	0.053
988	0.053
989	0.053
989	0.053
990	0.053
990	0.053
990	0.052
991	0.052
991	0.052
992	0.051
992	0.05
992	0.049
993	0.049
993	0.048
994	0.047
994	0.046
995	0.045
995	0.045
995	0.045
996	0.044
996	0.044
997	0.045
997	0.045
997	0.045
998	0.046
998	0.046
999	0.047
999	0.048
1000	0.049
1000	0.049
1000	0.049
1001	0.049
1001	0.049
1002	0.049
1002	0.048
1003	0.048
1003	0.047
1003	0.046
1004	0.045
1004	0.044
1005	0.043
1005	0.042
1005	0.041
1006	0.04
1006	0.04
1007	0.039
1007	0.039
1008	0.039
1008	0.039
1008	0.039
1009	0.039
1009	0.039
1010	0.039
1010	0.04
1010	0.04
1011	0.04
1011	0.04
1012	0.04
1012	0.04
1013	0.039
1013	0.039
1013	0.039
1014	0.038
1014	0.038
1015	0.038
1015	0.038
1016	0.038
1016	0.038
1016	0.038
1017	0.039
1017	0.039
1018	0.039
1018	0.039
1018	0.04
1019	0.04
1019	0.041
1020	0.041
1020	0.042
1021	0.042
1021	0.043
1021	0.044
1022	0.044
1022	0.044
1023	0.045
1023	0.045
1023	0.045
1024	0.045
1024	0.045
1025	0.046
1025	0.045
1026	0.045
1026	0.045
1026	0.045
1027	0.045
1027	0.045
1028	0.045
1028	0.045
1028	0.045
1029	0.045
1029	0.045
1030	0.045
1030	0.045
1031	0.045
1031	0.046
1031	0.046
1032	0.046
1032	0.046
1033	0.046
1033	0.046
1033	0.047
1034	0.047
1034	0.047
1035	0.047
1035	0.046
1036	0.047
1036	0.047
1036	0.047
1037	0.047
1037	0.047
1038	0.046
1038	0.046
1039	0.046
1039	0.046
1039	0.046
1040	0.046
1040	0.045
1041	0.045
1041	0.045
1041	0.044
1042	0.044
1042	0.044
1043	0.044
1043	0.043
1044	0.043
1044	0.043
1044	0.043
1045	0.043
1045	0.043
1046	0.043
1046	0.043
1046	0.043
1047	0.043
1047	0.043
1048	0.043
1048	0.043
1049	0.043
1049	0.044
1049	0.044
1050	0.044
1050	0.044
1051	0.044
1051	0.044
1051	0.044
1052	0.043
1052	0.043
1053	0.042
1053	0.042
1053	0.042
1054	0.041
1054	0.041
1055	0.04
1055	0.04
1056	0.04
1056	0.039
1056	0.039
1057	0.038
1057	0.038
1058	0.037
1058	0.037
1058	0.036
1059	0.036
1059	0.036
1060	0.035
1060	0.034
1061	0.034
1061	0.034
1061	0.034
1062	0.034
1062	0.033
1063	0.033
1063	0.033
1063	0.033
1064	0.032
1064	0.032
1065	0.032
1065	0.032
1066	0.032
1066	0.031
1066	0.031
1067	0.031
1067	0.031
1068	0.031
1068	0.031
1068	0.031
1069	0.031
1069	0.031
1070	0.031
1070	0.03
1071	0.03
1071	0.029
1071	0.029
1072	0.029
1072	0.029
1073	0.029
1073	0.028
1073	0.028
1074	0.029
1074	0.029
1075	0.029
1075	0.029
1076	0.03
1076	0.031
1076	0.031
1077	0.031
1077	0.032
1078	0.032
1078	0.032
1078	0.032
1079	0.032
1079	0.032
1080	0.031
1080	0.031
1080	0.031
1081	0.031
1081	0.031
1082	0.031
1082	0.032
1083	0.032
1083	0.031
1083	0.032
1084	0.032
1084	0.033
1085	0.033
1085	0.033
1085	0.033
1086	0.034
1086	0.033
1087	0.033
1087	0.033
1088	0.033
1088	0.033
1088	0.033
1089	0.032
1089	0.032
1090	0.032
1090	0.031
1090	0.03
1091	0.03
1091	0.029
1092	0.029
1092	0.029
1092	0.029
1093	0.028
1093	0.028
1094	0.028
1094	0.027
1095	0.027
1095	0.026
1095	0.026
1096	0.025
1096	0.025
1097	0.023
1097	0.023
1097	0.023
1098	0.022
1098	0.021
1099	0.021
1099	0.021
1100	0.02
1100	0.019
1100	0.018
1101	0.017
1101	0.016
1102	0.015
1102	0.014
1102	0.013
1103	0.013
1103	0.011
1104	0.011
1104	0.01
1104	0.009
1105	0.008
1105	0.007
1106	0.006
1106	0.005
1107	0.005
1107	0.005
1107	0.005
1108	0.004
1108	0.003
1109	0.002
1109	0.003
1109	0.003
1110	0.004
1110	0.004
1111	0.004
1111	0.004
