Data from reversibility-20sec_Absorbance__6717__000000000006717.txt Node

Date: Thu Dec 07 01:32:06 CET 2023
User: Marek
Spectrometer: MAYP115816
Trigger mode: 0
Integration Time (sec): 2.000000E-1
Scans to average: 10
Electric dark correction enabled: true
Nonlinearity correction enabled: true
Boxcar width: 5
XAxis mode: Wavelengths
Number of Pixels in Spectrum: 2068
>>>>>Begin Spectral Data<<<<<
199	-0.131
199	-0.115
200	-0.043
200	0.002
201	0.032
201	0.05
202	0.059
202	0.071
203	0.083
203	0.083
204	0.096
204	0.11
205	0.124
205	0.129
205	0.129
206	0.128
206	0.126
207	0.129
207	0.127
208	0.123
208	0.125
209	0.129
209	0.126
210	0.129
210	0.128
211	0.13
211	0.134
212	0.136
212	0.136
213	0.139
213	0.14
213	0.14
214	0.142
214	0.144
215	0.142
215	0.142
216	0.142
216	0.138
217	0.141
217	0.143
218	0.141
218	0.145
219	0.151
219	0.153
220	0.154
220	0.155
221	0.158
221	0.161
221	0.167
222	0.173
222	0.182
223	0.188
223	0.193
224	0.195
224	0.202
225	0.212
225	0.222
226	0.233
226	0.242
227	0.253
227	0.258
228	0.268
228	0.281
229	0.296
229	0.32
229	0.342
230	0.365
230	0.394
231	0.425
231	0.46
232	0.499
232	0.545
233	0.587
233	0.638
234	0.688
234	0.741
235	0.794
235	0.849
236	0.898
236	0.95
236	1.004
237	1.055
237	1.101
238	1.15
238	1.193
239	1.237
239	1.278
240	1.316
240	1.348
241	1.385
241	1.418
242	1.451
242	1.483
243	1.513
243	1.537
243	1.563
244	1.586
244	1.608
245	1.628
245	1.652
246	1.669
246	1.685
247	1.697
247	1.71
248	1.723
248	1.737
249	1.745
249	1.751
250	1.758
250	1.766
250	1.768
251	1.773
251	1.776
252	1.781
252	1.782
253	1.784
253	1.78
254	1.781
254	1.782
255	1.78
255	1.78
256	1.779
256	1.776
257	1.776
257	1.774
258	1.774
258	1.773
258	1.775
259	1.773
259	1.774
260	1.773
260	1.773
261	1.774
261	1.777
262	1.78
262	1.782
263	1.784
263	1.785
264	1.786
264	1.788
265	1.789
265	1.789
265	1.79
266	1.788
266	1.788
267	1.786
267	1.787
268	1.785
268	1.785
269	1.787
269	1.786
270	1.785
270	1.785
271	1.783
271	1.782
272	1.78
272	1.778
272	1.774
273	1.769
273	1.764
274	1.757
274	1.75
275	1.742
275	1.735
276	1.728
276	1.721
277	1.713
277	1.703
278	1.692
278	1.68
278	1.666
279	1.65
279	1.631
280	1.608
280	1.579
281	1.544
281	1.505
282	1.465
282	1.424
283	1.383
283	1.342
284	1.303
284	1.264
285	1.229
285	1.196
285	1.166
286	1.14
286	1.117
287	1.097
287	1.08
288	1.065
288	1.053
289	1.042
289	1.033
290	1.024
290	1.016
291	1.01
291	1.005
292	1
292	0.995
292	0.991
293	0.987
293	0.983
294	0.979
294	0.976
295	0.973
295	0.97
296	0.967
296	0.963
297	0.96
297	0.957
298	0.954
298	0.951
298	0.948
299	0.946
299	0.943
300	0.94
300	0.937
301	0.935
301	0.932
302	0.929
302	0.927
303	0.925
303	0.922
304	0.92
304	0.917
305	0.915
305	0.912
305	0.91
306	0.907
306	0.905
307	0.903
307	0.9
308	0.897
308	0.894
309	0.892
309	0.889
310	0.886
310	0.883
311	0.88
311	0.877
311	0.874
312	0.87
312	0.867
313	0.863
313	0.859
314	0.856
314	0.852
315	0.847
315	0.843
316	0.839
316	0.834
317	0.83
317	0.825
318	0.82
318	0.814
318	0.809
319	0.804
319	0.799
320	0.793
320	0.787
321	0.781
321	0.775
322	0.769
322	0.763
323	0.756
323	0.75
324	0.743
324	0.737
324	0.73
325	0.723
325	0.716
326	0.709
326	0.702
327	0.695
327	0.688
328	0.682
328	0.675
329	0.668
329	0.66
330	0.654
330	0.647
330	0.64
331	0.633
331	0.626
332	0.619
332	0.612
333	0.605
333	0.598
334	0.591
334	0.584
335	0.577
335	0.57
336	0.564
336	0.557
336	0.551
337	0.544
337	0.538
338	0.531
338	0.525
339	0.519
339	0.513
340	0.507
340	0.502
341	0.496
341	0.491
342	0.485
342	0.48
342	0.475
343	0.47
343	0.464
344	0.459
344	0.455
345	0.45
345	0.445
346	0.44
346	0.436
347	0.432
347	0.427
348	0.423
348	0.42
348	0.416
349	0.412
349	0.408
350	0.405
350	0.401
351	0.398
351	0.395
352	0.391
352	0.388
353	0.385
353	0.382
354	0.379
354	0.376
354	0.373
355	0.37
355	0.367
356	0.365
356	0.362
357	0.359
357	0.356
358	0.353
358	0.351
359	0.349
359	0.346
360	0.344
360	0.342
360	0.34
361	0.339
361	0.337
362	0.335
362	0.333
363	0.332
363	0.33
364	0.328
364	0.326
365	0.324
365	0.322
366	0.321
366	0.319
366	0.317
367	0.316
367	0.314
368	0.313
368	0.311
369	0.309
369	0.308
370	0.307
370	0.305
371	0.304
371	0.302
372	0.301
372	0.3
372	0.299
373	0.298
373	0.297
374	0.297
374	0.296
375	0.295
375	0.294
376	0.293
376	0.292
377	0.291
377	0.29
378	0.289
378	0.288
378	0.287
379	0.286
379	0.285
380	0.285
380	0.284
381	0.283
381	0.282
382	0.282
382	0.281
383	0.28
383	0.28
383	0.279
384	0.279
384	0.278
385	0.278
385	0.277
386	0.277
386	0.277
387	0.276
387	0.276
388	0.275
388	0.275
389	0.275
389	0.274
389	0.274
390	0.274
390	0.273
391	0.273
391	0.273
392	0.272
392	0.272
393	0.272
393	0.271
394	0.271
394	0.27
394	0.27
395	0.27
395	0.269
396	0.269
396	0.268
397	0.268
397	0.268
398	0.267
398	0.267
399	0.267
399	0.266
400	0.266
400	0.265
400	0.265
401	0.265
401	0.265
402	0.264
402	0.264
403	0.264
403	0.263
404	0.263
404	0.263
405	0.263
405	0.262
405	0.262
406	0.262
406	0.262
407	0.261
407	0.261
408	0.261
408	0.261
409	0.26
409	0.26
410	0.26
410	0.26
411	0.259
411	0.259
411	0.259
412	0.259
412	0.258
413	0.258
413	0.258
414	0.257
414	0.257
415	0.257
415	0.256
416	0.256
416	0.256
416	0.255
417	0.255
417	0.255
418	0.255
418	0.254
419	0.254
419	0.253
420	0.253
420	0.253
421	0.252
421	0.251
421	0.251
422	0.251
422	0.25
423	0.25
423	0.25
424	0.249
424	0.249
425	0.249
425	0.249
426	0.249
426	0.249
427	0.248
427	0.248
427	0.248
428	0.247
428	0.247
429	0.247
429	0.246
430	0.246
430	0.245
431	0.245
431	0.245
432	0.245
432	0.245
432	0.244
433	0.244
433	0.244
434	0.244
434	0.244
435	0.244
435	0.244
436	0.244
436	0.244
437	0.243
437	0.243
437	0.243
438	0.242
438	0.242
439	0.242
439	0.241
440	0.241
440	0.241
441	0.241
441	0.24
442	0.24
442	0.24
442	0.24
443	0.24
443	0.239
444	0.239
444	0.239
445	0.239
445	0.239
446	0.239
446	0.239
447	0.238
447	0.238
447	0.238
448	0.238
448	0.238
449	0.237
449	0.237
450	0.237
450	0.237
451	0.237
451	0.237
452	0.237
452	0.237
452	0.237
453	0.236
453	0.236
454	0.236
454	0.236
455	0.235
455	0.235
456	0.235
456	0.235
457	0.234
457	0.234
458	0.234
458	0.234
458	0.234
459	0.234
459	0.234
460	0.234
460	0.234
461	0.234
461	0.233
462	0.233
462	0.233
463	0.233
463	0.233
463	0.233
464	0.233
464	0.232
465	0.232
465	0.232
466	0.232
466	0.232
467	0.232
467	0.232
467	0.232
468	0.232
468	0.232
469	0.232
469	0.232
470	0.233
470	0.233
471	0.233
471	0.233
472	0.233
472	0.233
472	0.233
473	0.233
473	0.233
474	0.233
474	0.233
475	0.233
475	0.233
476	0.233
476	0.233
477	0.234
477	0.234
477	0.234
478	0.234
478	0.234
479	0.234
479	0.234
480	0.234
480	0.234
481	0.234
481	0.234
482	0.235
482	0.235
482	0.235
483	0.235
483	0.236
484	0.236
484	0.236
485	0.236
485	0.236
486	0.236
486	0.236
487	0.236
487	0.237
487	0.237
488	0.237
488	0.237
489	0.238
489	0.239
490	0.24
490	0.24
491	0.241
491	0.242
492	0.242
492	0.243
492	0.244
493	0.244
493	0.245
494	0.245
494	0.246
495	0.246
495	0.246
496	0.247
496	0.248
496	0.248
497	0.249
497	0.249
498	0.25
498	0.25
499	0.251
499	0.251
500	0.252
500	0.253
501	0.254
501	0.254
501	0.255
502	0.255
502	0.256
503	0.256
503	0.257
504	0.257
504	0.258
505	0.259
505	0.259
506	0.26
506	0.26
506	0.261
507	0.262
507	0.262
508	0.263
508	0.264
509	0.264
509	0.264
510	0.265
510	0.265
511	0.266
511	0.267
511	0.267
512	0.268
512	0.268
513	0.269
513	0.27
514	0.27
514	0.271
515	0.271
515	0.272
515	0.272
516	0.272
516	0.273
517	0.273
517	0.274
518	0.274
518	0.274
519	0.275
519	0.274
520	0.275
520	0.275
520	0.275
521	0.275
521	0.275
522	0.275
522	0.275
523	0.275
523	0.276
524	0.275
524	0.276
524	0.276
525	0.276
525	0.276
526	0.276
526	0.276
527	0.276
527	0.275
528	0.275
528	0.275
529	0.274
529	0.274
529	0.274
530	0.273
530	0.273
531	0.273
531	0.272
532	0.272
532	0.271
533	0.271
533	0.271
533	0.271
534	0.27
534	0.269
535	0.269
535	0.268
536	0.268
536	0.268
537	0.267
537	0.267
538	0.266
538	0.265
538	0.265
539	0.265
539	0.264
540	0.264
540	0.263
541	0.263
541	0.262
542	0.261
542	0.261
542	0.26
543	0.26
543	0.259
544	0.258
544	0.258
545	0.257
545	0.256
546	0.256
546	0.255
547	0.254
547	0.253
547	0.252
548	0.251
548	0.25
549	0.249
549	0.249
550	0.248
550	0.247
551	0.246
551	0.246
551	0.245
552	0.244
552	0.244
553	0.243
553	0.242
554	0.242
554	0.241
555	0.24
555	0.239
556	0.238
556	0.237
556	0.236
557	0.235
557	0.235
558	0.235
558	0.234
559	0.234
559	0.233
560	0.233
560	0.232
560	0.232
561	0.232
561	0.231
562	0.23
562	0.229
563	0.228
563	0.227
564	0.226
564	0.225
564	0.225
565	0.224
565	0.223
566	0.223
566	0.222
567	0.221
567	0.221
568	0.22
568	0.219
568	0.219
569	0.218
569	0.217
570	0.216
570	0.215
571	0.214
571	0.213
572	0.212
572	0.212
573	0.211
573	0.211
573	0.21
574	0.209
574	0.209
575	0.209
575	0.209
576	0.209
576	0.208
577	0.207
577	0.206
577	0.206
578	0.205
578	0.205
579	0.204
579	0.204
580	0.203
580	0.202
581	0.201
581	0.2
581	0.2
582	0.2
582	0.2
583	0.2
583	0.199
584	0.198
584	0.197
585	0.197
585	0.197
585	0.196
586	0.196
586	0.195
587	0.194
587	0.194
588	0.193
588	0.192
589	0.192
589	0.192
590	0.192
590	0.192
590	0.192
591	0.192
591	0.191
592	0.191
592	0.19
593	0.19
593	0.189
594	0.189
594	0.188
594	0.187
595	0.187
595	0.186
596	0.185
596	0.185
597	0.186
597	0.186
598	0.186
598	0.186
598	0.185
599	0.185
599	0.185
600	0.184
600	0.184
601	0.183
601	0.183
602	0.182
602	0.181
602	0.181
603	0.181
603	0.181
604	0.181
604	0.181
605	0.181
605	0.181
606	0.18
606	0.179
606	0.179
607	0.179
607	0.178
608	0.178
608	0.177
609	0.177
609	0.176
610	0.176
610	0.175
610	0.175
611	0.176
611	0.176
612	0.176
612	0.176
613	0.176
613	0.176
614	0.176
614	0.175
614	0.175
615	0.175
615	0.175
616	0.175
616	0.174
617	0.174
617	0.174
618	0.173
618	0.173
618	0.173
619	0.173
619	0.173
620	0.173
620	0.173
621	0.172
621	0.172
622	0.172
622	0.171
622	0.171
623	0.171
623	0.17
624	0.17
624	0.169
625	0.169
625	0.169
626	0.169
626	0.169
626	0.169
627	0.169
627	0.168
628	0.168
628	0.168
629	0.168
629	0.168
630	0.168
630	0.167
630	0.167
631	0.167
631	0.167
632	0.166
632	0.166
633	0.166
633	0.166
634	0.166
634	0.166
634	0.166
635	0.166
635	0.166
636	0.166
636	0.166
637	0.166
637	0.166
638	0.165
638	0.165
638	0.165
639	0.165
639	0.164
640	0.164
640	0.164
641	0.164
641	0.164
642	0.163
642	0.164
642	0.164
643	0.164
643	0.164
644	0.164
644	0.164
645	0.164
645	0.164
646	0.164
646	0.163
646	0.163
647	0.163
647	0.162
648	0.161
648	0.161
649	0.161
649	0.16
650	0.16
650	0.16
650	0.161
651	0.161
651	0.16
652	0.16
652	0.161
653	0.161
653	0.162
653	0.168
654	0.133
654	0.107
655	0.106
655	0.107
656	0.107
656	0.107
657	0.108
657	0.108
657	0.108
658	0.107
658	0.098
659	0.123
659	0.157
660	0.163
660	0.163
661	0.163
661	0.162
661	0.162
662	0.162
662	0.161
663	0.16
663	0.16
664	0.16
664	0.16
665	0.16
665	0.16
665	0.16
666	0.16
666	0.16
667	0.16
667	0.161
668	0.161
668	0.162
669	0.162
669	0.162
669	0.163
670	0.163
670	0.163
671	0.162
671	0.162
672	0.161
672	0.16
672	0.159
673	0.159
673	0.158
674	0.158
674	0.157
675	0.157
675	0.157
676	0.158
676	0.158
676	0.158
677	0.159
677	0.159
678	0.159
678	0.159
679	0.159
679	0.159
680	0.159
680	0.159
680	0.158
681	0.158
681	0.159
682	0.159
682	0.159
683	0.159
683	0.16
684	0.16
684	0.16
684	0.16
685	0.161
685	0.161
686	0.161
686	0.161
687	0.16
687	0.16
687	0.16
688	0.159
688	0.159
689	0.16
689	0.16
690	0.16
690	0.159
691	0.159
691	0.159
691	0.159
692	0.159
692	0.16
693	0.16
693	0.16
694	0.16
694	0.16
695	0.161
695	0.162
695	0.162
696	0.162
696	0.163
697	0.163
697	0.163
698	0.163
698	0.163
698	0.163
699	0.164
699	0.163
700	0.163
700	0.163
701	0.163
701	0.163
702	0.163
702	0.162
702	0.162
703	0.162
703	0.161
704	0.161
704	0.161
705	0.16
705	0.16
705	0.16
706	0.16
706	0.16
707	0.16
707	0.16
708	0.16
708	0.16
709	0.16
709	0.16
709	0.16
710	0.16
710	0.16
711	0.16
711	0.16
712	0.16
712	0.16
713	0.16
713	0.16
713	0.16
714	0.16
714	0.16
715	0.16
715	0.16
716	0.159
716	0.159
716	0.158
717	0.158
717	0.158
718	0.157
718	0.157
719	0.157
719	0.158
720	0.158
720	0.159
720	0.16
721	0.161
721	0.162
722	0.163
722	0.163
723	0.163
723	0.164
723	0.163
724	0.163
724	0.163
725	0.162
725	0.161
726	0.16
726	0.16
727	0.159
727	0.159
727	0.159
728	0.159
728	0.159
729	0.16
729	0.16
730	0.16
730	0.161
730	0.161
731	0.162
731	0.162
732	0.163
732	0.164
733	0.164
733	0.164
734	0.165
734	0.165
734	0.166
735	0.166
735	0.166
736	0.166
736	0.165
737	0.165
737	0.165
737	0.165
738	0.164
738	0.163
739	0.163
739	0.163
740	0.162
740	0.162
741	0.163
741	0.163
741	0.163
742	0.163
742	0.164
743	0.165
743	0.166
744	0.167
744	0.167
744	0.168
745	0.168
745	0.168
746	0.168
746	0.168
747	0.168
747	0.168
748	0.168
748	0.168
748	0.167
749	0.167
749	0.167
750	0.167
750	0.167
751	0.167
751	0.167
751	0.167
752	0.166
752	0.166
753	0.166
753	0.165
754	0.165
754	0.165
754	0.165
755	0.165
755	0.166
756	0.165
756	0.165
757	0.165
757	0.165
758	0.165
758	0.165
758	0.166
759	0.166
759	0.166
760	0.166
760	0.166
761	0.166
761	0.167
761	0.167
762	0.168
762	0.168
763	0.168
763	0.167
764	0.167
764	0.167
764	0.167
765	0.167
765	0.167
766	0.167
766	0.167
767	0.166
767	0.166
768	0.166
768	0.166
768	0.166
769	0.167
769	0.167
770	0.168
770	0.168
771	0.169
771	0.169
771	0.17
772	0.171
772	0.172
773	0.172
773	0.172
774	0.172
774	0.173
775	0.173
775	0.173
775	0.173
776	0.173
776	0.173
777	0.173
777	0.173
778	0.173
778	0.173
778	0.173
779	0.173
779	0.172
780	0.172
780	0.171
781	0.171
781	0.17
781	0.17
782	0.169
782	0.169
783	0.169
783	0.169
784	0.169
784	0.169
784	0.169
785	0.169
785	0.169
786	0.169
786	0.169
787	0.169
787	0.169
788	0.168
788	0.168
788	0.168
789	0.167
789	0.167
790	0.167
790	0.167
791	0.167
791	0.166
791	0.166
792	0.167
792	0.167
793	0.167
793	0.167
794	0.167
794	0.167
794	0.167
795	0.167
795	0.167
796	0.167
796	0.167
797	0.167
797	0.167
797	0.168
798	0.168
798	0.168
799	0.169
799	0.169
800	0.169
800	0.169
801	0.169
801	0.169
801	0.169
802	0.169
802	0.169
803	0.169
803	0.169
804	0.17
804	0.17
804	0.17
805	0.17
805	0.169
806	0.169
806	0.169
807	0.169
807	0.169
807	0.169
808	0.168
808	0.168
809	0.168
809	0.168
810	0.168
810	0.168
810	0.168
811	0.168
811	0.169
812	0.169
812	0.17
813	0.17
813	0.17
813	0.171
814	0.171
814	0.171
815	0.171
815	0.171
816	0.171
816	0.17
817	0.169
817	0.168
817	0.168
818	0.168
818	0.168
819	0.167
819	0.167
820	0.166
820	0.166
820	0.166
821	0.166
821	0.167
822	0.167
822	0.167
823	0.166
823	0.166
823	0.166
824	0.167
824	0.168
825	0.168
825	0.169
826	0.169
826	0.169
826	0.17
827	0.17
827	0.17
828	0.17
828	0.17
829	0.169
829	0.169
829	0.169
830	0.169
830	0.17
831	0.17
831	0.171
832	0.171
832	0.171
832	0.172
833	0.172
833	0.172
834	0.172
834	0.172
835	0.171
835	0.171
835	0.17
836	0.17
836	0.169
837	0.169
837	0.168
838	0.168
838	0.167
839	0.166
839	0.165
839	0.165
840	0.164
840	0.163
841	0.162
841	0.161
842	0.161
842	0.16
842	0.159
843	0.159
843	0.158
844	0.157
844	0.157
845	0.157
845	0.156
845	0.156
846	0.156
846	0.156
847	0.157
847	0.157
848	0.157
848	0.158
848	0.158
849	0.159
849	0.159
850	0.159
850	0.159
851	0.159
851	0.159
851	0.159
852	0.158
852	0.158
853	0.158
853	0.157
854	0.157
854	0.158
854	0.158
855	0.158
855	0.159
856	0.159
856	0.16
857	0.161
857	0.161
857	0.162
858	0.162
858	0.161
859	0.16
859	0.16
860	0.159
860	0.159
860	0.158
861	0.157
861	0.156
862	0.155
862	0.154
863	0.154
863	0.153
863	0.153
864	0.153
864	0.153
865	0.153
865	0.153
866	0.153
866	0.153
866	0.153
867	0.153
867	0.154
868	0.154
868	0.155
869	0.155
869	0.155
869	0.155
870	0.154
870	0.154
871	0.153
871	0.153
872	0.152
872	0.152
872	0.151
873	0.15
873	0.15
874	0.149
874	0.149
875	0.148
875	0.148
875	0.148
876	0.149
876	0.149
877	0.149
877	0.149
878	0.15
878	0.15
878	0.15
879	0.15
879	0.15
880	0.15
880	0.15
881	0.15
881	0.15
881	0.149
882	0.149
882	0.149
883	0.149
883	0.149
884	0.149
884	0.149
884	0.149
885	0.149
885	0.148
886	0.148
886	0.148
887	0.147
887	0.147
887	0.146
888	0.146
888	0.145
889	0.144
889	0.144
890	0.144
890	0.144
890	0.144
891	0.144
891	0.144
892	0.143
892	0.144
893	0.143
893	0.143
893	0.143
894	0.143
894	0.142
895	0.142
895	0.142
895	0.142
896	0.142
896	0.142
897	0.142
897	0.142
898	0.142
898	0.142
898	0.141
899	0.141
899	0.141
900	0.141
900	0.141
901	0.14
901	0.14
901	0.14
902	0.139
902	0.139
903	0.138
903	0.138
904	0.138
904	0.137
904	0.136
905	0.136
905	0.135
906	0.135
906	0.134
907	0.134
907	0.134
907	0.135
908	0.134
908	0.134
909	0.134
909	0.134
910	0.134
910	0.134
910	0.133
911	0.133
911	0.132
912	0.132
912	0.131
913	0.131
913	0.131
913	0.13
914	0.13
914	0.13
915	0.129
915	0.129
916	0.129
916	0.129
916	0.128
917	0.128
917	0.127
918	0.127
918	0.126
918	0.125
919	0.125
919	0.124
920	0.124
920	0.123
921	0.123
921	0.123
921	0.122
922	0.122
922	0.122
923	0.122
923	0.123
924	0.123
924	0.124
924	0.124
925	0.125
925	0.126
926	0.126
926	0.127
927	0.128
927	0.129
927	0.129
928	0.13
928	0.13
929	0.13
929	0.131
930	0.131
930	0.131
930	0.13
931	0.13
931	0.13
932	0.13
932	0.129
933	0.129
933	0.128
933	0.128
934	0.127
934	0.126
935	0.125
935	0.125
935	0.124
936	0.123
936	0.122
937	0.121
937	0.12
938	0.12
938	0.119
938	0.118
939	0.118
939	0.117
940	0.117
940	0.117
941	0.117
941	0.117
941	0.118
942	0.118
942	0.118
943	0.118
943	0.118
944	0.118
944	0.118
944	0.118
945	0.118
945	0.118
946	0.118
946	0.118
946	0.118
947	0.118
947	0.117
948	0.117
948	0.117
949	0.116
949	0.116
949	0.115
950	0.114
950	0.114
951	0.113
951	0.112
952	0.111
952	0.111
952	0.11
953	0.11
953	0.109
954	0.109
954	0.108
955	0.108
955	0.108
955	0.108
956	0.109
956	0.109
957	0.11
957	0.11
957	0.11
958	0.11
958	0.111
959	0.111
959	0.111
960	0.111
960	0.111
960	0.111
961	0.111
961	0.111
962	0.111
962	0.111
963	0.111
963	0.111
963	0.111
964	0.111
964	0.112
965	0.112
965	0.112
966	0.112
966	0.112
966	0.112
967	0.112
967	0.112
968	0.111
968	0.111
968	0.111
969	0.11
969	0.109
970	0.109
970	0.108
971	0.107
971	0.107
971	0.106
972	0.106
972	0.106
973	0.105
973	0.105
974	0.106
974	0.106
974	0.107
975	0.107
975	0.108
976	0.108
976	0.109
976	0.11
977	0.11
977	0.11
978	0.11
978	0.111
979	0.111
979	0.111
979	0.111
980	0.111
980	0.11
981	0.11
981	0.109
982	0.109
982	0.109
982	0.108
983	0.108
983	0.107
984	0.107
984	0.106
984	0.106
985	0.105
985	0.105
986	0.104
986	0.104
987	0.103
987	0.103
987	0.103
988	0.102
988	0.102
989	0.102
989	0.101
990	0.101
990	0.1
990	0.099
991	0.099
991	0.098
992	0.098
992	0.097
992	0.096
993	0.095
993	0.095
994	0.094
994	0.093
995	0.092
995	0.092
995	0.092
996	0.091
996	0.091
997	0.092
997	0.092
997	0.092
998	0.093
998	0.094
999	0.094
999	0.095
1000	0.096
1000	0.097
1000	0.097
1001	0.097
1001	0.097
1002	0.097
1002	0.097
1003	0.096
1003	0.096
1003	0.095
1004	0.094
1004	0.092
1005	0.091
1005	0.09
1005	0.089
1006	0.088
1006	0.088
1007	0.088
1007	0.087
1008	0.087
1008	0.088
1008	0.088
1009	0.088
1009	0.088
1010	0.088
1010	0.088
1010	0.088
1011	0.088
1011	0.087
1012	0.087
1012	0.087
1013	0.086
1013	0.085
1013	0.085
1014	0.084
1014	0.084
1015	0.084
1015	0.084
1016	0.084
1016	0.084
1016	0.084
1017	0.084
1017	0.085
1018	0.085
1018	0.085
1018	0.086
1019	0.086
1019	0.087
1020	0.087
1020	0.087
1021	0.088
1021	0.088
1021	0.088
1022	0.089
1022	0.089
1023	0.089
1023	0.089
1023	0.089
1024	0.089
1024	0.088
1025	0.088
1025	0.088
1026	0.088
1026	0.088
1026	0.088
1027	0.087
1027	0.087
1028	0.088
1028	0.087
1028	0.088
1029	0.087
1029	0.088
1030	0.088
1030	0.088
1031	0.088
1031	0.088
1031	0.088
1032	0.088
1032	0.088
1033	0.089
1033	0.089
1033	0.089
1034	0.089
1034	0.089
1035	0.089
1035	0.089
1036	0.089
1036	0.089
1036	0.089
1037	0.088
1037	0.088
1038	0.088
1038	0.087
1039	0.087
1039	0.087
1039	0.086
1040	0.086
1040	0.085
1041	0.085
1041	0.085
1041	0.084
1042	0.084
1042	0.083
1043	0.083
1043	0.083
1044	0.082
1044	0.082
1044	0.081
1045	0.081
1045	0.081
1046	0.081
1046	0.081
1046	0.081
1047	0.081
1047	0.082
1048	0.082
1048	0.082
1049	0.082
1049	0.083
1049	0.083
1050	0.083
1050	0.083
1051	0.083
1051	0.083
1051	0.082
1052	0.082
1052	0.082
1053	0.081
1053	0.08
1053	0.08
1054	0.079
1054	0.079
1055	0.079
1055	0.078
1056	0.078
1056	0.077
1056	0.076
1057	0.075
1057	0.075
1058	0.075
1058	0.074
1058	0.073
1059	0.073
1059	0.073
1060	0.072
1060	0.072
1061	0.071
1061	0.071
1061	0.071
1062	0.071
1062	0.07
1063	0.07
1063	0.069
1063	0.069
1064	0.069
1064	0.068
1065	0.068
1065	0.068
1066	0.068
1066	0.068
1066	0.067
1067	0.067
1067	0.067
1068	0.066
1068	0.066
1068	0.066
1069	0.066
1069	0.066
1070	0.065
1070	0.065
1071	0.065
1071	0.065
1071	0.065
1072	0.065
1072	0.065
1073	0.064
1073	0.064
1073	0.064
1074	0.064
1074	0.065
1075	0.065
1075	0.065
1076	0.065
1076	0.066
1076	0.066
1077	0.066
1077	0.066
1078	0.066
1078	0.067
1078	0.067
1079	0.066
1079	0.066
1080	0.066
1080	0.066
1080	0.065
1081	0.065
1081	0.065
1082	0.065
1082	0.065
1083	0.065
1083	0.065
1083	0.065
1084	0.065
1084	0.065
1085	0.065
1085	0.065
1085	0.065
1086	0.066
1086	0.065
1087	0.064
1087	0.064
1088	0.064
1088	0.063
1088	0.064
1089	0.063
1089	0.063
1090	0.062
1090	0.062
1090	0.061
1091	0.061
1091	0.061
1092	0.061
1092	0.061
1092	0.061
1093	0.06
1093	0.06
1094	0.06
1094	0.06
1095	0.06
1095	0.06
1095	0.06
1096	0.059
1096	0.058
1097	0.058
1097	0.057
1097	0.056
1098	0.056
1098	0.054
1099	0.053
1099	0.052
1100	0.051
1100	0.05
1100	0.049
1101	0.048
1101	0.047
1102	0.047
1102	0.046
1102	0.044
1103	0.044
1103	0.044
1104	0.043
1104	0.043
1104	0.042
1105	0.04
1105	0.038
1106	0.036
1106	0.035
1107	0.035
1107	0.036
1107	0.035
1108	0.034
1108	0.033
1109	0.03
1109	0.031
1109	0.032
1110	0.034
1110	0.035
1111	0.033
1111	0.033
