Data from reversibility-20sec_Absorbance__678__000000000000678.txt Node

Date: Tue Dec 05 15:59:05 CET 2023
User: Marek
Spectrometer: MAYP115816
Trigger mode: 0
Integration Time (sec): 2.000000E-1
Scans to average: 10
Electric dark correction enabled: true
Nonlinearity correction enabled: true
Boxcar width: 5
XAxis mode: Wavelengths
Number of Pixels in Spectrum: 2068
>>>>>Begin Spectral Data<<<<<
199	-0.235
199	-0.207
200	-0.13
200	-0.074
201	-0.04
201	-0.025
202	-0.012
202	-0.001
203	0.006
203	0.01
204	0.025
204	0.04
205	0.054
205	0.056
205	0.052
206	0.052
206	0.053
207	0.053
207	0.052
208	0.052
208	0.052
209	0.054
209	0.051
210	0.049
210	0.051
211	0.052
211	0.054
212	0.053
212	0.056
213	0.059
213	0.06
213	0.06
214	0.065
214	0.067
215	0.069
215	0.071
216	0.073
216	0.071
217	0.074
217	0.072
218	0.071
218	0.076
219	0.079
219	0.078
220	0.081
220	0.081
221	0.084
221	0.086
221	0.093
222	0.1
222	0.105
223	0.113
223	0.117
224	0.121
224	0.128
225	0.138
225	0.15
226	0.158
226	0.169
227	0.176
227	0.184
228	0.199
228	0.212
229	0.229
229	0.253
229	0.276
230	0.301
230	0.33
231	0.363
231	0.401
232	0.439
232	0.483
233	0.527
233	0.577
234	0.624
234	0.675
235	0.728
235	0.778
236	0.829
236	0.881
236	0.933
237	0.986
237	1.034
238	1.079
238	1.123
239	1.172
239	1.213
240	1.252
240	1.287
241	1.322
241	1.356
242	1.386
242	1.418
243	1.444
243	1.47
243	1.494
244	1.517
244	1.538
245	1.557
245	1.58
246	1.598
246	1.614
247	1.628
247	1.642
248	1.657
248	1.67
249	1.679
249	1.683
250	1.692
250	1.699
250	1.703
251	1.706
251	1.706
252	1.71
252	1.709
253	1.71
253	1.709
254	1.71
254	1.713
255	1.71
255	1.71
256	1.709
256	1.709
257	1.709
257	1.707
258	1.707
258	1.707
258	1.707
259	1.706
259	1.704
260	1.705
260	1.703
261	1.703
261	1.705
262	1.707
262	1.707
263	1.71
263	1.71
264	1.71
264	1.711
265	1.713
265	1.713
265	1.714
266	1.714
266	1.714
267	1.712
267	1.712
268	1.711
268	1.711
269	1.712
269	1.711
270	1.71
270	1.708
271	1.706
271	1.704
272	1.701
272	1.7
272	1.697
273	1.692
273	1.685
274	1.68
274	1.674
275	1.667
275	1.662
276	1.656
276	1.649
277	1.642
277	1.632
278	1.622
278	1.61
278	1.598
279	1.583
279	1.566
280	1.544
280	1.517
281	1.485
281	1.45
282	1.413
282	1.376
283	1.338
283	1.301
284	1.265
284	1.23
285	1.196
285	1.166
285	1.139
286	1.115
286	1.094
287	1.076
287	1.06
288	1.046
288	1.034
289	1.025
289	1.016
290	1.009
290	1.003
291	0.997
291	0.992
292	0.987
292	0.984
292	0.98
293	0.977
293	0.974
294	0.971
294	0.968
295	0.966
295	0.963
296	0.961
296	0.958
297	0.956
297	0.953
298	0.95
298	0.948
298	0.945
299	0.943
299	0.941
300	0.939
300	0.936
301	0.934
301	0.932
302	0.929
302	0.928
303	0.926
303	0.924
304	0.922
304	0.919
305	0.917
305	0.915
305	0.913
306	0.911
306	0.908
307	0.906
307	0.904
308	0.901
308	0.899
309	0.896
309	0.894
310	0.891
310	0.888
311	0.885
311	0.882
311	0.879
312	0.876
312	0.873
313	0.869
313	0.866
314	0.862
314	0.858
315	0.854
315	0.85
316	0.845
316	0.841
317	0.837
317	0.832
318	0.827
318	0.822
318	0.817
319	0.812
319	0.807
320	0.802
320	0.796
321	0.79
321	0.785
322	0.779
322	0.773
323	0.767
323	0.761
324	0.755
324	0.748
324	0.742
325	0.736
325	0.729
326	0.723
326	0.716
327	0.709
327	0.703
328	0.696
328	0.689
329	0.683
329	0.676
330	0.669
330	0.663
330	0.656
331	0.649
331	0.642
332	0.635
332	0.629
333	0.622
333	0.615
334	0.608
334	0.602
335	0.596
335	0.589
336	0.582
336	0.576
336	0.57
337	0.563
337	0.557
338	0.551
338	0.545
339	0.54
339	0.534
340	0.528
340	0.523
341	0.518
341	0.512
342	0.507
342	0.502
342	0.497
343	0.492
343	0.487
344	0.482
344	0.478
345	0.473
345	0.468
346	0.464
346	0.459
347	0.455
347	0.451
348	0.447
348	0.443
348	0.439
349	0.436
349	0.432
350	0.429
350	0.426
351	0.422
351	0.419
352	0.416
352	0.413
353	0.41
353	0.408
354	0.405
354	0.402
354	0.399
355	0.396
355	0.393
356	0.39
356	0.388
357	0.384
357	0.381
358	0.379
358	0.376
359	0.374
359	0.372
360	0.369
360	0.367
360	0.366
361	0.364
361	0.362
362	0.361
362	0.359
363	0.357
363	0.356
364	0.354
364	0.352
365	0.35
365	0.348
366	0.346
366	0.345
366	0.343
367	0.341
367	0.339
368	0.338
368	0.336
369	0.335
369	0.334
370	0.332
370	0.331
371	0.329
371	0.328
372	0.326
372	0.325
372	0.324
373	0.323
373	0.321
374	0.32
374	0.319
375	0.318
375	0.317
376	0.316
376	0.315
377	0.314
377	0.313
378	0.312
378	0.311
378	0.31
379	0.309
379	0.309
380	0.308
380	0.307
381	0.306
381	0.305
382	0.304
382	0.303
383	0.303
383	0.302
383	0.301
384	0.3
384	0.299
385	0.299
385	0.298
386	0.298
386	0.297
387	0.296
387	0.296
388	0.295
388	0.295
389	0.294
389	0.294
389	0.293
390	0.293
390	0.292
391	0.292
391	0.292
392	0.291
392	0.291
393	0.29
393	0.29
394	0.289
394	0.289
394	0.288
395	0.287
395	0.287
396	0.286
396	0.285
397	0.285
397	0.284
398	0.284
398	0.283
399	0.283
399	0.282
400	0.282
400	0.282
400	0.281
401	0.281
401	0.281
402	0.28
402	0.28
403	0.279
403	0.279
404	0.279
404	0.279
405	0.278
405	0.278
405	0.278
406	0.277
406	0.277
407	0.276
407	0.276
408	0.275
408	0.275
409	0.274
409	0.274
410	0.273
410	0.273
411	0.273
411	0.272
411	0.272
412	0.272
412	0.272
413	0.271
413	0.271
414	0.271
414	0.271
415	0.27
415	0.27
416	0.27
416	0.27
416	0.269
417	0.269
417	0.269
418	0.268
418	0.268
419	0.268
419	0.267
420	0.267
420	0.267
421	0.267
421	0.266
421	0.266
422	0.266
422	0.265
423	0.265
423	0.265
424	0.264
424	0.264
425	0.264
425	0.264
426	0.263
426	0.263
427	0.263
427	0.263
427	0.262
428	0.262
428	0.262
429	0.262
429	0.261
430	0.261
430	0.261
431	0.261
431	0.261
432	0.261
432	0.261
432	0.26
433	0.26
433	0.26
434	0.26
434	0.26
435	0.26
435	0.259
436	0.259
436	0.259
437	0.259
437	0.259
437	0.259
438	0.259
438	0.259
439	0.258
439	0.258
440	0.258
440	0.258
441	0.258
441	0.258
442	0.258
442	0.258
442	0.258
443	0.258
443	0.258
444	0.258
444	0.257
445	0.257
445	0.257
446	0.257
446	0.257
447	0.257
447	0.256
447	0.256
448	0.256
448	0.256
449	0.256
449	0.256
450	0.256
450	0.256
451	0.256
451	0.256
452	0.256
452	0.256
452	0.256
453	0.256
453	0.256
454	0.256
454	0.256
455	0.256
455	0.256
456	0.256
456	0.256
457	0.256
457	0.256
458	0.256
458	0.256
458	0.256
459	0.256
459	0.256
460	0.256
460	0.256
461	0.256
461	0.256
462	0.256
462	0.256
463	0.256
463	0.256
463	0.256
464	0.256
464	0.256
465	0.256
465	0.256
466	0.257
466	0.257
467	0.257
467	0.257
467	0.257
468	0.257
468	0.257
469	0.258
469	0.258
470	0.259
470	0.259
471	0.259
471	0.259
472	0.26
472	0.26
472	0.261
473	0.261
473	0.262
474	0.262
474	0.262
475	0.262
475	0.263
476	0.264
476	0.264
477	0.264
477	0.265
477	0.266
478	0.266
478	0.267
479	0.268
479	0.268
480	0.269
480	0.27
481	0.27
481	0.271
482	0.272
482	0.272
482	0.273
483	0.274
483	0.275
484	0.276
484	0.276
485	0.277
485	0.278
486	0.278
486	0.279
487	0.28
487	0.281
487	0.282
488	0.283
488	0.283
489	0.284
489	0.286
490	0.287
490	0.288
491	0.29
491	0.291
492	0.292
492	0.294
492	0.295
493	0.296
493	0.297
494	0.298
494	0.299
495	0.301
495	0.302
496	0.303
496	0.305
496	0.306
497	0.307
497	0.308
498	0.31
498	0.311
499	0.312
499	0.314
500	0.315
500	0.316
501	0.318
501	0.319
501	0.32
502	0.321
502	0.322
503	0.324
503	0.325
504	0.326
504	0.327
505	0.328
505	0.33
506	0.331
506	0.332
506	0.333
507	0.335
507	0.336
508	0.338
508	0.339
509	0.34
509	0.341
510	0.342
510	0.343
511	0.344
511	0.346
511	0.347
512	0.348
512	0.349
513	0.35
513	0.351
514	0.352
514	0.353
515	0.354
515	0.355
515	0.355
516	0.356
516	0.356
517	0.357
517	0.357
518	0.358
518	0.358
519	0.359
519	0.359
520	0.359
520	0.359
520	0.36
521	0.36
521	0.36
522	0.36
522	0.36
523	0.36
523	0.36
524	0.359
524	0.359
524	0.36
525	0.36
525	0.359
526	0.359
526	0.358
527	0.358
527	0.357
528	0.357
528	0.356
529	0.355
529	0.354
529	0.353
530	0.352
530	0.351
531	0.35
531	0.349
532	0.348
532	0.347
533	0.346
533	0.345
533	0.344
534	0.343
534	0.342
535	0.34
535	0.339
536	0.338
536	0.336
537	0.335
537	0.334
538	0.332
538	0.33
538	0.329
539	0.327
539	0.326
540	0.325
540	0.323
541	0.321
541	0.319
542	0.317
542	0.316
542	0.314
543	0.312
543	0.31
544	0.308
544	0.306
545	0.305
545	0.303
546	0.301
546	0.3
547	0.298
547	0.296
547	0.294
548	0.293
548	0.291
549	0.289
549	0.287
550	0.285
550	0.283
551	0.28
551	0.278
551	0.276
552	0.274
552	0.272
553	0.27
553	0.268
554	0.266
554	0.264
555	0.263
555	0.261
556	0.259
556	0.257
556	0.256
557	0.255
557	0.253
558	0.252
558	0.251
559	0.249
559	0.248
560	0.246
560	0.245
560	0.243
561	0.242
561	0.24
562	0.238
562	0.236
563	0.234
563	0.232
564	0.23
564	0.229
564	0.227
565	0.226
565	0.224
566	0.223
566	0.221
567	0.22
567	0.219
568	0.218
568	0.216
568	0.215
569	0.214
569	0.212
570	0.211
570	0.209
571	0.208
571	0.207
572	0.205
572	0.204
573	0.203
573	0.201
573	0.2
574	0.198
574	0.197
575	0.197
575	0.196
576	0.195
576	0.193
577	0.192
577	0.191
577	0.19
578	0.189
578	0.188
579	0.188
579	0.187
580	0.185
580	0.184
581	0.182
581	0.181
581	0.181
582	0.18
582	0.179
583	0.179
583	0.178
584	0.176
584	0.174
585	0.173
585	0.173
585	0.171
586	0.17
586	0.169
587	0.168
587	0.167
588	0.166
588	0.165
589	0.164
589	0.163
590	0.163
590	0.162
590	0.162
591	0.162
591	0.161
592	0.16
592	0.159
593	0.158
593	0.158
594	0.157
594	0.156
594	0.155
595	0.154
595	0.153
596	0.152
596	0.152
597	0.153
597	0.152
598	0.152
598	0.151
598	0.151
599	0.15
599	0.149
600	0.148
600	0.148
601	0.147
601	0.146
602	0.145
602	0.144
602	0.144
603	0.143
603	0.143
604	0.143
604	0.142
605	0.142
605	0.142
606	0.141
606	0.14
606	0.14
607	0.139
607	0.139
608	0.138
608	0.137
609	0.136
609	0.136
610	0.135
610	0.134
610	0.134
611	0.134
611	0.134
612	0.133
612	0.133
613	0.133
613	0.133
614	0.132
614	0.131
614	0.131
615	0.131
615	0.13
616	0.13
616	0.129
617	0.129
617	0.128
618	0.128
618	0.128
618	0.128
619	0.128
619	0.128
620	0.128
620	0.127
621	0.127
621	0.127
622	0.126
622	0.125
622	0.125
623	0.124
623	0.124
624	0.124
624	0.123
625	0.122
625	0.121
626	0.121
626	0.12
626	0.12
627	0.12
627	0.119
628	0.118
628	0.118
629	0.117
629	0.117
630	0.116
630	0.116
630	0.116
631	0.116
631	0.116
632	0.116
632	0.116
633	0.116
633	0.116
634	0.117
634	0.117
634	0.117
635	0.116
635	0.116
636	0.115
636	0.115
637	0.114
637	0.114
638	0.114
638	0.113
638	0.113
639	0.112
639	0.112
640	0.112
640	0.112
641	0.112
641	0.112
642	0.112
642	0.112
642	0.112
643	0.112
643	0.111
644	0.111
644	0.111
645	0.11
645	0.11
646	0.11
646	0.11
646	0.109
647	0.109
647	0.109
648	0.109
648	0.108
649	0.108
649	0.108
650	0.108
650	0.108
650	0.108
651	0.108
651	0.108
652	0.107
652	0.107
653	0.108
653	0.109
653	0.115
654	0.093
654	0.075
655	0.074
655	0.074
656	0.074
656	0.074
657	0.075
657	0.075
657	0.075
658	0.074
658	0.065
659	0.082
659	0.103
660	0.107
660	0.107
661	0.106
661	0.106
661	0.106
662	0.105
662	0.105
663	0.105
663	0.104
664	0.104
664	0.104
665	0.104
665	0.104
665	0.104
666	0.104
666	0.104
667	0.104
667	0.104
668	0.105
668	0.104
669	0.104
669	0.104
669	0.105
670	0.105
670	0.104
671	0.104
671	0.103
672	0.103
672	0.103
672	0.102
673	0.102
673	0.102
674	0.102
674	0.101
675	0.101
675	0.101
676	0.101
676	0.102
676	0.102
677	0.102
677	0.102
678	0.102
678	0.102
679	0.102
679	0.102
680	0.102
680	0.102
680	0.102
681	0.102
681	0.102
682	0.103
682	0.103
683	0.103
683	0.104
684	0.104
684	0.104
684	0.104
685	0.104
685	0.104
686	0.103
686	0.103
687	0.102
687	0.101
687	0.101
688	0.1
688	0.1
689	0.1
689	0.1
690	0.1
690	0.1
691	0.1
691	0.101
691	0.101
692	0.102
692	0.102
693	0.103
693	0.103
694	0.103
694	0.103
695	0.104
695	0.104
695	0.104
696	0.104
696	0.104
697	0.104
697	0.103
698	0.103
698	0.102
698	0.102
699	0.102
699	0.102
700	0.102
700	0.102
701	0.102
701	0.102
702	0.102
702	0.102
702	0.103
703	0.102
703	0.102
704	0.102
704	0.102
705	0.102
705	0.102
705	0.102
706	0.102
706	0.102
707	0.102
707	0.102
708	0.102
708	0.102
709	0.102
709	0.102
709	0.101
710	0.101
710	0.101
711	0.102
711	0.102
712	0.102
712	0.102
713	0.102
713	0.102
713	0.102
714	0.102
714	0.102
715	0.102
715	0.102
716	0.102
716	0.101
716	0.101
717	0.1
717	0.1
718	0.1
718	0.099
719	0.1
719	0.1
720	0.1
720	0.101
720	0.101
721	0.102
721	0.102
722	0.103
722	0.103
723	0.103
723	0.103
723	0.103
724	0.103
724	0.103
725	0.102
725	0.101
726	0.1
726	0.1
727	0.099
727	0.099
727	0.099
728	0.098
728	0.098
729	0.098
729	0.099
730	0.099
730	0.099
730	0.099
731	0.1
731	0.1
732	0.1
732	0.1
733	0.1
733	0.1
734	0.1
734	0.1
734	0.1
735	0.1
735	0.1
736	0.1
736	0.1
737	0.1
737	0.1
737	0.1
738	0.099
738	0.098
739	0.097
739	0.097
740	0.096
740	0.096
741	0.096
741	0.095
741	0.095
742	0.095
742	0.095
743	0.096
743	0.097
744	0.098
744	0.098
744	0.099
745	0.099
745	0.099
746	0.099
746	0.1
747	0.1
747	0.1
748	0.099
748	0.099
748	0.099
749	0.098
749	0.098
750	0.097
750	0.097
751	0.096
751	0.096
751	0.096
752	0.096
752	0.095
753	0.095
753	0.095
754	0.095
754	0.095
754	0.095
755	0.096
755	0.096
756	0.095
756	0.094
757	0.093
757	0.093
758	0.092
758	0.092
758	0.091
759	0.091
759	0.09
760	0.09
760	0.09
761	0.09
761	0.09
761	0.091
762	0.091
762	0.092
763	0.092
763	0.092
764	0.092
764	0.092
764	0.092
765	0.091
765	0.091
766	0.09
766	0.09
767	0.089
767	0.088
768	0.087
768	0.087
768	0.087
769	0.087
769	0.087
770	0.087
770	0.087
771	0.087
771	0.086
771	0.086
772	0.087
772	0.087
773	0.086
773	0.086
774	0.086
774	0.086
775	0.086
775	0.086
775	0.086
776	0.086
776	0.086
777	0.086
777	0.086
778	0.085
778	0.085
778	0.085
779	0.084
779	0.084
780	0.083
780	0.083
781	0.083
781	0.082
781	0.082
782	0.082
782	0.082
783	0.082
783	0.082
784	0.082
784	0.082
784	0.082
785	0.082
785	0.081
786	0.081
786	0.081
787	0.08
787	0.08
788	0.079
788	0.078
788	0.078
789	0.078
789	0.078
790	0.078
790	0.077
791	0.077
791	0.077
791	0.076
792	0.077
792	0.076
793	0.076
793	0.075
794	0.075
794	0.074
794	0.073
795	0.073
795	0.073
796	0.073
796	0.072
797	0.072
797	0.072
797	0.072
798	0.072
798	0.072
799	0.072
799	0.072
800	0.072
800	0.071
801	0.071
801	0.07
801	0.07
802	0.07
802	0.07
803	0.069
803	0.069
804	0.07
804	0.07
804	0.07
805	0.07
805	0.07
806	0.07
806	0.07
807	0.07
807	0.07
807	0.07
808	0.07
808	0.07
809	0.07
809	0.07
810	0.07
810	0.07
810	0.07
811	0.07
811	0.07
812	0.07
812	0.071
813	0.071
813	0.071
813	0.071
814	0.071
814	0.071
815	0.072
815	0.072
816	0.071
816	0.071
817	0.07
817	0.07
817	0.069
818	0.068
818	0.068
819	0.067
819	0.066
820	0.065
820	0.065
820	0.064
821	0.064
821	0.064
822	0.063
822	0.063
823	0.063
823	0.063
823	0.063
824	0.064
824	0.065
825	0.066
825	0.066
826	0.066
826	0.065
826	0.065
827	0.065
827	0.064
828	0.064
828	0.063
829	0.063
829	0.062
829	0.061
830	0.061
830	0.061
831	0.062
831	0.062
832	0.062
832	0.062
832	0.062
833	0.062
833	0.062
834	0.062
834	0.062
835	0.062
835	0.062
835	0.061
836	0.061
836	0.061
837	0.061
837	0.061
838	0.06
838	0.059
839	0.058
839	0.057
839	0.056
840	0.055
840	0.054
841	0.052
841	0.051
842	0.05
842	0.049
842	0.048
843	0.048
843	0.048
844	0.047
844	0.047
845	0.047
845	0.046
845	0.046
846	0.046
846	0.045
847	0.045
847	0.045
848	0.046
848	0.046
848	0.047
849	0.047
849	0.048
850	0.048
850	0.049
851	0.05
851	0.05
851	0.05
852	0.05
852	0.049
853	0.049
853	0.048
854	0.048
854	0.048
854	0.048
855	0.048
855	0.048
856	0.048
856	0.048
857	0.049
857	0.049
857	0.049
858	0.049
858	0.048
859	0.047
859	0.046
860	0.045
860	0.043
860	0.042
861	0.041
861	0.04
862	0.038
862	0.037
863	0.036
863	0.036
863	0.035
864	0.035
864	0.035
865	0.034
865	0.034
866	0.034
866	0.034
866	0.034
867	0.034
867	0.034
868	0.035
868	0.035
869	0.036
869	0.036
869	0.036
870	0.036
870	0.037
871	0.037
871	0.038
872	0.039
872	0.039
872	0.039
873	0.039
873	0.039
874	0.039
874	0.039
875	0.038
875	0.038
875	0.038
876	0.038
876	0.037
877	0.037
877	0.037
878	0.038
878	0.038
878	0.039
879	0.039
879	0.04
880	0.04
880	0.039
881	0.039
881	0.039
881	0.038
882	0.037
882	0.036
883	0.034
883	0.033
884	0.032
884	0.031
884	0.03
885	0.03
885	0.029
886	0.029
886	0.029
887	0.029
887	0.028
887	0.028
888	0.028
888	0.027
889	0.027
889	0.027
890	0.027
890	0.027
890	0.027
891	0.028
891	0.028
892	0.029
892	0.03
893	0.031
893	0.032
893	0.032
894	0.033
894	0.034
895	0.034
895	0.035
895	0.035
896	0.035
896	0.035
897	0.034
897	0.034
898	0.033
898	0.032
898	0.031
899	0.03
899	0.03
900	0.029
900	0.028
901	0.028
901	0.027
901	0.027
902	0.027
902	0.027
903	0.027
903	0.027
904	0.027
904	0.027
904	0.026
905	0.026
905	0.026
906	0.026
906	0.026
907	0.026
907	0.026
907	0.026
908	0.026
908	0.026
909	0.026
909	0.026
910	0.027
910	0.027
910	0.027
911	0.027
911	0.027
912	0.027
912	0.027
913	0.027
913	0.027
913	0.028
914	0.027
914	0.027
915	0.027
915	0.027
916	0.026
916	0.026
916	0.025
917	0.024
917	0.024
918	0.023
918	0.022
918	0.022
919	0.021
919	0.021
920	0.021
920	0.022
921	0.022
921	0.022
921	0.023
922	0.023
922	0.024
923	0.024
923	0.025
924	0.026
924	0.026
924	0.027
925	0.027
925	0.027
926	0.027
926	0.028
927	0.027
927	0.027
927	0.027
928	0.026
928	0.026
929	0.026
929	0.025
930	0.025
930	0.024
930	0.024
931	0.023
931	0.023
932	0.023
932	0.023
933	0.023
933	0.022
933	0.022
934	0.021
934	0.02
935	0.02
935	0.019
935	0.019
936	0.019
936	0.018
937	0.018
937	0.018
938	0.018
938	0.018
938	0.019
939	0.019
939	0.019
940	0.02
940	0.02
941	0.021
941	0.022
941	0.022
942	0.023
942	0.023
943	0.023
943	0.024
944	0.024
944	0.024
944	0.024
945	0.024
945	0.024
946	0.024
946	0.023
946	0.023
947	0.023
947	0.023
948	0.023
948	0.023
949	0.023
949	0.023
949	0.023
950	0.023
950	0.023
951	0.023
951	0.023
952	0.023
952	0.023
952	0.022
953	0.022
953	0.021
954	0.021
954	0.02
955	0.02
955	0.019
955	0.019
956	0.019
956	0.019
957	0.019
957	0.019
957	0.02
958	0.02
958	0.02
959	0.02
959	0.021
960	0.021
960	0.021
960	0.021
961	0.02
961	0.02
962	0.02
962	0.019
963	0.019
963	0.018
963	0.018
964	0.018
964	0.018
965	0.017
965	0.017
966	0.017
966	0.017
966	0.017
967	0.018
967	0.018
968	0.018
968	0.018
968	0.018
969	0.018
969	0.018
970	0.018
970	0.018
971	0.018
971	0.018
971	0.018
972	0.018
972	0.018
973	0.019
973	0.019
974	0.019
974	0.02
974	0.02
975	0.021
975	0.021
976	0.021
976	0.021
976	0.021
977	0.021
977	0.02
978	0.019
978	0.019
979	0.018
979	0.017
979	0.017
980	0.016
980	0.016
981	0.015
981	0.014
982	0.014
982	0.013
982	0.013
983	0.013
983	0.013
984	0.012
984	0.012
984	0.012
985	0.011
985	0.011
986	0.011
986	0.01
987	0.01
987	0.009
987	0.009
988	0.009
988	0.008
989	0.008
989	0.007
990	0.007
990	0.007
990	0.007
991	0.006
991	0.006
992	0.006
992	0.006
992	0.006
993	0.006
993	0.006
994	0.006
994	0.006
995	0.006
995	0.006
995	0.007
996	0.007
996	0.008
997	0.009
997	0.01
997	0.011
998	0.011
998	0.013
999	0.014
999	0.015
1000	0.016
1000	0.016
1000	0.017
1001	0.017
1001	0.017
1002	0.017
1002	0.017
1003	0.017
1003	0.017
1003	0.016
1004	0.016
1004	0.015
1005	0.015
1005	0.014
1005	0.014
1006	0.014
1006	0.013
1007	0.013
1007	0.013
1008	0.013
1008	0.013
1008	0.013
1009	0.014
1009	0.014
1010	0.014
1010	0.014
1010	0.014
1011	0.014
1011	0.014
1012	0.014
1012	0.014
1013	0.014
1013	0.013
1013	0.013
1014	0.013
1014	0.013
1015	0.013
1015	0.013
1016	0.013
1016	0.013
1016	0.013
1017	0.012
1017	0.012
1018	0.012
1018	0.012
1018	0.012
1019	0.012
1019	0.012
1020	0.012
1020	0.012
1021	0.012
1021	0.012
1021	0.012
1022	0.013
1022	0.012
1023	0.012
1023	0.012
1023	0.012
1024	0.012
1024	0.011
1025	0.011
1025	0.01
1026	0.009
1026	0.008
1026	0.007
1027	0.007
1027	0.006
1028	0.006
1028	0.005
1028	0.005
1029	0.004
1029	0.004
1030	0.004
1030	0.004
1031	0.004
1031	0.004
1031	0.004
1032	0.004
1032	0.004
1033	0.004
1033	0.004
1033	0.004
1034	0.004
1034	0.004
1035	0.003
1035	0.003
1036	0.003
1036	0.003
1036	0.003
1037	0.003
1037	0.003
1038	0.003
1038	0.003
1039	0.004
1039	0.004
1039	0.004
1040	0.005
1040	0.005
1041	0.006
1041	0.006
1041	0.006
1042	0.006
1042	0.007
1043	0.007
1043	0.007
1044	0.008
1044	0.008
1044	0.008
1045	0.009
1045	0.009
1046	0.009
1046	0.009
1046	0.01
1047	0.01
1047	0.01
1048	0.011
1048	0.011
1049	0.011
1049	0.011
1049	0.011
1050	0.011
1050	0.01
1051	0.01
1051	0.009
1051	0.009
1052	0.008
1052	0.007
1053	0.006
1053	0.005
1053	0.004
1054	0.004
1054	0.003
1055	0.003
1055	0.003
1056	0.002
1056	0.002
1056	0.001
1057	0.001
1057	0.001
1058	0.001
1058	-0
1058	-0
1059	-0.001
1059	-0.001
1060	-0.002
1060	-0.002
1061	-0.003
1061	-0.003
1061	-0.003
1062	-0.004
1062	-0.004
1063	-0.004
1063	-0.004
1063	-0.005
1064	-0.005
1064	-0.005
1065	-0.006
1065	-0.006
1066	-0.006
1066	-0.007
1066	-0.007
1067	-0.007
1067	-0.007
1068	-0.008
1068	-0.008
1068	-0.008
1069	-0.009
1069	-0.009
1070	-0.01
1070	-0.01
1071	-0.011
1071	-0.011
1071	-0.011
1072	-0.011
1072	-0.012
1073	-0.012
1073	-0.012
1073	-0.012
1074	-0.012
1074	-0.011
1075	-0.011
1075	-0.011
1076	-0.01
1076	-0.01
1076	-0.01
1077	-0.009
1077	-0.009
1078	-0.008
1078	-0.008
1078	-0.007
1079	-0.007
1079	-0.007
1080	-0.007
1080	-0.007
1080	-0.006
1081	-0.006
1081	-0.006
1082	-0.006
1082	-0.005
1083	-0.005
1083	-0.006
1083	-0.006
1084	-0.006
1084	-0.006
1085	-0.006
1085	-0.007
1085	-0.007
1086	-0.007
1086	-0.008
1087	-0.009
1087	-0.009
1088	-0.009
1088	-0.009
1088	-0.009
1089	-0.01
1089	-0.01
1090	-0.01
1090	-0.01
1090	-0.011
1091	-0.011
1091	-0.011
1092	-0.01
1092	-0.01
1092	-0.01
1093	-0.011
1093	-0.01
1094	-0.01
1094	-0.01
1095	-0.011
1095	-0.011
1095	-0.011
1096	-0.011
1096	-0.012
1097	-0.012
1097	-0.013
1097	-0.013
1098	-0.013
1098	-0.014
1099	-0.014
1099	-0.015
1100	-0.016
1100	-0.017
1100	-0.017
1101	-0.017
1101	-0.018
1102	-0.018
1102	-0.019
1102	-0.02
1103	-0.02
1103	-0.02
1104	-0.02
1104	-0.021
1104	-0.02
1105	-0.022
1105	-0.024
1106	-0.025
1106	-0.026
1107	-0.028
1107	-0.028
1107	-0.029
1108	-0.031
1108	-0.032
1109	-0.033
1109	-0.035
1109	-0.033
1110	-0.032
1110	-0.034
1111	-0.033
1111	-0.031
