Data from reversibility-20sec_Absorbance__625__000000000000625.txt Node

Date: Tue Dec 05 15:41:25 CET 2023
User: Marek
Spectrometer: MAYP115816
Trigger mode: 0
Integration Time (sec): 2.000000E-1
Scans to average: 10
Electric dark correction enabled: true
Nonlinearity correction enabled: true
Boxcar width: 5
XAxis mode: Wavelengths
Number of Pixels in Spectrum: 2068
>>>>>Begin Spectral Data<<<<<
199	-0.238
199	-0.203
200	-0.133
200	-0.083
201	-0.054
201	-0.039
202	-0.026
202	-0.018
203	-0.01
203	-0.005
204	0.005
204	0.02
205	0.034
205	0.039
205	0.039
206	0.038
206	0.039
207	0.039
207	0.039
208	0.036
208	0.035
209	0.041
209	0.039
210	0.037
210	0.038
211	0.036
211	0.039
212	0.037
212	0.038
213	0.041
213	0.043
213	0.042
214	0.042
214	0.045
215	0.047
215	0.047
216	0.048
216	0.046
217	0.051
217	0.054
218	0.052
218	0.057
219	0.062
219	0.066
220	0.068
220	0.065
221	0.066
221	0.071
221	0.079
222	0.083
222	0.086
223	0.094
223	0.096
224	0.101
224	0.108
225	0.115
225	0.128
226	0.139
226	0.15
227	0.158
227	0.172
228	0.184
228	0.197
229	0.217
229	0.238
229	0.26
230	0.286
230	0.316
231	0.347
231	0.388
232	0.426
232	0.467
233	0.514
233	0.564
234	0.612
234	0.664
235	0.716
235	0.768
236	0.816
236	0.869
236	0.916
237	0.965
237	1.013
238	1.057
238	1.1
239	1.15
239	1.191
240	1.231
240	1.269
241	1.306
241	1.338
242	1.369
242	1.403
243	1.431
243	1.457
243	1.484
244	1.501
244	1.524
245	1.54
245	1.559
246	1.577
246	1.593
247	1.607
247	1.62
248	1.633
248	1.647
249	1.657
249	1.665
250	1.674
250	1.683
250	1.689
251	1.694
251	1.697
252	1.702
252	1.705
253	1.707
253	1.707
254	1.706
254	1.707
255	1.705
255	1.704
256	1.704
256	1.702
257	1.703
257	1.703
258	1.701
258	1.701
258	1.7
259	1.701
259	1.701
260	1.7
260	1.701
261	1.699
261	1.701
262	1.701
262	1.7
263	1.701
263	1.701
264	1.702
264	1.702
265	1.702
265	1.701
265	1.701
266	1.702
266	1.702
267	1.701
267	1.702
268	1.701
268	1.701
269	1.701
269	1.699
270	1.699
270	1.698
271	1.697
271	1.695
272	1.692
272	1.69
272	1.687
273	1.684
273	1.679
274	1.675
274	1.67
275	1.664
275	1.658
276	1.652
276	1.646
277	1.64
277	1.631
278	1.62
278	1.609
278	1.596
279	1.583
279	1.567
280	1.548
280	1.525
281	1.497
281	1.466
282	1.433
282	1.4
283	1.365
283	1.331
284	1.297
284	1.264
285	1.232
285	1.202
285	1.176
286	1.152
286	1.13
287	1.111
287	1.095
288	1.081
288	1.069
289	1.059
289	1.049
290	1.041
290	1.034
291	1.028
291	1.022
292	1.018
292	1.013
292	1.009
293	1.005
293	1.001
294	0.998
294	0.995
295	0.992
295	0.989
296	0.986
296	0.983
297	0.98
297	0.977
298	0.974
298	0.972
298	0.969
299	0.966
299	0.964
300	0.961
300	0.959
301	0.957
301	0.954
302	0.951
302	0.949
303	0.947
303	0.944
304	0.942
304	0.94
305	0.937
305	0.935
305	0.932
306	0.93
306	0.927
307	0.925
307	0.922
308	0.92
308	0.917
309	0.914
309	0.911
310	0.909
310	0.906
311	0.903
311	0.9
311	0.897
312	0.893
312	0.889
313	0.886
313	0.882
314	0.879
314	0.874
315	0.87
315	0.866
316	0.862
316	0.858
317	0.853
317	0.849
318	0.844
318	0.839
318	0.834
319	0.829
319	0.824
320	0.818
320	0.813
321	0.807
321	0.801
322	0.796
322	0.79
323	0.784
323	0.777
324	0.771
324	0.765
324	0.758
325	0.752
325	0.746
326	0.739
326	0.732
327	0.726
327	0.719
328	0.712
328	0.706
329	0.699
329	0.692
330	0.686
330	0.679
330	0.672
331	0.665
331	0.659
332	0.652
332	0.645
333	0.639
333	0.632
334	0.626
334	0.619
335	0.613
335	0.606
336	0.6
336	0.594
336	0.588
337	0.582
337	0.576
338	0.57
338	0.564
339	0.558
339	0.552
340	0.547
340	0.541
341	0.536
341	0.53
342	0.525
342	0.52
342	0.515
343	0.51
343	0.505
344	0.5
344	0.495
345	0.491
345	0.486
346	0.482
346	0.478
347	0.473
347	0.469
348	0.465
348	0.461
348	0.458
349	0.454
349	0.45
350	0.447
350	0.443
351	0.44
351	0.437
352	0.434
352	0.431
353	0.428
353	0.425
354	0.422
354	0.419
354	0.416
355	0.413
355	0.41
356	0.407
356	0.404
357	0.401
357	0.398
358	0.395
358	0.393
359	0.39
359	0.388
360	0.386
360	0.384
360	0.382
361	0.38
361	0.378
362	0.377
362	0.375
363	0.374
363	0.372
364	0.37
364	0.368
365	0.366
365	0.364
366	0.362
366	0.36
366	0.359
367	0.357
367	0.355
368	0.353
368	0.352
369	0.35
369	0.349
370	0.347
370	0.346
371	0.344
371	0.343
372	0.341
372	0.34
372	0.338
373	0.337
373	0.336
374	0.335
374	0.334
375	0.333
375	0.331
376	0.33
376	0.329
377	0.328
377	0.327
378	0.326
378	0.325
378	0.324
379	0.323
379	0.322
380	0.321
380	0.32
381	0.319
381	0.318
382	0.317
382	0.316
383	0.315
383	0.314
383	0.313
384	0.313
384	0.312
385	0.311
385	0.311
386	0.31
386	0.309
387	0.309
387	0.308
388	0.307
388	0.307
389	0.306
389	0.306
389	0.305
390	0.304
390	0.304
391	0.303
391	0.302
392	0.302
392	0.301
393	0.301
393	0.3
394	0.3
394	0.299
394	0.299
395	0.298
395	0.297
396	0.297
396	0.296
397	0.295
397	0.295
398	0.294
398	0.294
399	0.293
399	0.292
400	0.292
400	0.291
400	0.291
401	0.291
401	0.29
402	0.29
402	0.289
403	0.289
403	0.288
404	0.288
404	0.288
405	0.287
405	0.287
405	0.287
406	0.286
406	0.286
407	0.285
407	0.285
408	0.284
408	0.284
409	0.283
409	0.283
410	0.282
410	0.282
411	0.282
411	0.281
411	0.281
412	0.281
412	0.28
413	0.28
413	0.279
414	0.279
414	0.279
415	0.278
415	0.278
416	0.278
416	0.277
416	0.277
417	0.277
417	0.277
418	0.276
418	0.276
419	0.276
419	0.275
420	0.275
420	0.274
421	0.274
421	0.274
421	0.274
422	0.274
422	0.273
423	0.273
423	0.273
424	0.272
424	0.272
425	0.272
425	0.272
426	0.272
426	0.271
427	0.271
427	0.271
427	0.271
428	0.27
428	0.27
429	0.27
429	0.27
430	0.27
430	0.269
431	0.269
431	0.269
432	0.269
432	0.269
432	0.269
433	0.269
433	0.269
434	0.269
434	0.269
435	0.269
435	0.268
436	0.268
436	0.268
437	0.268
437	0.268
437	0.268
438	0.267
438	0.267
439	0.267
439	0.267
440	0.267
440	0.267
441	0.267
441	0.267
442	0.267
442	0.267
442	0.267
443	0.266
443	0.267
444	0.267
444	0.266
445	0.267
445	0.266
446	0.266
446	0.266
447	0.266
447	0.266
447	0.266
448	0.266
448	0.266
449	0.266
449	0.266
450	0.266
450	0.266
451	0.266
451	0.266
452	0.266
452	0.266
452	0.266
453	0.266
453	0.267
454	0.267
454	0.267
455	0.266
455	0.267
456	0.267
456	0.267
457	0.267
457	0.267
458	0.267
458	0.267
458	0.267
459	0.267
459	0.267
460	0.268
460	0.268
461	0.268
461	0.268
462	0.268
462	0.268
463	0.269
463	0.269
463	0.269
464	0.269
464	0.269
465	0.27
465	0.27
466	0.27
466	0.27
467	0.271
467	0.271
467	0.271
468	0.272
468	0.272
469	0.273
469	0.273
470	0.274
470	0.274
471	0.274
471	0.275
472	0.275
472	0.276
472	0.276
473	0.277
473	0.278
474	0.278
474	0.279
475	0.28
475	0.28
476	0.281
476	0.282
477	0.283
477	0.283
477	0.284
478	0.285
478	0.286
479	0.286
479	0.287
480	0.288
480	0.289
481	0.289
481	0.29
482	0.291
482	0.292
482	0.293
483	0.294
483	0.296
484	0.297
484	0.298
485	0.299
485	0.3
486	0.301
486	0.302
487	0.303
487	0.304
487	0.305
488	0.306
488	0.307
489	0.309
489	0.31
490	0.312
490	0.314
491	0.315
491	0.317
492	0.318
492	0.319
492	0.321
493	0.322
493	0.324
494	0.326
494	0.327
495	0.329
495	0.33
496	0.332
496	0.333
496	0.335
497	0.337
497	0.338
498	0.34
498	0.341
499	0.343
499	0.345
500	0.346
500	0.348
501	0.35
501	0.352
501	0.353
502	0.355
502	0.356
503	0.358
503	0.359
504	0.361
504	0.362
505	0.364
505	0.365
506	0.367
506	0.368
506	0.37
507	0.371
507	0.373
508	0.374
508	0.376
509	0.377
509	0.379
510	0.38
510	0.381
511	0.383
511	0.384
511	0.386
512	0.387
512	0.388
513	0.389
513	0.39
514	0.391
514	0.392
515	0.394
515	0.395
515	0.395
516	0.396
516	0.397
517	0.398
517	0.399
518	0.399
518	0.399
519	0.4
519	0.4
520	0.4
520	0.4
520	0.4
521	0.4
521	0.4
522	0.4
522	0.399
523	0.399
523	0.399
524	0.399
524	0.398
524	0.398
525	0.398
525	0.397
526	0.397
526	0.397
527	0.396
527	0.395
528	0.394
528	0.393
529	0.392
529	0.391
529	0.389
530	0.388
530	0.387
531	0.386
531	0.384
532	0.382
532	0.381
533	0.379
533	0.378
533	0.376
534	0.374
534	0.372
535	0.37
535	0.369
536	0.367
536	0.365
537	0.363
537	0.36
538	0.358
538	0.356
538	0.353
539	0.351
539	0.349
540	0.347
540	0.345
541	0.342
541	0.34
542	0.337
542	0.334
542	0.332
543	0.329
543	0.327
544	0.324
544	0.321
545	0.319
545	0.316
546	0.314
546	0.311
547	0.309
547	0.306
547	0.304
548	0.301
548	0.299
549	0.296
549	0.293
550	0.291
550	0.288
551	0.285
551	0.282
551	0.279
552	0.276
552	0.273
553	0.27
553	0.268
554	0.265
554	0.263
555	0.26
555	0.257
556	0.255
556	0.252
556	0.25
557	0.247
557	0.245
558	0.243
558	0.241
559	0.239
559	0.237
560	0.234
560	0.232
560	0.23
561	0.228
561	0.225
562	0.223
562	0.22
563	0.218
563	0.215
564	0.212
564	0.21
564	0.208
565	0.206
565	0.203
566	0.201
566	0.199
567	0.197
567	0.195
568	0.193
568	0.191
568	0.189
569	0.187
569	0.185
570	0.183
570	0.181
571	0.179
571	0.178
572	0.176
572	0.174
573	0.172
573	0.17
573	0.169
574	0.167
574	0.166
575	0.164
575	0.163
576	0.161
576	0.159
577	0.158
577	0.156
577	0.155
578	0.153
578	0.152
579	0.151
579	0.149
580	0.147
580	0.146
581	0.144
581	0.142
581	0.141
582	0.141
582	0.14
583	0.139
583	0.137
584	0.135
584	0.133
585	0.132
585	0.131
585	0.129
586	0.128
586	0.126
587	0.125
587	0.123
588	0.122
588	0.121
589	0.12
589	0.119
590	0.118
590	0.117
590	0.117
591	0.116
591	0.115
592	0.113
592	0.112
593	0.111
593	0.11
594	0.109
594	0.108
594	0.107
595	0.106
595	0.104
596	0.103
596	0.103
597	0.103
597	0.102
598	0.101
598	0.101
598	0.1
599	0.099
599	0.098
600	0.098
600	0.097
601	0.096
601	0.095
602	0.094
602	0.093
602	0.092
603	0.091
603	0.091
604	0.09
604	0.09
605	0.089
605	0.089
606	0.088
606	0.087
606	0.086
607	0.086
607	0.085
608	0.084
608	0.083
609	0.082
609	0.081
610	0.08
610	0.079
610	0.079
611	0.078
611	0.078
612	0.077
612	0.077
613	0.077
613	0.076
614	0.075
614	0.075
614	0.074
615	0.074
615	0.073
616	0.072
616	0.072
617	0.071
617	0.071
618	0.07
618	0.07
618	0.07
619	0.069
619	0.069
620	0.069
620	0.069
621	0.068
621	0.067
622	0.067
622	0.066
622	0.065
623	0.064
623	0.064
624	0.064
624	0.063
625	0.062
625	0.062
626	0.061
626	0.061
626	0.06
627	0.06
627	0.059
628	0.059
628	0.058
629	0.057
629	0.057
630	0.056
630	0.055
630	0.055
631	0.055
631	0.054
632	0.054
632	0.053
633	0.053
633	0.053
634	0.053
634	0.053
634	0.053
635	0.052
635	0.052
636	0.052
636	0.052
637	0.051
637	0.051
638	0.051
638	0.05
638	0.05
639	0.049
639	0.049
640	0.049
640	0.048
641	0.048
641	0.047
642	0.047
642	0.047
642	0.046
643	0.046
643	0.046
644	0.046
644	0.046
645	0.045
645	0.045
646	0.045
646	0.045
646	0.045
647	0.044
647	0.044
648	0.043
648	0.043
649	0.042
649	0.042
650	0.042
650	0.041
650	0.041
651	0.041
651	0.04
652	0.04
652	0.04
653	0.04
653	0.042
653	0.048
654	0.039
654	0.032
655	0.03
655	0.03
656	0.03
656	0.03
657	0.03
657	0.03
657	0.03
658	0.029
658	0.023
659	0.029
659	0.036
660	0.039
660	0.039
661	0.038
661	0.038
661	0.037
662	0.037
662	0.037
663	0.036
663	0.036
664	0.036
664	0.035
665	0.035
665	0.035
665	0.035
666	0.035
666	0.034
667	0.034
667	0.034
668	0.034
668	0.033
669	0.033
669	0.033
669	0.033
670	0.033
670	0.033
671	0.033
671	0.032
672	0.032
672	0.032
672	0.031
673	0.031
673	0.031
674	0.031
674	0.031
675	0.03
675	0.03
676	0.031
676	0.031
676	0.031
677	0.031
677	0.031
678	0.03
678	0.03
679	0.03
679	0.029
680	0.029
680	0.029
680	0.029
681	0.029
681	0.029
682	0.029
682	0.029
683	0.029
683	0.03
684	0.03
684	0.029
684	0.029
685	0.028
685	0.028
686	0.028
686	0.027
687	0.027
687	0.026
687	0.026
688	0.026
688	0.025
689	0.026
689	0.026
690	0.026
690	0.026
691	0.026
691	0.027
691	0.027
692	0.027
692	0.028
693	0.028
693	0.028
694	0.028
694	0.028
695	0.028
695	0.029
695	0.029
696	0.028
696	0.028
697	0.027
697	0.027
698	0.027
698	0.026
698	0.026
699	0.026
699	0.026
700	0.026
700	0.026
701	0.026
701	0.026
702	0.025
702	0.025
702	0.025
703	0.025
703	0.025
704	0.024
704	0.024
705	0.024
705	0.023
705	0.023
706	0.023
706	0.023
707	0.022
707	0.022
708	0.022
708	0.022
709	0.022
709	0.022
709	0.022
710	0.022
710	0.022
711	0.022
711	0.022
712	0.022
712	0.022
713	0.022
713	0.022
713	0.022
714	0.021
714	0.021
715	0.021
715	0.02
716	0.02
716	0.02
716	0.019
717	0.019
717	0.019
718	0.018
718	0.018
719	0.018
719	0.019
720	0.019
720	0.019
720	0.019
721	0.02
721	0.02
722	0.02
722	0.021
723	0.021
723	0.021
723	0.021
724	0.021
724	0.02
725	0.019
725	0.018
726	0.018
726	0.017
727	0.016
727	0.016
727	0.015
728	0.015
728	0.014
729	0.014
729	0.014
730	0.014
730	0.014
730	0.015
731	0.015
731	0.016
732	0.016
732	0.016
733	0.016
733	0.016
734	0.016
734	0.016
734	0.016
735	0.016
735	0.016
736	0.015
736	0.015
737	0.015
737	0.015
737	0.015
738	0.014
738	0.013
739	0.013
739	0.012
740	0.011
740	0.011
741	0.011
741	0.011
741	0.011
742	0.01
742	0.011
743	0.012
743	0.012
744	0.013
744	0.013
744	0.014
745	0.014
745	0.014
746	0.014
746	0.014
747	0.014
747	0.014
748	0.014
748	0.014
748	0.014
749	0.014
749	0.014
750	0.013
750	0.013
751	0.013
751	0.012
751	0.012
752	0.012
752	0.011
753	0.011
753	0.011
754	0.011
754	0.011
754	0.011
755	0.011
755	0.011
756	0.011
756	0.01
757	0.009
757	0.009
758	0.009
758	0.008
758	0.008
759	0.008
759	0.008
760	0.008
760	0.008
761	0.009
761	0.01
761	0.011
762	0.011
762	0.012
763	0.012
763	0.012
764	0.012
764	0.011
764	0.011
765	0.01
765	0.009
766	0.009
766	0.008
767	0.008
767	0.007
768	0.006
768	0.006
768	0.005
769	0.005
769	0.006
770	0.006
770	0.006
771	0.007
771	0.007
771	0.007
772	0.008
772	0.008
773	0.008
773	0.008
774	0.008
774	0.009
775	0.009
775	0.009
775	0.009
776	0.009
776	0.009
777	0.009
777	0.009
778	0.009
778	0.009
778	0.009
779	0.009
779	0.008
780	0.008
780	0.007
781	0.007
781	0.007
781	0.007
782	0.006
782	0.006
783	0.007
783	0.007
784	0.007
784	0.007
784	0.007
785	0.007
785	0.007
786	0.007
786	0.008
787	0.008
787	0.008
788	0.008
788	0.008
788	0.007
789	0.007
789	0.007
790	0.008
790	0.007
791	0.007
791	0.006
791	0.006
792	0.006
792	0.006
793	0.005
793	0.004
794	0.004
794	0.003
794	0.003
795	0.002
795	0.002
796	0.002
796	0.002
797	0.002
797	0.002
797	0.003
798	0.003
798	0.003
799	0.003
799	0.003
800	0.003
800	0.003
801	0.003
801	0.003
801	0.003
802	0.003
802	0.003
803	0.003
803	0.003
804	0.003
804	0.004
804	0.004
805	0.004
805	0.004
806	0.005
806	0.005
807	0.005
807	0.005
807	0.005
808	0.006
808	0.006
809	0.006
809	0.006
810	0.006
810	0.006
810	0.006
811	0.006
811	0.006
812	0.007
812	0.007
813	0.007
813	0.007
813	0.007
814	0.007
814	0.007
815	0.008
815	0.008
816	0.008
816	0.008
817	0.008
817	0.008
817	0.008
818	0.007
818	0.007
819	0.007
819	0.006
820	0.006
820	0.005
820	0.005
821	0.005
821	0.004
822	0.004
822	0.003
823	0.003
823	0.003
823	0.004
824	0.004
824	0.005
825	0.006
825	0.006
826	0.006
826	0.006
826	0.007
827	0.007
827	0.007
828	0.007
828	0.007
829	0.006
829	0.006
829	0.006
830	0.006
830	0.006
831	0.007
831	0.007
832	0.007
832	0.007
832	0.007
833	0.007
833	0.006
834	0.006
834	0.006
835	0.006
835	0.006
835	0.006
836	0.006
836	0.006
837	0.006
837	0.007
838	0.006
838	0.006
839	0.006
839	0.005
839	0.004
840	0.003
840	0.002
841	0.001
841	-0
842	-0.001
842	-0.002
842	-0.002
843	-0.003
843	-0.003
844	-0.003
844	-0.003
845	-0.003
845	-0.003
845	-0.003
846	-0.003
846	-0.003
847	-0.002
847	-0.001
848	-0.001
848	-0
848	0.001
849	0.001
849	0.002
850	0.003
850	0.003
851	0.004
851	0.004
851	0.003
852	0.003
852	0.002
853	0.001
853	0.001
854	0
854	0
854	0
855	0
855	0
856	0.001
856	0.001
857	0.001
857	0.001
857	0.002
858	0.001
858	0.001
859	0
859	-0
860	-0.001
860	-0.002
860	-0.003
861	-0.003
861	-0.004
862	-0.005
862	-0.006
863	-0.006
863	-0.006
863	-0.007
864	-0.007
864	-0.007
865	-0.007
865	-0.007
866	-0.007
866	-0.007
866	-0.007
867	-0.006
867	-0.006
868	-0.005
868	-0.005
869	-0.004
869	-0.004
869	-0.004
870	-0.004
870	-0.003
871	-0.003
871	-0.002
872	-0.002
872	-0.002
872	-0.001
873	-0.001
873	-0.002
874	-0.002
874	-0.002
875	-0.002
875	-0.002
875	-0.003
876	-0.003
876	-0.003
877	-0.003
877	-0.003
878	-0.003
878	-0.002
878	-0.001
879	-0.001
879	-0
880	0
880	0.001
881	0.001
881	0.001
881	0.001
882	-0
882	-0.001
883	-0.002
883	-0.002
884	-0.003
884	-0.004
884	-0.004
885	-0.005
885	-0.006
886	-0.006
886	-0.007
887	-0.007
887	-0.007
887	-0.008
888	-0.008
888	-0.008
889	-0.008
889	-0.008
890	-0.008
890	-0.008
890	-0.008
891	-0.008
891	-0.007
892	-0.007
892	-0.006
893	-0.005
893	-0.004
893	-0.004
894	-0.003
894	-0.003
895	-0.002
895	-0.002
895	-0.002
896	-0.002
896	-0.002
897	-0.003
897	-0.003
898	-0.003
898	-0.004
898	-0.004
899	-0.005
899	-0.005
900	-0.005
900	-0.006
901	-0.006
901	-0.006
901	-0.006
902	-0.006
902	-0.006
903	-0.006
903	-0.006
904	-0.006
904	-0.006
904	-0.006
905	-0.006
905	-0.006
906	-0.006
906	-0.005
907	-0.005
907	-0.004
907	-0.004
908	-0.004
908	-0.003
909	-0.003
909	-0.003
910	-0.003
910	-0.003
910	-0.003
911	-0.003
911	-0.003
912	-0.003
912	-0.003
913	-0.003
913	-0.003
913	-0.003
914	-0.004
914	-0.004
915	-0.004
915	-0.004
916	-0.005
916	-0.006
916	-0.006
917	-0.007
917	-0.008
918	-0.009
918	-0.009
918	-0.01
919	-0.01
919	-0.01
920	-0.009
920	-0.009
921	-0.008
921	-0.007
921	-0.006
922	-0.006
922	-0.005
923	-0.004
923	-0.003
924	-0.002
924	-0.001
924	-0.001
925	-0
925	-0
926	0
926	0
927	0
927	0
927	0
928	0
928	0
929	0
929	0
930	-0
930	-0
930	-0.001
931	-0.001
931	-0.001
932	-0.002
932	-0.002
933	-0.002
933	-0.003
933	-0.003
934	-0.004
934	-0.004
935	-0.004
935	-0.004
935	-0.004
936	-0.004
936	-0.004
937	-0.004
937	-0.003
938	-0.003
938	-0.003
938	-0.003
939	-0.003
939	-0.003
940	-0.002
940	-0.002
941	-0.001
941	-0.001
941	-0.001
942	-0
942	0
943	0.001
943	0.001
944	0.002
944	0.002
944	0.002
945	0.003
945	0.003
946	0.003
946	0.003
946	0.003
947	0.003
947	0.003
948	0.003
948	0.003
949	0.002
949	0.002
949	0.002
950	0.002
950	0.002
951	0.002
951	0.001
952	0.001
952	0
952	-0
953	-0.001
953	-0.002
954	-0.002
954	-0.003
955	-0.004
955	-0.004
955	-0.005
956	-0.005
956	-0.005
957	-0.004
957	-0.004
957	-0.003
958	-0.003
958	-0.002
959	-0.001
959	-0.001
960	-0
960	0
960	0.001
961	0.001
961	0.001
962	0.001
962	0
963	0
963	0
963	0
964	-0
964	-0
965	-0
965	-0
966	0
966	0
966	0.001
967	0.001
967	0.002
968	0.003
968	0.003
968	0.003
969	0.003
969	0.003
970	0.003
970	0.003
971	0.003
971	0.003
971	0.003
972	0.002
972	0.002
973	0.002
973	0.001
974	0.001
974	0.002
974	0.002
975	0.002
975	0.003
976	0.003
976	0.004
976	0.004
977	0.004
977	0.004
978	0.003
978	0.003
979	0.003
979	0.002
979	0.002
980	0.001
980	-0
981	-0.001
981	-0.002
982	-0.002
982	-0.003
982	-0.003
983	-0.004
983	-0.004
984	-0.005
984	-0.006
984	-0.006
985	-0.007
985	-0.007
986	-0.007
986	-0.008
987	-0.008
987	-0.008
987	-0.009
988	-0.009
988	-0.009
989	-0.009
989	-0.009
990	-0.009
990	-0.01
990	-0.01
991	-0.01
991	-0.01
992	-0.01
992	-0.01
992	-0.01
993	-0.01
993	-0.01
994	-0.01
994	-0.01
995	-0.01
995	-0.01
995	-0.01
996	-0.009
996	-0.009
997	-0.008
997	-0.007
997	-0.006
998	-0.005
998	-0.005
999	-0.004
999	-0.003
1000	-0.002
1000	-0.001
1000	-0.001
1001	-0
1001	0
1002	0
1002	0
1003	0
1003	-0
1003	-0.001
1004	-0.001
1004	-0.002
1005	-0.002
1005	-0.003
1005	-0.003
1006	-0.004
1006	-0.004
1007	-0.005
1007	-0.005
1008	-0.005
1008	-0.006
1008	-0.006
1009	-0.006
1009	-0.006
1010	-0.006
1010	-0.006
1010	-0.005
1011	-0.005
1011	-0.005
1012	-0.005
1012	-0.005
1013	-0.005
1013	-0.005
1013	-0.005
1014	-0.005
1014	-0.005
1015	-0.005
1015	-0.005
1016	-0.005
1016	-0.005
1016	-0.005
1017	-0.005
1017	-0.006
1018	-0.006
1018	-0.006
1018	-0.006
1019	-0.006
1019	-0.007
1020	-0.007
1020	-0.007
1021	-0.007
1021	-0.007
1021	-0.007
1022	-0.007
1022	-0.008
1023	-0.008
1023	-0.008
1023	-0.008
1024	-0.008
1024	-0.009
1025	-0.009
1025	-0.01
1026	-0.01
1026	-0.011
1026	-0.012
1027	-0.012
1027	-0.013
1028	-0.013
1028	-0.014
1028	-0.014
1029	-0.014
1029	-0.014
1030	-0.014
1030	-0.014
1031	-0.014
1031	-0.014
1031	-0.014
1032	-0.014
1032	-0.013
1033	-0.013
1033	-0.013
1033	-0.013
1034	-0.013
1034	-0.013
1035	-0.013
1035	-0.013
1036	-0.013
1036	-0.013
1036	-0.013
1037	-0.013
1037	-0.013
1038	-0.013
1038	-0.012
1039	-0.012
1039	-0.012
1039	-0.011
1040	-0.011
1040	-0.01
1041	-0.01
1041	-0.009
1041	-0.009
1042	-0.009
1042	-0.008
1043	-0.008
1043	-0.008
1044	-0.007
1044	-0.007
1044	-0.007
1045	-0.006
1045	-0.006
1046	-0.006
1046	-0.005
1046	-0.005
1047	-0.004
1047	-0.004
1048	-0.003
1048	-0.003
1049	-0.002
1049	-0.002
1049	-0.002
1050	-0.002
1050	-0.003
1051	-0.003
1051	-0.004
1051	-0.004
1052	-0.005
1052	-0.006
1053	-0.007
1053	-0.008
1053	-0.008
1054	-0.009
1054	-0.009
1055	-0.01
1055	-0.01
1056	-0.011
1056	-0.011
1056	-0.011
1057	-0.012
1057	-0.012
1058	-0.013
1058	-0.013
1058	-0.014
1059	-0.014
1059	-0.014
1060	-0.015
1060	-0.015
1061	-0.015
1061	-0.015
1061	-0.016
1062	-0.016
1062	-0.016
1063	-0.017
1063	-0.017
1063	-0.018
1064	-0.018
1064	-0.018
1065	-0.019
1065	-0.019
1066	-0.019
1066	-0.019
1066	-0.019
1067	-0.02
1067	-0.019
1068	-0.02
1068	-0.019
1068	-0.02
1069	-0.02
1069	-0.02
1070	-0.02
1070	-0.02
1071	-0.021
1071	-0.021
1071	-0.022
1072	-0.022
1072	-0.022
1073	-0.023
1073	-0.023
1073	-0.023
1074	-0.023
1074	-0.023
1075	-0.023
1075	-0.023
1076	-0.023
1076	-0.022
1076	-0.022
1077	-0.021
1077	-0.021
1078	-0.021
1078	-0.02
1078	-0.02
1079	-0.019
1079	-0.019
1080	-0.019
1080	-0.018
1080	-0.018
1081	-0.017
1081	-0.017
1082	-0.016
1082	-0.015
1083	-0.015
1083	-0.016
1083	-0.016
1084	-0.016
1084	-0.016
1085	-0.017
1085	-0.017
1085	-0.017
1086	-0.018
1086	-0.019
1087	-0.019
1087	-0.02
1088	-0.02
1088	-0.02
1088	-0.02
1089	-0.02
1089	-0.02
1090	-0.021
1090	-0.022
1090	-0.022
1091	-0.022
1091	-0.022
1092	-0.022
1092	-0.022
1092	-0.022
1093	-0.022
1093	-0.022
1094	-0.022
1094	-0.023
1095	-0.022
1095	-0.022
1095	-0.023
1096	-0.023
1096	-0.024
1097	-0.025
1097	-0.025
1097	-0.025
1098	-0.025
1098	-0.026
1099	-0.026
1099	-0.028
1100	-0.029
1100	-0.029
1100	-0.03
1101	-0.03
1101	-0.03
1102	-0.031
1102	-0.031
1102	-0.033
1103	-0.033
1103	-0.033
1104	-0.033
1104	-0.033
1104	-0.034
1105	-0.035
1105	-0.037
1106	-0.038
1106	-0.04
1107	-0.04
1107	-0.041
1107	-0.041
1108	-0.043
1108	-0.044
1109	-0.046
1109	-0.046
1109	-0.046
1110	-0.044
1110	-0.045
1111	-0.044
1111	-0.044
