Data from reversibility-20sec_Absorbance__7241__000000000007241.txt Node

Date: Thu Dec 07 04:26:45 CET 2023
User: Marek
Spectrometer: MAYP115816
Trigger mode: 0
Integration Time (sec): 2.000000E-1
Scans to average: 10
Electric dark correction enabled: true
Nonlinearity correction enabled: true
Boxcar width: 5
XAxis mode: Wavelengths
Number of Pixels in Spectrum: 2068
>>>>>Begin Spectral Data<<<<<
199	-0.09
199	-0.065
200	-0.001
200	0.045
201	0.074
201	0.094
202	0.102
202	0.108
203	0.117
203	0.118
204	0.13
204	0.143
205	0.153
205	0.157
205	0.157
206	0.157
206	0.155
207	0.154
207	0.158
208	0.158
208	0.156
209	0.158
209	0.155
210	0.157
210	0.159
211	0.16
211	0.162
212	0.16
212	0.163
213	0.164
213	0.163
213	0.167
214	0.17
214	0.174
215	0.175
215	0.173
216	0.172
216	0.171
217	0.174
217	0.176
218	0.175
218	0.178
219	0.18
219	0.18
220	0.183
220	0.182
221	0.184
221	0.188
221	0.193
222	0.201
222	0.205
223	0.212
223	0.216
224	0.222
224	0.228
225	0.235
225	0.248
226	0.259
226	0.269
227	0.276
227	0.286
228	0.3
228	0.314
229	0.328
229	0.351
229	0.373
230	0.398
230	0.426
231	0.458
231	0.493
232	0.532
232	0.574
233	0.617
233	0.662
234	0.715
234	0.767
235	0.822
235	0.875
236	0.925
236	0.977
236	1.028
237	1.077
237	1.129
238	1.175
238	1.224
239	1.269
239	1.309
240	1.345
240	1.38
241	1.416
241	1.449
242	1.479
242	1.515
243	1.543
243	1.568
243	1.593
244	1.612
244	1.631
245	1.651
245	1.674
246	1.693
246	1.71
247	1.723
247	1.733
248	1.745
248	1.756
249	1.763
249	1.77
250	1.777
250	1.784
250	1.784
251	1.786
251	1.787
252	1.792
252	1.792
253	1.791
253	1.79
254	1.79
254	1.791
255	1.79
255	1.79
256	1.789
256	1.79
257	1.79
257	1.789
258	1.788
258	1.789
258	1.787
259	1.787
259	1.787
260	1.786
260	1.788
261	1.788
261	1.789
262	1.79
262	1.792
263	1.794
263	1.796
264	1.799
264	1.799
265	1.8
265	1.801
265	1.801
266	1.8
266	1.8
267	1.797
267	1.797
268	1.796
268	1.795
269	1.795
269	1.795
270	1.794
270	1.794
271	1.791
271	1.791
272	1.788
272	1.786
272	1.782
273	1.776
273	1.769
274	1.762
274	1.756
275	1.75
275	1.741
276	1.733
276	1.724
277	1.716
277	1.706
278	1.695
278	1.683
278	1.668
279	1.651
279	1.631
280	1.604
280	1.572
281	1.535
281	1.493
282	1.449
282	1.405
283	1.361
283	1.318
284	1.277
284	1.238
285	1.2
285	1.166
285	1.136
286	1.11
286	1.087
287	1.067
287	1.05
288	1.035
288	1.023
289	1.012
289	1.003
290	0.995
290	0.988
291	0.982
291	0.977
292	0.972
292	0.967
292	0.963
293	0.959
293	0.956
294	0.953
294	0.949
295	0.946
295	0.944
296	0.941
296	0.938
297	0.935
297	0.932
298	0.929
298	0.926
298	0.923
299	0.92
299	0.917
300	0.914
300	0.911
301	0.909
301	0.906
302	0.904
302	0.901
303	0.899
303	0.896
304	0.894
304	0.892
305	0.89
305	0.888
305	0.886
306	0.884
306	0.881
307	0.879
307	0.876
308	0.874
308	0.872
309	0.869
309	0.866
310	0.863
310	0.86
311	0.857
311	0.854
311	0.85
312	0.847
312	0.843
313	0.84
313	0.836
314	0.832
314	0.828
315	0.824
315	0.82
316	0.815
316	0.811
317	0.806
317	0.802
318	0.797
318	0.791
318	0.786
319	0.781
319	0.775
320	0.77
320	0.764
321	0.758
321	0.752
322	0.745
322	0.739
323	0.733
323	0.727
324	0.72
324	0.714
324	0.707
325	0.7
325	0.693
326	0.686
326	0.679
327	0.673
327	0.665
328	0.658
328	0.651
329	0.644
329	0.637
330	0.63
330	0.622
330	0.615
331	0.608
331	0.601
332	0.594
332	0.587
333	0.58
333	0.573
334	0.566
334	0.559
335	0.553
335	0.546
336	0.539
336	0.532
336	0.525
337	0.519
337	0.512
338	0.506
338	0.5
339	0.494
339	0.488
340	0.482
340	0.476
341	0.471
341	0.465
342	0.46
342	0.454
342	0.449
343	0.444
343	0.438
344	0.433
344	0.428
345	0.423
345	0.419
346	0.414
346	0.41
347	0.405
347	0.401
348	0.397
348	0.393
348	0.389
349	0.385
349	0.381
350	0.378
350	0.374
351	0.371
351	0.368
352	0.365
352	0.362
353	0.359
353	0.356
354	0.353
354	0.35
354	0.347
355	0.344
355	0.341
356	0.339
356	0.336
357	0.333
357	0.33
358	0.328
358	0.325
359	0.323
359	0.321
360	0.318
360	0.317
360	0.315
361	0.313
361	0.311
362	0.31
362	0.308
363	0.306
363	0.304
364	0.302
364	0.3
365	0.299
365	0.297
366	0.295
366	0.293
366	0.292
367	0.29
367	0.288
368	0.287
368	0.285
369	0.284
369	0.283
370	0.281
370	0.28
371	0.279
371	0.277
372	0.276
372	0.275
372	0.274
373	0.273
373	0.272
374	0.272
374	0.271
375	0.27
375	0.269
376	0.268
376	0.267
377	0.266
377	0.266
378	0.265
378	0.264
378	0.263
379	0.262
379	0.262
380	0.261
380	0.26
381	0.26
381	0.259
382	0.258
382	0.258
383	0.257
383	0.257
383	0.256
384	0.256
384	0.255
385	0.255
385	0.255
386	0.254
386	0.254
387	0.253
387	0.253
388	0.253
388	0.253
389	0.252
389	0.252
389	0.252
390	0.251
390	0.251
391	0.251
391	0.25
392	0.25
392	0.25
393	0.25
393	0.249
394	0.249
394	0.249
394	0.249
395	0.248
395	0.248
396	0.248
396	0.247
397	0.247
397	0.246
398	0.246
398	0.246
399	0.246
399	0.245
400	0.245
400	0.245
400	0.245
401	0.244
401	0.244
402	0.244
402	0.244
403	0.244
403	0.243
404	0.243
404	0.243
405	0.243
405	0.243
405	0.242
406	0.242
406	0.242
407	0.241
407	0.241
408	0.241
408	0.241
409	0.24
409	0.24
410	0.24
410	0.24
411	0.239
411	0.239
411	0.239
412	0.239
412	0.238
413	0.238
413	0.238
414	0.238
414	0.237
415	0.237
415	0.237
416	0.236
416	0.236
416	0.236
417	0.235
417	0.235
418	0.235
418	0.235
419	0.234
419	0.233
420	0.233
420	0.233
421	0.232
421	0.232
421	0.232
422	0.231
422	0.231
423	0.23
423	0.23
424	0.23
424	0.229
425	0.229
425	0.229
426	0.229
426	0.229
427	0.228
427	0.228
427	0.228
428	0.227
428	0.227
429	0.226
429	0.226
430	0.226
430	0.225
431	0.225
431	0.225
432	0.225
432	0.225
432	0.224
433	0.224
433	0.224
434	0.224
434	0.224
435	0.224
435	0.224
436	0.223
436	0.223
437	0.223
437	0.223
437	0.222
438	0.222
438	0.222
439	0.222
439	0.221
440	0.221
440	0.221
441	0.22
441	0.22
442	0.22
442	0.22
442	0.219
443	0.219
443	0.219
444	0.219
444	0.218
445	0.218
445	0.218
446	0.218
446	0.217
447	0.217
447	0.217
447	0.217
448	0.217
448	0.217
449	0.217
449	0.217
450	0.216
450	0.216
451	0.216
451	0.216
452	0.216
452	0.216
452	0.215
453	0.215
453	0.215
454	0.215
454	0.214
455	0.214
455	0.214
456	0.214
456	0.213
457	0.213
457	0.213
458	0.213
458	0.212
458	0.212
459	0.212
459	0.212
460	0.212
460	0.212
461	0.211
461	0.211
462	0.211
462	0.211
463	0.21
463	0.21
463	0.21
464	0.21
464	0.209
465	0.209
465	0.208
466	0.208
466	0.208
467	0.208
467	0.208
467	0.208
468	0.208
468	0.208
469	0.208
469	0.208
470	0.208
470	0.208
471	0.208
471	0.208
472	0.208
472	0.208
472	0.208
473	0.208
473	0.208
474	0.208
474	0.207
475	0.207
475	0.207
476	0.207
476	0.207
477	0.207
477	0.207
477	0.207
478	0.207
478	0.207
479	0.207
479	0.207
480	0.206
480	0.206
481	0.206
481	0.206
482	0.206
482	0.207
482	0.207
483	0.207
483	0.207
484	0.207
484	0.207
485	0.207
485	0.207
486	0.206
486	0.206
487	0.206
487	0.206
487	0.207
488	0.207
488	0.206
489	0.207
489	0.207
490	0.208
490	0.208
491	0.209
491	0.209
492	0.209
492	0.209
492	0.21
493	0.21
493	0.211
494	0.211
494	0.211
495	0.211
495	0.212
496	0.212
496	0.212
496	0.213
497	0.213
497	0.213
498	0.214
498	0.214
499	0.214
499	0.214
500	0.215
500	0.215
501	0.216
501	0.216
501	0.216
502	0.216
502	0.216
503	0.217
503	0.217
504	0.217
504	0.218
505	0.218
505	0.219
506	0.219
506	0.219
506	0.219
507	0.22
507	0.22
508	0.22
508	0.221
509	0.221
509	0.221
510	0.221
510	0.222
511	0.222
511	0.223
511	0.223
512	0.223
512	0.224
513	0.224
513	0.224
514	0.225
514	0.225
515	0.226
515	0.226
515	0.226
516	0.226
516	0.227
517	0.227
517	0.228
518	0.228
518	0.228
519	0.229
519	0.229
520	0.229
520	0.229
520	0.229
521	0.229
521	0.23
522	0.229
522	0.23
523	0.23
523	0.23
524	0.23
524	0.231
524	0.231
525	0.232
525	0.232
526	0.232
526	0.232
527	0.232
527	0.232
528	0.232
528	0.232
529	0.232
529	0.232
529	0.232
530	0.232
530	0.232
531	0.232
531	0.231
532	0.231
532	0.231
533	0.23
533	0.23
533	0.23
534	0.23
534	0.23
535	0.23
535	0.23
536	0.23
536	0.23
537	0.23
537	0.23
538	0.23
538	0.23
538	0.23
539	0.23
539	0.23
540	0.23
540	0.23
541	0.23
541	0.23
542	0.23
542	0.23
542	0.229
543	0.229
543	0.229
544	0.229
544	0.228
545	0.228
545	0.228
546	0.228
546	0.227
547	0.227
547	0.226
547	0.226
548	0.226
548	0.226
549	0.225
549	0.225
550	0.225
550	0.225
551	0.224
551	0.224
551	0.224
552	0.224
552	0.224
553	0.223
553	0.223
554	0.222
554	0.222
555	0.221
555	0.22
556	0.22
556	0.22
556	0.22
557	0.22
557	0.22
558	0.22
558	0.22
559	0.22
559	0.22
560	0.22
560	0.22
560	0.22
561	0.22
561	0.22
562	0.219
562	0.218
563	0.217
563	0.216
564	0.215
564	0.215
564	0.215
565	0.214
565	0.214
566	0.214
566	0.213
567	0.213
567	0.213
568	0.213
568	0.213
568	0.212
569	0.212
569	0.212
570	0.211
570	0.21
571	0.21
571	0.209
572	0.209
572	0.208
573	0.208
573	0.208
573	0.207
574	0.207
574	0.207
575	0.207
575	0.207
576	0.207
576	0.206
577	0.206
577	0.205
577	0.205
578	0.205
578	0.204
579	0.205
579	0.205
580	0.204
580	0.204
581	0.203
581	0.203
581	0.203
582	0.203
582	0.203
583	0.203
583	0.203
584	0.202
584	0.201
585	0.201
585	0.201
585	0.2
586	0.2
586	0.2
587	0.199
587	0.199
588	0.199
588	0.198
589	0.198
589	0.198
590	0.198
590	0.198
590	0.198
591	0.198
591	0.197
592	0.197
592	0.196
593	0.196
593	0.196
594	0.195
594	0.195
594	0.194
595	0.194
595	0.194
596	0.193
596	0.193
597	0.194
597	0.195
598	0.194
598	0.195
598	0.194
599	0.194
599	0.194
600	0.194
600	0.194
601	0.194
601	0.193
602	0.193
602	0.192
602	0.192
603	0.192
603	0.192
604	0.192
604	0.192
605	0.192
605	0.191
606	0.191
606	0.19
606	0.189
607	0.189
607	0.189
608	0.188
608	0.187
609	0.187
609	0.187
610	0.186
610	0.186
610	0.186
611	0.186
611	0.186
612	0.186
612	0.187
613	0.187
613	0.187
614	0.187
614	0.187
614	0.188
615	0.188
615	0.188
616	0.188
616	0.188
617	0.188
617	0.188
618	0.187
618	0.187
618	0.187
619	0.187
619	0.187
620	0.187
620	0.187
621	0.186
621	0.186
622	0.186
622	0.185
622	0.184
623	0.184
623	0.184
624	0.184
624	0.183
625	0.183
625	0.183
626	0.182
626	0.182
626	0.182
627	0.182
627	0.182
628	0.182
628	0.182
629	0.182
629	0.182
630	0.182
630	0.182
630	0.182
631	0.182
631	0.182
632	0.181
632	0.181
633	0.181
633	0.181
634	0.181
634	0.181
634	0.181
635	0.181
635	0.181
636	0.181
636	0.18
637	0.18
637	0.18
638	0.179
638	0.179
638	0.178
639	0.178
639	0.178
640	0.178
640	0.178
641	0.178
641	0.178
642	0.178
642	0.178
642	0.178
643	0.179
643	0.179
644	0.179
644	0.179
645	0.179
645	0.179
646	0.179
646	0.18
646	0.18
647	0.179
647	0.179
648	0.179
648	0.178
649	0.178
649	0.177
650	0.177
650	0.177
650	0.177
651	0.177
651	0.177
652	0.177
652	0.177
653	0.178
653	0.179
653	0.184
654	0.145
654	0.116
655	0.117
655	0.117
656	0.117
656	0.118
657	0.118
657	0.118
657	0.118
658	0.117
658	0.108
659	0.136
659	0.175
660	0.18
660	0.18
661	0.179
661	0.179
661	0.178
662	0.178
662	0.178
663	0.177
663	0.177
664	0.176
664	0.176
665	0.176
665	0.175
665	0.175
666	0.176
666	0.176
667	0.176
667	0.176
668	0.177
668	0.177
669	0.177
669	0.177
669	0.178
670	0.178
670	0.178
671	0.178
671	0.178
672	0.178
672	0.177
672	0.177
673	0.176
673	0.176
674	0.175
674	0.175
675	0.175
675	0.175
676	0.175
676	0.175
676	0.175
677	0.175
677	0.175
678	0.175
678	0.175
679	0.175
679	0.175
680	0.175
680	0.175
680	0.175
681	0.175
681	0.176
682	0.176
682	0.176
683	0.177
683	0.177
684	0.178
684	0.177
684	0.177
685	0.177
685	0.178
686	0.178
686	0.177
687	0.177
687	0.177
687	0.177
688	0.177
688	0.177
689	0.178
689	0.179
690	0.178
690	0.178
691	0.178
691	0.178
691	0.178
692	0.178
692	0.179
693	0.179
693	0.179
694	0.179
694	0.179
695	0.18
695	0.181
695	0.182
696	0.182
696	0.182
697	0.182
697	0.182
698	0.182
698	0.182
698	0.182
699	0.182
699	0.181
700	0.181
700	0.181
701	0.181
701	0.18
702	0.18
702	0.179
702	0.179
703	0.179
703	0.179
704	0.178
704	0.178
705	0.178
705	0.178
705	0.178
706	0.178
706	0.178
707	0.178
707	0.178
708	0.178
708	0.178
709	0.178
709	0.178
709	0.178
710	0.178
710	0.178
711	0.179
711	0.179
712	0.179
712	0.179
713	0.179
713	0.179
713	0.179
714	0.179
714	0.179
715	0.179
715	0.178
716	0.178
716	0.178
716	0.177
717	0.177
717	0.176
718	0.176
718	0.176
719	0.177
719	0.177
720	0.178
720	0.179
720	0.18
721	0.181
721	0.182
722	0.183
722	0.183
723	0.183
723	0.184
723	0.183
724	0.183
724	0.182
725	0.181
725	0.18
726	0.18
726	0.179
727	0.178
727	0.178
727	0.178
728	0.178
728	0.178
729	0.178
729	0.179
730	0.179
730	0.179
730	0.18
731	0.18
731	0.181
732	0.181
732	0.182
733	0.182
733	0.182
734	0.182
734	0.182
734	0.183
735	0.183
735	0.183
736	0.183
736	0.182
737	0.182
737	0.182
737	0.182
738	0.181
738	0.181
739	0.181
739	0.181
740	0.181
740	0.181
741	0.181
741	0.181
741	0.182
742	0.182
742	0.183
743	0.184
743	0.185
744	0.186
744	0.186
744	0.186
745	0.187
745	0.187
746	0.187
746	0.187
747	0.187
747	0.187
748	0.186
748	0.186
748	0.186
749	0.186
749	0.187
750	0.187
750	0.187
751	0.187
751	0.187
751	0.187
752	0.187
752	0.186
753	0.186
753	0.186
754	0.186
754	0.185
754	0.185
755	0.185
755	0.185
756	0.184
756	0.184
757	0.183
757	0.184
758	0.184
758	0.184
758	0.184
759	0.185
759	0.184
760	0.184
760	0.184
761	0.185
761	0.186
761	0.186
762	0.186
762	0.187
763	0.187
763	0.187
764	0.186
764	0.186
764	0.187
765	0.186
765	0.186
766	0.186
766	0.186
767	0.185
767	0.184
768	0.184
768	0.184
768	0.184
769	0.184
769	0.185
770	0.185
770	0.186
771	0.186
771	0.187
771	0.187
772	0.188
772	0.189
773	0.189
773	0.189
774	0.19
774	0.19
775	0.191
775	0.191
775	0.191
776	0.192
776	0.192
777	0.193
777	0.193
778	0.193
778	0.193
778	0.193
779	0.193
779	0.192
780	0.191
780	0.19
781	0.189
781	0.188
781	0.187
782	0.187
782	0.186
783	0.186
783	0.187
784	0.187
784	0.187
784	0.188
785	0.189
785	0.189
786	0.19
786	0.191
787	0.191
787	0.192
788	0.192
788	0.192
788	0.192
789	0.192
789	0.192
790	0.192
790	0.192
791	0.192
791	0.192
791	0.192
792	0.192
792	0.192
793	0.191
793	0.191
794	0.19
794	0.19
794	0.189
795	0.189
795	0.189
796	0.189
796	0.189
797	0.189
797	0.189
797	0.19
798	0.19
798	0.191
799	0.191
799	0.191
800	0.191
800	0.191
801	0.191
801	0.191
801	0.192
802	0.192
802	0.192
803	0.192
803	0.193
804	0.193
804	0.194
804	0.194
805	0.195
805	0.195
806	0.195
806	0.195
807	0.195
807	0.195
807	0.195
808	0.195
808	0.195
809	0.194
809	0.194
810	0.194
810	0.194
810	0.194
811	0.194
811	0.195
812	0.195
812	0.195
813	0.196
813	0.196
813	0.196
814	0.197
814	0.197
815	0.198
815	0.198
816	0.198
816	0.198
817	0.197
817	0.197
817	0.196
818	0.196
818	0.196
819	0.196
819	0.195
820	0.194
820	0.194
820	0.194
821	0.194
821	0.194
822	0.194
822	0.194
823	0.195
823	0.195
823	0.195
824	0.196
824	0.198
825	0.199
825	0.2
826	0.201
826	0.201
826	0.202
827	0.202
827	0.203
828	0.203
828	0.203
829	0.203
829	0.204
829	0.204
830	0.204
830	0.205
831	0.205
831	0.206
832	0.206
832	0.206
832	0.206
833	0.206
833	0.206
834	0.206
834	0.205
835	0.205
835	0.204
835	0.203
836	0.202
836	0.202
837	0.201
837	0.2
838	0.199
838	0.199
839	0.198
839	0.197
839	0.196
840	0.195
840	0.194
841	0.194
841	0.193
842	0.192
842	0.192
842	0.191
843	0.191
843	0.191
844	0.19
844	0.19
845	0.19
845	0.19
845	0.191
846	0.191
846	0.191
847	0.192
847	0.192
848	0.192
848	0.193
848	0.193
849	0.193
849	0.193
850	0.192
850	0.192
851	0.192
851	0.191
851	0.191
852	0.191
852	0.19
853	0.19
853	0.19
854	0.191
854	0.192
854	0.193
855	0.193
855	0.194
856	0.195
856	0.196
857	0.197
857	0.198
857	0.198
858	0.199
858	0.199
859	0.199
859	0.198
860	0.198
860	0.198
860	0.197
861	0.197
861	0.196
862	0.195
862	0.195
863	0.194
863	0.194
863	0.194
864	0.194
864	0.194
865	0.194
865	0.194
866	0.195
866	0.195
866	0.195
867	0.195
867	0.196
868	0.196
868	0.196
869	0.196
869	0.196
869	0.195
870	0.195
870	0.194
871	0.194
871	0.194
872	0.193
872	0.193
872	0.192
873	0.192
873	0.192
874	0.191
874	0.191
875	0.191
875	0.19
875	0.19
876	0.19
876	0.19
877	0.19
877	0.19
878	0.19
878	0.19
878	0.19
879	0.19
879	0.19
880	0.189
880	0.189
881	0.189
881	0.189
881	0.189
882	0.189
882	0.189
883	0.189
883	0.189
884	0.189
884	0.19
884	0.19
885	0.19
885	0.189
886	0.189
886	0.189
887	0.189
887	0.188
887	0.188
888	0.187
888	0.187
889	0.187
889	0.187
890	0.187
890	0.187
890	0.187
891	0.187
891	0.187
892	0.186
892	0.186
893	0.185
893	0.185
893	0.184
894	0.183
894	0.182
895	0.181
895	0.181
895	0.181
896	0.181
896	0.181
897	0.182
897	0.182
898	0.182
898	0.183
898	0.183
899	0.183
899	0.183
900	0.183
900	0.183
901	0.183
901	0.183
901	0.182
902	0.182
902	0.181
903	0.181
903	0.181
904	0.181
904	0.18
904	0.18
905	0.179
905	0.179
906	0.178
906	0.178
907	0.178
907	0.179
907	0.178
908	0.178
908	0.178
909	0.178
909	0.177
910	0.177
910	0.177
910	0.176
911	0.176
911	0.175
912	0.175
912	0.174
913	0.174
913	0.174
913	0.173
914	0.173
914	0.173
915	0.173
915	0.173
916	0.173
916	0.173
916	0.172
917	0.172
917	0.172
918	0.171
918	0.171
918	0.17
919	0.17
919	0.17
920	0.169
920	0.169
921	0.169
921	0.168
921	0.168
922	0.168
922	0.168
923	0.168
923	0.168
924	0.168
924	0.168
924	0.168
925	0.169
925	0.169
926	0.169
926	0.169
927	0.169
927	0.169
927	0.169
928	0.169
928	0.169
929	0.169
929	0.169
930	0.169
930	0.169
930	0.169
931	0.169
931	0.169
932	0.169
932	0.169
933	0.169
933	0.169
933	0.168
934	0.168
934	0.167
935	0.167
935	0.167
935	0.166
936	0.165
936	0.165
937	0.164
937	0.163
938	0.163
938	0.162
938	0.162
939	0.161
939	0.16
940	0.16
940	0.16
941	0.16
941	0.16
941	0.16
942	0.16
942	0.159
943	0.16
943	0.16
944	0.16
944	0.16
944	0.161
945	0.161
945	0.161
946	0.161
946	0.162
946	0.162
947	0.162
947	0.163
948	0.163
948	0.162
949	0.162
949	0.161
949	0.16
950	0.159
950	0.159
951	0.157
951	0.156
952	0.155
952	0.153
952	0.152
953	0.151
953	0.15
954	0.15
954	0.149
955	0.149
955	0.149
955	0.149
956	0.15
956	0.15
957	0.151
957	0.152
957	0.152
958	0.153
958	0.153
959	0.154
959	0.154
960	0.155
960	0.155
960	0.155
961	0.154
961	0.154
962	0.154
962	0.153
963	0.153
963	0.153
963	0.152
964	0.152
964	0.152
965	0.152
965	0.152
966	0.152
966	0.152
966	0.152
967	0.151
967	0.151
968	0.151
968	0.151
968	0.151
969	0.15
969	0.149
970	0.149
970	0.148
971	0.147
971	0.146
971	0.145
972	0.144
972	0.144
973	0.143
973	0.143
974	0.143
974	0.143
974	0.144
975	0.144
975	0.145
976	0.145
976	0.146
976	0.147
977	0.147
977	0.148
978	0.148
978	0.148
979	0.148
979	0.148
979	0.148
980	0.148
980	0.148
981	0.148
981	0.147
982	0.147
982	0.147
982	0.146
983	0.146
983	0.146
984	0.145
984	0.145
984	0.145
985	0.144
985	0.144
986	0.144
986	0.144
987	0.144
987	0.143
987	0.143
988	0.143
988	0.143
989	0.143
989	0.142
990	0.142
990	0.142
990	0.142
991	0.141
991	0.141
992	0.14
992	0.139
992	0.138
993	0.137
993	0.136
994	0.135
994	0.134
995	0.133
995	0.133
995	0.132
996	0.132
996	0.132
997	0.132
997	0.133
997	0.133
998	0.133
998	0.134
999	0.134
999	0.135
1000	0.135
1000	0.136
1000	0.136
1001	0.136
1001	0.136
1002	0.136
1002	0.136
1003	0.136
1003	0.136
1003	0.135
1004	0.135
1004	0.134
1005	0.134
1005	0.133
1005	0.132
1006	0.132
1006	0.131
1007	0.131
1007	0.13
1008	0.13
1008	0.13
1008	0.13
1009	0.13
1009	0.129
1010	0.129
1010	0.129
1010	0.129
1011	0.128
1011	0.128
1012	0.127
1012	0.127
1013	0.126
1013	0.126
1013	0.125
1014	0.125
1014	0.125
1015	0.125
1015	0.125
1016	0.125
1016	0.125
1016	0.125
1017	0.124
1017	0.124
1018	0.125
1018	0.124
1018	0.124
1019	0.124
1019	0.124
1020	0.124
1020	0.124
1021	0.124
1021	0.125
1021	0.125
1022	0.125
1022	0.125
1023	0.125
1023	0.125
1023	0.125
1024	0.125
1024	0.125
1025	0.125
1025	0.125
1026	0.125
1026	0.124
1026	0.124
1027	0.124
1027	0.124
1028	0.125
1028	0.125
1028	0.124
1029	0.125
1029	0.125
1030	0.125
1030	0.125
1031	0.125
1031	0.125
1031	0.125
1032	0.125
1032	0.125
1033	0.125
1033	0.125
1033	0.125
1034	0.125
1034	0.124
1035	0.124
1035	0.124
1036	0.124
1036	0.124
1036	0.123
1037	0.123
1037	0.123
1038	0.122
1038	0.122
1039	0.122
1039	0.122
1039	0.121
1040	0.121
1040	0.121
1041	0.121
1041	0.12
1041	0.12
1042	0.12
1042	0.12
1043	0.119
1043	0.119
1044	0.119
1044	0.118
1044	0.118
1045	0.118
1045	0.117
1046	0.117
1046	0.116
1046	0.116
1047	0.116
1047	0.116
1048	0.116
1048	0.116
1049	0.116
1049	0.116
1049	0.116
1050	0.116
1050	0.115
1051	0.115
1051	0.115
1051	0.115
1052	0.114
1052	0.114
1053	0.113
1053	0.113
1053	0.112
1054	0.112
1054	0.111
1055	0.111
1055	0.11
1056	0.109
1056	0.109
1056	0.108
1057	0.108
1057	0.107
1058	0.106
1058	0.105
1058	0.105
1059	0.104
1059	0.103
1060	0.103
1060	0.102
1061	0.102
1061	0.102
1061	0.101
1062	0.101
1062	0.101
1063	0.1
1063	0.1
1063	0.1
1064	0.1
1064	0.1
1065	0.1
1065	0.099
1066	0.099
1066	0.099
1066	0.099
1067	0.099
1067	0.099
1068	0.099
1068	0.099
1068	0.099
1069	0.099
1069	0.099
1070	0.099
1070	0.099
1071	0.099
1071	0.099
1071	0.099
1072	0.099
1072	0.099
1073	0.098
1073	0.098
1073	0.098
1074	0.099
1074	0.099
1075	0.099
1075	0.099
1076	0.1
1076	0.1
1076	0.101
1077	0.101
1077	0.101
1078	0.101
1078	0.101
1078	0.101
1079	0.101
1079	0.101
1080	0.101
1080	0.1
1080	0.1
1081	0.1
1081	0.1
1082	0.1
1082	0.1
1083	0.099
1083	0.099
1083	0.099
1084	0.099
1084	0.099
1085	0.099
1085	0.099
1085	0.099
1086	0.099
1086	0.098
1087	0.098
1087	0.098
1088	0.098
1088	0.098
1088	0.098
1089	0.097
1089	0.096
1090	0.095
1090	0.094
1090	0.094
1091	0.093
1091	0.093
1092	0.092
1092	0.092
1092	0.091
1093	0.091
1093	0.091
1094	0.091
1094	0.09
1095	0.09
1095	0.09
1095	0.09
1096	0.089
1096	0.088
1097	0.087
1097	0.086
1097	0.085
1098	0.084
1098	0.083
1099	0.082
1099	0.081
1100	0.08
1100	0.078
1100	0.078
1101	0.077
1101	0.076
1102	0.076
1102	0.074
1102	0.074
1103	0.074
1103	0.074
1104	0.074
1104	0.074
1104	0.073
1105	0.072
1105	0.071
1106	0.07
1106	0.069
1107	0.069
1107	0.069
1107	0.068
1108	0.066
1108	0.066
1109	0.064
1109	0.065
1109	0.065
1110	0.067
1110	0.066
1111	0.066
1111	0.063
