Data from reversibility-20sec_Absorbance__6276__000000000006276.txt Node

Date: Wed Dec 06 23:05:06 CET 2023
User: Marek
Spectrometer: MAYP115816
Trigger mode: 0
Integration Time (sec): 2.000000E-1
Scans to average: 10
Electric dark correction enabled: true
Nonlinearity correction enabled: true
Boxcar width: 5
XAxis mode: Wavelengths
Number of Pixels in Spectrum: 2068
>>>>>Begin Spectral Data<<<<<
199	-0.198
199	-0.166
200	-0.101
200	-0.047
201	-0.019
201	-0
202	0.01
202	0.021
203	0.03
203	0.035
204	0.048
204	0.063
205	0.075
205	0.082
205	0.078
206	0.077
206	0.077
207	0.079
207	0.077
208	0.075
208	0.074
209	0.074
209	0.074
210	0.074
210	0.074
211	0.077
211	0.08
212	0.079
212	0.082
213	0.087
213	0.089
213	0.091
214	0.098
214	0.098
215	0.101
215	0.101
216	0.102
216	0.1
217	0.106
217	0.105
218	0.1
218	0.104
219	0.108
219	0.106
220	0.11
220	0.107
221	0.109
221	0.111
221	0.118
222	0.119
222	0.125
223	0.133
223	0.137
224	0.142
224	0.151
225	0.16
225	0.172
226	0.183
226	0.194
227	0.202
227	0.213
228	0.225
228	0.239
229	0.256
229	0.278
229	0.299
230	0.324
230	0.352
231	0.38
231	0.417
232	0.456
232	0.5
233	0.546
233	0.592
234	0.642
234	0.696
235	0.749
235	0.803
236	0.854
236	0.908
236	0.962
237	1.015
237	1.063
238	1.11
238	1.157
239	1.201
239	1.242
240	1.282
240	1.316
241	1.352
241	1.387
242	1.417
242	1.447
243	1.479
243	1.505
243	1.532
244	1.555
244	1.576
245	1.594
245	1.621
246	1.641
246	1.658
247	1.67
247	1.685
248	1.699
248	1.712
249	1.722
249	1.73
250	1.738
250	1.747
250	1.747
251	1.752
251	1.754
252	1.762
252	1.765
253	1.767
253	1.766
254	1.767
254	1.769
255	1.769
255	1.771
256	1.773
256	1.773
257	1.774
257	1.773
258	1.772
258	1.773
258	1.774
259	1.773
259	1.772
260	1.772
260	1.772
261	1.771
261	1.773
262	1.775
262	1.776
263	1.778
263	1.777
264	1.777
264	1.778
265	1.779
265	1.78
265	1.779
266	1.781
266	1.78
267	1.777
267	1.778
268	1.777
268	1.778
269	1.779
269	1.778
270	1.777
270	1.776
271	1.774
271	1.772
272	1.77
272	1.769
272	1.765
273	1.762
273	1.757
274	1.753
274	1.748
275	1.743
275	1.737
276	1.73
276	1.723
277	1.715
277	1.706
278	1.696
278	1.685
278	1.673
279	1.66
279	1.644
280	1.625
280	1.601
281	1.573
281	1.541
282	1.507
282	1.471
283	1.436
283	1.399
284	1.363
284	1.327
285	1.293
285	1.261
285	1.233
286	1.207
286	1.185
287	1.165
287	1.147
288	1.132
288	1.119
289	1.108
289	1.098
290	1.089
290	1.081
291	1.074
291	1.068
292	1.062
292	1.057
292	1.053
293	1.048
293	1.044
294	1.039
294	1.036
295	1.033
295	1.029
296	1.025
296	1.022
297	1.018
297	1.015
298	1.012
298	1.009
298	1.005
299	1.003
299	0.999
300	0.996
300	0.993
301	0.99
301	0.987
302	0.985
302	0.982
303	0.98
303	0.977
304	0.974
304	0.971
305	0.969
305	0.966
305	0.963
306	0.961
306	0.958
307	0.955
307	0.952
308	0.949
308	0.946
309	0.943
309	0.94
310	0.937
310	0.933
311	0.93
311	0.926
311	0.923
312	0.919
312	0.916
313	0.912
313	0.908
314	0.904
314	0.9
315	0.895
315	0.891
316	0.887
316	0.882
317	0.878
317	0.873
318	0.867
318	0.862
318	0.857
319	0.852
319	0.846
320	0.841
320	0.834
321	0.829
321	0.822
322	0.816
322	0.81
323	0.803
323	0.797
324	0.791
324	0.784
324	0.777
325	0.77
325	0.764
326	0.757
326	0.75
327	0.743
327	0.736
328	0.73
328	0.723
329	0.716
329	0.709
330	0.702
330	0.695
330	0.688
331	0.681
331	0.674
332	0.667
332	0.66
333	0.653
333	0.646
334	0.639
334	0.633
335	0.626
335	0.619
336	0.613
336	0.606
336	0.599
337	0.593
337	0.587
338	0.581
338	0.575
339	0.569
339	0.563
340	0.557
340	0.552
341	0.546
341	0.541
342	0.535
342	0.53
342	0.524
343	0.519
343	0.514
344	0.509
344	0.504
345	0.499
345	0.494
346	0.49
346	0.485
347	0.481
347	0.477
348	0.472
348	0.469
348	0.465
349	0.461
349	0.457
350	0.453
350	0.45
351	0.446
351	0.443
352	0.44
352	0.437
353	0.434
353	0.431
354	0.428
354	0.425
354	0.421
355	0.419
355	0.415
356	0.412
356	0.41
357	0.406
357	0.403
358	0.4
358	0.398
359	0.396
359	0.393
360	0.391
360	0.389
360	0.387
361	0.385
361	0.384
362	0.382
362	0.381
363	0.379
363	0.377
364	0.375
364	0.373
365	0.371
365	0.369
366	0.367
366	0.365
366	0.364
367	0.362
367	0.36
368	0.358
368	0.357
369	0.355
369	0.354
370	0.352
370	0.351
371	0.349
371	0.348
372	0.346
372	0.345
372	0.344
373	0.342
373	0.341
374	0.34
374	0.339
375	0.338
375	0.337
376	0.336
376	0.335
377	0.334
377	0.333
378	0.332
378	0.331
378	0.33
379	0.329
379	0.328
380	0.327
380	0.326
381	0.325
381	0.324
382	0.324
382	0.323
383	0.322
383	0.322
383	0.321
384	0.32
384	0.319
385	0.319
385	0.318
386	0.318
386	0.317
387	0.316
387	0.316
388	0.315
388	0.314
389	0.314
389	0.313
389	0.313
390	0.312
390	0.312
391	0.311
391	0.311
392	0.31
392	0.31
393	0.31
393	0.309
394	0.309
394	0.308
394	0.308
395	0.307
395	0.307
396	0.306
396	0.306
397	0.306
397	0.305
398	0.305
398	0.304
399	0.304
399	0.303
400	0.303
400	0.303
400	0.302
401	0.302
401	0.302
402	0.301
402	0.301
403	0.3
403	0.3
404	0.299
404	0.299
405	0.299
405	0.298
405	0.298
406	0.298
406	0.297
407	0.297
407	0.296
408	0.296
408	0.296
409	0.296
409	0.295
410	0.295
410	0.294
411	0.294
411	0.294
411	0.294
412	0.293
412	0.293
413	0.292
413	0.292
414	0.292
414	0.291
415	0.291
415	0.291
416	0.29
416	0.29
416	0.289
417	0.289
417	0.289
418	0.289
418	0.288
419	0.288
419	0.287
420	0.287
420	0.286
421	0.286
421	0.286
421	0.285
422	0.285
422	0.284
423	0.284
423	0.284
424	0.283
424	0.283
425	0.283
425	0.283
426	0.282
426	0.282
427	0.282
427	0.282
427	0.281
428	0.281
428	0.281
429	0.281
429	0.28
430	0.28
430	0.28
431	0.28
431	0.28
432	0.279
432	0.279
432	0.279
433	0.278
433	0.278
434	0.278
434	0.278
435	0.278
435	0.277
436	0.277
436	0.277
437	0.277
437	0.277
437	0.276
438	0.276
438	0.276
439	0.276
439	0.276
440	0.275
440	0.275
441	0.275
441	0.274
442	0.274
442	0.274
442	0.274
443	0.274
443	0.274
444	0.274
444	0.274
445	0.274
445	0.273
446	0.273
446	0.273
447	0.273
447	0.273
447	0.272
448	0.272
448	0.272
449	0.272
449	0.272
450	0.272
450	0.272
451	0.272
451	0.272
452	0.272
452	0.272
452	0.272
453	0.272
453	0.272
454	0.272
454	0.271
455	0.271
455	0.271
456	0.271
456	0.271
457	0.271
457	0.271
458	0.271
458	0.271
458	0.271
459	0.271
459	0.272
460	0.272
460	0.272
461	0.272
461	0.272
462	0.272
462	0.272
463	0.272
463	0.272
463	0.272
464	0.271
464	0.271
465	0.271
465	0.271
466	0.272
466	0.272
467	0.272
467	0.272
467	0.272
468	0.272
468	0.273
469	0.273
469	0.274
470	0.275
470	0.275
471	0.275
471	0.276
472	0.276
472	0.276
472	0.277
473	0.277
473	0.278
474	0.278
474	0.278
475	0.278
475	0.278
476	0.278
476	0.279
477	0.279
477	0.28
477	0.28
478	0.281
478	0.281
479	0.282
479	0.282
480	0.283
480	0.283
481	0.284
481	0.284
482	0.285
482	0.286
482	0.286
483	0.287
483	0.288
484	0.288
484	0.289
485	0.289
485	0.29
486	0.291
486	0.291
487	0.292
487	0.292
487	0.293
488	0.294
488	0.295
489	0.296
489	0.297
490	0.298
490	0.299
491	0.301
491	0.302
492	0.303
492	0.304
492	0.305
493	0.307
493	0.308
494	0.309
494	0.31
495	0.311
495	0.312
496	0.313
496	0.314
496	0.315
497	0.316
497	0.317
498	0.318
498	0.32
499	0.321
499	0.322
500	0.324
500	0.325
501	0.326
501	0.328
501	0.329
502	0.33
502	0.331
503	0.332
503	0.333
504	0.334
504	0.335
505	0.337
505	0.338
506	0.339
506	0.339
506	0.341
507	0.341
507	0.342
508	0.343
508	0.344
509	0.345
509	0.346
510	0.347
510	0.348
511	0.349
511	0.35
511	0.351
512	0.352
512	0.353
513	0.354
513	0.355
514	0.356
514	0.357
515	0.358
515	0.358
515	0.359
516	0.36
516	0.36
517	0.361
517	0.362
518	0.363
518	0.363
519	0.363
519	0.363
520	0.363
520	0.364
520	0.364
521	0.364
521	0.363
522	0.363
522	0.363
523	0.363
523	0.363
524	0.362
524	0.362
524	0.362
525	0.362
525	0.361
526	0.361
526	0.361
527	0.36
527	0.36
528	0.359
528	0.358
529	0.357
529	0.357
529	0.356
530	0.354
530	0.354
531	0.353
531	0.352
532	0.35
532	0.349
533	0.348
533	0.347
533	0.345
534	0.344
534	0.343
535	0.341
535	0.34
536	0.339
536	0.337
537	0.336
537	0.335
538	0.333
538	0.331
538	0.33
539	0.328
539	0.327
540	0.326
540	0.324
541	0.322
541	0.321
542	0.319
542	0.317
542	0.315
543	0.314
543	0.312
544	0.31
544	0.308
545	0.306
545	0.305
546	0.303
546	0.3
547	0.298
547	0.296
547	0.294
548	0.293
548	0.291
549	0.289
549	0.287
550	0.285
550	0.283
551	0.281
551	0.279
551	0.278
552	0.276
552	0.274
553	0.272
553	0.27
554	0.268
554	0.266
555	0.264
555	0.262
556	0.26
556	0.258
556	0.256
557	0.254
557	0.253
558	0.252
558	0.25
559	0.249
559	0.247
560	0.245
560	0.244
560	0.242
561	0.241
561	0.239
562	0.237
562	0.235
563	0.233
563	0.231
564	0.229
564	0.228
564	0.227
565	0.225
565	0.224
566	0.222
566	0.22
567	0.219
567	0.218
568	0.216
568	0.215
568	0.213
569	0.211
569	0.21
570	0.208
570	0.206
571	0.205
571	0.203
572	0.202
572	0.201
573	0.199
573	0.198
573	0.197
574	0.195
574	0.195
575	0.194
575	0.193
576	0.192
576	0.191
577	0.189
577	0.188
577	0.187
578	0.186
578	0.184
579	0.184
579	0.183
580	0.182
580	0.18
581	0.178
581	0.177
581	0.177
582	0.176
582	0.176
583	0.175
583	0.174
584	0.173
584	0.171
585	0.17
585	0.169
585	0.168
586	0.167
586	0.166
587	0.165
587	0.164
588	0.162
588	0.161
589	0.16
589	0.16
590	0.159
590	0.159
590	0.159
591	0.158
591	0.157
592	0.157
592	0.156
593	0.155
593	0.155
594	0.154
594	0.153
594	0.152
595	0.151
595	0.15
596	0.149
596	0.149
597	0.149
597	0.148
598	0.148
598	0.147
598	0.146
599	0.146
599	0.145
600	0.145
600	0.144
601	0.143
601	0.143
602	0.142
602	0.141
602	0.14
603	0.14
603	0.14
604	0.139
604	0.139
605	0.139
605	0.138
606	0.138
606	0.137
606	0.136
607	0.136
607	0.136
608	0.135
608	0.134
609	0.133
609	0.133
610	0.132
610	0.131
610	0.131
611	0.131
611	0.13
612	0.13
612	0.13
613	0.13
613	0.13
614	0.129
614	0.129
614	0.128
615	0.128
615	0.128
616	0.128
616	0.127
617	0.127
617	0.126
618	0.126
618	0.125
618	0.125
619	0.125
619	0.125
620	0.125
620	0.125
621	0.124
621	0.123
622	0.123
622	0.122
622	0.121
623	0.12
623	0.12
624	0.119
624	0.119
625	0.118
625	0.117
626	0.116
626	0.116
626	0.116
627	0.116
627	0.116
628	0.115
628	0.115
629	0.115
629	0.114
630	0.114
630	0.114
630	0.114
631	0.114
631	0.113
632	0.113
632	0.112
633	0.112
633	0.112
634	0.112
634	0.112
634	0.112
635	0.112
635	0.111
636	0.111
636	0.111
637	0.111
637	0.111
638	0.111
638	0.111
638	0.11
639	0.11
639	0.109
640	0.109
640	0.109
641	0.109
641	0.108
642	0.108
642	0.108
642	0.108
643	0.108
643	0.107
644	0.107
644	0.107
645	0.107
645	0.107
646	0.106
646	0.106
646	0.106
647	0.105
647	0.105
648	0.104
648	0.104
649	0.103
649	0.103
650	0.103
650	0.103
650	0.103
651	0.103
651	0.102
652	0.102
652	0.102
653	0.102
653	0.104
653	0.11
654	0.088
654	0.072
655	0.07
655	0.07
656	0.07
656	0.07
657	0.071
657	0.071
657	0.071
658	0.07
658	0.063
659	0.078
659	0.098
660	0.104
660	0.105
661	0.104
661	0.104
661	0.103
662	0.103
662	0.102
663	0.102
663	0.101
664	0.101
664	0.1
665	0.1
665	0.1
665	0.1
666	0.1
666	0.1
667	0.1
667	0.1
668	0.101
668	0.101
669	0.101
669	0.101
669	0.102
670	0.102
670	0.102
671	0.101
671	0.101
672	0.1
672	0.099
672	0.099
673	0.098
673	0.098
674	0.098
674	0.097
675	0.097
675	0.096
676	0.097
676	0.097
676	0.097
677	0.097
677	0.097
678	0.096
678	0.096
679	0.095
679	0.095
680	0.095
680	0.095
680	0.095
681	0.095
681	0.095
682	0.095
682	0.095
683	0.096
683	0.096
684	0.097
684	0.097
684	0.096
685	0.097
685	0.097
686	0.097
686	0.096
687	0.096
687	0.096
687	0.096
688	0.095
688	0.095
689	0.095
689	0.095
690	0.095
690	0.094
691	0.094
691	0.094
691	0.095
692	0.095
692	0.095
693	0.095
693	0.095
694	0.095
694	0.095
695	0.095
695	0.097
695	0.097
696	0.097
696	0.096
697	0.097
697	0.097
698	0.096
698	0.096
698	0.096
699	0.097
699	0.096
700	0.095
700	0.096
701	0.096
701	0.095
702	0.095
702	0.095
702	0.095
703	0.094
703	0.094
704	0.093
704	0.093
705	0.093
705	0.093
705	0.093
706	0.093
706	0.093
707	0.093
707	0.093
708	0.093
708	0.093
709	0.093
709	0.093
709	0.093
710	0.092
710	0.093
711	0.093
711	0.093
712	0.093
712	0.093
713	0.092
713	0.092
713	0.092
714	0.091
714	0.091
715	0.09
715	0.089
716	0.089
716	0.088
716	0.088
717	0.087
717	0.087
718	0.087
718	0.087
719	0.087
719	0.087
720	0.088
720	0.088
720	0.088
721	0.089
721	0.089
722	0.09
722	0.09
723	0.09
723	0.09
723	0.09
724	0.089
724	0.089
725	0.088
725	0.087
726	0.086
726	0.086
727	0.085
727	0.085
727	0.084
728	0.084
728	0.084
729	0.084
729	0.084
730	0.084
730	0.084
730	0.085
731	0.085
731	0.086
732	0.087
732	0.087
733	0.088
733	0.088
734	0.088
734	0.088
734	0.089
735	0.089
735	0.088
736	0.088
736	0.087
737	0.086
737	0.086
737	0.086
738	0.085
738	0.084
739	0.083
739	0.083
740	0.082
740	0.082
741	0.083
741	0.083
741	0.083
742	0.083
742	0.083
743	0.084
743	0.085
744	0.086
744	0.086
744	0.086
745	0.086
745	0.086
746	0.086
746	0.086
747	0.086
747	0.085
748	0.085
748	0.084
748	0.084
749	0.084
749	0.084
750	0.083
750	0.083
751	0.083
751	0.083
751	0.083
752	0.082
752	0.081
753	0.081
753	0.081
754	0.08
754	0.08
754	0.08
755	0.08
755	0.08
756	0.08
756	0.079
757	0.079
757	0.079
758	0.079
758	0.079
758	0.08
759	0.08
759	0.079
760	0.079
760	0.079
761	0.079
761	0.08
761	0.08
762	0.079
762	0.079
763	0.079
763	0.078
764	0.077
764	0.077
764	0.077
765	0.076
765	0.076
766	0.076
766	0.075
767	0.075
767	0.074
768	0.073
768	0.073
768	0.073
769	0.074
769	0.074
770	0.075
770	0.076
771	0.076
771	0.077
771	0.078
772	0.08
772	0.081
773	0.081
773	0.081
774	0.081
774	0.081
775	0.082
775	0.082
775	0.081
776	0.081
776	0.081
777	0.081
777	0.08
778	0.08
778	0.08
778	0.079
779	0.079
779	0.079
780	0.078
780	0.077
781	0.077
781	0.076
781	0.076
782	0.075
782	0.075
783	0.075
783	0.075
784	0.075
784	0.075
784	0.076
785	0.076
785	0.076
786	0.076
786	0.076
787	0.076
787	0.075
788	0.074
788	0.073
788	0.072
789	0.071
789	0.071
790	0.071
790	0.07
791	0.07
791	0.069
791	0.069
792	0.07
792	0.07
793	0.069
793	0.069
794	0.069
794	0.069
794	0.068
795	0.068
795	0.068
796	0.069
796	0.068
797	0.068
797	0.068
797	0.069
798	0.069
798	0.069
799	0.069
799	0.069
800	0.069
800	0.069
801	0.068
801	0.069
801	0.068
802	0.069
802	0.069
803	0.069
803	0.069
804	0.069
804	0.07
804	0.069
805	0.069
805	0.069
806	0.068
806	0.068
807	0.068
807	0.067
807	0.067
808	0.067
808	0.067
809	0.066
809	0.067
810	0.067
810	0.067
810	0.067
811	0.067
811	0.067
812	0.068
812	0.068
813	0.068
813	0.068
813	0.068
814	0.068
814	0.068
815	0.068
815	0.068
816	0.067
816	0.067
817	0.066
817	0.066
817	0.065
818	0.065
818	0.065
819	0.065
819	0.065
820	0.064
820	0.064
820	0.064
821	0.065
821	0.065
822	0.065
822	0.065
823	0.065
823	0.065
823	0.065
824	0.065
824	0.066
825	0.067
825	0.067
826	0.067
826	0.067
826	0.067
827	0.067
827	0.068
828	0.068
828	0.068
829	0.068
829	0.068
829	0.068
830	0.068
830	0.068
831	0.069
831	0.069
832	0.069
832	0.069
832	0.069
833	0.069
833	0.068
834	0.068
834	0.068
835	0.067
835	0.067
835	0.066
836	0.066
836	0.065
837	0.065
837	0.065
838	0.064
838	0.064
839	0.063
839	0.062
839	0.061
840	0.06
840	0.06
841	0.059
841	0.058
842	0.057
842	0.056
842	0.056
843	0.055
843	0.055
844	0.054
844	0.054
845	0.053
845	0.053
845	0.053
846	0.052
846	0.052
847	0.052
847	0.052
848	0.053
848	0.053
848	0.054
849	0.055
849	0.055
850	0.056
850	0.057
851	0.057
851	0.058
851	0.058
852	0.058
852	0.057
853	0.057
853	0.057
854	0.057
854	0.057
854	0.057
855	0.057
855	0.058
856	0.058
856	0.058
857	0.059
857	0.059
857	0.06
858	0.06
858	0.06
859	0.059
859	0.059
860	0.059
860	0.058
860	0.058
861	0.058
861	0.057
862	0.056
862	0.056
863	0.055
863	0.054
863	0.054
864	0.054
864	0.053
865	0.053
865	0.053
866	0.053
866	0.053
866	0.053
867	0.054
867	0.054
868	0.055
868	0.055
869	0.055
869	0.056
869	0.055
870	0.055
870	0.055
871	0.055
871	0.055
872	0.055
872	0.054
872	0.053
873	0.053
873	0.052
874	0.052
874	0.051
875	0.051
875	0.051
875	0.051
876	0.051
876	0.05
877	0.05
877	0.05
878	0.051
878	0.051
878	0.051
879	0.051
879	0.051
880	0.052
880	0.052
881	0.052
881	0.053
881	0.053
882	0.053
882	0.053
883	0.053
883	0.053
884	0.053
884	0.054
884	0.054
885	0.053
885	0.053
886	0.053
886	0.052
887	0.052
887	0.051
887	0.05
888	0.049
888	0.048
889	0.048
889	0.047
890	0.047
890	0.047
890	0.047
891	0.046
891	0.046
892	0.046
892	0.046
893	0.046
893	0.046
893	0.046
894	0.045
894	0.045
895	0.045
895	0.045
895	0.045
896	0.046
896	0.046
897	0.047
897	0.047
898	0.048
898	0.048
898	0.048
899	0.049
899	0.049
900	0.049
900	0.049
901	0.049
901	0.049
901	0.049
902	0.048
902	0.048
903	0.048
903	0.048
904	0.048
904	0.048
904	0.047
905	0.047
905	0.047
906	0.047
906	0.047
907	0.047
907	0.047
907	0.047
908	0.047
908	0.047
909	0.047
909	0.047
910	0.047
910	0.047
910	0.047
911	0.046
911	0.046
912	0.046
912	0.045
913	0.045
913	0.045
913	0.045
914	0.045
914	0.045
915	0.045
915	0.045
916	0.045
916	0.045
916	0.045
917	0.045
917	0.045
918	0.044
918	0.044
918	0.043
919	0.043
919	0.042
920	0.042
920	0.041
921	0.041
921	0.04
921	0.04
922	0.04
922	0.04
923	0.04
923	0.041
924	0.041
924	0.042
924	0.042
925	0.043
925	0.044
926	0.045
926	0.046
927	0.046
927	0.047
927	0.047
928	0.047
928	0.048
929	0.048
929	0.048
930	0.048
930	0.048
930	0.047
931	0.047
931	0.047
932	0.047
932	0.047
933	0.047
933	0.047
933	0.047
934	0.047
934	0.047
935	0.047
935	0.046
935	0.046
936	0.046
936	0.045
937	0.045
937	0.044
938	0.044
938	0.043
938	0.043
939	0.042
939	0.042
940	0.042
940	0.042
941	0.042
941	0.042
941	0.042
942	0.042
942	0.042
943	0.043
943	0.043
944	0.043
944	0.044
944	0.044
945	0.044
945	0.044
946	0.044
946	0.044
946	0.044
947	0.044
947	0.044
948	0.044
948	0.044
949	0.043
949	0.043
949	0.043
950	0.043
950	0.043
951	0.043
951	0.043
952	0.043
952	0.042
952	0.043
953	0.043
953	0.043
954	0.043
954	0.043
955	0.043
955	0.043
955	0.043
956	0.043
956	0.043
957	0.044
957	0.044
957	0.044
958	0.044
958	0.044
959	0.044
959	0.043
960	0.043
960	0.043
960	0.043
961	0.042
961	0.042
962	0.042
962	0.042
963	0.042
963	0.042
963	0.042
964	0.043
964	0.043
965	0.043
965	0.044
966	0.044
966	0.044
966	0.045
967	0.045
967	0.045
968	0.045
968	0.045
968	0.045
969	0.044
969	0.044
970	0.043
970	0.042
971	0.041
971	0.041
971	0.04
972	0.039
972	0.039
973	0.038
973	0.038
974	0.038
974	0.038
974	0.038
975	0.039
975	0.039
976	0.04
976	0.041
976	0.041
977	0.041
977	0.042
978	0.042
978	0.042
979	0.042
979	0.041
979	0.041
980	0.04
980	0.04
981	0.039
981	0.038
982	0.038
982	0.037
982	0.037
983	0.037
983	0.037
984	0.037
984	0.037
984	0.037
985	0.037
985	0.038
986	0.038
986	0.038
987	0.039
987	0.039
987	0.039
988	0.04
988	0.04
989	0.04
989	0.039
990	0.039
990	0.039
990	0.039
991	0.038
991	0.038
992	0.037
992	0.036
992	0.035
993	0.034
993	0.034
994	0.032
994	0.032
995	0.031
995	0.03
995	0.03
996	0.03
996	0.03
997	0.03
997	0.031
997	0.031
998	0.032
998	0.032
999	0.033
999	0.034
1000	0.035
1000	0.036
1000	0.036
1001	0.036
1001	0.036
1002	0.036
1002	0.036
1003	0.036
1003	0.035
1003	0.034
1004	0.033
1004	0.032
1005	0.031
1005	0.03
1005	0.029
1006	0.028
1006	0.027
1007	0.027
1007	0.027
1008	0.026
1008	0.026
1008	0.026
1009	0.027
1009	0.027
1010	0.027
1010	0.028
1010	0.028
1011	0.028
1011	0.028
1012	0.028
1012	0.028
1013	0.029
1013	0.028
1013	0.028
1014	0.028
1014	0.028
1015	0.027
1015	0.027
1016	0.027
1016	0.027
1016	0.028
1017	0.028
1017	0.028
1018	0.028
1018	0.029
1018	0.029
1019	0.03
1019	0.03
1020	0.031
1020	0.031
1021	0.032
1021	0.032
1021	0.033
1022	0.033
1022	0.033
1023	0.034
1023	0.034
1023	0.035
1024	0.035
1024	0.035
1025	0.034
1025	0.034
1026	0.034
1026	0.034
1026	0.034
1027	0.034
1027	0.034
1028	0.034
1028	0.033
1028	0.033
1029	0.033
1029	0.033
1030	0.033
1030	0.033
1031	0.033
1031	0.034
1031	0.034
1032	0.034
1032	0.035
1033	0.035
1033	0.036
1033	0.036
1034	0.036
1034	0.036
1035	0.036
1035	0.036
1036	0.036
1036	0.036
1036	0.036
1037	0.036
1037	0.036
1038	0.036
1038	0.036
1039	0.036
1039	0.036
1039	0.035
1040	0.035
1040	0.035
1041	0.035
1041	0.035
1041	0.035
1042	0.035
1042	0.035
1043	0.034
1043	0.034
1044	0.034
1044	0.034
1044	0.034
1045	0.034
1045	0.034
1046	0.034
1046	0.035
1046	0.035
1047	0.035
1047	0.035
1048	0.036
1048	0.036
1049	0.036
1049	0.037
1049	0.037
1050	0.036
1050	0.036
1051	0.036
1051	0.035
1051	0.035
1052	0.034
1052	0.034
1053	0.033
1053	0.032
1053	0.032
1054	0.031
1054	0.031
1055	0.031
1055	0.03
1056	0.03
1056	0.03
1056	0.029
1057	0.029
1057	0.029
1058	0.028
1058	0.027
1058	0.027
1059	0.027
1059	0.026
1060	0.026
1060	0.025
1061	0.025
1061	0.025
1061	0.024
1062	0.024
1062	0.024
1063	0.024
1063	0.023
1063	0.023
1064	0.023
1064	0.023
1065	0.023
1065	0.022
1066	0.023
1066	0.022
1066	0.022
1067	0.022
1067	0.022
1068	0.022
1068	0.022
1068	0.022
1069	0.022
1069	0.022
1070	0.022
1070	0.022
1071	0.021
1071	0.021
1071	0.021
1072	0.021
1072	0.02
1073	0.02
1073	0.02
1073	0.02
1074	0.02
1074	0.02
1075	0.02
1075	0.02
1076	0.021
1076	0.021
1076	0.022
1077	0.022
1077	0.022
1078	0.022
1078	0.023
1078	0.023
1079	0.023
1079	0.023
1080	0.023
1080	0.022
1080	0.022
1081	0.022
1081	0.022
1082	0.022
1082	0.022
1083	0.022
1083	0.022
1083	0.022
1084	0.022
1084	0.022
1085	0.022
1085	0.022
1085	0.023
1086	0.023
1086	0.023
1087	0.024
1087	0.024
1088	0.023
1088	0.024
1088	0.024
1089	0.023
1089	0.023
1090	0.022
1090	0.021
1090	0.02
1091	0.02
1091	0.019
1092	0.019
1092	0.019
1092	0.018
1093	0.017
1093	0.017
1094	0.017
1094	0.017
1095	0.017
1095	0.017
1095	0.016
1096	0.016
1096	0.015
1097	0.014
1097	0.014
1097	0.013
1098	0.012
1098	0.011
1099	0.01
1099	0.009
1100	0.008
1100	0.007
1100	0.006
1101	0.005
1101	0.004
1102	0.003
1102	0.002
1102	0.001
1103	0
1103	-0
1104	-0.001
1104	-0.002
1104	-0.003
1105	-0.004
1105	-0.005
1106	-0.007
1106	-0.008
1107	-0.008
1107	-0.008
1107	-0.009
1108	-0.009
1108	-0.009
1109	-0.01
1109	-0.01
1109	-0.011
1110	-0.01
1110	-0.01
1111	-0.008
1111	-0.011
