Data from reversibility-20sec_Absorbance__7675__000000000007675.txt Node

Date: Thu Dec 07 06:51:26 CET 2023
User: Marek
Spectrometer: MAYP115816
Trigger mode: 0
Integration Time (sec): 2.000000E-1
Scans to average: 10
Electric dark correction enabled: true
Nonlinearity correction enabled: true
Boxcar width: 5
XAxis mode: Wavelengths
Number of Pixels in Spectrum: 2068
>>>>>Begin Spectral Data<<<<<
199	-0.08
199	-0.058
200	0.009
200	0.059
201	0.08
201	0.093
202	0.1
202	0.108
203	0.116
203	0.118
204	0.129
204	0.139
205	0.149
205	0.152
205	0.149
206	0.151
206	0.151
207	0.154
207	0.155
208	0.154
208	0.154
209	0.155
209	0.156
210	0.156
210	0.157
211	0.16
211	0.163
212	0.163
212	0.165
213	0.168
213	0.168
213	0.174
214	0.175
214	0.176
215	0.179
215	0.181
216	0.184
216	0.182
217	0.185
217	0.185
218	0.183
218	0.189
219	0.191
219	0.189
220	0.192
220	0.191
221	0.191
221	0.192
221	0.198
222	0.201
222	0.205
223	0.212
223	0.212
224	0.215
224	0.228
225	0.237
225	0.248
226	0.259
226	0.269
227	0.277
227	0.288
228	0.305
228	0.321
229	0.337
229	0.362
229	0.385
230	0.41
230	0.439
231	0.471
231	0.505
232	0.543
232	0.59
233	0.633
233	0.678
234	0.732
234	0.785
235	0.837
235	0.89
236	0.941
236	0.993
236	1.044
237	1.094
237	1.141
238	1.186
238	1.234
239	1.277
239	1.317
240	1.355
240	1.392
241	1.426
241	1.46
242	1.492
242	1.525
243	1.553
243	1.578
243	1.605
244	1.625
244	1.647
245	1.666
245	1.687
246	1.703
246	1.718
247	1.73
247	1.742
248	1.756
248	1.767
249	1.776
249	1.785
250	1.789
250	1.795
250	1.797
251	1.803
251	1.806
252	1.81
252	1.811
253	1.81
253	1.806
254	1.803
254	1.802
255	1.801
255	1.8
256	1.799
256	1.796
257	1.796
257	1.795
258	1.795
258	1.794
258	1.796
259	1.795
259	1.795
260	1.794
260	1.797
261	1.798
261	1.8
262	1.803
262	1.804
263	1.807
263	1.808
264	1.809
264	1.812
265	1.813
265	1.815
265	1.814
266	1.814
266	1.814
267	1.812
267	1.813
268	1.812
268	1.813
269	1.815
269	1.813
270	1.812
270	1.811
271	1.809
271	1.808
272	1.804
272	1.802
272	1.797
273	1.791
273	1.784
274	1.776
274	1.77
275	1.762
275	1.756
276	1.748
276	1.741
277	1.732
277	1.722
278	1.709
278	1.697
278	1.683
279	1.666
279	1.645
280	1.618
280	1.585
281	1.547
281	1.504
282	1.459
282	1.414
283	1.368
283	1.325
284	1.283
284	1.242
285	1.205
285	1.17
285	1.14
286	1.113
286	1.09
287	1.07
287	1.053
288	1.039
288	1.026
289	1.016
289	1.007
290	0.999
290	0.992
291	0.987
291	0.981
292	0.976
292	0.972
292	0.968
293	0.964
293	0.96
294	0.956
294	0.953
295	0.95
295	0.947
296	0.944
296	0.941
297	0.938
297	0.935
298	0.932
298	0.928
298	0.926
299	0.923
299	0.92
300	0.917
300	0.914
301	0.911
301	0.909
302	0.906
302	0.904
303	0.902
303	0.899
304	0.897
304	0.895
305	0.893
305	0.89
305	0.888
306	0.886
306	0.884
307	0.881
307	0.879
308	0.876
308	0.873
309	0.871
309	0.868
310	0.865
310	0.862
311	0.859
311	0.856
311	0.853
312	0.849
312	0.846
313	0.842
313	0.838
314	0.834
314	0.83
315	0.826
315	0.822
316	0.817
316	0.813
317	0.808
317	0.803
318	0.798
318	0.793
318	0.788
319	0.782
319	0.777
320	0.771
320	0.765
321	0.76
321	0.753
322	0.747
322	0.741
323	0.734
323	0.728
324	0.721
324	0.714
324	0.707
325	0.701
325	0.694
326	0.686
326	0.679
327	0.672
327	0.665
328	0.658
328	0.651
329	0.643
329	0.636
330	0.629
330	0.622
330	0.615
331	0.607
331	0.6
332	0.593
332	0.586
333	0.579
333	0.572
334	0.565
334	0.558
335	0.551
335	0.544
336	0.538
336	0.531
336	0.524
337	0.518
337	0.511
338	0.505
338	0.499
339	0.493
339	0.486
340	0.48
340	0.474
341	0.469
341	0.463
342	0.457
342	0.452
342	0.446
343	0.441
343	0.436
344	0.431
344	0.426
345	0.421
345	0.416
346	0.411
346	0.407
347	0.402
347	0.398
348	0.394
348	0.39
348	0.386
349	0.382
349	0.378
350	0.375
350	0.371
351	0.368
351	0.365
352	0.361
352	0.358
353	0.355
353	0.352
354	0.35
354	0.347
354	0.344
355	0.341
355	0.338
356	0.335
356	0.333
357	0.329
357	0.327
358	0.324
358	0.321
359	0.319
359	0.317
360	0.315
360	0.313
360	0.311
361	0.309
361	0.308
362	0.306
362	0.304
363	0.303
363	0.301
364	0.299
364	0.297
365	0.295
365	0.293
366	0.292
366	0.29
366	0.288
367	0.287
367	0.285
368	0.283
368	0.282
369	0.28
369	0.279
370	0.278
370	0.276
371	0.275
371	0.274
372	0.272
372	0.271
372	0.27
373	0.269
373	0.268
374	0.268
374	0.267
375	0.266
375	0.265
376	0.264
376	0.264
377	0.263
377	0.262
378	0.261
378	0.26
378	0.259
379	0.258
379	0.257
380	0.257
380	0.256
381	0.255
381	0.255
382	0.254
382	0.254
383	0.253
383	0.253
383	0.252
384	0.252
384	0.252
385	0.251
385	0.251
386	0.251
386	0.25
387	0.25
387	0.249
388	0.249
388	0.249
389	0.248
389	0.248
389	0.248
390	0.248
390	0.247
391	0.247
391	0.246
392	0.246
392	0.246
393	0.245
393	0.245
394	0.245
394	0.244
394	0.244
395	0.244
395	0.243
396	0.243
396	0.243
397	0.242
397	0.242
398	0.242
398	0.242
399	0.242
399	0.241
400	0.241
400	0.241
400	0.24
401	0.24
401	0.24
402	0.24
402	0.24
403	0.239
403	0.239
404	0.239
404	0.238
405	0.238
405	0.238
405	0.238
406	0.238
406	0.237
407	0.237
407	0.237
408	0.237
408	0.236
409	0.236
409	0.236
410	0.235
410	0.235
411	0.235
411	0.235
411	0.234
412	0.234
412	0.234
413	0.233
413	0.233
414	0.233
414	0.233
415	0.233
415	0.232
416	0.232
416	0.232
416	0.231
417	0.231
417	0.231
418	0.231
418	0.23
419	0.23
419	0.229
420	0.229
420	0.229
421	0.228
421	0.228
421	0.228
422	0.227
422	0.227
423	0.227
423	0.226
424	0.226
424	0.226
425	0.225
425	0.225
426	0.225
426	0.224
427	0.224
427	0.224
427	0.223
428	0.223
428	0.223
429	0.222
429	0.222
430	0.222
430	0.221
431	0.221
431	0.221
432	0.221
432	0.221
432	0.221
433	0.22
433	0.22
434	0.22
434	0.22
435	0.219
435	0.219
436	0.219
436	0.219
437	0.219
437	0.218
437	0.218
438	0.218
438	0.218
439	0.217
439	0.217
440	0.217
440	0.216
441	0.216
441	0.216
442	0.215
442	0.215
442	0.215
443	0.214
443	0.214
444	0.214
444	0.214
445	0.214
445	0.214
446	0.214
446	0.214
447	0.213
447	0.213
447	0.213
448	0.213
448	0.213
449	0.213
449	0.212
450	0.212
450	0.212
451	0.211
451	0.211
452	0.211
452	0.211
452	0.211
453	0.211
453	0.21
454	0.21
454	0.21
455	0.21
455	0.209
456	0.209
456	0.209
457	0.209
457	0.208
458	0.208
458	0.208
458	0.207
459	0.207
459	0.207
460	0.207
460	0.207
461	0.207
461	0.207
462	0.206
462	0.206
463	0.206
463	0.206
463	0.206
464	0.205
464	0.205
465	0.205
465	0.204
466	0.204
466	0.204
467	0.204
467	0.204
467	0.204
468	0.204
468	0.204
469	0.204
469	0.204
470	0.204
470	0.204
471	0.204
471	0.204
472	0.204
472	0.203
472	0.203
473	0.203
473	0.203
474	0.203
474	0.203
475	0.202
475	0.202
476	0.202
476	0.202
477	0.202
477	0.202
477	0.202
478	0.202
478	0.202
479	0.202
479	0.202
480	0.202
480	0.202
481	0.202
481	0.202
482	0.201
482	0.201
482	0.201
483	0.201
483	0.202
484	0.202
484	0.201
485	0.201
485	0.201
486	0.201
486	0.201
487	0.201
487	0.201
487	0.201
488	0.201
488	0.201
489	0.201
489	0.202
490	0.202
490	0.202
491	0.203
491	0.203
492	0.203
492	0.204
492	0.204
493	0.205
493	0.205
494	0.205
494	0.206
495	0.206
495	0.206
496	0.206
496	0.207
496	0.207
497	0.207
497	0.207
498	0.207
498	0.208
499	0.208
499	0.208
500	0.209
500	0.209
501	0.21
501	0.21
501	0.21
502	0.21
502	0.21
503	0.211
503	0.211
504	0.211
504	0.212
505	0.212
505	0.212
506	0.213
506	0.213
506	0.213
507	0.214
507	0.214
508	0.215
508	0.215
509	0.215
509	0.215
510	0.216
510	0.216
511	0.216
511	0.217
511	0.217
512	0.217
512	0.217
513	0.218
513	0.218
514	0.219
514	0.219
515	0.219
515	0.22
515	0.22
516	0.221
516	0.221
517	0.221
517	0.222
518	0.222
518	0.222
519	0.222
519	0.222
520	0.223
520	0.223
520	0.223
521	0.223
521	0.223
522	0.223
522	0.223
523	0.224
523	0.224
524	0.224
524	0.224
524	0.224
525	0.225
525	0.225
526	0.225
526	0.225
527	0.225
527	0.225
528	0.225
528	0.226
529	0.226
529	0.226
529	0.226
530	0.225
530	0.226
531	0.226
531	0.225
532	0.225
532	0.225
533	0.225
533	0.224
533	0.225
534	0.224
534	0.224
535	0.225
535	0.225
536	0.224
536	0.224
537	0.224
537	0.224
538	0.224
538	0.224
538	0.224
539	0.224
539	0.224
540	0.224
540	0.223
541	0.223
541	0.223
542	0.223
542	0.223
542	0.223
543	0.223
543	0.223
544	0.223
544	0.223
545	0.222
545	0.222
546	0.222
546	0.221
547	0.221
547	0.22
547	0.22
548	0.22
548	0.219
549	0.219
549	0.219
550	0.219
550	0.219
551	0.218
551	0.218
551	0.218
552	0.219
552	0.218
553	0.218
553	0.218
554	0.218
554	0.217
555	0.217
555	0.216
556	0.216
556	0.215
556	0.215
557	0.215
557	0.215
558	0.215
558	0.215
559	0.215
559	0.215
560	0.215
560	0.215
560	0.215
561	0.215
561	0.215
562	0.214
562	0.213
563	0.212
563	0.211
564	0.211
564	0.21
564	0.21
565	0.21
565	0.21
566	0.209
566	0.209
567	0.209
567	0.209
568	0.209
568	0.209
568	0.209
569	0.209
569	0.208
570	0.208
570	0.207
571	0.206
571	0.206
572	0.205
572	0.204
573	0.204
573	0.204
573	0.203
574	0.203
574	0.203
575	0.203
575	0.203
576	0.203
576	0.202
577	0.201
577	0.201
577	0.2
578	0.2
578	0.2
579	0.2
579	0.2
580	0.2
580	0.199
581	0.198
581	0.198
581	0.198
582	0.199
582	0.199
583	0.199
583	0.198
584	0.197
584	0.196
585	0.196
585	0.196
585	0.196
586	0.196
586	0.195
587	0.195
587	0.194
588	0.194
588	0.194
589	0.194
589	0.194
590	0.194
590	0.194
590	0.194
591	0.194
591	0.193
592	0.193
592	0.192
593	0.192
593	0.191
594	0.191
594	0.19
594	0.19
595	0.189
595	0.189
596	0.188
596	0.189
597	0.19
597	0.19
598	0.19
598	0.19
598	0.19
599	0.19
599	0.189
600	0.189
600	0.189
601	0.188
601	0.188
602	0.187
602	0.187
602	0.187
603	0.186
603	0.187
604	0.187
604	0.187
605	0.187
605	0.187
606	0.186
606	0.186
606	0.185
607	0.185
607	0.185
608	0.184
608	0.183
609	0.183
609	0.183
610	0.182
610	0.182
610	0.182
611	0.182
611	0.182
612	0.182
612	0.183
613	0.183
613	0.183
614	0.183
614	0.182
614	0.182
615	0.183
615	0.183
616	0.183
616	0.183
617	0.183
617	0.182
618	0.182
618	0.182
618	0.182
619	0.183
619	0.183
620	0.183
620	0.182
621	0.182
621	0.181
622	0.181
622	0.18
622	0.18
623	0.179
623	0.179
624	0.179
624	0.179
625	0.178
625	0.178
626	0.178
626	0.179
626	0.179
627	0.179
627	0.179
628	0.179
628	0.179
629	0.179
629	0.178
630	0.178
630	0.178
630	0.178
631	0.178
631	0.178
632	0.177
632	0.177
633	0.177
633	0.177
634	0.177
634	0.177
634	0.177
635	0.177
635	0.176
636	0.176
636	0.176
637	0.176
637	0.176
638	0.176
638	0.175
638	0.175
639	0.174
639	0.174
640	0.174
640	0.174
641	0.173
641	0.173
642	0.173
642	0.173
642	0.173
643	0.173
643	0.173
644	0.174
644	0.174
645	0.174
645	0.175
646	0.175
646	0.175
646	0.176
647	0.176
647	0.175
648	0.175
648	0.174
649	0.174
649	0.174
650	0.173
650	0.173
650	0.173
651	0.173
651	0.173
652	0.173
652	0.173
653	0.174
653	0.176
653	0.181
654	0.143
654	0.115
655	0.115
655	0.115
656	0.115
656	0.116
657	0.116
657	0.116
657	0.116
658	0.115
658	0.106
659	0.133
659	0.17
660	0.175
660	0.174
661	0.174
661	0.173
661	0.173
662	0.172
662	0.172
663	0.172
663	0.172
664	0.172
664	0.171
665	0.172
665	0.172
665	0.172
666	0.172
666	0.172
667	0.173
667	0.173
668	0.173
668	0.173
669	0.173
669	0.173
669	0.174
670	0.174
670	0.174
671	0.173
671	0.173
672	0.173
672	0.172
672	0.172
673	0.172
673	0.172
674	0.171
674	0.171
675	0.17
675	0.171
676	0.171
676	0.171
676	0.171
677	0.172
677	0.172
678	0.172
678	0.172
679	0.171
679	0.172
680	0.172
680	0.171
680	0.171
681	0.171
681	0.172
682	0.172
682	0.171
683	0.172
683	0.172
684	0.172
684	0.171
684	0.171
685	0.171
685	0.171
686	0.171
686	0.171
687	0.171
687	0.172
687	0.172
688	0.172
688	0.173
689	0.173
689	0.174
690	0.174
690	0.174
691	0.174
691	0.174
691	0.174
692	0.174
692	0.174
693	0.174
693	0.174
694	0.174
694	0.174
695	0.175
695	0.176
695	0.176
696	0.177
696	0.177
697	0.177
697	0.177
698	0.176
698	0.176
698	0.176
699	0.176
699	0.176
700	0.175
700	0.174
701	0.174
701	0.174
702	0.173
702	0.173
702	0.172
703	0.172
703	0.171
704	0.171
704	0.17
705	0.17
705	0.17
705	0.17
706	0.17
706	0.17
707	0.17
707	0.17
708	0.171
708	0.171
709	0.172
709	0.172
709	0.172
710	0.172
710	0.173
711	0.174
711	0.174
712	0.175
712	0.175
713	0.175
713	0.175
713	0.175
714	0.175
714	0.175
715	0.175
715	0.175
716	0.174
716	0.174
716	0.173
717	0.172
717	0.172
718	0.171
718	0.171
719	0.171
719	0.172
720	0.172
720	0.173
720	0.174
721	0.174
721	0.175
722	0.176
722	0.177
723	0.177
723	0.178
723	0.177
724	0.177
724	0.177
725	0.176
725	0.175
726	0.174
726	0.173
727	0.173
727	0.172
727	0.172
728	0.172
728	0.172
729	0.172
729	0.172
730	0.173
730	0.173
730	0.174
731	0.174
731	0.175
732	0.175
732	0.176
733	0.176
733	0.176
734	0.177
734	0.177
734	0.177
735	0.178
735	0.177
736	0.177
736	0.177
737	0.177
737	0.177
737	0.177
738	0.176
738	0.176
739	0.175
739	0.175
740	0.175
740	0.176
741	0.176
741	0.176
741	0.177
742	0.177
742	0.178
743	0.179
743	0.18
744	0.181
744	0.181
744	0.181
745	0.181
745	0.181
746	0.181
746	0.181
747	0.181
747	0.181
748	0.18
748	0.18
748	0.18
749	0.18
749	0.18
750	0.18
750	0.18
751	0.181
751	0.181
751	0.182
752	0.181
752	0.181
753	0.181
753	0.181
754	0.181
754	0.18
754	0.18
755	0.18
755	0.18
756	0.179
756	0.179
757	0.178
757	0.178
758	0.178
758	0.178
758	0.178
759	0.178
759	0.178
760	0.178
760	0.178
761	0.178
761	0.178
761	0.179
762	0.179
762	0.179
763	0.18
763	0.179
764	0.179
764	0.18
764	0.18
765	0.179
765	0.179
766	0.179
766	0.179
767	0.179
767	0.178
768	0.178
768	0.178
768	0.178
769	0.178
769	0.178
770	0.179
770	0.179
771	0.179
771	0.18
771	0.18
772	0.181
772	0.181
773	0.181
773	0.181
774	0.181
774	0.181
775	0.182
775	0.182
775	0.182
776	0.182
776	0.183
777	0.184
777	0.184
778	0.185
778	0.185
778	0.185
779	0.185
779	0.185
780	0.184
780	0.183
781	0.183
781	0.182
781	0.181
782	0.181
782	0.181
783	0.181
783	0.181
784	0.181
784	0.182
784	0.182
785	0.183
785	0.183
786	0.183
786	0.184
787	0.184
787	0.184
788	0.183
788	0.183
788	0.183
789	0.183
789	0.183
790	0.183
790	0.183
791	0.183
791	0.183
791	0.183
792	0.184
792	0.184
793	0.184
793	0.184
794	0.184
794	0.184
794	0.184
795	0.184
795	0.185
796	0.185
796	0.185
797	0.184
797	0.184
797	0.185
798	0.185
798	0.185
799	0.184
799	0.184
800	0.184
800	0.184
801	0.184
801	0.184
801	0.185
802	0.185
802	0.186
803	0.186
803	0.187
804	0.188
804	0.189
804	0.189
805	0.189
805	0.189
806	0.188
806	0.188
807	0.188
807	0.187
807	0.187
808	0.187
808	0.187
809	0.187
809	0.187
810	0.187
810	0.187
810	0.187
811	0.188
811	0.188
812	0.189
812	0.189
813	0.19
813	0.191
813	0.191
814	0.192
814	0.192
815	0.193
815	0.193
816	0.193
816	0.192
817	0.192
817	0.191
817	0.191
818	0.19
818	0.19
819	0.189
819	0.188
820	0.188
820	0.187
820	0.187
821	0.187
821	0.188
822	0.188
822	0.188
823	0.188
823	0.189
823	0.189
824	0.19
824	0.192
825	0.193
825	0.194
826	0.195
826	0.195
826	0.196
827	0.197
827	0.197
828	0.198
828	0.198
829	0.198
829	0.198
829	0.198
830	0.198
830	0.198
831	0.199
831	0.198
832	0.198
832	0.198
832	0.198
833	0.198
833	0.198
834	0.197
834	0.197
835	0.197
835	0.196
835	0.196
836	0.195
836	0.195
837	0.194
837	0.194
838	0.193
838	0.192
839	0.191
839	0.191
839	0.19
840	0.189
840	0.188
841	0.187
841	0.187
842	0.186
842	0.186
842	0.185
843	0.185
843	0.184
844	0.184
844	0.184
845	0.184
845	0.184
845	0.184
846	0.184
846	0.184
847	0.185
847	0.185
848	0.186
848	0.186
848	0.186
849	0.185
849	0.185
850	0.185
850	0.184
851	0.184
851	0.184
851	0.183
852	0.183
852	0.183
853	0.183
853	0.183
854	0.183
854	0.184
854	0.185
855	0.186
855	0.187
856	0.188
856	0.189
857	0.19
857	0.191
857	0.192
858	0.192
858	0.192
859	0.192
859	0.192
860	0.192
860	0.192
860	0.192
861	0.192
861	0.191
862	0.19
862	0.189
863	0.189
863	0.188
863	0.188
864	0.188
864	0.187
865	0.187
865	0.187
866	0.187
866	0.187
866	0.187
867	0.187
867	0.188
868	0.188
868	0.188
869	0.188
869	0.187
869	0.187
870	0.187
870	0.186
871	0.186
871	0.187
872	0.186
872	0.186
872	0.186
873	0.186
873	0.185
874	0.185
874	0.185
875	0.184
875	0.184
875	0.184
876	0.183
876	0.183
877	0.183
877	0.182
878	0.182
878	0.182
878	0.182
879	0.183
879	0.183
880	0.183
880	0.183
881	0.183
881	0.184
881	0.184
882	0.184
882	0.185
883	0.185
883	0.185
884	0.186
884	0.186
884	0.186
885	0.186
885	0.185
886	0.185
886	0.185
887	0.185
887	0.184
887	0.184
888	0.184
888	0.183
889	0.183
889	0.183
890	0.183
890	0.184
890	0.184
891	0.184
891	0.184
892	0.184
892	0.184
893	0.184
893	0.184
893	0.184
894	0.183
894	0.182
895	0.181
895	0.181
895	0.18
896	0.18
896	0.18
897	0.179
897	0.178
898	0.178
898	0.177
898	0.177
899	0.177
899	0.176
900	0.176
900	0.176
901	0.175
901	0.175
901	0.175
902	0.175
902	0.175
903	0.175
903	0.175
904	0.175
904	0.175
904	0.175
905	0.175
905	0.175
906	0.174
906	0.174
907	0.174
907	0.174
907	0.174
908	0.174
908	0.173
909	0.173
909	0.172
910	0.172
910	0.172
910	0.171
911	0.17
911	0.17
912	0.169
912	0.169
913	0.168
913	0.168
913	0.167
914	0.167
914	0.167
915	0.167
915	0.167
916	0.166
916	0.166
916	0.166
917	0.166
917	0.166
918	0.166
918	0.166
918	0.166
919	0.166
919	0.165
920	0.165
920	0.165
921	0.165
921	0.165
921	0.165
922	0.165
922	0.165
923	0.165
923	0.165
924	0.165
924	0.165
924	0.165
925	0.166
925	0.166
926	0.166
926	0.166
927	0.166
927	0.167
927	0.167
928	0.167
928	0.167
929	0.167
929	0.167
930	0.167
930	0.167
930	0.167
931	0.167
931	0.166
932	0.166
932	0.165
933	0.165
933	0.164
933	0.164
934	0.163
934	0.163
935	0.162
935	0.161
935	0.161
936	0.161
936	0.16
937	0.16
937	0.159
938	0.158
938	0.158
938	0.157
939	0.156
939	0.156
940	0.155
940	0.155
941	0.155
941	0.156
941	0.156
942	0.156
942	0.157
943	0.157
943	0.158
944	0.158
944	0.158
944	0.159
945	0.158
945	0.158
946	0.158
946	0.158
946	0.158
947	0.157
947	0.157
948	0.156
948	0.156
949	0.156
949	0.155
949	0.155
950	0.154
950	0.154
951	0.153
951	0.152
952	0.152
952	0.151
952	0.15
953	0.15
953	0.149
954	0.149
954	0.149
955	0.149
955	0.149
955	0.149
956	0.149
956	0.15
957	0.151
957	0.152
957	0.153
958	0.154
958	0.155
959	0.155
959	0.156
960	0.156
960	0.156
960	0.156
961	0.156
961	0.156
962	0.155
962	0.155
963	0.155
963	0.154
963	0.153
964	0.153
964	0.153
965	0.152
965	0.152
966	0.151
966	0.151
966	0.151
967	0.151
967	0.151
968	0.151
968	0.151
968	0.15
969	0.15
969	0.149
970	0.148
970	0.148
971	0.147
971	0.146
971	0.145
972	0.144
972	0.143
973	0.143
973	0.142
974	0.142
974	0.142
974	0.142
975	0.142
975	0.143
976	0.143
976	0.143
976	0.143
977	0.143
977	0.143
978	0.143
978	0.143
979	0.143
979	0.143
979	0.143
980	0.143
980	0.143
981	0.143
981	0.143
982	0.143
982	0.143
982	0.144
983	0.144
983	0.144
984	0.144
984	0.144
984	0.144
985	0.143
985	0.143
986	0.143
986	0.142
987	0.142
987	0.141
987	0.141
988	0.14
988	0.14
989	0.139
989	0.139
990	0.138
990	0.138
990	0.138
991	0.138
991	0.137
992	0.137
992	0.136
992	0.136
993	0.135
993	0.134
994	0.133
994	0.133
995	0.132
995	0.132
995	0.131
996	0.131
996	0.131
997	0.131
997	0.132
997	0.132
998	0.132
998	0.133
999	0.134
999	0.134
1000	0.135
1000	0.136
1000	0.136
1001	0.137
1001	0.137
1002	0.137
1002	0.137
1003	0.137
1003	0.137
1003	0.136
1004	0.136
1004	0.135
1005	0.134
1005	0.134
1005	0.134
1006	0.133
1006	0.133
1007	0.133
1007	0.133
1008	0.132
1008	0.132
1008	0.132
1009	0.132
1009	0.132
1010	0.132
1010	0.131
1010	0.131
1011	0.13
1011	0.13
1012	0.129
1012	0.128
1013	0.128
1013	0.127
1013	0.127
1014	0.126
1014	0.126
1015	0.126
1015	0.125
1016	0.125
1016	0.125
1016	0.125
1017	0.125
1017	0.125
1018	0.124
1018	0.124
1018	0.124
1019	0.124
1019	0.124
1020	0.124
1020	0.124
1021	0.124
1021	0.125
1021	0.125
1022	0.125
1022	0.126
1023	0.126
1023	0.126
1023	0.127
1024	0.127
1024	0.127
1025	0.127
1025	0.127
1026	0.127
1026	0.127
1026	0.126
1027	0.126
1027	0.126
1028	0.127
1028	0.126
1028	0.127
1029	0.126
1029	0.126
1030	0.126
1030	0.126
1031	0.126
1031	0.126
1031	0.126
1032	0.126
1032	0.126
1033	0.126
1033	0.126
1033	0.126
1034	0.126
1034	0.125
1035	0.125
1035	0.125
1036	0.125
1036	0.125
1036	0.125
1037	0.125
1037	0.124
1038	0.124
1038	0.124
1039	0.123
1039	0.123
1039	0.123
1040	0.123
1040	0.122
1041	0.122
1041	0.122
1041	0.121
1042	0.121
1042	0.121
1043	0.121
1043	0.121
1044	0.12
1044	0.12
1044	0.12
1045	0.119
1045	0.119
1046	0.119
1046	0.119
1046	0.118
1047	0.118
1047	0.117
1048	0.117
1048	0.117
1049	0.117
1049	0.116
1049	0.116
1050	0.115
1050	0.115
1051	0.114
1051	0.114
1051	0.114
1052	0.113
1052	0.113
1053	0.112
1053	0.112
1053	0.111
1054	0.111
1054	0.11
1055	0.11
1055	0.11
1056	0.109
1056	0.109
1056	0.108
1057	0.108
1057	0.107
1058	0.107
1058	0.106
1058	0.105
1059	0.105
1059	0.104
1060	0.104
1060	0.104
1061	0.103
1061	0.103
1061	0.102
1062	0.102
1062	0.102
1063	0.102
1063	0.102
1063	0.101
1064	0.101
1064	0.101
1065	0.101
1065	0.101
1066	0.101
1066	0.101
1066	0.101
1067	0.101
1067	0.101
1068	0.101
1068	0.101
1068	0.101
1069	0.101
1069	0.101
1070	0.1
1070	0.1
1071	0.1
1071	0.1
1071	0.099
1072	0.099
1072	0.099
1073	0.098
1073	0.098
1073	0.098
1074	0.098
1074	0.098
1075	0.098
1075	0.099
1076	0.099
1076	0.1
1076	0.1
1077	0.1
1077	0.1
1078	0.1
1078	0.1
1078	0.1
1079	0.1
1079	0.099
1080	0.099
1080	0.099
1080	0.098
1081	0.098
1081	0.098
1082	0.098
1082	0.099
1083	0.098
1083	0.098
1083	0.098
1084	0.098
1084	0.099
1085	0.099
1085	0.099
1085	0.099
1086	0.099
1086	0.099
1087	0.098
1087	0.098
1088	0.098
1088	0.097
1088	0.097
1089	0.096
1089	0.096
1090	0.095
1090	0.094
1090	0.093
1091	0.093
1091	0.093
1092	0.093
1092	0.094
1092	0.094
1093	0.093
1093	0.094
1094	0.094
1094	0.094
1095	0.094
1095	0.094
1095	0.093
1096	0.092
1096	0.091
1097	0.091
1097	0.09
1097	0.089
1098	0.088
1098	0.087
1099	0.085
1099	0.084
1100	0.083
1100	0.082
1100	0.082
1101	0.081
1101	0.079
1102	0.079
1102	0.077
1102	0.076
1103	0.076
1103	0.076
1104	0.075
1104	0.075
1104	0.074
1105	0.073
1105	0.07
1106	0.07
1106	0.069
1107	0.069
1107	0.069
1107	0.069
1108	0.068
1108	0.068
1109	0.066
1109	0.066
1109	0.067
1110	0.068
1110	0.07
1111	0.071
1111	0.07
