Data from reversibility-20sec_Absorbance__7438__000000000007438.txt Node

Date: Thu Dec 07 05:32:26 CET 2023
User: Marek
Spectrometer: MAYP115816
Trigger mode: 0
Integration Time (sec): 2.000000E-1
Scans to average: 10
Electric dark correction enabled: true
Nonlinearity correction enabled: true
Boxcar width: 5
XAxis mode: Wavelengths
Number of Pixels in Spectrum: 2068
>>>>>Begin Spectral Data<<<<<
199	-0.098
199	-0.076
200	-0.016
200	0.028
201	0.056
201	0.074
202	0.082
202	0.09
203	0.095
203	0.098
204	0.109
204	0.122
205	0.133
205	0.138
205	0.137
206	0.135
206	0.135
207	0.136
207	0.138
208	0.139
208	0.137
209	0.14
209	0.135
210	0.136
210	0.137
211	0.139
211	0.141
212	0.14
212	0.145
213	0.146
213	0.145
213	0.146
214	0.149
214	0.152
215	0.152
215	0.153
216	0.154
216	0.152
217	0.155
217	0.155
218	0.155
218	0.162
219	0.166
219	0.168
220	0.171
220	0.172
221	0.174
221	0.177
221	0.185
222	0.19
222	0.194
223	0.2
223	0.203
224	0.208
224	0.217
225	0.225
225	0.237
226	0.248
226	0.258
227	0.266
227	0.276
228	0.292
228	0.306
229	0.32
229	0.343
229	0.366
230	0.392
230	0.42
231	0.451
231	0.489
232	0.527
232	0.572
233	0.615
233	0.663
234	0.717
234	0.77
235	0.824
235	0.876
236	0.928
236	0.981
236	1.034
237	1.085
237	1.13
238	1.177
238	1.223
239	1.269
239	1.309
240	1.347
240	1.385
241	1.418
241	1.45
242	1.479
242	1.509
243	1.537
243	1.563
243	1.587
244	1.605
244	1.626
245	1.645
245	1.666
246	1.686
246	1.701
247	1.715
247	1.731
248	1.747
248	1.761
249	1.771
249	1.779
250	1.787
250	1.793
250	1.796
251	1.799
251	1.802
252	1.807
252	1.806
253	1.807
253	1.803
254	1.801
254	1.801
255	1.8
255	1.8
256	1.8
256	1.798
257	1.799
257	1.796
258	1.796
258	1.796
258	1.796
259	1.796
259	1.796
260	1.794
260	1.795
261	1.795
261	1.798
262	1.799
262	1.801
263	1.804
263	1.805
264	1.806
264	1.809
265	1.809
265	1.812
265	1.811
266	1.811
266	1.811
267	1.809
267	1.809
268	1.808
268	1.807
269	1.81
269	1.808
270	1.808
270	1.806
271	1.805
271	1.804
272	1.801
272	1.799
272	1.796
273	1.79
273	1.784
274	1.776
274	1.77
275	1.764
275	1.758
276	1.75
276	1.743
277	1.736
277	1.726
278	1.716
278	1.705
278	1.691
279	1.675
279	1.656
280	1.632
280	1.602
281	1.566
281	1.527
282	1.486
282	1.444
283	1.402
283	1.362
284	1.322
284	1.283
285	1.247
285	1.214
285	1.184
286	1.158
286	1.135
287	1.114
287	1.097
288	1.082
288	1.068
289	1.057
289	1.048
290	1.04
290	1.032
291	1.026
291	1.02
292	1.015
292	1.011
292	1.006
293	1.002
293	0.999
294	0.995
294	0.991
295	0.988
295	0.985
296	0.981
296	0.978
297	0.975
297	0.971
298	0.968
298	0.965
298	0.962
299	0.959
299	0.956
300	0.953
300	0.95
301	0.947
301	0.945
302	0.942
302	0.94
303	0.937
303	0.935
304	0.932
304	0.93
305	0.927
305	0.925
305	0.922
306	0.92
306	0.917
307	0.914
307	0.912
308	0.909
308	0.907
309	0.904
309	0.901
310	0.898
310	0.895
311	0.892
311	0.889
311	0.885
312	0.881
312	0.878
313	0.874
313	0.871
314	0.867
314	0.862
315	0.858
315	0.854
316	0.849
316	0.844
317	0.84
317	0.835
318	0.83
318	0.825
318	0.819
319	0.814
319	0.808
320	0.803
320	0.797
321	0.791
321	0.784
322	0.778
322	0.772
323	0.765
323	0.759
324	0.752
324	0.745
324	0.738
325	0.731
325	0.725
326	0.718
326	0.711
327	0.704
327	0.697
328	0.69
328	0.683
329	0.675
329	0.668
330	0.661
330	0.654
330	0.647
331	0.64
331	0.633
332	0.625
332	0.618
333	0.612
333	0.605
334	0.598
334	0.591
335	0.584
335	0.577
336	0.57
336	0.563
336	0.557
337	0.55
337	0.544
338	0.537
338	0.531
339	0.525
339	0.519
340	0.513
340	0.507
341	0.501
341	0.495
342	0.49
342	0.484
342	0.479
343	0.474
343	0.468
344	0.463
344	0.458
345	0.453
345	0.448
346	0.444
346	0.439
347	0.435
347	0.431
348	0.427
348	0.423
348	0.419
349	0.415
349	0.411
350	0.408
350	0.404
351	0.401
351	0.397
352	0.394
352	0.391
353	0.388
353	0.385
354	0.382
354	0.379
354	0.376
355	0.373
355	0.37
356	0.367
356	0.364
357	0.361
357	0.359
358	0.356
358	0.353
359	0.351
359	0.349
360	0.347
360	0.345
360	0.343
361	0.341
361	0.339
362	0.337
362	0.336
363	0.334
363	0.332
364	0.33
364	0.328
365	0.326
365	0.324
366	0.322
366	0.321
366	0.319
367	0.317
367	0.316
368	0.314
368	0.312
369	0.31
369	0.309
370	0.308
370	0.306
371	0.305
371	0.304
372	0.302
372	0.301
372	0.3
373	0.299
373	0.298
374	0.297
374	0.296
375	0.296
375	0.295
376	0.294
376	0.293
377	0.292
377	0.291
378	0.29
378	0.289
378	0.288
379	0.287
379	0.286
380	0.285
380	0.284
381	0.284
381	0.283
382	0.282
382	0.282
383	0.281
383	0.281
383	0.28
384	0.28
384	0.279
385	0.279
385	0.279
386	0.278
386	0.278
387	0.277
387	0.277
388	0.276
388	0.276
389	0.276
389	0.275
389	0.275
390	0.274
390	0.274
391	0.273
391	0.273
392	0.273
392	0.272
393	0.272
393	0.272
394	0.271
394	0.271
394	0.27
395	0.27
395	0.27
396	0.269
396	0.269
397	0.268
397	0.268
398	0.268
398	0.267
399	0.267
399	0.267
400	0.266
400	0.266
400	0.266
401	0.266
401	0.265
402	0.265
402	0.265
403	0.264
403	0.264
404	0.264
404	0.263
405	0.263
405	0.263
405	0.263
406	0.262
406	0.262
407	0.261
407	0.261
408	0.261
408	0.261
409	0.26
409	0.26
410	0.26
410	0.26
411	0.259
411	0.259
411	0.259
412	0.259
412	0.258
413	0.258
413	0.258
414	0.258
414	0.257
415	0.257
415	0.256
416	0.256
416	0.256
416	0.255
417	0.255
417	0.255
418	0.254
418	0.254
419	0.253
419	0.253
420	0.252
420	0.252
421	0.252
421	0.251
421	0.251
422	0.25
422	0.25
423	0.25
423	0.25
424	0.249
424	0.249
425	0.249
425	0.249
426	0.248
426	0.248
427	0.248
427	0.247
427	0.247
428	0.247
428	0.246
429	0.246
429	0.245
430	0.245
430	0.245
431	0.245
431	0.245
432	0.244
432	0.244
432	0.244
433	0.244
433	0.243
434	0.243
434	0.243
435	0.243
435	0.243
436	0.243
436	0.243
437	0.242
437	0.242
437	0.242
438	0.241
438	0.241
439	0.241
439	0.241
440	0.24
440	0.24
441	0.24
441	0.239
442	0.239
442	0.239
442	0.239
443	0.239
443	0.238
444	0.238
444	0.238
445	0.238
445	0.238
446	0.238
446	0.238
447	0.237
447	0.237
447	0.237
448	0.237
448	0.237
449	0.237
449	0.237
450	0.237
450	0.237
451	0.236
451	0.236
452	0.236
452	0.236
452	0.236
453	0.236
453	0.235
454	0.235
454	0.235
455	0.235
455	0.234
456	0.234
456	0.234
457	0.234
457	0.233
458	0.233
458	0.233
458	0.233
459	0.233
459	0.233
460	0.233
460	0.233
461	0.233
461	0.232
462	0.233
462	0.233
463	0.232
463	0.232
463	0.232
464	0.232
464	0.232
465	0.231
465	0.231
466	0.231
466	0.231
467	0.231
467	0.231
467	0.231
468	0.231
468	0.231
469	0.231
469	0.232
470	0.232
470	0.232
471	0.232
471	0.232
472	0.232
472	0.232
472	0.232
473	0.232
473	0.232
474	0.232
474	0.232
475	0.232
475	0.232
476	0.233
476	0.233
477	0.233
477	0.232
477	0.233
478	0.233
478	0.233
479	0.233
479	0.234
480	0.234
480	0.234
481	0.234
481	0.234
482	0.234
482	0.234
482	0.234
483	0.234
483	0.235
484	0.235
484	0.235
485	0.235
485	0.235
486	0.235
486	0.236
487	0.236
487	0.236
487	0.237
488	0.237
488	0.237
489	0.238
489	0.238
490	0.239
490	0.239
491	0.24
491	0.241
492	0.241
492	0.242
492	0.243
493	0.244
493	0.244
494	0.245
494	0.246
495	0.246
495	0.247
496	0.247
496	0.248
496	0.249
497	0.249
497	0.25
498	0.25
498	0.251
499	0.251
499	0.252
500	0.253
500	0.254
501	0.254
501	0.255
501	0.255
502	0.255
502	0.256
503	0.256
503	0.257
504	0.258
504	0.258
505	0.259
505	0.26
506	0.26
506	0.261
506	0.261
507	0.262
507	0.263
508	0.263
508	0.264
509	0.264
509	0.265
510	0.265
510	0.266
511	0.267
511	0.267
511	0.268
512	0.268
512	0.269
513	0.27
513	0.27
514	0.271
514	0.271
515	0.272
515	0.272
515	0.273
516	0.273
516	0.274
517	0.274
517	0.274
518	0.275
518	0.275
519	0.275
519	0.275
520	0.275
520	0.276
520	0.276
521	0.276
521	0.276
522	0.276
522	0.276
523	0.276
523	0.276
524	0.276
524	0.276
524	0.276
525	0.276
525	0.276
526	0.276
526	0.276
527	0.276
527	0.276
528	0.275
528	0.275
529	0.275
529	0.275
529	0.274
530	0.274
530	0.274
531	0.273
531	0.273
532	0.272
532	0.271
533	0.271
533	0.27
533	0.27
534	0.269
534	0.269
535	0.268
535	0.268
536	0.268
536	0.267
537	0.267
537	0.266
538	0.265
538	0.265
538	0.264
539	0.264
539	0.263
540	0.263
540	0.262
541	0.261
541	0.261
542	0.26
542	0.26
542	0.259
543	0.258
543	0.257
544	0.256
544	0.256
545	0.255
545	0.254
546	0.253
546	0.252
547	0.251
547	0.25
547	0.249
548	0.248
548	0.247
549	0.246
549	0.245
550	0.244
550	0.244
551	0.243
551	0.242
551	0.242
552	0.241
552	0.241
553	0.24
553	0.239
554	0.238
554	0.237
555	0.236
555	0.235
556	0.234
556	0.233
556	0.232
557	0.232
557	0.231
558	0.231
558	0.23
559	0.23
559	0.229
560	0.229
560	0.228
560	0.228
561	0.227
561	0.226
562	0.225
562	0.224
563	0.223
563	0.222
564	0.22
564	0.219
564	0.219
565	0.218
565	0.217
566	0.216
566	0.215
567	0.215
567	0.214
568	0.214
568	0.213
568	0.212
569	0.212
569	0.211
570	0.21
570	0.209
571	0.208
571	0.207
572	0.206
572	0.205
573	0.205
573	0.204
573	0.203
574	0.203
574	0.202
575	0.202
575	0.201
576	0.201
576	0.2
577	0.199
577	0.198
577	0.197
578	0.197
578	0.196
579	0.196
579	0.196
580	0.195
580	0.194
581	0.194
581	0.193
581	0.193
582	0.193
582	0.193
583	0.192
583	0.192
584	0.191
584	0.189
585	0.189
585	0.188
585	0.188
586	0.188
586	0.187
587	0.186
587	0.186
588	0.185
588	0.185
589	0.185
589	0.184
590	0.184
590	0.184
590	0.184
591	0.184
591	0.183
592	0.182
592	0.181
593	0.181
593	0.18
594	0.18
594	0.179
594	0.178
595	0.178
595	0.177
596	0.176
596	0.176
597	0.177
597	0.177
598	0.177
598	0.177
598	0.177
599	0.177
599	0.176
600	0.176
600	0.175
601	0.175
601	0.175
602	0.174
602	0.173
602	0.173
603	0.172
603	0.172
604	0.172
604	0.172
605	0.172
605	0.172
606	0.171
606	0.17
606	0.17
607	0.169
607	0.169
608	0.168
608	0.168
609	0.167
609	0.167
610	0.166
610	0.166
610	0.166
611	0.166
611	0.166
612	0.166
612	0.166
613	0.166
613	0.166
614	0.166
614	0.165
614	0.165
615	0.165
615	0.165
616	0.165
616	0.165
617	0.165
617	0.164
618	0.164
618	0.164
618	0.164
619	0.164
619	0.164
620	0.163
620	0.163
621	0.162
621	0.162
622	0.161
622	0.161
622	0.16
623	0.16
623	0.16
624	0.16
624	0.159
625	0.159
625	0.159
626	0.159
626	0.159
626	0.159
627	0.159
627	0.159
628	0.159
628	0.159
629	0.159
629	0.159
630	0.158
630	0.158
630	0.158
631	0.158
631	0.157
632	0.157
632	0.156
633	0.156
633	0.156
634	0.156
634	0.156
634	0.156
635	0.155
635	0.154
636	0.154
636	0.154
637	0.154
637	0.153
638	0.153
638	0.153
638	0.153
639	0.152
639	0.152
640	0.152
640	0.152
641	0.151
641	0.151
642	0.151
642	0.151
642	0.152
643	0.152
643	0.152
644	0.152
644	0.152
645	0.152
645	0.153
646	0.153
646	0.154
646	0.154
647	0.153
647	0.153
648	0.152
648	0.152
649	0.151
649	0.151
650	0.151
650	0.151
650	0.151
651	0.151
651	0.15
652	0.151
652	0.151
653	0.151
653	0.153
653	0.158
654	0.125
654	0.101
655	0.1
655	0.101
656	0.101
656	0.101
657	0.101
657	0.102
657	0.102
658	0.101
658	0.092
659	0.116
659	0.147
660	0.152
660	0.152
661	0.151
661	0.151
661	0.15
662	0.149
662	0.149
663	0.149
663	0.149
664	0.149
664	0.149
665	0.149
665	0.149
665	0.149
666	0.149
666	0.149
667	0.15
667	0.15
668	0.15
668	0.15
669	0.15
669	0.15
669	0.151
670	0.151
670	0.15
671	0.15
671	0.15
672	0.149
672	0.149
672	0.148
673	0.148
673	0.147
674	0.147
674	0.146
675	0.146
675	0.146
676	0.147
676	0.147
676	0.147
677	0.147
677	0.147
678	0.148
678	0.147
679	0.147
679	0.147
680	0.147
680	0.147
680	0.146
681	0.146
681	0.146
682	0.147
682	0.147
683	0.147
683	0.147
684	0.147
684	0.147
684	0.147
685	0.147
685	0.148
686	0.148
686	0.148
687	0.148
687	0.148
687	0.148
688	0.149
688	0.149
689	0.15
689	0.15
690	0.15
690	0.149
691	0.149
691	0.15
691	0.15
692	0.15
692	0.15
693	0.15
693	0.15
694	0.15
694	0.15
695	0.151
695	0.152
695	0.152
696	0.152
696	0.152
697	0.152
697	0.152
698	0.151
698	0.151
698	0.151
699	0.151
699	0.15
700	0.149
700	0.149
701	0.149
701	0.149
702	0.148
702	0.148
702	0.147
703	0.147
703	0.146
704	0.146
704	0.146
705	0.146
705	0.145
705	0.145
706	0.145
706	0.145
707	0.145
707	0.145
708	0.146
708	0.146
709	0.146
709	0.146
709	0.146
710	0.147
710	0.147
711	0.148
711	0.148
712	0.149
712	0.149
713	0.149
713	0.149
713	0.149
714	0.149
714	0.149
715	0.149
715	0.149
716	0.148
716	0.148
716	0.147
717	0.146
717	0.146
718	0.146
718	0.146
719	0.146
719	0.147
720	0.147
720	0.148
720	0.149
721	0.149
721	0.15
722	0.151
722	0.152
723	0.152
723	0.152
723	0.152
724	0.151
724	0.151
725	0.15
725	0.149
726	0.148
726	0.148
727	0.147
727	0.146
727	0.146
728	0.146
728	0.145
729	0.146
729	0.146
730	0.146
730	0.146
730	0.146
731	0.147
731	0.147
732	0.148
732	0.149
733	0.149
733	0.149
734	0.15
734	0.15
734	0.151
735	0.151
735	0.152
736	0.152
736	0.152
737	0.152
737	0.152
737	0.152
738	0.152
738	0.151
739	0.151
739	0.15
740	0.15
740	0.15
741	0.151
741	0.151
741	0.151
742	0.151
742	0.152
743	0.153
743	0.154
744	0.154
744	0.155
744	0.155
745	0.155
745	0.155
746	0.154
746	0.154
747	0.154
747	0.154
748	0.154
748	0.154
748	0.154
749	0.153
749	0.154
750	0.154
750	0.154
751	0.154
751	0.155
751	0.155
752	0.155
752	0.155
753	0.154
753	0.154
754	0.154
754	0.154
754	0.153
755	0.153
755	0.153
756	0.153
756	0.152
757	0.151
757	0.151
758	0.151
758	0.151
758	0.151
759	0.151
759	0.151
760	0.151
760	0.151
761	0.151
761	0.152
761	0.152
762	0.152
762	0.152
763	0.152
763	0.152
764	0.152
764	0.152
764	0.152
765	0.151
765	0.151
766	0.151
766	0.151
767	0.15
767	0.149
768	0.149
768	0.149
768	0.149
769	0.149
769	0.149
770	0.149
770	0.15
771	0.15
771	0.151
771	0.151
772	0.152
772	0.152
773	0.153
773	0.153
774	0.153
774	0.153
775	0.153
775	0.154
775	0.154
776	0.154
776	0.154
777	0.155
777	0.155
778	0.155
778	0.154
778	0.154
779	0.154
779	0.154
780	0.153
780	0.152
781	0.151
781	0.15
781	0.15
782	0.149
782	0.149
783	0.149
783	0.149
784	0.149
784	0.15
784	0.15
785	0.15
785	0.151
786	0.151
786	0.152
787	0.152
787	0.152
788	0.151
788	0.151
788	0.151
789	0.15
789	0.151
790	0.151
790	0.15
791	0.15
791	0.15
791	0.15
792	0.151
792	0.151
793	0.151
793	0.151
794	0.151
794	0.15
794	0.15
795	0.15
795	0.15
796	0.15
796	0.15
797	0.15
797	0.15
797	0.15
798	0.15
798	0.15
799	0.15
799	0.15
800	0.149
800	0.149
801	0.149
801	0.149
801	0.149
802	0.149
802	0.149
803	0.149
803	0.149
804	0.149
804	0.149
804	0.15
805	0.149
805	0.149
806	0.149
806	0.149
807	0.149
807	0.149
807	0.149
808	0.149
808	0.149
809	0.149
809	0.149
810	0.149
810	0.149
810	0.149
811	0.149
811	0.149
812	0.149
812	0.149
813	0.15
813	0.15
813	0.151
814	0.152
814	0.152
815	0.153
815	0.153
816	0.153
816	0.153
817	0.152
817	0.152
817	0.152
818	0.151
818	0.151
819	0.15
819	0.149
820	0.148
820	0.147
820	0.147
821	0.146
821	0.146
822	0.146
822	0.146
823	0.145
823	0.145
823	0.146
824	0.147
824	0.148
825	0.149
825	0.15
826	0.151
826	0.151
826	0.152
827	0.153
827	0.153
828	0.154
828	0.154
829	0.154
829	0.154
829	0.154
830	0.154
830	0.154
831	0.155
831	0.155
832	0.154
832	0.154
832	0.154
833	0.154
833	0.153
834	0.153
834	0.152
835	0.152
835	0.151
835	0.15
836	0.15
836	0.15
837	0.149
837	0.149
838	0.148
838	0.148
839	0.147
839	0.146
839	0.145
840	0.145
840	0.144
841	0.143
841	0.142
842	0.141
842	0.14
842	0.14
843	0.139
843	0.139
844	0.138
844	0.138
845	0.138
845	0.138
845	0.138
846	0.138
846	0.138
847	0.138
847	0.138
848	0.138
848	0.138
848	0.138
849	0.137
849	0.137
850	0.137
850	0.136
851	0.136
851	0.135
851	0.135
852	0.134
852	0.133
853	0.133
853	0.133
854	0.133
854	0.134
854	0.135
855	0.136
855	0.137
856	0.138
856	0.139
857	0.14
857	0.142
857	0.142
858	0.143
858	0.143
859	0.143
859	0.143
860	0.143
860	0.143
860	0.142
861	0.142
861	0.141
862	0.14
862	0.139
863	0.138
863	0.138
863	0.138
864	0.137
864	0.137
865	0.137
865	0.137
866	0.137
866	0.137
866	0.137
867	0.137
867	0.137
868	0.137
868	0.137
869	0.137
869	0.137
869	0.136
870	0.136
870	0.136
871	0.136
871	0.136
872	0.136
872	0.135
872	0.135
873	0.135
873	0.134
874	0.134
874	0.133
875	0.133
875	0.132
875	0.132
876	0.132
876	0.131
877	0.131
877	0.131
878	0.131
878	0.131
878	0.131
879	0.132
879	0.132
880	0.132
880	0.132
881	0.132
881	0.132
881	0.132
882	0.132
882	0.132
883	0.132
883	0.132
884	0.132
884	0.132
884	0.131
885	0.131
885	0.131
886	0.131
886	0.13
887	0.13
887	0.13
887	0.129
888	0.129
888	0.129
889	0.128
889	0.128
890	0.128
890	0.128
890	0.129
891	0.129
891	0.129
892	0.129
892	0.129
893	0.128
893	0.128
893	0.128
894	0.127
894	0.127
895	0.126
895	0.126
895	0.125
896	0.125
896	0.125
897	0.125
897	0.125
898	0.124
898	0.124
898	0.124
899	0.124
899	0.124
900	0.124
900	0.124
901	0.124
901	0.123
901	0.123
902	0.123
902	0.123
903	0.123
903	0.123
904	0.122
904	0.122
904	0.122
905	0.121
905	0.121
906	0.12
906	0.12
907	0.12
907	0.12
907	0.12
908	0.12
908	0.12
909	0.119
909	0.119
910	0.119
910	0.119
910	0.118
911	0.118
911	0.118
912	0.117
912	0.117
913	0.116
913	0.116
913	0.115
914	0.115
914	0.115
915	0.114
915	0.114
916	0.114
916	0.114
916	0.114
917	0.113
917	0.113
918	0.113
918	0.113
918	0.113
919	0.112
919	0.112
920	0.112
920	0.112
921	0.112
921	0.112
921	0.112
922	0.112
922	0.112
923	0.112
923	0.112
924	0.113
924	0.113
924	0.113
925	0.113
925	0.113
926	0.113
926	0.113
927	0.113
927	0.113
927	0.113
928	0.113
928	0.113
929	0.114
929	0.114
930	0.114
930	0.114
930	0.114
931	0.114
931	0.114
932	0.114
932	0.114
933	0.114
933	0.114
933	0.113
934	0.113
934	0.113
935	0.112
935	0.112
935	0.111
936	0.11
936	0.11
937	0.109
937	0.109
938	0.108
938	0.107
938	0.106
939	0.106
939	0.105
940	0.104
940	0.104
941	0.104
941	0.104
941	0.105
942	0.105
942	0.105
943	0.106
943	0.106
944	0.107
944	0.107
944	0.108
945	0.108
945	0.108
946	0.108
946	0.108
946	0.108
947	0.108
947	0.108
948	0.107
948	0.107
949	0.106
949	0.106
949	0.105
950	0.104
950	0.104
951	0.103
951	0.102
952	0.101
952	0.101
952	0.1
953	0.1
953	0.099
954	0.099
954	0.099
955	0.099
955	0.099
955	0.1
956	0.1
956	0.101
957	0.102
957	0.103
957	0.103
958	0.104
958	0.105
959	0.105
959	0.106
960	0.107
960	0.107
960	0.107
961	0.107
961	0.107
962	0.107
962	0.107
963	0.106
963	0.106
963	0.105
964	0.105
964	0.105
965	0.104
965	0.104
966	0.104
966	0.103
966	0.103
967	0.103
967	0.103
968	0.102
968	0.102
968	0.102
969	0.101
969	0.1
970	0.099
970	0.098
971	0.098
971	0.097
971	0.096
972	0.096
972	0.095
973	0.095
973	0.095
974	0.095
974	0.095
974	0.096
975	0.096
975	0.096
976	0.097
976	0.097
976	0.097
977	0.097
977	0.097
978	0.097
978	0.096
979	0.096
979	0.096
979	0.097
980	0.097
980	0.097
981	0.097
981	0.097
982	0.098
982	0.098
982	0.099
983	0.099
983	0.099
984	0.099
984	0.099
984	0.099
985	0.099
985	0.099
986	0.098
986	0.098
987	0.097
987	0.097
987	0.097
988	0.097
988	0.096
989	0.096
989	0.096
990	0.096
990	0.096
990	0.096
991	0.096
991	0.096
992	0.096
992	0.095
992	0.094
993	0.094
993	0.093
994	0.092
994	0.092
995	0.091
995	0.09
995	0.09
996	0.089
996	0.089
997	0.089
997	0.089
997	0.089
998	0.089
998	0.09
999	0.09
999	0.091
1000	0.092
1000	0.093
1000	0.093
1001	0.094
1001	0.094
1002	0.094
1002	0.094
1003	0.094
1003	0.094
1003	0.094
1004	0.093
1004	0.093
1005	0.092
1005	0.091
1005	0.091
1006	0.09
1006	0.09
1007	0.09
1007	0.089
1008	0.088
1008	0.088
1008	0.087
1009	0.087
1009	0.087
1010	0.086
1010	0.086
1010	0.085
1011	0.085
1011	0.085
1012	0.084
1012	0.084
1013	0.084
1013	0.083
1013	0.083
1014	0.082
1014	0.082
1015	0.082
1015	0.082
1016	0.082
1016	0.081
1016	0.081
1017	0.081
1017	0.081
1018	0.081
1018	0.081
1018	0.081
1019	0.081
1019	0.081
1020	0.081
1020	0.081
1021	0.081
1021	0.082
1021	0.082
1022	0.082
1022	0.083
1023	0.083
1023	0.083
1023	0.084
1024	0.084
1024	0.084
1025	0.084
1025	0.085
1026	0.084
1026	0.084
1026	0.084
1027	0.084
1027	0.084
1028	0.084
1028	0.084
1028	0.084
1029	0.084
1029	0.084
1030	0.084
1030	0.084
1031	0.084
1031	0.084
1031	0.084
1032	0.084
1032	0.084
1033	0.085
1033	0.084
1033	0.084
1034	0.084
1034	0.084
1035	0.084
1035	0.084
1036	0.084
1036	0.084
1036	0.084
1037	0.084
1037	0.083
1038	0.083
1038	0.083
1039	0.082
1039	0.082
1039	0.082
1040	0.082
1040	0.081
1041	0.081
1041	0.081
1041	0.08
1042	0.08
1042	0.08
1043	0.08
1043	0.08
1044	0.079
1044	0.079
1044	0.079
1045	0.079
1045	0.078
1046	0.078
1046	0.078
1046	0.078
1047	0.077
1047	0.077
1048	0.077
1048	0.077
1049	0.078
1049	0.077
1049	0.077
1050	0.077
1050	0.077
1051	0.076
1051	0.076
1051	0.076
1052	0.076
1052	0.075
1053	0.075
1053	0.074
1053	0.074
1054	0.073
1054	0.073
1055	0.073
1055	0.072
1056	0.071
1056	0.071
1056	0.07
1057	0.07
1057	0.069
1058	0.069
1058	0.068
1058	0.068
1059	0.067
1059	0.067
1060	0.067
1060	0.067
1061	0.067
1061	0.066
1061	0.067
1062	0.067
1062	0.067
1063	0.067
1063	0.067
1063	0.067
1064	0.067
1064	0.067
1065	0.067
1065	0.067
1066	0.067
1066	0.067
1066	0.066
1067	0.066
1067	0.066
1068	0.066
1068	0.066
1068	0.066
1069	0.067
1069	0.067
1070	0.067
1070	0.066
1071	0.066
1071	0.066
1071	0.066
1072	0.065
1072	0.065
1073	0.064
1073	0.064
1073	0.064
1074	0.064
1074	0.064
1075	0.064
1075	0.064
1076	0.064
1076	0.064
1076	0.065
1077	0.065
1077	0.065
1078	0.065
1078	0.065
1078	0.065
1079	0.065
1079	0.065
1080	0.064
1080	0.064
1080	0.064
1081	0.064
1081	0.064
1082	0.064
1082	0.064
1083	0.063
1083	0.063
1083	0.063
1084	0.063
1084	0.063
1085	0.063
1085	0.063
1085	0.063
1086	0.063
1086	0.063
1087	0.063
1087	0.062
1088	0.062
1088	0.062
1088	0.062
1089	0.062
1089	0.061
1090	0.061
1090	0.06
1090	0.06
1091	0.059
1091	0.059
1092	0.06
1092	0.06
1092	0.06
1093	0.06
1093	0.06
1094	0.06
1094	0.06
1095	0.06
1095	0.059
1095	0.058
1096	0.057
1096	0.056
1097	0.056
1097	0.055
1097	0.055
1098	0.054
1098	0.053
1099	0.052
1099	0.051
1100	0.05
1100	0.05
1100	0.05
1101	0.05
1101	0.049
1102	0.048
1102	0.048
1102	0.046
1103	0.046
1103	0.047
1104	0.047
1104	0.047
1104	0.046
1105	0.046
1105	0.044
1106	0.043
1106	0.042
1107	0.041
1107	0.041
1107	0.041
1108	0.039
1108	0.038
1109	0.037
1109	0.037
1109	0.037
1110	0.039
1110	0.038
1111	0.04
1111	0.041
