Data from reversibility-20sec_Absorbance__3670__000000000003670.txt Node

Date: Wed Dec 06 08:36:26 CET 2023
User: Marek
Spectrometer: MAYP115816
Trigger mode: 0
Integration Time (sec): 2.000000E-1
Scans to average: 10
Electric dark correction enabled: true
Nonlinearity correction enabled: true
Boxcar width: 5
XAxis mode: Wavelengths
Number of Pixels in Spectrum: 2068
>>>>>Begin Spectral Data<<<<<
199	-0.103
199	-0.06
200	-0.009
200	0.044
201	0.068
201	0.084
202	0.097
202	0.105
203	0.113
203	0.117
204	0.13
204	0.139
205	0.149
205	0.157
205	0.156
206	0.157
206	0.156
207	0.157
207	0.157
208	0.156
208	0.154
209	0.159
209	0.159
210	0.16
210	0.16
211	0.158
211	0.162
212	0.163
212	0.165
213	0.168
213	0.17
213	0.171
214	0.174
214	0.176
215	0.177
215	0.175
216	0.178
216	0.175
217	0.178
217	0.18
218	0.177
218	0.184
219	0.188
219	0.189
220	0.191
220	0.189
221	0.191
221	0.193
221	0.197
222	0.204
222	0.208
223	0.215
223	0.214
224	0.22
224	0.226
225	0.237
225	0.251
226	0.263
226	0.278
227	0.291
227	0.303
228	0.316
228	0.331
229	0.348
229	0.372
229	0.395
230	0.417
230	0.444
231	0.477
231	0.512
232	0.548
232	0.59
233	0.634
233	0.683
234	0.735
234	0.784
235	0.835
235	0.891
236	0.941
236	0.988
236	1.041
237	1.089
237	1.139
238	1.186
238	1.233
239	1.276
239	1.321
240	1.361
240	1.396
241	1.434
241	1.473
242	1.503
242	1.537
243	1.564
243	1.588
243	1.612
244	1.636
244	1.655
245	1.674
245	1.695
246	1.713
246	1.726
247	1.739
247	1.75
248	1.764
248	1.776
249	1.783
249	1.788
250	1.795
250	1.803
250	1.805
251	1.808
251	1.81
252	1.813
252	1.813
253	1.813
253	1.81
254	1.807
254	1.808
255	1.804
255	1.803
256	1.801
256	1.799
257	1.797
257	1.795
258	1.795
258	1.793
258	1.794
259	1.795
259	1.794
260	1.794
260	1.796
261	1.795
261	1.797
262	1.8
262	1.801
263	1.803
263	1.805
264	1.807
264	1.806
265	1.807
265	1.808
265	1.808
266	1.809
266	1.811
267	1.809
267	1.81
268	1.81
268	1.81
269	1.812
269	1.812
270	1.811
270	1.811
271	1.809
271	1.809
272	1.803
272	1.801
272	1.795
273	1.789
273	1.781
274	1.773
274	1.765
275	1.757
275	1.748
276	1.739
276	1.73
277	1.722
277	1.712
278	1.702
278	1.689
278	1.674
279	1.657
279	1.634
280	1.608
280	1.574
281	1.537
281	1.495
282	1.452
282	1.409
283	1.366
283	1.324
284	1.284
284	1.246
285	1.21
285	1.178
285	1.149
286	1.123
286	1.101
287	1.082
287	1.066
288	1.052
288	1.04
289	1.03
289	1.021
290	1.014
290	1.008
291	1.002
291	0.997
292	0.993
292	0.989
292	0.985
293	0.982
293	0.978
294	0.975
294	0.972
295	0.97
295	0.967
296	0.964
296	0.961
297	0.958
297	0.955
298	0.953
298	0.95
298	0.948
299	0.945
299	0.943
300	0.94
300	0.938
301	0.936
301	0.933
302	0.931
302	0.929
303	0.927
303	0.925
304	0.923
304	0.921
305	0.918
305	0.916
305	0.914
306	0.912
306	0.91
307	0.908
307	0.905
308	0.903
308	0.9
309	0.898
309	0.895
310	0.893
310	0.89
311	0.887
311	0.884
311	0.881
312	0.877
312	0.874
313	0.871
313	0.867
314	0.864
314	0.86
315	0.856
315	0.852
316	0.847
316	0.843
317	0.838
317	0.834
318	0.829
318	0.824
318	0.818
319	0.813
319	0.808
320	0.803
320	0.797
321	0.791
321	0.786
322	0.78
322	0.774
323	0.768
323	0.761
324	0.755
324	0.749
324	0.743
325	0.736
325	0.73
326	0.723
326	0.716
327	0.709
327	0.703
328	0.696
328	0.689
329	0.682
329	0.675
330	0.668
330	0.661
330	0.654
331	0.647
331	0.641
332	0.634
332	0.627
333	0.62
333	0.614
334	0.607
334	0.6
335	0.594
335	0.587
336	0.58
336	0.574
336	0.568
337	0.562
337	0.556
338	0.549
338	0.543
339	0.537
339	0.531
340	0.526
340	0.52
341	0.515
341	0.509
342	0.504
342	0.499
342	0.494
343	0.489
343	0.483
344	0.478
344	0.474
345	0.469
345	0.464
346	0.46
346	0.456
347	0.451
347	0.447
348	0.443
348	0.439
348	0.436
349	0.432
349	0.428
350	0.425
350	0.421
351	0.418
351	0.415
352	0.412
352	0.409
353	0.406
353	0.403
354	0.401
354	0.398
354	0.395
355	0.392
355	0.389
356	0.386
356	0.383
357	0.38
357	0.377
358	0.375
358	0.372
359	0.37
359	0.368
360	0.366
360	0.364
360	0.362
361	0.36
361	0.359
362	0.358
362	0.356
363	0.354
363	0.353
364	0.35
364	0.348
365	0.347
365	0.345
366	0.343
366	0.341
366	0.339
367	0.338
367	0.336
368	0.334
368	0.333
369	0.331
369	0.33
370	0.329
370	0.327
371	0.326
371	0.325
372	0.323
372	0.322
372	0.321
373	0.32
373	0.319
374	0.318
374	0.317
375	0.316
375	0.316
376	0.315
376	0.314
377	0.313
377	0.312
378	0.311
378	0.31
378	0.309
379	0.309
379	0.308
380	0.307
380	0.306
381	0.305
381	0.305
382	0.304
382	0.304
383	0.303
383	0.302
383	0.302
384	0.301
384	0.301
385	0.3
385	0.3
386	0.299
386	0.299
387	0.298
387	0.298
388	0.297
388	0.297
389	0.297
389	0.296
389	0.296
390	0.296
390	0.295
391	0.295
391	0.295
392	0.294
392	0.294
393	0.294
393	0.293
394	0.293
394	0.292
394	0.292
395	0.292
395	0.292
396	0.291
396	0.291
397	0.29
397	0.29
398	0.29
398	0.289
399	0.289
399	0.289
400	0.288
400	0.288
400	0.288
401	0.287
401	0.287
402	0.287
402	0.286
403	0.286
403	0.285
404	0.285
404	0.285
405	0.285
405	0.284
405	0.284
406	0.284
406	0.283
407	0.283
407	0.283
408	0.283
408	0.282
409	0.282
409	0.282
410	0.281
410	0.281
411	0.281
411	0.28
411	0.28
412	0.28
412	0.28
413	0.279
413	0.279
414	0.279
414	0.279
415	0.278
415	0.278
416	0.278
416	0.277
416	0.277
417	0.277
417	0.277
418	0.276
418	0.276
419	0.276
419	0.275
420	0.275
420	0.274
421	0.274
421	0.274
421	0.273
422	0.273
422	0.273
423	0.272
423	0.272
424	0.272
424	0.271
425	0.271
425	0.271
426	0.271
426	0.27
427	0.27
427	0.269
427	0.269
428	0.269
428	0.268
429	0.268
429	0.268
430	0.267
430	0.267
431	0.267
431	0.266
432	0.266
432	0.266
432	0.266
433	0.266
433	0.265
434	0.265
434	0.265
435	0.265
435	0.265
436	0.265
436	0.265
437	0.265
437	0.265
437	0.264
438	0.264
438	0.264
439	0.264
439	0.263
440	0.263
440	0.263
441	0.262
441	0.262
442	0.262
442	0.262
442	0.261
443	0.261
443	0.261
444	0.261
444	0.261
445	0.26
445	0.26
446	0.26
446	0.26
447	0.26
447	0.259
447	0.259
448	0.259
448	0.259
449	0.259
449	0.259
450	0.258
450	0.258
451	0.258
451	0.258
452	0.258
452	0.258
452	0.258
453	0.258
453	0.258
454	0.257
454	0.257
455	0.257
455	0.257
456	0.256
456	0.256
457	0.256
457	0.255
458	0.255
458	0.255
458	0.255
459	0.255
459	0.255
460	0.255
460	0.255
461	0.255
461	0.255
462	0.255
462	0.255
463	0.254
463	0.254
463	0.254
464	0.253
464	0.253
465	0.252
465	0.252
466	0.252
466	0.252
467	0.252
467	0.252
467	0.252
468	0.252
468	0.252
469	0.252
469	0.253
470	0.253
470	0.253
471	0.253
471	0.253
472	0.253
472	0.253
472	0.253
473	0.253
473	0.253
474	0.253
474	0.253
475	0.253
475	0.253
476	0.253
476	0.253
477	0.253
477	0.253
477	0.253
478	0.253
478	0.253
479	0.253
479	0.253
480	0.253
480	0.254
481	0.254
481	0.254
482	0.254
482	0.255
482	0.255
483	0.255
483	0.256
484	0.256
484	0.256
485	0.256
485	0.256
486	0.256
486	0.256
487	0.257
487	0.257
487	0.257
488	0.257
488	0.257
489	0.258
489	0.259
490	0.259
490	0.26
491	0.261
491	0.261
492	0.262
492	0.262
492	0.263
493	0.264
493	0.264
494	0.265
494	0.266
495	0.266
495	0.266
496	0.267
496	0.268
496	0.269
497	0.269
497	0.269
498	0.27
498	0.271
499	0.271
499	0.272
500	0.273
500	0.273
501	0.274
501	0.274
501	0.275
502	0.275
502	0.276
503	0.276
503	0.277
504	0.278
504	0.278
505	0.279
505	0.28
506	0.28
506	0.281
506	0.282
507	0.282
507	0.283
508	0.283
508	0.284
509	0.284
509	0.285
510	0.286
510	0.286
511	0.287
511	0.287
511	0.288
512	0.288
512	0.289
513	0.289
513	0.29
514	0.291
514	0.291
515	0.291
515	0.292
515	0.292
516	0.293
516	0.293
517	0.294
517	0.294
518	0.295
518	0.295
519	0.295
519	0.295
520	0.295
520	0.296
520	0.296
521	0.296
521	0.296
522	0.296
522	0.297
523	0.297
523	0.298
524	0.298
524	0.298
524	0.298
525	0.299
525	0.298
526	0.299
526	0.299
527	0.298
527	0.299
528	0.298
528	0.298
529	0.298
529	0.298
529	0.298
530	0.298
530	0.298
531	0.298
531	0.297
532	0.297
532	0.296
533	0.296
533	0.296
533	0.295
534	0.295
534	0.294
535	0.293
535	0.293
536	0.292
536	0.292
537	0.291
537	0.291
538	0.29
538	0.29
538	0.289
539	0.289
539	0.289
540	0.289
540	0.288
541	0.288
541	0.287
542	0.287
542	0.287
542	0.286
543	0.286
543	0.285
544	0.285
544	0.284
545	0.284
545	0.284
546	0.283
546	0.282
547	0.281
547	0.281
547	0.28
548	0.28
548	0.279
549	0.278
549	0.278
550	0.277
550	0.276
551	0.275
551	0.274
551	0.274
552	0.273
552	0.273
553	0.272
553	0.271
554	0.271
554	0.27
555	0.269
555	0.268
556	0.268
556	0.267
556	0.267
557	0.266
557	0.266
558	0.265
558	0.265
559	0.265
559	0.264
560	0.264
560	0.264
560	0.263
561	0.263
561	0.262
562	0.261
562	0.26
563	0.259
563	0.259
564	0.258
564	0.257
564	0.256
565	0.256
565	0.255
566	0.254
566	0.254
567	0.254
567	0.253
568	0.253
568	0.252
568	0.251
569	0.251
569	0.25
570	0.249
570	0.248
571	0.248
571	0.247
572	0.246
572	0.246
573	0.245
573	0.245
573	0.245
574	0.244
574	0.244
575	0.244
575	0.243
576	0.243
576	0.242
577	0.241
577	0.24
577	0.24
578	0.239
578	0.238
579	0.238
579	0.238
580	0.237
580	0.236
581	0.236
581	0.235
581	0.235
582	0.235
582	0.235
583	0.235
583	0.235
584	0.234
584	0.232
585	0.232
585	0.232
585	0.231
586	0.231
586	0.23
587	0.23
587	0.229
588	0.229
588	0.228
589	0.228
589	0.228
590	0.227
590	0.227
590	0.227
591	0.227
591	0.226
592	0.225
592	0.224
593	0.223
593	0.223
594	0.222
594	0.221
594	0.221
595	0.22
595	0.22
596	0.219
596	0.219
597	0.22
597	0.22
598	0.22
598	0.22
598	0.22
599	0.22
599	0.22
600	0.219
600	0.219
601	0.219
601	0.218
602	0.217
602	0.216
602	0.216
603	0.216
603	0.215
604	0.215
604	0.215
605	0.215
605	0.215
606	0.215
606	0.214
606	0.213
607	0.213
607	0.213
608	0.212
608	0.211
609	0.211
609	0.211
610	0.21
610	0.21
610	0.209
611	0.209
611	0.209
612	0.209
612	0.209
613	0.21
613	0.21
614	0.209
614	0.209
614	0.209
615	0.209
615	0.209
616	0.209
616	0.209
617	0.208
617	0.208
618	0.208
618	0.208
618	0.208
619	0.208
619	0.208
620	0.208
620	0.208
621	0.207
621	0.207
622	0.206
622	0.206
622	0.205
623	0.205
623	0.205
624	0.204
624	0.204
625	0.204
625	0.203
626	0.203
626	0.203
626	0.203
627	0.203
627	0.203
628	0.203
628	0.202
629	0.202
629	0.202
630	0.201
630	0.201
630	0.201
631	0.201
631	0.201
632	0.2
632	0.2
633	0.2
633	0.2
634	0.2
634	0.201
634	0.201
635	0.201
635	0.2
636	0.201
636	0.201
637	0.2
637	0.2
638	0.2
638	0.2
638	0.199
639	0.199
639	0.198
640	0.198
640	0.198
641	0.197
641	0.197
642	0.197
642	0.197
642	0.197
643	0.197
643	0.197
644	0.197
644	0.197
645	0.197
645	0.197
646	0.198
646	0.198
646	0.199
647	0.199
647	0.199
648	0.198
648	0.198
649	0.198
649	0.197
650	0.197
650	0.197
650	0.197
651	0.197
651	0.196
652	0.196
652	0.196
653	0.197
653	0.198
653	0.204
654	0.159
654	0.127
655	0.129
655	0.129
656	0.129
656	0.13
657	0.13
657	0.13
657	0.13
658	0.129
658	0.119
659	0.15
659	0.194
660	0.197
660	0.197
661	0.196
661	0.196
661	0.195
662	0.195
662	0.194
663	0.194
663	0.194
664	0.194
664	0.194
665	0.194
665	0.194
665	0.194
666	0.194
666	0.195
667	0.195
667	0.195
668	0.195
668	0.195
669	0.195
669	0.195
669	0.196
670	0.196
670	0.196
671	0.195
671	0.195
672	0.194
672	0.194
672	0.194
673	0.193
673	0.193
674	0.193
674	0.192
675	0.192
675	0.192
676	0.192
676	0.193
676	0.193
677	0.194
677	0.194
678	0.194
678	0.194
679	0.194
679	0.194
680	0.194
680	0.194
680	0.194
681	0.194
681	0.195
682	0.195
682	0.195
683	0.195
683	0.196
684	0.196
684	0.195
684	0.195
685	0.196
685	0.196
686	0.196
686	0.195
687	0.195
687	0.195
687	0.196
688	0.196
688	0.196
689	0.197
689	0.198
690	0.198
690	0.198
691	0.198
691	0.198
691	0.199
692	0.199
692	0.199
693	0.199
693	0.2
694	0.199
694	0.199
695	0.2
695	0.201
695	0.201
696	0.201
696	0.201
697	0.202
697	0.201
698	0.201
698	0.201
698	0.201
699	0.201
699	0.2
700	0.2
700	0.199
701	0.199
701	0.198
702	0.198
702	0.197
702	0.197
703	0.196
703	0.196
704	0.195
704	0.196
705	0.196
705	0.196
705	0.196
706	0.196
706	0.197
707	0.197
707	0.197
708	0.198
708	0.198
709	0.198
709	0.197
709	0.197
710	0.197
710	0.197
711	0.197
711	0.197
712	0.197
712	0.197
713	0.197
713	0.197
713	0.198
714	0.198
714	0.198
715	0.198
715	0.197
716	0.197
716	0.197
716	0.196
717	0.195
717	0.195
718	0.194
718	0.194
719	0.194
719	0.194
720	0.195
720	0.196
720	0.196
721	0.197
721	0.198
722	0.199
722	0.199
723	0.199
723	0.199
723	0.199
724	0.199
724	0.198
725	0.197
725	0.196
726	0.196
726	0.195
727	0.195
727	0.194
727	0.194
728	0.194
728	0.194
729	0.195
729	0.195
730	0.196
730	0.197
730	0.197
731	0.198
731	0.198
732	0.199
732	0.2
733	0.2
733	0.2
734	0.2
734	0.201
734	0.201
735	0.201
735	0.201
736	0.201
736	0.201
737	0.2
737	0.2
737	0.2
738	0.199
738	0.199
739	0.198
739	0.198
740	0.198
740	0.198
741	0.198
741	0.198
741	0.198
742	0.198
742	0.199
743	0.199
743	0.2
744	0.2
744	0.201
744	0.201
745	0.201
745	0.202
746	0.202
746	0.202
747	0.203
747	0.203
748	0.203
748	0.203
748	0.203
749	0.203
749	0.203
750	0.204
750	0.203
751	0.203
751	0.203
751	0.203
752	0.203
752	0.202
753	0.202
753	0.201
754	0.201
754	0.2
754	0.2
755	0.2
755	0.2
756	0.199
756	0.198
757	0.198
757	0.198
758	0.198
758	0.198
758	0.199
759	0.199
759	0.199
760	0.199
760	0.199
761	0.199
761	0.199
761	0.2
762	0.2
762	0.2
763	0.2
763	0.2
764	0.2
764	0.2
764	0.2
765	0.2
765	0.199
766	0.199
766	0.199
767	0.199
767	0.198
768	0.198
768	0.198
768	0.198
769	0.198
769	0.199
770	0.199
770	0.2
771	0.2
771	0.201
771	0.201
772	0.202
772	0.202
773	0.203
773	0.203
774	0.204
774	0.204
775	0.204
775	0.205
775	0.205
776	0.206
776	0.206
777	0.206
777	0.206
778	0.206
778	0.206
778	0.206
779	0.205
779	0.205
780	0.204
780	0.203
781	0.203
781	0.202
781	0.202
782	0.202
782	0.202
783	0.202
783	0.203
784	0.203
784	0.203
784	0.204
785	0.204
785	0.204
786	0.205
786	0.205
787	0.206
787	0.206
788	0.206
788	0.206
788	0.205
789	0.205
789	0.205
790	0.205
790	0.205
791	0.204
791	0.204
791	0.204
792	0.205
792	0.205
793	0.205
793	0.205
794	0.205
794	0.205
794	0.205
795	0.205
795	0.205
796	0.206
796	0.206
797	0.205
797	0.205
797	0.206
798	0.206
798	0.206
799	0.206
799	0.206
800	0.206
800	0.205
801	0.205
801	0.205
801	0.205
802	0.205
802	0.205
803	0.205
803	0.205
804	0.205
804	0.206
804	0.206
805	0.206
805	0.206
806	0.207
806	0.207
807	0.207
807	0.207
807	0.207
808	0.208
808	0.208
809	0.208
809	0.208
810	0.209
810	0.209
810	0.209
811	0.209
811	0.209
812	0.21
812	0.21
813	0.21
813	0.21
813	0.21
814	0.21
814	0.211
815	0.211
815	0.211
816	0.211
816	0.21
817	0.209
817	0.209
817	0.208
818	0.207
818	0.207
819	0.207
819	0.206
820	0.205
820	0.205
820	0.205
821	0.205
821	0.205
822	0.206
822	0.206
823	0.207
823	0.207
823	0.208
824	0.209
824	0.21
825	0.211
825	0.212
826	0.213
826	0.213
826	0.214
827	0.214
827	0.214
828	0.214
828	0.214
829	0.214
829	0.214
829	0.214
830	0.215
830	0.215
831	0.215
831	0.215
832	0.215
832	0.215
832	0.215
833	0.215
833	0.215
834	0.214
834	0.214
835	0.213
835	0.212
835	0.211
836	0.211
836	0.21
837	0.209
837	0.208
838	0.208
838	0.207
839	0.206
839	0.206
839	0.205
840	0.204
840	0.203
841	0.202
841	0.202
842	0.201
842	0.201
842	0.201
843	0.2
843	0.2
844	0.2
844	0.201
845	0.201
845	0.201
845	0.202
846	0.202
846	0.202
847	0.203
847	0.203
848	0.203
848	0.203
848	0.203
849	0.203
849	0.202
850	0.202
850	0.201
851	0.201
851	0.2
851	0.199
852	0.199
852	0.198
853	0.197
853	0.197
854	0.197
854	0.197
854	0.198
855	0.198
855	0.199
856	0.199
856	0.2
857	0.201
857	0.201
857	0.201
858	0.201
858	0.201
859	0.2
859	0.2
860	0.199
860	0.198
860	0.197
861	0.195
861	0.194
862	0.193
862	0.192
863	0.192
863	0.191
863	0.191
864	0.191
864	0.191
865	0.191
865	0.191
866	0.192
866	0.192
866	0.192
867	0.191
867	0.191
868	0.191
868	0.191
869	0.19
869	0.189
869	0.189
870	0.188
870	0.188
871	0.187
871	0.188
872	0.188
872	0.188
872	0.188
873	0.188
873	0.188
874	0.188
874	0.188
875	0.187
875	0.187
875	0.187
876	0.186
876	0.186
877	0.186
877	0.186
878	0.186
878	0.187
878	0.187
879	0.188
879	0.188
880	0.189
880	0.189
881	0.189
881	0.189
881	0.189
882	0.188
882	0.188
883	0.188
883	0.187
884	0.187
884	0.186
884	0.186
885	0.185
885	0.184
886	0.184
886	0.183
887	0.182
887	0.182
887	0.181
888	0.18
888	0.179
889	0.178
889	0.178
890	0.178
890	0.178
890	0.177
891	0.177
891	0.177
892	0.176
892	0.176
893	0.176
893	0.176
893	0.175
894	0.175
894	0.174
895	0.174
895	0.174
895	0.174
896	0.173
896	0.173
897	0.173
897	0.172
898	0.172
898	0.171
898	0.171
899	0.171
899	0.171
900	0.17
900	0.17
901	0.17
901	0.17
901	0.17
902	0.17
902	0.17
903	0.17
903	0.17
904	0.17
904	0.169
904	0.169
905	0.169
905	0.17
906	0.17
906	0.17
907	0.171
907	0.172
907	0.172
908	0.172
908	0.173
909	0.173
909	0.173
910	0.173
910	0.173
910	0.172
911	0.172
911	0.171
912	0.17
912	0.17
913	0.169
913	0.169
913	0.168
914	0.168
914	0.167
915	0.167
915	0.166
916	0.166
916	0.165
916	0.164
917	0.164
917	0.163
918	0.162
918	0.161
918	0.161
919	0.16
919	0.159
920	0.158
920	0.158
921	0.157
921	0.157
921	0.156
922	0.155
922	0.155
923	0.155
923	0.155
924	0.155
924	0.156
924	0.156
925	0.156
925	0.156
926	0.156
926	0.157
927	0.157
927	0.157
927	0.157
928	0.157
928	0.157
929	0.157
929	0.157
930	0.156
930	0.156
930	0.156
931	0.155
931	0.155
932	0.155
932	0.154
933	0.154
933	0.154
933	0.153
934	0.153
934	0.153
935	0.153
935	0.153
935	0.152
936	0.152
936	0.152
937	0.151
937	0.151
938	0.15
938	0.15
938	0.149
939	0.148
939	0.147
940	0.147
940	0.146
941	0.145
941	0.145
941	0.144
942	0.144
942	0.143
943	0.143
943	0.142
944	0.142
944	0.141
944	0.141
945	0.141
945	0.14
946	0.14
946	0.14
946	0.14
947	0.14
947	0.14
948	0.141
948	0.141
949	0.141
949	0.142
949	0.142
950	0.142
950	0.141
951	0.141
951	0.14
952	0.139
952	0.138
952	0.137
953	0.135
953	0.134
954	0.133
954	0.132
955	0.131
955	0.131
955	0.13
956	0.13
956	0.13
957	0.131
957	0.131
957	0.131
958	0.132
958	0.132
959	0.132
959	0.133
960	0.133
960	0.133
960	0.133
961	0.133
961	0.133
962	0.133
962	0.133
963	0.133
963	0.133
963	0.133
964	0.133
964	0.133
965	0.133
965	0.133
966	0.134
966	0.134
966	0.134
967	0.134
967	0.134
968	0.134
968	0.134
968	0.134
969	0.133
969	0.132
970	0.132
970	0.131
971	0.13
971	0.129
971	0.128
972	0.127
972	0.126
973	0.125
973	0.124
974	0.124
974	0.123
974	0.123
975	0.123
975	0.123
976	0.123
976	0.123
976	0.122
977	0.122
977	0.122
978	0.121
978	0.121
979	0.12
979	0.12
979	0.119
980	0.119
980	0.118
981	0.117
981	0.117
982	0.117
982	0.117
982	0.117
983	0.117
983	0.117
984	0.117
984	0.117
984	0.117
985	0.117
985	0.117
986	0.117
986	0.117
987	0.116
987	0.116
987	0.116
988	0.115
988	0.115
989	0.114
989	0.114
990	0.114
990	0.113
990	0.113
991	0.113
991	0.113
992	0.112
992	0.112
992	0.111
993	0.111
993	0.111
994	0.11
994	0.11
995	0.11
995	0.109
995	0.109
996	0.109
996	0.109
997	0.109
997	0.109
997	0.109
998	0.11
998	0.11
999	0.11
999	0.111
1000	0.111
1000	0.111
1000	0.111
1001	0.111
1001	0.111
1002	0.111
1002	0.11
1003	0.11
1003	0.11
1003	0.109
1004	0.108
1004	0.107
1005	0.106
1005	0.106
1005	0.105
1006	0.104
1006	0.104
1007	0.104
1007	0.103
1008	0.103
1008	0.104
1008	0.104
1009	0.104
1009	0.105
1010	0.105
1010	0.106
1010	0.107
1011	0.107
1011	0.107
1012	0.108
1012	0.108
1013	0.108
1013	0.108
1013	0.107
1014	0.107
1014	0.106
1015	0.106
1015	0.105
1016	0.104
1016	0.104
1016	0.103
1017	0.102
1017	0.102
1018	0.101
1018	0.101
1018	0.1
1019	0.1
1019	0.1
1020	0.1
1020	0.099
1021	0.1
1021	0.1
1021	0.1
1022	0.1
1022	0.1
1023	0.101
1023	0.101
1023	0.101
1024	0.101
1024	0.101
1025	0.101
1025	0.101
1026	0.101
1026	0.1
1026	0.1
1027	0.1
1027	0.099
1028	0.099
1028	0.099
1028	0.099
1029	0.099
1029	0.098
1030	0.098
1030	0.098
1031	0.098
1031	0.098
1031	0.098
1032	0.098
1032	0.098
1033	0.098
1033	0.098
1033	0.098
1034	0.098
1034	0.097
1035	0.097
1035	0.096
1036	0.096
1036	0.095
1036	0.095
1037	0.095
1037	0.095
1038	0.094
1038	0.094
1039	0.093
1039	0.093
1039	0.093
1040	0.093
1040	0.093
1041	0.093
1041	0.093
1041	0.093
1042	0.093
1042	0.093
1043	0.093
1043	0.093
1044	0.093
1044	0.093
1044	0.093
1045	0.094
1045	0.094
1046	0.094
1046	0.094
1046	0.095
1047	0.095
1047	0.095
1048	0.095
1048	0.096
1049	0.096
1049	0.096
1049	0.096
1050	0.096
1050	0.096
1051	0.096
1051	0.096
1051	0.095
1052	0.095
1052	0.095
1053	0.094
1053	0.093
1053	0.093
1054	0.092
1054	0.092
1055	0.092
1055	0.091
1056	0.091
1056	0.09
1056	0.09
1057	0.089
1057	0.089
1058	0.088
1058	0.087
1058	0.087
1059	0.086
1059	0.086
1060	0.085
1060	0.084
1061	0.084
1061	0.084
1061	0.084
1062	0.084
1062	0.084
1063	0.083
1063	0.083
1063	0.083
1064	0.083
1064	0.083
1065	0.083
1065	0.082
1066	0.082
1066	0.082
1066	0.082
1067	0.081
1067	0.081
1068	0.08
1068	0.08
1068	0.08
1069	0.079
1069	0.079
1070	0.078
1070	0.078
1071	0.078
1071	0.077
1071	0.077
1072	0.076
1072	0.075
1073	0.075
1073	0.074
1073	0.073
1074	0.073
1074	0.073
1075	0.073
1075	0.073
1076	0.073
1076	0.074
1076	0.073
1077	0.074
1077	0.074
1078	0.074
1078	0.074
1078	0.074
1079	0.074
1079	0.073
1080	0.073
1080	0.073
1080	0.073
1081	0.073
1081	0.073
1082	0.074
1082	0.074
1083	0.074
1083	0.074
1083	0.074
1084	0.075
1084	0.075
1085	0.075
1085	0.075
1085	0.075
1086	0.075
1086	0.074
1087	0.074
1087	0.073
1088	0.073
1088	0.073
1088	0.073
1089	0.072
1089	0.072
1090	0.071
1090	0.071
1090	0.07
1091	0.07
1091	0.069
1092	0.07
1092	0.07
1092	0.07
1093	0.069
1093	0.069
1094	0.07
1094	0.069
1095	0.069
1095	0.069
1095	0.068
1096	0.068
1096	0.067
1097	0.066
1097	0.066
1097	0.066
1098	0.066
1098	0.064
1099	0.064
1099	0.063
1100	0.062
1100	0.061
1100	0.06
1101	0.059
1101	0.06
1102	0.059
1102	0.057
1102	0.056
1103	0.056
1103	0.056
1104	0.056
1104	0.057
1104	0.056
1105	0.055
1105	0.054
1106	0.052
1106	0.052
1107	0.052
1107	0.052
1107	0.05
1108	0.05
1108	0.048
1109	0.047
1109	0.047
1109	0.047
1110	0.048
1110	0.05
1111	0.048
1111	0.044
