Data from reversibility-20sec_Absorbance__4059__000000000004059.txt Node

Date: Wed Dec 06 10:46:06 CET 2023
User: Marek
Spectrometer: MAYP115816
Trigger mode: 0
Integration Time (sec): 2.000000E-1
Scans to average: 10
Electric dark correction enabled: true
Nonlinearity correction enabled: true
Boxcar width: 5
XAxis mode: Wavelengths
Number of Pixels in Spectrum: 2068
>>>>>Begin Spectral Data<<<<<
199	-0.069
199	-0.038
200	0.026
200	0.075
201	0.1
201	0.116
202	0.127
202	0.137
203	0.141
203	0.141
204	0.152
204	0.162
205	0.171
205	0.176
205	0.173
206	0.171
206	0.171
207	0.17
207	0.168
208	0.168
208	0.169
209	0.172
209	0.171
210	0.172
210	0.172
211	0.173
211	0.178
212	0.175
212	0.176
213	0.18
213	0.183
213	0.183
214	0.184
214	0.183
215	0.183
215	0.182
216	0.184
216	0.181
217	0.189
217	0.191
218	0.188
218	0.194
219	0.199
219	0.199
220	0.203
220	0.205
221	0.206
221	0.21
221	0.215
222	0.218
222	0.222
223	0.233
223	0.234
224	0.24
224	0.25
225	0.259
225	0.271
226	0.282
226	0.289
227	0.301
227	0.312
228	0.329
228	0.34
229	0.354
229	0.375
229	0.398
230	0.423
230	0.452
231	0.483
231	0.521
232	0.554
232	0.596
233	0.639
233	0.691
234	0.745
234	0.798
235	0.85
235	0.904
236	0.954
236	1.007
236	1.061
237	1.118
237	1.167
238	1.211
238	1.258
239	1.3
239	1.342
240	1.381
240	1.419
241	1.457
241	1.492
242	1.522
242	1.55
243	1.577
243	1.605
243	1.627
244	1.651
244	1.671
245	1.689
245	1.706
246	1.723
246	1.737
247	1.748
247	1.76
248	1.773
248	1.784
249	1.79
249	1.795
250	1.802
250	1.807
250	1.809
251	1.81
251	1.81
252	1.812
252	1.81
253	1.811
253	1.808
254	1.806
254	1.805
255	1.8
255	1.799
256	1.797
256	1.796
257	1.795
257	1.793
258	1.792
258	1.79
258	1.79
259	1.789
259	1.789
260	1.791
260	1.792
261	1.793
261	1.796
262	1.798
262	1.8
263	1.803
263	1.805
264	1.805
264	1.808
265	1.81
265	1.808
265	1.808
266	1.808
266	1.809
267	1.807
267	1.808
268	1.808
268	1.808
269	1.811
269	1.81
270	1.809
270	1.808
271	1.806
271	1.804
272	1.8
272	1.798
272	1.791
273	1.783
273	1.775
274	1.767
274	1.758
275	1.75
275	1.744
276	1.735
276	1.726
277	1.718
277	1.707
278	1.697
278	1.684
278	1.669
279	1.649
279	1.626
280	1.596
280	1.561
281	1.52
281	1.476
282	1.431
282	1.385
283	1.34
283	1.297
284	1.256
284	1.217
285	1.181
285	1.148
285	1.119
286	1.093
286	1.071
287	1.052
287	1.036
288	1.022
288	1.01
289	1
289	0.992
290	0.985
290	0.978
291	0.973
291	0.968
292	0.964
292	0.96
292	0.957
293	0.953
293	0.95
294	0.947
294	0.945
295	0.942
295	0.94
296	0.936
296	0.934
297	0.931
297	0.929
298	0.926
298	0.924
298	0.921
299	0.919
299	0.916
300	0.914
300	0.911
301	0.909
301	0.907
302	0.905
302	0.903
303	0.901
303	0.899
304	0.897
304	0.895
305	0.893
305	0.891
305	0.889
306	0.886
306	0.884
307	0.882
307	0.88
308	0.878
308	0.876
309	0.873
309	0.871
310	0.868
310	0.865
311	0.863
311	0.86
311	0.856
312	0.853
312	0.85
313	0.846
313	0.843
314	0.839
314	0.836
315	0.832
315	0.828
316	0.824
316	0.819
317	0.815
317	0.81
318	0.805
318	0.801
318	0.796
319	0.791
319	0.785
320	0.78
320	0.774
321	0.768
321	0.763
322	0.756
322	0.75
323	0.744
323	0.738
324	0.732
324	0.725
324	0.719
325	0.712
325	0.706
326	0.699
326	0.692
327	0.685
327	0.679
328	0.672
328	0.665
329	0.658
329	0.652
330	0.645
330	0.638
330	0.631
331	0.625
331	0.618
332	0.611
332	0.604
333	0.598
333	0.591
334	0.584
334	0.577
335	0.571
335	0.564
336	0.557
336	0.551
336	0.544
337	0.538
337	0.532
338	0.526
338	0.519
339	0.514
339	0.507
340	0.502
340	0.496
341	0.491
341	0.485
342	0.48
342	0.474
342	0.469
343	0.464
343	0.459
344	0.454
344	0.45
345	0.445
345	0.441
346	0.436
346	0.432
347	0.428
347	0.424
348	0.42
348	0.416
348	0.412
349	0.409
349	0.405
350	0.401
350	0.398
351	0.395
351	0.392
352	0.389
352	0.386
353	0.383
353	0.38
354	0.377
354	0.374
354	0.372
355	0.369
355	0.366
356	0.363
356	0.361
357	0.358
357	0.355
358	0.353
358	0.35
359	0.348
359	0.346
360	0.344
360	0.342
360	0.34
361	0.338
361	0.337
362	0.335
362	0.333
363	0.332
363	0.33
364	0.328
364	0.327
365	0.325
365	0.323
366	0.321
366	0.32
366	0.318
367	0.316
367	0.314
368	0.313
368	0.311
369	0.31
369	0.308
370	0.307
370	0.306
371	0.305
371	0.303
372	0.302
372	0.301
372	0.3
373	0.299
373	0.299
374	0.298
374	0.297
375	0.296
375	0.295
376	0.295
376	0.294
377	0.293
377	0.292
378	0.291
378	0.29
378	0.29
379	0.289
379	0.288
380	0.287
380	0.286
381	0.285
381	0.285
382	0.284
382	0.284
383	0.283
383	0.283
383	0.282
384	0.282
384	0.281
385	0.281
385	0.28
386	0.28
386	0.28
387	0.279
387	0.279
388	0.278
388	0.278
389	0.278
389	0.277
389	0.277
390	0.277
390	0.276
391	0.276
391	0.276
392	0.275
392	0.275
393	0.275
393	0.274
394	0.274
394	0.274
394	0.274
395	0.273
395	0.273
396	0.273
396	0.272
397	0.272
397	0.272
398	0.271
398	0.271
399	0.271
399	0.27
400	0.27
400	0.27
400	0.27
401	0.269
401	0.269
402	0.269
402	0.269
403	0.268
403	0.268
404	0.268
404	0.267
405	0.267
405	0.267
405	0.267
406	0.266
406	0.266
407	0.266
407	0.266
408	0.266
408	0.265
409	0.265
409	0.265
410	0.265
410	0.264
411	0.264
411	0.264
411	0.264
412	0.263
412	0.263
413	0.263
413	0.262
414	0.262
414	0.262
415	0.262
415	0.262
416	0.261
416	0.261
416	0.261
417	0.26
417	0.26
418	0.26
418	0.26
419	0.259
419	0.259
420	0.258
420	0.258
421	0.258
421	0.257
421	0.257
422	0.257
422	0.256
423	0.256
423	0.255
424	0.255
424	0.255
425	0.254
425	0.254
426	0.254
426	0.253
427	0.253
427	0.253
427	0.253
428	0.252
428	0.252
429	0.252
429	0.251
430	0.251
430	0.251
431	0.251
431	0.251
432	0.25
432	0.25
432	0.25
433	0.25
433	0.249
434	0.249
434	0.249
435	0.249
435	0.249
436	0.249
436	0.249
437	0.249
437	0.248
437	0.248
438	0.248
438	0.248
439	0.247
439	0.247
440	0.247
440	0.246
441	0.246
441	0.246
442	0.245
442	0.245
442	0.245
443	0.245
443	0.245
444	0.244
444	0.244
445	0.244
445	0.244
446	0.244
446	0.244
447	0.243
447	0.243
447	0.243
448	0.243
448	0.243
449	0.243
449	0.243
450	0.242
450	0.242
451	0.242
451	0.242
452	0.242
452	0.242
452	0.241
453	0.241
453	0.241
454	0.241
454	0.24
455	0.24
455	0.24
456	0.239
456	0.239
457	0.239
457	0.239
458	0.238
458	0.238
458	0.238
459	0.238
459	0.238
460	0.238
460	0.238
461	0.237
461	0.237
462	0.237
462	0.237
463	0.237
463	0.236
463	0.236
464	0.236
464	0.235
465	0.235
465	0.234
466	0.234
466	0.234
467	0.234
467	0.234
467	0.234
468	0.234
468	0.234
469	0.234
469	0.234
470	0.234
470	0.234
471	0.234
471	0.234
472	0.234
472	0.233
472	0.234
473	0.234
473	0.233
474	0.233
474	0.233
475	0.232
475	0.232
476	0.232
476	0.232
477	0.232
477	0.232
477	0.232
478	0.232
478	0.232
479	0.232
479	0.232
480	0.232
480	0.233
481	0.233
481	0.233
482	0.233
482	0.233
482	0.233
483	0.233
483	0.233
484	0.233
484	0.233
485	0.233
485	0.233
486	0.233
486	0.233
487	0.233
487	0.233
487	0.233
488	0.234
488	0.234
489	0.234
489	0.234
490	0.235
490	0.235
491	0.235
491	0.236
492	0.236
492	0.236
492	0.237
493	0.237
493	0.238
494	0.238
494	0.238
495	0.239
495	0.239
496	0.239
496	0.24
496	0.24
497	0.241
497	0.241
498	0.241
498	0.242
499	0.242
499	0.242
500	0.243
500	0.244
501	0.244
501	0.244
501	0.244
502	0.244
502	0.245
503	0.245
503	0.245
504	0.246
504	0.247
505	0.247
505	0.248
506	0.248
506	0.249
506	0.249
507	0.25
507	0.25
508	0.25
508	0.251
509	0.251
509	0.251
510	0.251
510	0.252
511	0.252
511	0.253
511	0.253
512	0.253
512	0.254
513	0.254
513	0.255
514	0.256
514	0.256
515	0.257
515	0.257
515	0.257
516	0.258
516	0.258
517	0.259
517	0.259
518	0.259
518	0.259
519	0.259
519	0.259
520	0.26
520	0.26
520	0.26
521	0.26
521	0.26
522	0.261
522	0.261
523	0.262
523	0.262
524	0.263
524	0.263
524	0.263
525	0.263
525	0.263
526	0.264
526	0.264
527	0.264
527	0.264
528	0.264
528	0.265
529	0.265
529	0.265
529	0.265
530	0.265
530	0.265
531	0.265
531	0.265
532	0.265
532	0.265
533	0.264
533	0.264
533	0.264
534	0.264
534	0.263
535	0.263
535	0.263
536	0.263
536	0.262
537	0.262
537	0.262
538	0.263
538	0.263
538	0.262
539	0.262
539	0.263
540	0.263
540	0.263
541	0.262
541	0.262
542	0.262
542	0.262
542	0.262
543	0.262
543	0.262
544	0.261
544	0.261
545	0.261
545	0.261
546	0.261
546	0.261
547	0.26
547	0.26
547	0.26
548	0.259
548	0.259
549	0.259
549	0.259
550	0.258
550	0.258
551	0.257
551	0.257
551	0.257
552	0.257
552	0.256
553	0.256
553	0.256
554	0.256
554	0.255
555	0.255
555	0.254
556	0.254
556	0.254
556	0.254
557	0.254
557	0.254
558	0.254
558	0.254
559	0.254
559	0.254
560	0.254
560	0.254
560	0.254
561	0.254
561	0.253
562	0.253
562	0.252
563	0.251
563	0.251
564	0.25
564	0.25
564	0.249
565	0.249
565	0.249
566	0.248
566	0.248
567	0.248
567	0.248
568	0.247
568	0.247
568	0.247
569	0.246
569	0.246
570	0.245
570	0.244
571	0.244
571	0.244
572	0.243
572	0.243
573	0.243
573	0.242
573	0.242
574	0.242
574	0.242
575	0.242
575	0.242
576	0.242
576	0.241
577	0.24
577	0.24
577	0.239
578	0.239
578	0.238
579	0.238
579	0.239
580	0.238
580	0.238
581	0.237
581	0.237
581	0.237
582	0.237
582	0.237
583	0.237
583	0.237
584	0.236
584	0.235
585	0.235
585	0.235
585	0.234
586	0.234
586	0.234
587	0.233
587	0.232
588	0.232
588	0.232
589	0.231
589	0.231
590	0.231
590	0.231
590	0.231
591	0.231
591	0.231
592	0.23
592	0.229
593	0.229
593	0.229
594	0.228
594	0.227
594	0.227
595	0.227
595	0.226
596	0.226
596	0.226
597	0.227
597	0.227
598	0.227
598	0.227
598	0.228
599	0.228
599	0.227
600	0.227
600	0.226
601	0.226
601	0.226
602	0.225
602	0.225
602	0.224
603	0.223
603	0.223
604	0.223
604	0.223
605	0.223
605	0.223
606	0.223
606	0.222
606	0.222
607	0.222
607	0.222
608	0.221
608	0.221
609	0.22
609	0.22
610	0.22
610	0.219
610	0.219
611	0.219
611	0.219
612	0.219
612	0.22
613	0.22
613	0.22
614	0.22
614	0.219
614	0.219
615	0.219
615	0.219
616	0.219
616	0.219
617	0.219
617	0.218
618	0.218
618	0.218
618	0.218
619	0.218
619	0.218
620	0.218
620	0.218
621	0.217
621	0.217
622	0.216
622	0.216
622	0.215
623	0.215
623	0.215
624	0.215
624	0.215
625	0.214
625	0.214
626	0.215
626	0.214
626	0.215
627	0.215
627	0.215
628	0.215
628	0.214
629	0.214
629	0.214
630	0.214
630	0.213
630	0.213
631	0.213
631	0.213
632	0.213
632	0.213
633	0.213
633	0.213
634	0.213
634	0.213
634	0.213
635	0.213
635	0.213
636	0.213
636	0.213
637	0.213
637	0.213
638	0.213
638	0.212
638	0.212
639	0.211
639	0.211
640	0.211
640	0.211
641	0.211
641	0.21
642	0.21
642	0.21
642	0.21
643	0.21
643	0.211
644	0.211
644	0.211
645	0.211
645	0.211
646	0.211
646	0.211
646	0.211
647	0.211
647	0.211
648	0.211
648	0.211
649	0.21
649	0.21
650	0.21
650	0.21
650	0.21
651	0.21
651	0.209
652	0.209
652	0.209
653	0.21
653	0.211
653	0.217
654	0.169
654	0.135
655	0.137
655	0.137
656	0.138
656	0.138
657	0.138
657	0.139
657	0.139
658	0.138
658	0.127
659	0.161
659	0.208
660	0.212
660	0.211
661	0.211
661	0.21
661	0.21
662	0.209
662	0.209
663	0.208
663	0.208
664	0.208
664	0.208
665	0.208
665	0.208
665	0.208
666	0.208
666	0.208
667	0.208
667	0.209
668	0.209
668	0.209
669	0.209
669	0.209
669	0.21
670	0.21
670	0.209
671	0.209
671	0.209
672	0.208
672	0.208
672	0.208
673	0.207
673	0.207
674	0.207
674	0.206
675	0.206
675	0.206
676	0.206
676	0.207
676	0.207
677	0.207
677	0.207
678	0.207
678	0.207
679	0.207
679	0.208
680	0.208
680	0.208
680	0.208
681	0.208
681	0.209
682	0.209
682	0.209
683	0.209
683	0.21
684	0.21
684	0.21
684	0.209
685	0.21
685	0.21
686	0.21
686	0.21
687	0.21
687	0.21
687	0.211
688	0.211
688	0.211
689	0.212
689	0.213
690	0.213
690	0.213
691	0.213
691	0.213
691	0.213
692	0.213
692	0.214
693	0.214
693	0.214
694	0.214
694	0.214
695	0.215
695	0.216
695	0.216
696	0.216
696	0.216
697	0.216
697	0.216
698	0.216
698	0.215
698	0.215
699	0.215
699	0.215
700	0.214
700	0.214
701	0.214
701	0.213
702	0.213
702	0.212
702	0.212
703	0.212
703	0.212
704	0.212
704	0.212
705	0.212
705	0.212
705	0.213
706	0.213
706	0.213
707	0.214
707	0.214
708	0.214
708	0.214
709	0.214
709	0.214
709	0.213
710	0.213
710	0.213
711	0.213
711	0.213
712	0.213
712	0.213
713	0.213
713	0.214
713	0.214
714	0.214
714	0.214
715	0.214
715	0.214
716	0.213
716	0.213
716	0.213
717	0.212
717	0.212
718	0.211
718	0.211
719	0.211
719	0.211
720	0.212
720	0.213
720	0.214
721	0.215
721	0.216
722	0.216
722	0.217
723	0.217
723	0.218
723	0.218
724	0.218
724	0.217
725	0.216
725	0.215
726	0.214
726	0.214
727	0.213
727	0.213
727	0.213
728	0.213
728	0.213
729	0.214
729	0.215
730	0.215
730	0.216
730	0.217
731	0.217
731	0.218
732	0.219
732	0.219
733	0.219
733	0.22
734	0.22
734	0.22
734	0.221
735	0.221
735	0.221
736	0.22
736	0.22
737	0.22
737	0.219
737	0.219
738	0.219
738	0.218
739	0.217
739	0.217
740	0.217
740	0.217
741	0.217
741	0.218
741	0.218
742	0.218
742	0.218
743	0.219
743	0.219
744	0.22
744	0.22
744	0.22
745	0.22
745	0.22
746	0.221
746	0.221
747	0.221
747	0.222
748	0.222
748	0.222
748	0.222
749	0.222
749	0.222
750	0.222
750	0.222
751	0.222
751	0.222
751	0.222
752	0.221
752	0.221
753	0.22
753	0.22
754	0.22
754	0.219
754	0.219
755	0.219
755	0.219
756	0.219
756	0.218
757	0.218
757	0.218
758	0.218
758	0.218
758	0.219
759	0.219
759	0.219
760	0.219
760	0.218
761	0.218
761	0.219
761	0.219
762	0.219
762	0.219
763	0.219
763	0.219
764	0.219
764	0.219
764	0.219
765	0.219
765	0.219
766	0.219
766	0.219
767	0.218
767	0.218
768	0.217
768	0.217
768	0.217
769	0.217
769	0.218
770	0.218
770	0.218
771	0.219
771	0.219
771	0.219
772	0.22
772	0.221
773	0.221
773	0.221
774	0.222
774	0.222
775	0.223
775	0.224
775	0.224
776	0.224
776	0.225
777	0.225
777	0.225
778	0.225
778	0.224
778	0.224
779	0.224
779	0.223
780	0.222
780	0.222
781	0.222
781	0.221
781	0.221
782	0.221
782	0.221
783	0.221
783	0.222
784	0.222
784	0.222
784	0.223
785	0.223
785	0.223
786	0.223
786	0.224
787	0.224
787	0.224
788	0.224
788	0.224
788	0.224
789	0.224
789	0.224
790	0.223
790	0.223
791	0.223
791	0.222
791	0.222
792	0.223
792	0.223
793	0.223
793	0.223
794	0.223
794	0.223
794	0.223
795	0.224
795	0.224
796	0.225
796	0.225
797	0.225
797	0.225
797	0.225
798	0.225
798	0.226
799	0.226
799	0.226
800	0.225
800	0.225
801	0.224
801	0.224
801	0.224
802	0.224
802	0.225
803	0.225
803	0.225
804	0.225
804	0.226
804	0.226
805	0.226
805	0.226
806	0.226
806	0.227
807	0.227
807	0.227
807	0.227
808	0.227
808	0.228
809	0.228
809	0.228
810	0.228
810	0.228
810	0.228
811	0.228
811	0.228
812	0.229
812	0.229
813	0.23
813	0.23
813	0.231
814	0.232
814	0.232
815	0.233
815	0.233
816	0.233
816	0.233
817	0.232
817	0.231
817	0.231
818	0.23
818	0.229
819	0.229
819	0.228
820	0.228
820	0.227
820	0.227
821	0.227
821	0.228
822	0.228
822	0.228
823	0.229
823	0.229
823	0.23
824	0.231
824	0.232
825	0.233
825	0.234
826	0.235
826	0.236
826	0.236
827	0.237
827	0.237
828	0.238
828	0.238
829	0.237
829	0.237
829	0.237
830	0.237
830	0.237
831	0.238
831	0.238
832	0.238
832	0.238
832	0.238
833	0.238
833	0.238
834	0.237
834	0.237
835	0.237
835	0.236
835	0.236
836	0.235
836	0.235
837	0.235
837	0.234
838	0.234
838	0.233
839	0.232
839	0.232
839	0.231
840	0.23
840	0.23
841	0.229
841	0.229
842	0.228
842	0.228
842	0.228
843	0.228
843	0.229
844	0.229
844	0.229
845	0.23
845	0.23
845	0.23
846	0.231
846	0.231
847	0.231
847	0.232
848	0.232
848	0.232
848	0.232
849	0.232
849	0.231
850	0.231
850	0.231
851	0.231
851	0.231
851	0.23
852	0.23
852	0.23
853	0.23
853	0.23
854	0.23
854	0.23
854	0.231
855	0.231
855	0.232
856	0.233
856	0.233
857	0.233
857	0.234
857	0.234
858	0.234
858	0.233
859	0.233
859	0.232
860	0.231
860	0.23
860	0.229
861	0.229
861	0.228
862	0.227
862	0.227
863	0.227
863	0.227
863	0.227
864	0.227
864	0.227
865	0.228
865	0.228
866	0.229
866	0.229
866	0.229
867	0.23
867	0.23
868	0.23
868	0.229
869	0.229
869	0.228
869	0.228
870	0.227
870	0.227
871	0.226
871	0.226
872	0.226
872	0.226
872	0.226
873	0.226
873	0.226
874	0.226
874	0.226
875	0.226
875	0.225
875	0.225
876	0.225
876	0.225
877	0.224
877	0.224
878	0.224
878	0.225
878	0.226
879	0.226
879	0.227
880	0.227
880	0.227
881	0.227
881	0.228
881	0.228
882	0.228
882	0.227
883	0.227
883	0.227
884	0.227
884	0.227
884	0.227
885	0.226
885	0.226
886	0.226
886	0.226
887	0.225
887	0.225
887	0.224
888	0.224
888	0.224
889	0.223
889	0.223
890	0.223
890	0.223
890	0.222
891	0.222
891	0.222
892	0.222
892	0.222
893	0.221
893	0.221
893	0.221
894	0.22
894	0.22
895	0.22
895	0.219
895	0.219
896	0.219
896	0.218
897	0.218
897	0.217
898	0.216
898	0.216
898	0.215
899	0.215
899	0.214
900	0.214
900	0.214
901	0.213
901	0.213
901	0.213
902	0.213
902	0.213
903	0.213
903	0.213
904	0.213
904	0.214
904	0.213
905	0.214
905	0.214
906	0.214
906	0.215
907	0.215
907	0.216
907	0.216
908	0.216
908	0.217
909	0.217
909	0.217
910	0.217
910	0.216
910	0.216
911	0.215
911	0.214
912	0.214
912	0.213
913	0.213
913	0.212
913	0.212
914	0.211
914	0.211
915	0.21
915	0.21
916	0.209
916	0.209
916	0.208
917	0.208
917	0.207
918	0.206
918	0.206
918	0.205
919	0.204
919	0.203
920	0.203
920	0.202
921	0.202
921	0.202
921	0.201
922	0.201
922	0.201
923	0.201
923	0.202
924	0.202
924	0.203
924	0.203
925	0.203
925	0.204
926	0.204
926	0.204
927	0.204
927	0.204
927	0.204
928	0.204
928	0.204
929	0.203
929	0.203
930	0.202
930	0.202
930	0.201
931	0.201
931	0.201
932	0.201
932	0.2
933	0.2
933	0.2
933	0.2
934	0.2
934	0.2
935	0.2
935	0.2
935	0.2
936	0.2
936	0.199
937	0.199
937	0.199
938	0.198
938	0.198
938	0.197
939	0.196
939	0.195
940	0.195
940	0.194
941	0.193
941	0.192
941	0.192
942	0.191
942	0.191
943	0.19
943	0.189
944	0.188
944	0.188
944	0.188
945	0.187
945	0.186
946	0.186
946	0.185
946	0.185
947	0.184
947	0.184
948	0.185
948	0.185
949	0.185
949	0.185
949	0.185
950	0.185
950	0.185
951	0.185
951	0.184
952	0.184
952	0.183
952	0.182
953	0.181
953	0.18
954	0.179
954	0.178
955	0.177
955	0.176
955	0.176
956	0.176
956	0.175
957	0.176
957	0.175
957	0.176
958	0.176
958	0.176
959	0.176
959	0.176
960	0.176
960	0.176
960	0.176
961	0.176
961	0.175
962	0.175
962	0.175
963	0.174
963	0.174
963	0.174
964	0.174
964	0.174
965	0.174
965	0.174
966	0.174
966	0.174
966	0.175
967	0.175
967	0.175
968	0.175
968	0.176
968	0.176
969	0.175
969	0.175
970	0.175
970	0.174
971	0.173
971	0.173
971	0.172
972	0.171
972	0.171
973	0.17
973	0.169
974	0.169
974	0.168
974	0.168
975	0.168
975	0.168
976	0.168
976	0.168
976	0.167
977	0.167
977	0.166
978	0.166
978	0.165
979	0.165
979	0.164
979	0.164
980	0.163
980	0.162
981	0.161
981	0.161
982	0.16
982	0.16
982	0.16
983	0.16
983	0.16
984	0.16
984	0.16
984	0.16
985	0.159
985	0.159
986	0.159
986	0.159
987	0.159
987	0.158
987	0.158
988	0.157
988	0.157
989	0.156
989	0.155
990	0.155
990	0.154
990	0.154
991	0.153
991	0.153
992	0.152
992	0.152
992	0.151
993	0.151
993	0.151
994	0.15
994	0.149
995	0.149
995	0.149
995	0.148
996	0.148
996	0.148
997	0.148
997	0.148
997	0.148
998	0.148
998	0.148
999	0.148
999	0.149
1000	0.149
1000	0.149
1000	0.149
1001	0.149
1001	0.149
1002	0.149
1002	0.148
1003	0.148
1003	0.147
1003	0.146
1004	0.146
1004	0.145
1005	0.144
1005	0.143
1005	0.143
1006	0.142
1006	0.142
1007	0.141
1007	0.141
1008	0.141
1008	0.142
1008	0.142
1009	0.142
1009	0.143
1010	0.143
1010	0.144
1010	0.144
1011	0.145
1011	0.145
1012	0.145
1012	0.145
1013	0.145
1013	0.145
1013	0.145
1014	0.144
1014	0.144
1015	0.143
1015	0.142
1016	0.142
1016	0.141
1016	0.14
1017	0.14
1017	0.139
1018	0.138
1018	0.138
1018	0.137
1019	0.137
1019	0.137
1020	0.136
1020	0.136
1021	0.136
1021	0.136
1021	0.136
1022	0.136
1022	0.136
1023	0.136
1023	0.136
1023	0.136
1024	0.136
1024	0.135
1025	0.135
1025	0.135
1026	0.135
1026	0.134
1026	0.134
1027	0.133
1027	0.133
1028	0.133
1028	0.133
1028	0.133
1029	0.132
1029	0.132
1030	0.132
1030	0.132
1031	0.132
1031	0.132
1031	0.132
1032	0.132
1032	0.132
1033	0.132
1033	0.132
1033	0.132
1034	0.131
1034	0.131
1035	0.131
1035	0.13
1036	0.129
1036	0.129
1036	0.129
1037	0.128
1037	0.128
1038	0.127
1038	0.127
1039	0.126
1039	0.126
1039	0.126
1040	0.126
1040	0.126
1041	0.126
1041	0.126
1041	0.126
1042	0.126
1042	0.126
1043	0.126
1043	0.125
1044	0.125
1044	0.125
1044	0.125
1045	0.125
1045	0.126
1046	0.126
1046	0.126
1046	0.126
1047	0.126
1047	0.127
1048	0.127
1048	0.127
1049	0.127
1049	0.127
1049	0.127
1050	0.127
1050	0.127
1051	0.127
1051	0.127
1051	0.127
1052	0.126
1052	0.126
1053	0.125
1053	0.125
1053	0.125
1054	0.124
1054	0.124
1055	0.124
1055	0.123
1056	0.123
1056	0.122
1056	0.122
1057	0.121
1057	0.121
1058	0.12
1058	0.119
1058	0.118
1059	0.117
1059	0.117
1060	0.116
1060	0.115
1061	0.115
1061	0.114
1061	0.114
1062	0.113
1062	0.113
1063	0.113
1063	0.113
1063	0.113
1064	0.112
1064	0.112
1065	0.112
1065	0.112
1066	0.111
1066	0.111
1066	0.111
1067	0.11
1067	0.109
1068	0.109
1068	0.109
1068	0.108
1069	0.108
1069	0.108
1070	0.107
1070	0.106
1071	0.106
1071	0.105
1071	0.105
1072	0.105
1072	0.104
1073	0.103
1073	0.103
1073	0.102
1074	0.102
1074	0.103
1075	0.102
1075	0.102
1076	0.103
1076	0.103
1076	0.103
1077	0.103
1077	0.103
1078	0.103
1078	0.103
1078	0.103
1079	0.103
1079	0.102
1080	0.102
1080	0.102
1080	0.101
1081	0.101
1081	0.101
1082	0.101
1082	0.102
1083	0.102
1083	0.101
1083	0.102
1084	0.101
1084	0.101
1085	0.101
1085	0.101
1085	0.101
1086	0.1
1086	0.099
1087	0.099
1087	0.098
1088	0.098
1088	0.097
1088	0.097
1089	0.096
1089	0.095
1090	0.095
1090	0.094
1090	0.094
1091	0.094
1091	0.094
1092	0.094
1092	0.095
1092	0.095
1093	0.094
1093	0.094
1094	0.094
1094	0.093
1095	0.093
1095	0.092
1095	0.092
1096	0.091
1096	0.09
1097	0.09
1097	0.089
1097	0.089
1098	0.089
1098	0.088
1099	0.088
1099	0.088
1100	0.089
1100	0.088
1100	0.088
1101	0.088
1101	0.087
1102	0.087
1102	0.085
1102	0.084
1103	0.085
1103	0.084
1104	0.083
1104	0.083
1104	0.082
1105	0.082
1105	0.079
1106	0.077
1106	0.076
1107	0.076
1107	0.075
1107	0.074
1108	0.073
1108	0.072
1109	0.07
1109	0.069
1109	0.068
1110	0.071
1110	0.07
1111	0.07
1111	0.067
