Data from reversibility-20sec_Absorbance__1871__000000000001871.txt Node

Date: Tue Dec 05 22:36:45 CET 2023
User: Marek
Spectrometer: MAYP115816
Trigger mode: 0
Integration Time (sec): 2.000000E-1
Scans to average: 10
Electric dark correction enabled: true
Nonlinearity correction enabled: true
Boxcar width: 5
XAxis mode: Wavelengths
Number of Pixels in Spectrum: 2068
>>>>>Begin Spectral Data<<<<<
199	-0.186
199	-0.147
200	-0.077
200	-0.019
201	0.011
201	0.027
202	0.037
202	0.047
203	0.058
203	0.059
204	0.075
204	0.09
205	0.101
205	0.108
205	0.103
206	0.105
206	0.104
207	0.108
207	0.104
208	0.101
208	0.102
209	0.102
209	0.1
210	0.1
210	0.1
211	0.1
211	0.101
212	0.101
212	0.102
213	0.106
213	0.108
213	0.109
214	0.111
214	0.109
215	0.112
215	0.109
216	0.111
216	0.108
217	0.11
217	0.111
218	0.11
218	0.112
219	0.112
219	0.111
220	0.112
220	0.109
221	0.111
221	0.113
221	0.118
222	0.124
222	0.128
223	0.132
223	0.134
224	0.141
224	0.152
225	0.162
225	0.176
226	0.186
226	0.195
227	0.205
227	0.213
228	0.224
228	0.24
229	0.26
229	0.285
229	0.308
230	0.333
230	0.36
231	0.395
231	0.438
232	0.474
232	0.519
233	0.566
233	0.617
234	0.667
234	0.718
235	0.769
235	0.822
236	0.876
236	0.927
236	0.978
237	1.033
237	1.079
238	1.129
238	1.178
239	1.227
239	1.272
240	1.316
240	1.357
241	1.395
241	1.431
242	1.462
242	1.498
243	1.536
243	1.565
243	1.593
244	1.618
244	1.641
245	1.662
245	1.687
246	1.711
246	1.733
247	1.75
247	1.768
248	1.785
248	1.804
249	1.817
249	1.825
250	1.836
250	1.848
250	1.855
251	1.857
251	1.861
252	1.867
252	1.87
253	1.872
253	1.869
254	1.868
254	1.873
255	1.872
255	1.873
256	1.872
256	1.874
257	1.875
257	1.876
258	1.876
258	1.878
258	1.881
259	1.884
259	1.884
260	1.888
260	1.892
261	1.895
261	1.901
262	1.906
262	1.909
263	1.917
263	1.919
264	1.922
264	1.926
265	1.93
265	1.934
265	1.936
266	1.937
266	1.939
267	1.939
267	1.942
268	1.943
268	1.946
269	1.951
269	1.952
270	1.951
270	1.951
271	1.947
271	1.95
272	1.948
272	1.947
272	1.942
273	1.931
273	1.921
274	1.911
274	1.902
275	1.895
275	1.888
276	1.881
276	1.87
277	1.861
277	1.849
278	1.838
278	1.826
278	1.811
279	1.79
279	1.763
280	1.729
280	1.688
281	1.642
281	1.591
282	1.54
282	1.489
283	1.44
283	1.393
284	1.348
284	1.305
285	1.266
285	1.231
285	1.2
286	1.174
286	1.151
287	1.13
287	1.114
288	1.1
288	1.088
289	1.078
289	1.069
290	1.062
290	1.056
291	1.05
291	1.046
292	1.041
292	1.038
292	1.034
293	1.03
293	1.027
294	1.024
294	1.022
295	1.019
295	1.017
296	1.014
296	1.011
297	1.009
297	1.006
298	1.004
298	1.001
298	0.998
299	0.996
299	0.994
300	0.991
300	0.989
301	0.987
301	0.985
302	0.983
302	0.98
303	0.979
303	0.977
304	0.975
304	0.973
305	0.972
305	0.969
305	0.967
306	0.965
306	0.963
307	0.961
307	0.958
308	0.956
308	0.953
309	0.951
309	0.948
310	0.945
310	0.943
311	0.94
311	0.937
311	0.934
312	0.93
312	0.927
313	0.923
313	0.92
314	0.916
314	0.912
315	0.908
315	0.903
316	0.899
316	0.895
317	0.89
317	0.885
318	0.88
318	0.875
318	0.87
319	0.864
319	0.859
320	0.853
320	0.847
321	0.841
321	0.835
322	0.829
322	0.823
323	0.816
323	0.81
324	0.804
324	0.797
324	0.79
325	0.783
325	0.776
326	0.769
326	0.762
327	0.755
327	0.748
328	0.742
328	0.735
329	0.727
329	0.72
330	0.713
330	0.706
330	0.698
331	0.691
331	0.684
332	0.677
332	0.67
333	0.662
333	0.656
334	0.649
334	0.642
335	0.635
335	0.628
336	0.621
336	0.614
336	0.608
337	0.602
337	0.595
338	0.589
338	0.582
339	0.576
339	0.57
340	0.564
340	0.559
341	0.552
341	0.547
342	0.541
342	0.536
342	0.53
343	0.525
343	0.52
344	0.515
344	0.51
345	0.505
345	0.5
346	0.496
346	0.491
347	0.487
347	0.482
348	0.478
348	0.474
348	0.47
349	0.466
349	0.462
350	0.459
350	0.455
351	0.451
351	0.448
352	0.445
352	0.442
353	0.439
353	0.436
354	0.433
354	0.43
354	0.427
355	0.424
355	0.421
356	0.419
356	0.416
357	0.413
357	0.411
358	0.408
358	0.405
359	0.403
359	0.4
360	0.398
360	0.396
360	0.394
361	0.392
361	0.39
362	0.388
362	0.386
363	0.384
363	0.382
364	0.38
364	0.379
365	0.377
365	0.375
366	0.373
366	0.371
366	0.37
367	0.368
367	0.366
368	0.364
368	0.363
369	0.361
369	0.36
370	0.358
370	0.357
371	0.355
371	0.354
372	0.352
372	0.351
372	0.35
373	0.349
373	0.348
374	0.347
374	0.346
375	0.345
375	0.344
376	0.343
376	0.342
377	0.341
377	0.34
378	0.339
378	0.338
378	0.338
379	0.337
379	0.336
380	0.335
380	0.334
381	0.333
381	0.333
382	0.332
382	0.332
383	0.331
383	0.33
383	0.329
384	0.329
384	0.328
385	0.328
385	0.327
386	0.326
386	0.326
387	0.325
387	0.324
388	0.324
388	0.323
389	0.323
389	0.322
389	0.322
390	0.321
390	0.321
391	0.32
391	0.32
392	0.32
392	0.319
393	0.319
393	0.319
394	0.318
394	0.318
394	0.317
395	0.317
395	0.316
396	0.316
396	0.315
397	0.315
397	0.314
398	0.314
398	0.313
399	0.313
399	0.313
400	0.312
400	0.312
400	0.312
401	0.312
401	0.311
402	0.311
402	0.311
403	0.31
403	0.31
404	0.31
404	0.309
405	0.309
405	0.309
405	0.308
406	0.308
406	0.307
407	0.307
407	0.307
408	0.306
408	0.306
409	0.305
409	0.305
410	0.305
410	0.305
411	0.304
411	0.304
411	0.303
412	0.303
412	0.303
413	0.303
413	0.302
414	0.302
414	0.302
415	0.301
415	0.301
416	0.301
416	0.301
416	0.3
417	0.3
417	0.299
418	0.299
418	0.299
419	0.298
419	0.298
420	0.297
420	0.297
421	0.297
421	0.296
421	0.296
422	0.295
422	0.295
423	0.295
423	0.294
424	0.294
424	0.293
425	0.293
425	0.293
426	0.292
426	0.292
427	0.291
427	0.291
427	0.291
428	0.291
428	0.29
429	0.29
429	0.29
430	0.289
430	0.289
431	0.289
431	0.289
432	0.289
432	0.288
432	0.288
433	0.287
433	0.287
434	0.287
434	0.287
435	0.287
435	0.287
436	0.286
436	0.286
437	0.286
437	0.286
437	0.285
438	0.285
438	0.285
439	0.285
439	0.285
440	0.284
440	0.284
441	0.283
441	0.283
442	0.283
442	0.283
442	0.282
443	0.282
443	0.282
444	0.282
444	0.281
445	0.281
445	0.281
446	0.281
446	0.281
447	0.28
447	0.28
447	0.28
448	0.28
448	0.28
449	0.279
449	0.279
450	0.279
450	0.279
451	0.279
451	0.278
452	0.278
452	0.278
452	0.278
453	0.278
453	0.277
454	0.277
454	0.277
455	0.277
455	0.276
456	0.276
456	0.275
457	0.275
457	0.275
458	0.275
458	0.274
458	0.274
459	0.274
459	0.274
460	0.273
460	0.273
461	0.273
461	0.273
462	0.273
462	0.273
463	0.272
463	0.272
463	0.272
464	0.272
464	0.271
465	0.271
465	0.27
466	0.27
466	0.27
467	0.27
467	0.27
467	0.27
468	0.269
468	0.269
469	0.269
469	0.269
470	0.269
470	0.269
471	0.269
471	0.269
472	0.269
472	0.269
472	0.269
473	0.269
473	0.269
474	0.269
474	0.268
475	0.268
475	0.268
476	0.269
476	0.269
477	0.268
477	0.268
477	0.269
478	0.269
478	0.269
479	0.269
479	0.269
480	0.269
480	0.269
481	0.269
481	0.269
482	0.269
482	0.269
482	0.269
483	0.27
483	0.27
484	0.27
484	0.27
485	0.27
485	0.27
486	0.27
486	0.27
487	0.27
487	0.27
487	0.271
488	0.271
488	0.271
489	0.271
489	0.272
490	0.273
490	0.273
491	0.273
491	0.274
492	0.274
492	0.275
492	0.275
493	0.275
493	0.276
494	0.276
494	0.277
495	0.277
495	0.277
496	0.278
496	0.279
496	0.279
497	0.279
497	0.28
498	0.28
498	0.281
499	0.281
499	0.282
500	0.282
500	0.283
501	0.283
501	0.283
501	0.284
502	0.284
502	0.284
503	0.285
503	0.286
504	0.286
504	0.286
505	0.287
505	0.287
506	0.288
506	0.288
506	0.289
507	0.289
507	0.29
508	0.29
508	0.291
509	0.291
509	0.292
510	0.292
510	0.293
511	0.293
511	0.294
511	0.294
512	0.295
512	0.295
513	0.295
513	0.296
514	0.296
514	0.297
515	0.297
515	0.298
515	0.298
516	0.298
516	0.299
517	0.3
517	0.3
518	0.3
518	0.3
519	0.3
519	0.301
520	0.301
520	0.301
520	0.301
521	0.301
521	0.302
522	0.302
522	0.302
523	0.303
523	0.303
524	0.303
524	0.304
524	0.304
525	0.304
525	0.305
526	0.305
526	0.305
527	0.305
527	0.305
528	0.305
528	0.305
529	0.305
529	0.305
529	0.304
530	0.304
530	0.303
531	0.303
531	0.303
532	0.303
532	0.303
533	0.302
533	0.302
533	0.302
534	0.302
534	0.302
535	0.302
535	0.302
536	0.302
536	0.302
537	0.302
537	0.302
538	0.302
538	0.301
538	0.301
539	0.301
539	0.301
540	0.301
540	0.3
541	0.3
541	0.299
542	0.299
542	0.299
542	0.299
543	0.298
543	0.298
544	0.298
544	0.297
545	0.297
545	0.297
546	0.297
546	0.297
547	0.296
547	0.295
547	0.295
548	0.295
548	0.295
549	0.294
549	0.294
550	0.293
550	0.292
551	0.292
551	0.292
551	0.291
552	0.291
552	0.29
553	0.29
553	0.29
554	0.289
554	0.288
555	0.288
555	0.287
556	0.287
556	0.286
556	0.286
557	0.286
557	0.285
558	0.285
558	0.285
559	0.285
559	0.285
560	0.284
560	0.284
560	0.284
561	0.284
561	0.283
562	0.283
562	0.282
563	0.281
563	0.28
564	0.279
564	0.279
564	0.279
565	0.279
565	0.278
566	0.278
566	0.277
567	0.277
567	0.277
568	0.277
568	0.277
568	0.277
569	0.277
569	0.276
570	0.275
570	0.275
571	0.274
571	0.274
572	0.273
572	0.273
573	0.272
573	0.271
573	0.271
574	0.27
574	0.27
575	0.269
575	0.27
576	0.269
576	0.269
577	0.268
577	0.267
577	0.267
578	0.266
578	0.266
579	0.266
579	0.266
580	0.266
580	0.264
581	0.263
581	0.263
581	0.263
582	0.263
582	0.263
583	0.264
583	0.263
584	0.262
584	0.261
585	0.261
585	0.261
585	0.261
586	0.26
586	0.259
587	0.258
587	0.258
588	0.257
588	0.256
589	0.256
589	0.256
590	0.256
590	0.256
590	0.256
591	0.257
591	0.256
592	0.256
592	0.255
593	0.255
593	0.255
594	0.254
594	0.253
594	0.253
595	0.252
595	0.251
596	0.251
596	0.251
597	0.251
597	0.251
598	0.251
598	0.251
598	0.251
599	0.251
599	0.25
600	0.25
600	0.249
601	0.249
601	0.249
602	0.248
602	0.247
602	0.247
603	0.247
603	0.247
604	0.247
604	0.247
605	0.247
605	0.247
606	0.246
606	0.246
606	0.245
607	0.245
607	0.245
608	0.244
608	0.244
609	0.243
609	0.243
610	0.242
610	0.242
610	0.242
611	0.242
611	0.242
612	0.242
612	0.242
613	0.242
613	0.242
614	0.242
614	0.241
614	0.241
615	0.241
615	0.24
616	0.24
616	0.24
617	0.24
617	0.239
618	0.238
618	0.238
618	0.238
619	0.239
619	0.239
620	0.239
620	0.239
621	0.238
621	0.238
622	0.238
622	0.237
622	0.237
623	0.236
623	0.236
624	0.236
624	0.235
625	0.235
625	0.235
626	0.235
626	0.235
626	0.235
627	0.234
627	0.234
628	0.234
628	0.233
629	0.233
629	0.232
630	0.232
630	0.232
630	0.231
631	0.232
631	0.231
632	0.231
632	0.231
633	0.232
633	0.232
634	0.232
634	0.232
634	0.232
635	0.232
635	0.232
636	0.232
636	0.232
637	0.231
637	0.231
638	0.231
638	0.231
638	0.23
639	0.23
639	0.229
640	0.229
640	0.229
641	0.229
641	0.229
642	0.228
642	0.228
642	0.228
643	0.228
643	0.228
644	0.228
644	0.228
645	0.228
645	0.228
646	0.228
646	0.228
646	0.228
647	0.228
647	0.227
648	0.227
648	0.227
649	0.227
649	0.226
650	0.226
650	0.226
650	0.227
651	0.227
651	0.227
652	0.227
652	0.227
653	0.227
653	0.229
653	0.236
654	0.183
654	0.146
655	0.147
655	0.148
656	0.148
656	0.148
657	0.148
657	0.149
657	0.149
658	0.147
658	0.135
659	0.171
659	0.222
660	0.226
660	0.226
661	0.226
661	0.225
661	0.225
662	0.224
662	0.224
663	0.224
663	0.223
664	0.223
664	0.223
665	0.222
665	0.222
665	0.222
666	0.223
666	0.223
667	0.223
667	0.224
668	0.224
668	0.224
669	0.224
669	0.224
669	0.225
670	0.225
670	0.225
671	0.225
671	0.224
672	0.224
672	0.224
672	0.224
673	0.223
673	0.223
674	0.223
674	0.223
675	0.223
675	0.223
676	0.223
676	0.223
676	0.223
677	0.223
677	0.223
678	0.223
678	0.223
679	0.222
679	0.222
680	0.223
680	0.223
680	0.222
681	0.223
681	0.224
682	0.224
682	0.225
683	0.226
683	0.227
684	0.228
684	0.228
684	0.228
685	0.228
685	0.229
686	0.229
686	0.228
687	0.228
687	0.228
687	0.228
688	0.227
688	0.227
689	0.228
689	0.228
690	0.228
690	0.228
691	0.228
691	0.228
691	0.229
692	0.229
692	0.229
693	0.23
693	0.23
694	0.23
694	0.23
695	0.231
695	0.232
695	0.233
696	0.232
696	0.232
697	0.232
697	0.232
698	0.231
698	0.231
698	0.231
699	0.231
699	0.231
700	0.23
700	0.231
701	0.231
701	0.231
702	0.231
702	0.231
702	0.232
703	0.232
703	0.232
704	0.231
704	0.231
705	0.231
705	0.231
705	0.231
706	0.23
706	0.231
707	0.231
707	0.231
708	0.231
708	0.231
709	0.231
709	0.23
709	0.23
710	0.23
710	0.23
711	0.231
711	0.231
712	0.231
712	0.231
713	0.232
713	0.232
713	0.233
714	0.233
714	0.233
715	0.233
715	0.233
716	0.233
716	0.232
716	0.232
717	0.231
717	0.231
718	0.23
718	0.23
719	0.23
719	0.231
720	0.231
720	0.232
720	0.233
721	0.233
721	0.234
722	0.235
722	0.236
723	0.236
723	0.237
723	0.237
724	0.237
724	0.236
725	0.235
725	0.235
726	0.234
726	0.233
727	0.233
727	0.232
727	0.232
728	0.231
728	0.231
729	0.232
729	0.232
730	0.232
730	0.233
730	0.233
731	0.234
731	0.234
732	0.234
732	0.235
733	0.234
733	0.234
734	0.234
734	0.234
734	0.234
735	0.234
735	0.234
736	0.233
736	0.233
737	0.233
737	0.234
737	0.234
738	0.234
738	0.234
739	0.234
739	0.234
740	0.233
740	0.234
741	0.234
741	0.234
741	0.233
742	0.233
742	0.233
743	0.234
743	0.234
744	0.235
744	0.235
744	0.235
745	0.236
745	0.236
746	0.237
746	0.237
747	0.237
747	0.238
748	0.238
748	0.238
748	0.238
749	0.238
749	0.238
750	0.238
750	0.238
751	0.237
751	0.237
751	0.237
752	0.236
752	0.236
753	0.236
753	0.236
754	0.236
754	0.236
754	0.236
755	0.236
755	0.236
756	0.236
756	0.235
757	0.234
757	0.234
758	0.234
758	0.233
758	0.233
759	0.233
759	0.232
760	0.232
760	0.232
761	0.232
761	0.233
761	0.234
762	0.235
762	0.236
763	0.237
763	0.237
764	0.237
764	0.237
764	0.237
765	0.237
765	0.237
766	0.237
766	0.236
767	0.236
767	0.235
768	0.234
768	0.233
768	0.233
769	0.233
769	0.233
770	0.233
770	0.234
771	0.234
771	0.234
771	0.235
772	0.235
772	0.236
773	0.236
773	0.237
774	0.237
774	0.237
775	0.238
775	0.238
775	0.238
776	0.238
776	0.238
777	0.238
777	0.238
778	0.237
778	0.237
778	0.237
779	0.237
779	0.236
780	0.236
780	0.235
781	0.235
781	0.235
781	0.235
782	0.235
782	0.236
783	0.236
783	0.237
784	0.237
784	0.237
784	0.237
785	0.237
785	0.237
786	0.237
786	0.237
787	0.237
787	0.237
788	0.237
788	0.237
788	0.236
789	0.236
789	0.237
790	0.237
790	0.237
791	0.237
791	0.237
791	0.237
792	0.238
792	0.238
793	0.238
793	0.238
794	0.238
794	0.237
794	0.237
795	0.237
795	0.238
796	0.238
796	0.238
797	0.238
797	0.238
797	0.238
798	0.238
798	0.238
799	0.238
799	0.238
800	0.237
800	0.237
801	0.237
801	0.237
801	0.238
802	0.238
802	0.239
803	0.239
803	0.24
804	0.24
804	0.241
804	0.241
805	0.241
805	0.241
806	0.24
806	0.24
807	0.239
807	0.239
807	0.239
808	0.239
808	0.239
809	0.238
809	0.238
810	0.239
810	0.239
810	0.239
811	0.239
811	0.239
812	0.24
812	0.24
813	0.24
813	0.241
813	0.241
814	0.241
814	0.242
815	0.242
815	0.243
816	0.243
816	0.243
817	0.243
817	0.243
817	0.242
818	0.242
818	0.242
819	0.242
819	0.241
820	0.241
820	0.24
820	0.24
821	0.24
821	0.239
822	0.239
822	0.239
823	0.239
823	0.239
823	0.239
824	0.24
824	0.241
825	0.242
825	0.242
826	0.242
826	0.242
826	0.243
827	0.243
827	0.243
828	0.243
828	0.243
829	0.243
829	0.243
829	0.242
830	0.242
830	0.242
831	0.243
831	0.243
832	0.243
832	0.243
832	0.243
833	0.242
833	0.242
834	0.242
834	0.242
835	0.242
835	0.242
835	0.242
836	0.242
836	0.243
837	0.243
837	0.243
838	0.243
838	0.243
839	0.243
839	0.242
839	0.242
840	0.241
840	0.24
841	0.239
841	0.238
842	0.238
842	0.237
842	0.237
843	0.237
843	0.236
844	0.236
844	0.236
845	0.236
845	0.236
845	0.237
846	0.237
846	0.237
847	0.237
847	0.237
848	0.238
848	0.239
848	0.239
849	0.24
849	0.24
850	0.24
850	0.24
851	0.24
851	0.24
851	0.24
852	0.239
852	0.238
853	0.237
853	0.236
854	0.236
854	0.236
854	0.236
855	0.236
855	0.236
856	0.236
856	0.236
857	0.237
857	0.237
857	0.237
858	0.237
858	0.237
859	0.236
859	0.235
860	0.234
860	0.233
860	0.232
861	0.232
861	0.231
862	0.23
862	0.229
863	0.228
863	0.228
863	0.228
864	0.228
864	0.228
865	0.228
865	0.228
866	0.228
866	0.228
866	0.227
867	0.227
867	0.227
868	0.227
868	0.227
869	0.228
869	0.227
869	0.227
870	0.227
870	0.228
871	0.228
871	0.228
872	0.229
872	0.229
872	0.229
873	0.229
873	0.228
874	0.228
874	0.228
875	0.227
875	0.227
875	0.227
876	0.226
876	0.226
877	0.226
877	0.226
878	0.226
878	0.227
878	0.228
879	0.228
879	0.228
880	0.228
880	0.228
881	0.228
881	0.227
881	0.227
882	0.226
882	0.225
883	0.224
883	0.222
884	0.221
884	0.22
884	0.219
885	0.218
885	0.218
886	0.217
886	0.217
887	0.216
887	0.215
887	0.215
888	0.214
888	0.214
889	0.213
889	0.213
890	0.213
890	0.213
890	0.213
891	0.214
891	0.214
892	0.215
892	0.215
893	0.216
893	0.217
893	0.218
894	0.218
894	0.218
895	0.219
895	0.219
895	0.219
896	0.219
896	0.219
897	0.218
897	0.217
898	0.217
898	0.216
898	0.215
899	0.215
899	0.214
900	0.214
900	0.213
901	0.213
901	0.212
901	0.212
902	0.212
902	0.212
903	0.212
903	0.211
904	0.211
904	0.21
904	0.209
905	0.209
905	0.208
906	0.208
906	0.208
907	0.208
907	0.208
907	0.208
908	0.208
908	0.208
909	0.209
909	0.209
910	0.209
910	0.209
910	0.209
911	0.208
911	0.208
912	0.207
912	0.207
913	0.207
913	0.206
913	0.206
914	0.205
914	0.205
915	0.204
915	0.204
916	0.203
916	0.203
916	0.202
917	0.201
917	0.2
918	0.2
918	0.199
918	0.198
919	0.197
919	0.196
920	0.196
920	0.195
921	0.195
921	0.195
921	0.195
922	0.195
922	0.195
923	0.195
923	0.195
924	0.195
924	0.195
924	0.195
925	0.195
925	0.195
926	0.194
926	0.194
927	0.193
927	0.193
927	0.192
928	0.191
928	0.191
929	0.19
929	0.19
930	0.189
930	0.189
930	0.189
931	0.188
931	0.188
932	0.188
932	0.187
933	0.187
933	0.187
933	0.186
934	0.186
934	0.185
935	0.185
935	0.184
935	0.184
936	0.183
936	0.183
937	0.183
937	0.183
938	0.183
938	0.183
938	0.182
939	0.182
939	0.182
940	0.182
940	0.182
941	0.182
941	0.182
941	0.182
942	0.182
942	0.181
943	0.181
943	0.181
944	0.181
944	0.181
944	0.181
945	0.181
945	0.181
946	0.181
946	0.181
946	0.181
947	0.181
947	0.181
948	0.181
948	0.181
949	0.181
949	0.181
949	0.181
950	0.18
950	0.18
951	0.179
951	0.178
952	0.177
952	0.177
952	0.176
953	0.175
953	0.174
954	0.173
954	0.173
955	0.172
955	0.172
955	0.171
956	0.171
956	0.172
957	0.172
957	0.172
957	0.172
958	0.172
958	0.172
959	0.172
959	0.171
960	0.171
960	0.171
960	0.17
961	0.169
961	0.169
962	0.168
962	0.168
963	0.167
963	0.167
963	0.166
964	0.166
964	0.166
965	0.165
965	0.165
966	0.165
966	0.165
966	0.165
967	0.165
967	0.165
968	0.165
968	0.165
968	0.165
969	0.164
969	0.164
970	0.164
970	0.163
971	0.163
971	0.163
971	0.163
972	0.162
972	0.162
973	0.162
973	0.162
974	0.161
974	0.161
974	0.161
975	0.161
975	0.161
976	0.161
976	0.161
976	0.161
977	0.161
977	0.16
978	0.16
978	0.16
979	0.16
979	0.159
979	0.159
980	0.158
980	0.158
981	0.157
981	0.156
982	0.155
982	0.155
982	0.154
983	0.153
983	0.152
984	0.151
984	0.15
984	0.149
985	0.148
985	0.147
986	0.146
986	0.144
987	0.143
987	0.142
987	0.142
988	0.141
988	0.14
989	0.139
989	0.139
990	0.138
990	0.138
990	0.138
991	0.138
991	0.138
992	0.138
992	0.137
992	0.137
993	0.137
993	0.137
994	0.137
994	0.137
995	0.137
995	0.137
995	0.136
996	0.136
996	0.136
997	0.136
997	0.137
997	0.137
998	0.137
998	0.137
999	0.138
999	0.138
1000	0.139
1000	0.14
1000	0.14
1001	0.141
1001	0.141
1002	0.141
1002	0.141
1003	0.142
1003	0.142
1003	0.141
1004	0.141
1004	0.14
1005	0.14
1005	0.139
1005	0.138
1006	0.138
1006	0.137
1007	0.137
1007	0.136
1008	0.136
1008	0.136
1008	0.136
1009	0.136
1009	0.135
1010	0.135
1010	0.135
1010	0.135
1011	0.134
1011	0.134
1012	0.134
1012	0.134
1013	0.133
1013	0.133
1013	0.133
1014	0.133
1014	0.133
1015	0.133
1015	0.133
1016	0.132
1016	0.132
1016	0.132
1017	0.131
1017	0.131
1018	0.131
1018	0.13
1018	0.13
1019	0.129
1019	0.129
1020	0.128
1020	0.128
1021	0.128
1021	0.128
1021	0.127
1022	0.127
1022	0.127
1023	0.126
1023	0.126
1023	0.126
1024	0.126
1024	0.125
1025	0.125
1025	0.124
1026	0.124
1026	0.123
1026	0.122
1027	0.122
1027	0.121
1028	0.121
1028	0.12
1028	0.12
1029	0.12
1029	0.12
1030	0.12
1030	0.12
1031	0.12
1031	0.12
1031	0.121
1032	0.121
1032	0.121
1033	0.121
1033	0.121
1033	0.121
1034	0.121
1034	0.12
1035	0.12
1035	0.12
1036	0.12
1036	0.12
1036	0.12
1037	0.12
1037	0.12
1038	0.12
1038	0.12
1039	0.12
1039	0.12
1039	0.12
1040	0.12
1040	0.119
1041	0.12
1041	0.119
1041	0.119
1042	0.119
1042	0.118
1043	0.118
1043	0.118
1044	0.117
1044	0.117
1044	0.117
1045	0.117
1045	0.117
1046	0.117
1046	0.117
1046	0.118
1047	0.118
1047	0.119
1048	0.119
1048	0.12
1049	0.12
1049	0.12
1049	0.12
1050	0.119
1050	0.119
1051	0.118
1051	0.117
1051	0.117
1052	0.116
1052	0.115
1053	0.114
1053	0.113
1053	0.112
1054	0.111
1054	0.11
1055	0.11
1055	0.109
1056	0.109
1056	0.109
1056	0.108
1057	0.107
1057	0.107
1058	0.106
1058	0.105
1058	0.105
1059	0.104
1059	0.103
1060	0.103
1060	0.101
1061	0.1
1061	0.1
1061	0.1
1062	0.099
1062	0.099
1063	0.099
1063	0.098
1063	0.098
1064	0.098
1064	0.098
1065	0.098
1065	0.097
1066	0.097
1066	0.097
1066	0.097
1067	0.097
1067	0.097
1068	0.097
1068	0.096
1068	0.096
1069	0.095
1069	0.094
1070	0.094
1070	0.094
1071	0.092
1071	0.091
1071	0.091
1072	0.09
1072	0.089
1073	0.088
1073	0.088
1073	0.088
1074	0.088
1074	0.088
1075	0.087
1075	0.088
1076	0.088
1076	0.089
1076	0.089
1077	0.089
1077	0.089
1078	0.089
1078	0.089
1078	0.089
1079	0.089
1079	0.089
1080	0.088
1080	0.088
1080	0.088
1081	0.088
1081	0.088
1082	0.089
1082	0.089
1083	0.088
1083	0.088
1083	0.088
1084	0.087
1084	0.088
1085	0.087
1085	0.087
1085	0.087
1086	0.086
1086	0.085
1087	0.084
1087	0.084
1088	0.084
1088	0.084
1088	0.083
1089	0.083
1089	0.082
1090	0.081
1090	0.08
1090	0.08
1091	0.08
1091	0.079
1092	0.079
1092	0.079
1092	0.079
1093	0.078
1093	0.078
1094	0.078
1094	0.078
1095	0.078
1095	0.077
1095	0.076
1096	0.076
1096	0.075
1097	0.074
1097	0.073
1097	0.073
1098	0.071
1098	0.07
1099	0.069
1099	0.067
1100	0.067
1100	0.065
1100	0.064
1101	0.063
1101	0.061
1102	0.061
1102	0.059
1102	0.058
1103	0.057
1103	0.056
1104	0.056
1104	0.055
1104	0.055
1105	0.054
1105	0.052
1106	0.051
1106	0.049
1107	0.048
1107	0.047
1107	0.046
1108	0.045
1108	0.043
1109	0.042
1109	0.041
1109	0.039
1110	0.041
1110	0.04
1111	0.037
1111	0.036
