Data from reversibility-20sec_Absorbance__3563__000000000003563.txt Node

Date: Wed Dec 06 08:00:47 CET 2023
User: Marek
Spectrometer: MAYP115816
Trigger mode: 0
Integration Time (sec): 2.000000E-1
Scans to average: 10
Electric dark correction enabled: true
Nonlinearity correction enabled: true
Boxcar width: 5
XAxis mode: Wavelengths
Number of Pixels in Spectrum: 2068
>>>>>Begin Spectral Data<<<<<
199	-0.165
199	-0.135
200	-0.064
200	-0.013
201	0.018
201	0.035
202	0.049
202	0.057
203	0.063
203	0.067
204	0.082
204	0.095
205	0.107
205	0.112
205	0.111
206	0.109
206	0.108
207	0.109
207	0.11
208	0.111
208	0.11
209	0.111
209	0.109
210	0.11
210	0.111
211	0.107
211	0.111
212	0.109
212	0.112
213	0.114
213	0.116
213	0.118
214	0.123
214	0.125
215	0.128
215	0.13
216	0.136
216	0.134
217	0.141
217	0.141
218	0.141
218	0.143
219	0.144
219	0.144
220	0.146
220	0.144
221	0.146
221	0.148
221	0.154
222	0.159
222	0.163
223	0.168
223	0.175
224	0.181
224	0.191
225	0.203
225	0.219
226	0.228
226	0.236
227	0.247
227	0.258
228	0.273
228	0.289
229	0.302
229	0.327
229	0.347
230	0.371
230	0.397
231	0.428
231	0.468
232	0.506
232	0.546
233	0.588
233	0.637
234	0.689
234	0.742
235	0.795
235	0.846
236	0.896
236	0.949
236	1.001
237	1.05
237	1.101
238	1.149
238	1.194
239	1.24
239	1.282
240	1.319
240	1.355
241	1.391
241	1.426
242	1.459
242	1.493
243	1.522
243	1.548
243	1.574
244	1.594
244	1.614
245	1.636
245	1.659
246	1.68
246	1.695
247	1.707
247	1.72
248	1.734
248	1.749
249	1.759
249	1.768
250	1.778
250	1.785
250	1.79
251	1.795
251	1.799
252	1.806
252	1.806
253	1.807
253	1.804
254	1.802
254	1.804
255	1.802
255	1.802
256	1.8
256	1.798
257	1.797
257	1.795
258	1.796
258	1.796
258	1.797
259	1.797
259	1.796
260	1.793
260	1.794
261	1.794
261	1.796
262	1.797
262	1.797
263	1.798
263	1.798
264	1.797
264	1.797
265	1.797
265	1.8
265	1.8
266	1.799
266	1.798
267	1.796
267	1.796
268	1.794
268	1.795
269	1.796
269	1.794
270	1.793
270	1.79
271	1.786
271	1.787
272	1.785
272	1.783
272	1.781
273	1.778
273	1.773
274	1.769
274	1.765
275	1.76
275	1.755
276	1.748
276	1.741
277	1.732
277	1.722
278	1.712
278	1.701
278	1.687
279	1.674
279	1.658
280	1.638
280	1.615
281	1.588
281	1.556
282	1.523
282	1.489
283	1.453
283	1.417
284	1.383
284	1.347
285	1.314
285	1.284
285	1.256
286	1.23
286	1.209
287	1.189
287	1.172
288	1.157
288	1.144
289	1.133
289	1.123
290	1.115
290	1.107
291	1.101
291	1.095
292	1.089
292	1.084
292	1.079
293	1.075
293	1.071
294	1.067
294	1.064
295	1.06
295	1.057
296	1.053
296	1.049
297	1.046
297	1.043
298	1.04
298	1.036
298	1.033
299	1.03
299	1.027
300	1.024
300	1.021
301	1.018
301	1.015
302	1.013
302	1.01
303	1.007
303	1.005
304	1.002
304	0.999
305	0.997
305	0.994
305	0.991
306	0.988
306	0.985
307	0.983
307	0.98
308	0.977
308	0.974
309	0.971
309	0.968
310	0.965
310	0.962
311	0.959
311	0.956
311	0.952
312	0.948
312	0.945
313	0.941
313	0.937
314	0.933
314	0.929
315	0.925
315	0.921
316	0.917
316	0.912
317	0.907
317	0.902
318	0.897
318	0.893
318	0.887
319	0.882
319	0.877
320	0.871
320	0.865
321	0.86
321	0.854
322	0.848
322	0.842
323	0.835
323	0.829
324	0.823
324	0.816
324	0.81
325	0.803
325	0.797
326	0.79
326	0.783
327	0.776
327	0.769
328	0.762
328	0.756
329	0.749
329	0.742
330	0.735
330	0.728
330	0.721
331	0.715
331	0.708
332	0.701
332	0.694
333	0.688
333	0.681
334	0.674
334	0.667
335	0.661
335	0.654
336	0.648
336	0.641
336	0.635
337	0.628
337	0.622
338	0.617
338	0.61
339	0.605
339	0.599
340	0.593
340	0.588
341	0.582
341	0.577
342	0.571
342	0.566
342	0.561
343	0.556
343	0.551
344	0.546
344	0.541
345	0.537
345	0.532
346	0.528
346	0.523
347	0.519
347	0.514
348	0.51
348	0.506
348	0.503
349	0.499
349	0.495
350	0.492
350	0.488
351	0.485
351	0.482
352	0.479
352	0.476
353	0.473
353	0.47
354	0.467
354	0.464
354	0.461
355	0.458
355	0.455
356	0.452
356	0.449
357	0.445
357	0.442
358	0.439
358	0.437
359	0.434
359	0.432
360	0.43
360	0.428
360	0.426
361	0.424
361	0.422
362	0.421
362	0.419
363	0.417
363	0.416
364	0.413
364	0.411
365	0.409
365	0.407
366	0.405
366	0.403
366	0.402
367	0.4
367	0.398
368	0.396
368	0.394
369	0.393
369	0.391
370	0.39
370	0.388
371	0.387
371	0.385
372	0.384
372	0.382
372	0.381
373	0.38
373	0.379
374	0.377
374	0.376
375	0.375
375	0.374
376	0.373
376	0.372
377	0.371
377	0.369
378	0.368
378	0.367
378	0.366
379	0.365
379	0.364
380	0.363
380	0.362
381	0.362
381	0.361
382	0.36
382	0.359
383	0.358
383	0.358
383	0.357
384	0.356
384	0.356
385	0.355
385	0.354
386	0.353
386	0.353
387	0.352
387	0.351
388	0.35
388	0.35
389	0.349
389	0.348
389	0.348
390	0.347
390	0.347
391	0.346
391	0.345
392	0.345
392	0.344
393	0.344
393	0.343
394	0.343
394	0.342
394	0.342
395	0.341
395	0.341
396	0.341
396	0.34
397	0.34
397	0.339
398	0.339
398	0.338
399	0.338
399	0.337
400	0.336
400	0.336
400	0.335
401	0.335
401	0.334
402	0.334
402	0.334
403	0.333
403	0.332
404	0.332
404	0.332
405	0.331
405	0.331
405	0.331
406	0.33
406	0.33
407	0.329
407	0.328
408	0.328
408	0.328
409	0.327
409	0.327
410	0.326
410	0.326
411	0.326
411	0.326
411	0.325
412	0.325
412	0.325
413	0.324
413	0.324
414	0.323
414	0.323
415	0.323
415	0.322
416	0.322
416	0.321
416	0.321
417	0.321
417	0.32
418	0.32
418	0.32
419	0.319
419	0.319
420	0.319
420	0.318
421	0.318
421	0.317
421	0.317
422	0.317
422	0.316
423	0.316
423	0.315
424	0.315
424	0.315
425	0.315
425	0.314
426	0.314
426	0.314
427	0.313
427	0.313
427	0.313
428	0.312
428	0.312
429	0.312
429	0.311
430	0.311
430	0.311
431	0.31
431	0.31
432	0.31
432	0.31
432	0.31
433	0.31
433	0.31
434	0.31
434	0.31
435	0.31
435	0.31
436	0.309
436	0.31
437	0.309
437	0.309
437	0.309
438	0.309
438	0.309
439	0.308
439	0.308
440	0.308
440	0.308
441	0.307
441	0.307
442	0.307
442	0.307
442	0.307
443	0.306
443	0.306
444	0.306
444	0.306
445	0.306
445	0.306
446	0.306
446	0.306
447	0.305
447	0.305
447	0.305
448	0.305
448	0.305
449	0.305
449	0.305
450	0.305
450	0.305
451	0.305
451	0.305
452	0.305
452	0.305
452	0.305
453	0.305
453	0.305
454	0.305
454	0.305
455	0.305
455	0.305
456	0.305
456	0.305
457	0.305
457	0.305
458	0.305
458	0.305
458	0.305
459	0.305
459	0.305
460	0.306
460	0.306
461	0.306
461	0.306
462	0.306
462	0.306
463	0.306
463	0.306
463	0.306
464	0.307
464	0.306
465	0.306
465	0.307
466	0.307
466	0.307
467	0.307
467	0.308
467	0.308
468	0.308
468	0.309
469	0.309
469	0.31
470	0.31
470	0.311
471	0.311
471	0.311
472	0.312
472	0.312
472	0.313
473	0.313
473	0.314
474	0.314
474	0.315
475	0.315
475	0.315
476	0.316
476	0.317
477	0.317
477	0.318
477	0.318
478	0.319
478	0.32
479	0.32
479	0.321
480	0.322
480	0.323
481	0.323
481	0.324
482	0.325
482	0.326
482	0.326
483	0.327
483	0.328
484	0.329
484	0.33
485	0.331
485	0.331
486	0.332
486	0.333
487	0.334
487	0.335
487	0.336
488	0.337
488	0.338
489	0.339
489	0.34
490	0.342
490	0.343
491	0.345
491	0.346
492	0.348
492	0.349
492	0.351
493	0.352
493	0.354
494	0.356
494	0.357
495	0.358
495	0.36
496	0.361
496	0.363
496	0.364
497	0.366
497	0.367
498	0.368
498	0.37
499	0.371
499	0.372
500	0.374
500	0.376
501	0.377
501	0.378
501	0.38
502	0.381
502	0.382
503	0.384
503	0.385
504	0.387
504	0.388
505	0.39
505	0.391
506	0.393
506	0.394
506	0.396
507	0.397
507	0.399
508	0.4
508	0.401
509	0.402
509	0.403
510	0.404
510	0.406
511	0.407
511	0.408
511	0.409
512	0.41
512	0.412
513	0.412
513	0.413
514	0.414
514	0.415
515	0.416
515	0.417
515	0.417
516	0.418
516	0.418
517	0.419
517	0.42
518	0.42
518	0.421
519	0.421
519	0.421
520	0.422
520	0.422
520	0.422
521	0.422
521	0.422
522	0.422
522	0.422
523	0.422
523	0.422
524	0.422
524	0.421
524	0.421
525	0.421
525	0.42
526	0.419
526	0.419
527	0.418
527	0.417
528	0.416
528	0.415
529	0.414
529	0.413
529	0.412
530	0.411
530	0.41
531	0.409
531	0.407
532	0.406
532	0.404
533	0.403
533	0.401
533	0.4
534	0.398
534	0.396
535	0.394
535	0.392
536	0.39
536	0.388
537	0.386
537	0.384
538	0.383
538	0.381
538	0.379
539	0.377
539	0.375
540	0.373
540	0.371
541	0.369
541	0.367
542	0.365
542	0.363
542	0.36
543	0.358
543	0.355
544	0.353
544	0.351
545	0.348
545	0.346
546	0.344
546	0.342
547	0.339
547	0.337
547	0.334
548	0.332
548	0.33
549	0.327
549	0.325
550	0.322
550	0.32
551	0.317
551	0.314
551	0.311
552	0.309
552	0.307
553	0.304
553	0.302
554	0.3
554	0.298
555	0.295
555	0.293
556	0.29
556	0.288
556	0.286
557	0.284
557	0.282
558	0.28
558	0.278
559	0.275
559	0.273
560	0.271
560	0.269
560	0.267
561	0.266
561	0.263
562	0.261
562	0.259
563	0.256
563	0.254
564	0.251
564	0.249
564	0.247
565	0.245
565	0.243
566	0.241
566	0.238
567	0.237
567	0.235
568	0.233
568	0.231
568	0.229
569	0.227
569	0.225
570	0.223
570	0.221
571	0.22
571	0.218
572	0.217
572	0.215
573	0.213
573	0.212
573	0.21
574	0.209
574	0.208
575	0.207
575	0.205
576	0.204
576	0.202
577	0.2
577	0.199
577	0.197
578	0.196
578	0.194
579	0.194
579	0.193
580	0.191
580	0.189
581	0.187
581	0.186
581	0.185
582	0.185
582	0.184
583	0.183
583	0.181
584	0.18
584	0.177
585	0.176
585	0.175
585	0.174
586	0.173
586	0.172
587	0.17
587	0.169
588	0.168
588	0.167
589	0.166
589	0.166
590	0.165
590	0.164
590	0.163
591	0.163
591	0.161
592	0.16
592	0.158
593	0.157
593	0.156
594	0.155
594	0.154
594	0.152
595	0.151
595	0.15
596	0.149
596	0.148
597	0.148
597	0.148
598	0.147
598	0.147
598	0.146
599	0.146
599	0.145
600	0.144
600	0.143
601	0.143
601	0.142
602	0.141
602	0.14
602	0.139
603	0.138
603	0.138
604	0.137
604	0.137
605	0.136
605	0.136
606	0.135
606	0.134
606	0.133
607	0.133
607	0.132
608	0.131
608	0.13
609	0.13
609	0.129
610	0.128
610	0.127
610	0.127
611	0.126
611	0.126
612	0.126
612	0.125
613	0.125
613	0.125
614	0.124
614	0.124
614	0.124
615	0.123
615	0.123
616	0.123
616	0.122
617	0.122
617	0.121
618	0.121
618	0.12
618	0.12
619	0.12
619	0.119
620	0.119
620	0.118
621	0.118
621	0.117
622	0.116
622	0.116
622	0.115
623	0.114
623	0.114
624	0.113
624	0.112
625	0.112
625	0.111
626	0.111
626	0.111
626	0.11
627	0.11
627	0.11
628	0.11
628	0.109
629	0.109
629	0.108
630	0.108
630	0.107
630	0.107
631	0.107
631	0.106
632	0.106
632	0.105
633	0.105
633	0.105
634	0.105
634	0.105
634	0.105
635	0.105
635	0.104
636	0.104
636	0.104
637	0.103
637	0.103
638	0.102
638	0.102
638	0.101
639	0.101
639	0.1
640	0.1
640	0.099
641	0.099
641	0.099
642	0.098
642	0.098
642	0.098
643	0.098
643	0.097
644	0.097
644	0.097
645	0.097
645	0.097
646	0.097
646	0.097
646	0.097
647	0.097
647	0.096
648	0.096
648	0.095
649	0.095
649	0.095
650	0.095
650	0.095
650	0.094
651	0.094
651	0.094
652	0.094
652	0.094
653	0.094
653	0.095
653	0.1
654	0.081
654	0.066
655	0.064
655	0.064
656	0.064
656	0.064
657	0.064
657	0.064
657	0.064
658	0.063
658	0.055
659	0.069
659	0.086
660	0.091
660	0.091
661	0.09
661	0.089
661	0.088
662	0.088
662	0.087
663	0.086
663	0.086
664	0.085
664	0.085
665	0.085
665	0.085
665	0.085
666	0.085
666	0.085
667	0.085
667	0.085
668	0.085
668	0.085
669	0.085
669	0.086
669	0.086
670	0.087
670	0.087
671	0.086
671	0.086
672	0.085
672	0.085
672	0.084
673	0.084
673	0.083
674	0.083
674	0.082
675	0.082
675	0.082
676	0.082
676	0.082
676	0.082
677	0.082
677	0.083
678	0.083
678	0.082
679	0.082
679	0.082
680	0.082
680	0.082
680	0.081
681	0.081
681	0.081
682	0.081
682	0.081
683	0.081
683	0.082
684	0.082
684	0.082
684	0.081
685	0.081
685	0.082
686	0.081
686	0.081
687	0.081
687	0.081
687	0.081
688	0.081
688	0.081
689	0.081
689	0.082
690	0.081
690	0.081
691	0.081
691	0.08
691	0.08
692	0.08
692	0.08
693	0.08
693	0.08
694	0.079
694	0.079
695	0.079
695	0.08
695	0.08
696	0.08
696	0.08
697	0.08
697	0.08
698	0.08
698	0.08
698	0.08
699	0.08
699	0.079
700	0.078
700	0.078
701	0.078
701	0.077
702	0.076
702	0.076
702	0.075
703	0.074
703	0.074
704	0.074
704	0.073
705	0.074
705	0.073
705	0.073
706	0.073
706	0.074
707	0.074
707	0.074
708	0.074
708	0.074
709	0.074
709	0.074
709	0.073
710	0.073
710	0.072
711	0.072
711	0.072
712	0.072
712	0.071
713	0.071
713	0.071
713	0.071
714	0.07
714	0.07
715	0.07
715	0.07
716	0.069
716	0.069
716	0.068
717	0.067
717	0.067
718	0.066
718	0.066
719	0.066
719	0.066
720	0.066
720	0.066
720	0.067
721	0.067
721	0.068
722	0.068
722	0.068
723	0.068
723	0.068
723	0.068
724	0.068
724	0.067
725	0.066
725	0.065
726	0.065
726	0.064
727	0.064
727	0.064
727	0.064
728	0.064
728	0.064
729	0.064
729	0.065
730	0.065
730	0.065
730	0.066
731	0.066
731	0.067
732	0.067
732	0.067
733	0.067
733	0.067
734	0.066
734	0.066
734	0.066
735	0.066
735	0.065
736	0.064
736	0.063
737	0.063
737	0.062
737	0.062
738	0.061
738	0.06
739	0.059
739	0.059
740	0.059
740	0.059
741	0.059
741	0.059
741	0.059
742	0.059
742	0.06
743	0.061
743	0.061
744	0.062
744	0.062
744	0.062
745	0.062
745	0.062
746	0.062
746	0.062
747	0.062
747	0.062
748	0.062
748	0.062
748	0.062
749	0.062
749	0.062
750	0.062
750	0.062
751	0.062
751	0.062
751	0.062
752	0.062
752	0.061
753	0.061
753	0.061
754	0.061
754	0.06
754	0.06
755	0.06
755	0.059
756	0.059
756	0.057
757	0.057
757	0.057
758	0.057
758	0.057
758	0.057
759	0.057
759	0.057
760	0.056
760	0.056
761	0.057
761	0.057
761	0.057
762	0.057
762	0.057
763	0.057
763	0.056
764	0.055
764	0.055
764	0.055
765	0.054
765	0.054
766	0.054
766	0.054
767	0.054
767	0.053
768	0.053
768	0.054
768	0.055
769	0.055
769	0.056
770	0.056
770	0.056
771	0.056
771	0.056
771	0.056
772	0.056
772	0.056
773	0.056
773	0.056
774	0.056
774	0.055
775	0.056
775	0.056
775	0.056
776	0.056
776	0.056
777	0.057
777	0.057
778	0.057
778	0.057
778	0.056
779	0.056
779	0.056
780	0.055
780	0.054
781	0.054
781	0.053
781	0.053
782	0.052
782	0.052
783	0.053
783	0.053
784	0.053
784	0.053
784	0.054
785	0.054
785	0.054
786	0.054
786	0.055
787	0.055
787	0.055
788	0.054
788	0.054
788	0.053
789	0.053
789	0.052
790	0.052
790	0.052
791	0.051
791	0.051
791	0.05
792	0.051
792	0.05
793	0.05
793	0.05
794	0.05
794	0.049
794	0.049
795	0.049
795	0.049
796	0.049
796	0.049
797	0.049
797	0.049
797	0.05
798	0.05
798	0.05
799	0.05
799	0.05
800	0.049
800	0.049
801	0.049
801	0.048
801	0.048
802	0.048
802	0.048
803	0.048
803	0.048
804	0.048
804	0.049
804	0.049
805	0.049
805	0.049
806	0.049
806	0.049
807	0.048
807	0.048
807	0.048
808	0.048
808	0.048
809	0.048
809	0.049
810	0.049
810	0.049
810	0.049
811	0.049
811	0.05
812	0.051
812	0.051
813	0.051
813	0.051
813	0.051
814	0.052
814	0.052
815	0.052
815	0.052
816	0.052
816	0.052
817	0.051
817	0.051
817	0.05
818	0.05
818	0.05
819	0.049
819	0.048
820	0.048
820	0.047
820	0.047
821	0.047
821	0.046
822	0.046
822	0.046
823	0.046
823	0.046
823	0.047
824	0.048
824	0.049
825	0.05
825	0.051
826	0.052
826	0.052
826	0.052
827	0.053
827	0.053
828	0.053
828	0.053
829	0.052
829	0.052
829	0.052
830	0.052
830	0.052
831	0.053
831	0.053
832	0.053
832	0.053
832	0.053
833	0.052
833	0.052
834	0.051
834	0.051
835	0.05
835	0.049
835	0.049
836	0.048
836	0.048
837	0.048
837	0.047
838	0.047
838	0.047
839	0.047
839	0.046
839	0.046
840	0.045
840	0.045
841	0.044
841	0.044
842	0.044
842	0.043
842	0.043
843	0.043
843	0.043
844	0.044
844	0.044
845	0.044
845	0.045
845	0.046
846	0.046
846	0.046
847	0.047
847	0.047
848	0.047
848	0.047
848	0.047
849	0.046
849	0.046
850	0.046
850	0.045
851	0.045
851	0.044
851	0.044
852	0.043
852	0.042
853	0.042
853	0.042
854	0.042
854	0.042
854	0.043
855	0.043
855	0.043
856	0.044
856	0.044
857	0.045
857	0.046
857	0.046
858	0.047
858	0.047
859	0.047
859	0.047
860	0.047
860	0.046
860	0.046
861	0.045
861	0.045
862	0.044
862	0.043
863	0.043
863	0.042
863	0.042
864	0.042
864	0.042
865	0.042
865	0.042
866	0.042
866	0.042
866	0.043
867	0.043
867	0.043
868	0.043
868	0.043
869	0.042
869	0.042
869	0.041
870	0.041
870	0.04
871	0.04
871	0.04
872	0.04
872	0.04
872	0.04
873	0.04
873	0.04
874	0.04
874	0.04
875	0.04
875	0.04
875	0.039
876	0.039
876	0.039
877	0.039
877	0.039
878	0.039
878	0.039
878	0.039
879	0.04
879	0.04
880	0.04
880	0.04
881	0.04
881	0.04
881	0.041
882	0.04
882	0.04
883	0.04
883	0.04
884	0.04
884	0.04
884	0.04
885	0.04
885	0.04
886	0.04
886	0.04
887	0.04
887	0.04
887	0.04
888	0.04
888	0.04
889	0.04
889	0.04
890	0.04
890	0.04
890	0.04
891	0.04
891	0.04
892	0.04
892	0.039
893	0.039
893	0.039
893	0.039
894	0.038
894	0.038
895	0.037
895	0.036
895	0.036
896	0.036
896	0.035
897	0.035
897	0.034
898	0.033
898	0.033
898	0.033
899	0.033
899	0.033
900	0.033
900	0.033
901	0.033
901	0.034
901	0.034
902	0.035
902	0.035
903	0.035
903	0.035
904	0.035
904	0.035
904	0.035
905	0.036
905	0.036
906	0.036
906	0.037
907	0.038
907	0.038
907	0.039
908	0.04
908	0.04
909	0.041
909	0.042
910	0.042
910	0.042
910	0.042
911	0.042
911	0.042
912	0.042
912	0.042
913	0.042
913	0.042
913	0.042
914	0.042
914	0.042
915	0.042
915	0.041
916	0.041
916	0.041
916	0.04
917	0.039
917	0.039
918	0.038
918	0.038
918	0.037
919	0.037
919	0.037
920	0.036
920	0.036
921	0.036
921	0.036
921	0.036
922	0.036
922	0.037
923	0.037
923	0.038
924	0.038
924	0.039
924	0.039
925	0.039
925	0.04
926	0.04
926	0.04
927	0.04
927	0.04
927	0.04
928	0.039
928	0.039
929	0.04
929	0.04
930	0.04
930	0.04
930	0.04
931	0.04
931	0.04
932	0.04
932	0.04
933	0.041
933	0.041
933	0.041
934	0.041
934	0.041
935	0.041
935	0.041
935	0.041
936	0.041
936	0.04
937	0.04
937	0.04
938	0.039
938	0.039
938	0.038
939	0.038
939	0.036
940	0.036
940	0.035
941	0.034
941	0.034
941	0.034
942	0.034
942	0.034
943	0.034
943	0.034
944	0.034
944	0.034
944	0.035
945	0.035
945	0.035
946	0.036
946	0.036
946	0.036
947	0.037
947	0.038
948	0.038
948	0.039
949	0.039
949	0.039
949	0.04
950	0.04
950	0.04
951	0.041
951	0.04
952	0.04
952	0.039
952	0.039
953	0.038
953	0.038
954	0.037
954	0.036
955	0.036
955	0.035
955	0.035
956	0.034
956	0.034
957	0.034
957	0.034
957	0.034
958	0.034
958	0.034
959	0.034
959	0.035
960	0.035
960	0.035
960	0.036
961	0.036
961	0.037
962	0.037
962	0.037
963	0.037
963	0.038
963	0.038
964	0.038
964	0.038
965	0.039
965	0.039
966	0.039
966	0.04
966	0.04
967	0.041
967	0.041
968	0.042
968	0.042
968	0.042
969	0.042
969	0.041
970	0.041
970	0.04
971	0.039
971	0.039
971	0.038
972	0.037
972	0.036
973	0.036
973	0.035
974	0.035
974	0.035
974	0.035
975	0.035
975	0.035
976	0.035
976	0.036
976	0.036
977	0.036
977	0.036
978	0.036
978	0.037
979	0.037
979	0.036
979	0.037
980	0.037
980	0.037
981	0.036
981	0.036
982	0.036
982	0.036
982	0.036
983	0.036
983	0.036
984	0.037
984	0.036
984	0.036
985	0.036
985	0.036
986	0.036
986	0.036
987	0.036
987	0.035
987	0.035
988	0.035
988	0.035
989	0.035
989	0.034
990	0.034
990	0.033
990	0.033
991	0.033
991	0.033
992	0.032
992	0.032
992	0.031
993	0.031
993	0.031
994	0.03
994	0.031
995	0.03
995	0.03
995	0.031
996	0.031
996	0.031
997	0.032
997	0.032
997	0.033
998	0.033
998	0.034
999	0.034
999	0.035
1000	0.035
1000	0.036
1000	0.035
1001	0.035
1001	0.035
1002	0.035
1002	0.034
1003	0.034
1003	0.033
1003	0.032
1004	0.032
1004	0.031
1005	0.03
1005	0.029
1005	0.029
1006	0.028
1006	0.028
1007	0.027
1007	0.027
1008	0.027
1008	0.028
1008	0.028
1009	0.028
1009	0.028
1010	0.029
1010	0.029
1010	0.029
1011	0.03
1011	0.03
1012	0.03
1012	0.03
1013	0.03
1013	0.029
1013	0.029
1014	0.029
1014	0.029
1015	0.029
1015	0.029
1016	0.028
1016	0.028
1016	0.028
1017	0.027
1017	0.027
1018	0.027
1018	0.026
1018	0.026
1019	0.026
1019	0.025
1020	0.025
1020	0.025
1021	0.026
1021	0.026
1021	0.026
1022	0.027
1022	0.027
1023	0.027
1023	0.028
1023	0.028
1024	0.028
1024	0.028
1025	0.029
1025	0.029
1026	0.029
1026	0.029
1026	0.028
1027	0.028
1027	0.028
1028	0.029
1028	0.029
1028	0.029
1029	0.029
1029	0.029
1030	0.029
1030	0.029
1031	0.029
1031	0.03
1031	0.03
1032	0.03
1032	0.03
1033	0.03
1033	0.03
1033	0.03
1034	0.03
1034	0.029
1035	0.029
1035	0.028
1036	0.028
1036	0.028
1036	0.028
1037	0.027
1037	0.027
1038	0.027
1038	0.026
1039	0.026
1039	0.026
1039	0.026
1040	0.026
1040	0.027
1041	0.027
1041	0.027
1041	0.027
1042	0.027
1042	0.027
1043	0.028
1043	0.028
1044	0.028
1044	0.029
1044	0.029
1045	0.03
1045	0.03
1046	0.031
1046	0.031
1046	0.032
1047	0.032
1047	0.033
1048	0.033
1048	0.034
1049	0.034
1049	0.035
1049	0.035
1050	0.035
1050	0.035
1051	0.035
1051	0.035
1051	0.035
1052	0.034
1052	0.034
1053	0.034
1053	0.033
1053	0.033
1054	0.032
1054	0.032
1055	0.032
1055	0.031
1056	0.031
1056	0.03
1056	0.03
1057	0.029
1057	0.028
1058	0.028
1058	0.027
1058	0.026
1059	0.025
1059	0.025
1060	0.025
1060	0.024
1061	0.024
1061	0.024
1061	0.024
1062	0.024
1062	0.024
1063	0.025
1063	0.025
1063	0.025
1064	0.024
1064	0.024
1065	0.025
1065	0.025
1066	0.025
1066	0.025
1066	0.025
1067	0.025
1067	0.025
1068	0.025
1068	0.025
1068	0.025
1069	0.025
1069	0.025
1070	0.025
1070	0.025
1071	0.024
1071	0.024
1071	0.024
1072	0.023
1072	0.023
1073	0.022
1073	0.022
1073	0.022
1074	0.022
1074	0.022
1075	0.022
1075	0.022
1076	0.022
1076	0.023
1076	0.023
1077	0.023
1077	0.023
1078	0.023
1078	0.024
1078	0.023
1079	0.023
1079	0.023
1080	0.023
1080	0.022
1080	0.022
1081	0.022
1081	0.022
1082	0.022
1082	0.022
1083	0.022
1083	0.022
1083	0.022
1084	0.022
1084	0.022
1085	0.022
1085	0.023
1085	0.023
1086	0.023
1086	0.022
1087	0.022
1087	0.021
1088	0.021
1088	0.021
1088	0.021
1089	0.02
1089	0.02
1090	0.019
1090	0.018
1090	0.018
1091	0.018
1091	0.018
1092	0.018
1092	0.018
1092	0.018
1093	0.018
1093	0.019
1094	0.019
1094	0.018
1095	0.018
1095	0.018
1095	0.018
1096	0.017
1096	0.017
1097	0.016
1097	0.016
1097	0.016
1098	0.015
1098	0.014
1099	0.014
1099	0.013
1100	0.013
1100	0.013
1100	0.012
1101	0.012
1101	0.012
1102	0.011
1102	0.01
1102	0.01
1103	0.009
1103	0.009
1104	0.008
1104	0.008
1104	0.007
1105	0.006
1105	0.004
1106	0.003
1106	0.002
1107	0.002
1107	0.001
1107	0.001
1108	0.001
1108	-0
1109	-0.001
1109	-0.002
1109	-0
1110	0.001
1110	0.001
1111	0.001
1111	0
