Data from reversibility-20sec_Absorbance__6008__000000000006008.txt Node

Date: Wed Dec 06 21:35:47 CET 2023
User: Marek
Spectrometer: MAYP115816
Trigger mode: 0
Integration Time (sec): 2.000000E-1
Scans to average: 10
Electric dark correction enabled: true
Nonlinearity correction enabled: true
Boxcar width: 5
XAxis mode: Wavelengths
Number of Pixels in Spectrum: 2068
>>>>>Begin Spectral Data<<<<<
199	-0.176
199	-0.14
200	-0.069
200	-0.014
201	0.016
201	0.033
202	0.047
202	0.055
203	0.063
203	0.066
204	0.079
204	0.096
205	0.107
205	0.113
205	0.11
206	0.11
206	0.111
207	0.114
207	0.114
208	0.112
208	0.113
209	0.114
209	0.109
210	0.111
210	0.111
211	0.112
211	0.114
212	0.109
212	0.108
213	0.111
213	0.111
213	0.111
214	0.116
214	0.119
215	0.119
215	0.118
216	0.12
216	0.118
217	0.123
217	0.127
218	0.127
218	0.132
219	0.133
219	0.132
220	0.132
220	0.132
221	0.133
221	0.135
221	0.139
222	0.143
222	0.143
223	0.148
223	0.153
224	0.159
224	0.168
225	0.18
225	0.192
226	0.202
226	0.213
227	0.223
227	0.231
228	0.248
228	0.263
229	0.277
229	0.302
229	0.321
230	0.343
230	0.371
231	0.402
231	0.442
232	0.479
232	0.526
233	0.57
233	0.62
234	0.674
234	0.725
235	0.781
235	0.837
236	0.889
236	0.941
236	0.99
237	1.042
237	1.091
238	1.137
238	1.182
239	1.224
239	1.265
240	1.303
240	1.338
241	1.373
241	1.407
242	1.439
242	1.47
243	1.498
243	1.524
243	1.55
244	1.571
244	1.591
245	1.61
245	1.632
246	1.653
246	1.671
247	1.683
247	1.7
248	1.715
248	1.728
249	1.736
249	1.745
250	1.754
250	1.764
250	1.768
251	1.769
251	1.771
252	1.777
252	1.776
253	1.775
253	1.772
254	1.77
254	1.771
255	1.769
255	1.768
256	1.767
256	1.766
257	1.765
257	1.763
258	1.761
258	1.763
258	1.763
259	1.767
259	1.767
260	1.767
260	1.768
261	1.77
261	1.773
262	1.776
262	1.778
263	1.783
263	1.784
264	1.786
264	1.787
265	1.788
265	1.789
265	1.789
266	1.789
266	1.789
267	1.788
267	1.79
268	1.788
268	1.788
269	1.789
269	1.789
270	1.788
270	1.786
271	1.783
271	1.783
272	1.78
272	1.779
272	1.775
273	1.768
273	1.763
274	1.756
274	1.749
275	1.742
275	1.736
276	1.729
276	1.721
277	1.714
277	1.702
278	1.691
278	1.68
278	1.665
279	1.649
279	1.627
280	1.602
280	1.57
281	1.534
281	1.492
282	1.45
282	1.407
283	1.364
283	1.322
284	1.282
284	1.244
285	1.207
285	1.174
285	1.146
286	1.119
286	1.097
287	1.077
287	1.06
288	1.046
288	1.034
289	1.024
289	1.014
290	1.007
290	1
291	0.994
291	0.989
292	0.984
292	0.98
292	0.976
293	0.972
293	0.969
294	0.965
294	0.962
295	0.959
295	0.956
296	0.953
296	0.95
297	0.948
297	0.945
298	0.942
298	0.939
298	0.936
299	0.934
299	0.931
300	0.929
300	0.926
301	0.923
301	0.92
302	0.918
302	0.915
303	0.913
303	0.911
304	0.908
304	0.906
305	0.904
305	0.901
305	0.899
306	0.897
306	0.895
307	0.892
307	0.89
308	0.887
308	0.885
309	0.882
309	0.879
310	0.876
310	0.873
311	0.87
311	0.867
311	0.864
312	0.861
312	0.858
313	0.854
313	0.851
314	0.847
314	0.844
315	0.839
315	0.835
316	0.831
316	0.826
317	0.822
317	0.817
318	0.812
318	0.807
318	0.802
319	0.796
319	0.791
320	0.785
320	0.779
321	0.773
321	0.767
322	0.761
322	0.755
323	0.748
323	0.742
324	0.736
324	0.729
324	0.722
325	0.716
325	0.709
326	0.703
326	0.696
327	0.689
327	0.682
328	0.676
328	0.669
329	0.661
329	0.655
330	0.647
330	0.64
330	0.634
331	0.627
331	0.62
332	0.613
332	0.606
333	0.599
333	0.592
334	0.585
334	0.578
335	0.572
335	0.565
336	0.558
336	0.552
336	0.545
337	0.539
337	0.533
338	0.527
338	0.521
339	0.515
339	0.509
340	0.503
340	0.497
341	0.492
341	0.486
342	0.481
342	0.475
342	0.47
343	0.464
343	0.459
344	0.454
344	0.45
345	0.445
345	0.44
346	0.436
346	0.432
347	0.427
347	0.423
348	0.419
348	0.415
348	0.411
349	0.407
349	0.403
350	0.4
350	0.397
351	0.393
351	0.39
352	0.387
352	0.384
353	0.381
353	0.378
354	0.375
354	0.373
354	0.37
355	0.366
355	0.364
356	0.361
356	0.358
357	0.355
357	0.352
358	0.35
358	0.347
359	0.345
359	0.342
360	0.341
360	0.339
360	0.337
361	0.335
361	0.333
362	0.332
362	0.33
363	0.329
363	0.327
364	0.325
364	0.323
365	0.321
365	0.319
366	0.318
366	0.316
366	0.314
367	0.312
367	0.311
368	0.309
368	0.308
369	0.306
369	0.305
370	0.304
370	0.302
371	0.301
371	0.3
372	0.298
372	0.297
372	0.296
373	0.295
373	0.294
374	0.293
374	0.292
375	0.291
375	0.29
376	0.29
376	0.289
377	0.288
377	0.287
378	0.286
378	0.286
378	0.285
379	0.284
379	0.283
380	0.283
380	0.282
381	0.281
381	0.281
382	0.28
382	0.28
383	0.279
383	0.278
383	0.278
384	0.277
384	0.277
385	0.276
385	0.276
386	0.275
386	0.275
387	0.275
387	0.274
388	0.274
388	0.274
389	0.273
389	0.273
389	0.272
390	0.272
390	0.272
391	0.271
391	0.271
392	0.271
392	0.27
393	0.27
393	0.269
394	0.269
394	0.269
394	0.268
395	0.268
395	0.268
396	0.267
396	0.267
397	0.266
397	0.266
398	0.266
398	0.265
399	0.265
399	0.265
400	0.265
400	0.264
400	0.264
401	0.264
401	0.264
402	0.263
402	0.263
403	0.263
403	0.263
404	0.263
404	0.262
405	0.262
405	0.262
405	0.262
406	0.261
406	0.261
407	0.261
407	0.26
408	0.26
408	0.26
409	0.259
409	0.259
410	0.259
410	0.259
411	0.258
411	0.258
411	0.258
412	0.258
412	0.257
413	0.257
413	0.257
414	0.256
414	0.256
415	0.256
415	0.255
416	0.255
416	0.255
416	0.254
417	0.254
417	0.253
418	0.253
418	0.253
419	0.253
419	0.252
420	0.252
420	0.252
421	0.251
421	0.251
421	0.251
422	0.25
422	0.25
423	0.249
423	0.249
424	0.249
424	0.249
425	0.248
425	0.248
426	0.248
426	0.247
427	0.247
427	0.247
427	0.246
428	0.246
428	0.246
429	0.246
429	0.245
430	0.245
430	0.245
431	0.244
431	0.244
432	0.244
432	0.244
432	0.244
433	0.244
433	0.244
434	0.244
434	0.244
435	0.243
435	0.243
436	0.243
436	0.243
437	0.242
437	0.242
437	0.242
438	0.242
438	0.241
439	0.241
439	0.241
440	0.241
440	0.24
441	0.24
441	0.24
442	0.24
442	0.24
442	0.24
443	0.239
443	0.239
444	0.239
444	0.238
445	0.238
445	0.238
446	0.238
446	0.237
447	0.237
447	0.237
447	0.237
448	0.236
448	0.236
449	0.236
449	0.236
450	0.236
450	0.236
451	0.235
451	0.235
452	0.235
452	0.235
452	0.235
453	0.235
453	0.235
454	0.235
454	0.234
455	0.234
455	0.234
456	0.234
456	0.233
457	0.233
457	0.233
458	0.233
458	0.233
458	0.233
459	0.233
459	0.233
460	0.232
460	0.232
461	0.232
461	0.232
462	0.232
462	0.231
463	0.231
463	0.23
463	0.23
464	0.23
464	0.229
465	0.229
465	0.229
466	0.229
466	0.229
467	0.229
467	0.229
467	0.229
468	0.229
468	0.23
469	0.23
469	0.23
470	0.231
470	0.231
471	0.231
471	0.231
472	0.231
472	0.231
472	0.231
473	0.231
473	0.231
474	0.231
474	0.231
475	0.23
475	0.23
476	0.23
476	0.231
477	0.23
477	0.23
477	0.231
478	0.231
478	0.231
479	0.231
479	0.231
480	0.23
480	0.23
481	0.231
481	0.23
482	0.231
482	0.231
482	0.231
483	0.231
483	0.231
484	0.232
484	0.232
485	0.232
485	0.232
486	0.232
486	0.232
487	0.232
487	0.232
487	0.233
488	0.233
488	0.233
489	0.233
489	0.234
490	0.235
490	0.235
491	0.236
491	0.236
492	0.237
492	0.237
492	0.238
493	0.238
493	0.239
494	0.239
494	0.24
495	0.24
495	0.24
496	0.241
496	0.241
496	0.242
497	0.242
497	0.242
498	0.243
498	0.243
499	0.243
499	0.244
500	0.245
500	0.246
501	0.246
501	0.247
501	0.247
502	0.248
502	0.248
503	0.249
503	0.249
504	0.25
504	0.25
505	0.251
505	0.251
506	0.252
506	0.252
506	0.253
507	0.253
507	0.254
508	0.254
508	0.254
509	0.255
509	0.255
510	0.256
510	0.256
511	0.257
511	0.257
511	0.258
512	0.259
512	0.259
513	0.26
513	0.261
514	0.261
514	0.262
515	0.262
515	0.262
515	0.262
516	0.263
516	0.264
517	0.264
517	0.264
518	0.265
518	0.265
519	0.265
519	0.265
520	0.266
520	0.266
520	0.267
521	0.267
521	0.267
522	0.267
522	0.267
523	0.267
523	0.267
524	0.267
524	0.267
524	0.268
525	0.268
525	0.268
526	0.267
526	0.268
527	0.268
527	0.268
528	0.267
528	0.267
529	0.267
529	0.267
529	0.267
530	0.266
530	0.266
531	0.266
531	0.266
532	0.266
532	0.265
533	0.265
533	0.265
533	0.265
534	0.264
534	0.264
535	0.264
535	0.264
536	0.263
536	0.263
537	0.263
537	0.262
538	0.262
538	0.262
538	0.261
539	0.261
539	0.261
540	0.26
540	0.26
541	0.259
541	0.259
542	0.258
542	0.258
542	0.257
543	0.257
543	0.256
544	0.256
544	0.255
545	0.255
545	0.254
546	0.254
546	0.253
547	0.253
547	0.252
547	0.251
548	0.251
548	0.25
549	0.25
549	0.25
550	0.249
550	0.249
551	0.248
551	0.247
551	0.247
552	0.246
552	0.245
553	0.245
553	0.244
554	0.243
554	0.242
555	0.242
555	0.241
556	0.24
556	0.239
556	0.239
557	0.239
557	0.239
558	0.239
558	0.238
559	0.238
559	0.238
560	0.237
560	0.237
560	0.236
561	0.236
561	0.236
562	0.235
562	0.234
563	0.233
563	0.232
564	0.231
564	0.231
564	0.23
565	0.23
565	0.229
566	0.229
566	0.228
567	0.228
567	0.228
568	0.227
568	0.227
568	0.226
569	0.226
569	0.225
570	0.224
570	0.223
571	0.223
571	0.222
572	0.221
572	0.22
573	0.22
573	0.219
573	0.219
574	0.218
574	0.218
575	0.218
575	0.218
576	0.217
576	0.217
577	0.216
577	0.216
577	0.215
578	0.215
578	0.214
579	0.215
579	0.214
580	0.214
580	0.213
581	0.212
581	0.212
581	0.212
582	0.212
582	0.212
583	0.212
583	0.211
584	0.21
584	0.209
585	0.209
585	0.209
585	0.208
586	0.208
586	0.207
587	0.206
587	0.205
588	0.205
588	0.204
589	0.204
589	0.204
590	0.203
590	0.203
590	0.204
591	0.204
591	0.203
592	0.203
592	0.202
593	0.202
593	0.202
594	0.201
594	0.201
594	0.2
595	0.2
595	0.199
596	0.198
596	0.198
597	0.199
597	0.199
598	0.199
598	0.199
598	0.198
599	0.198
599	0.198
600	0.197
600	0.197
601	0.196
601	0.196
602	0.196
602	0.195
602	0.195
603	0.194
603	0.194
604	0.194
604	0.194
605	0.194
605	0.194
606	0.194
606	0.193
606	0.193
607	0.192
607	0.192
608	0.192
608	0.191
609	0.191
609	0.191
610	0.191
610	0.19
610	0.19
611	0.19
611	0.19
612	0.19
612	0.19
613	0.19
613	0.19
614	0.189
614	0.189
614	0.189
615	0.189
615	0.189
616	0.189
616	0.189
617	0.189
617	0.188
618	0.188
618	0.188
618	0.189
619	0.189
619	0.189
620	0.189
620	0.189
621	0.189
621	0.188
622	0.187
622	0.187
622	0.186
623	0.185
623	0.185
624	0.185
624	0.184
625	0.183
625	0.183
626	0.182
626	0.182
626	0.182
627	0.182
627	0.182
628	0.182
628	0.181
629	0.181
629	0.181
630	0.181
630	0.18
630	0.181
631	0.18
631	0.18
632	0.18
632	0.179
633	0.179
633	0.179
634	0.18
634	0.18
634	0.18
635	0.18
635	0.18
636	0.179
636	0.18
637	0.179
637	0.179
638	0.179
638	0.178
638	0.178
639	0.178
639	0.177
640	0.177
640	0.177
641	0.177
641	0.177
642	0.177
642	0.177
642	0.177
643	0.177
643	0.177
644	0.177
644	0.177
645	0.177
645	0.177
646	0.177
646	0.177
646	0.176
647	0.176
647	0.176
648	0.175
648	0.175
649	0.175
649	0.174
650	0.174
650	0.174
650	0.174
651	0.174
651	0.174
652	0.174
652	0.174
653	0.175
653	0.177
653	0.183
654	0.144
654	0.116
655	0.116
655	0.116
656	0.116
656	0.117
657	0.117
657	0.117
657	0.118
658	0.116
658	0.106
659	0.134
659	0.172
660	0.177
660	0.177
661	0.177
661	0.177
661	0.176
662	0.176
662	0.175
663	0.175
663	0.175
664	0.174
664	0.174
665	0.173
665	0.173
665	0.173
666	0.173
666	0.173
667	0.173
667	0.174
668	0.174
668	0.175
669	0.175
669	0.176
669	0.176
670	0.177
670	0.177
671	0.177
671	0.177
672	0.177
672	0.177
672	0.177
673	0.176
673	0.176
674	0.175
674	0.174
675	0.174
675	0.174
676	0.174
676	0.174
676	0.174
677	0.173
677	0.174
678	0.173
678	0.173
679	0.173
679	0.173
680	0.174
680	0.174
680	0.174
681	0.174
681	0.174
682	0.174
682	0.174
683	0.175
683	0.175
684	0.175
684	0.175
684	0.174
685	0.174
685	0.175
686	0.174
686	0.174
687	0.174
687	0.174
687	0.174
688	0.174
688	0.174
689	0.174
689	0.175
690	0.175
690	0.174
691	0.174
691	0.175
691	0.175
692	0.175
692	0.175
693	0.175
693	0.175
694	0.175
694	0.175
695	0.175
695	0.176
695	0.177
696	0.176
696	0.176
697	0.176
697	0.176
698	0.175
698	0.175
698	0.175
699	0.175
699	0.174
700	0.174
700	0.175
701	0.175
701	0.175
702	0.175
702	0.176
702	0.176
703	0.176
703	0.176
704	0.176
704	0.177
705	0.177
705	0.177
705	0.176
706	0.176
706	0.177
707	0.177
707	0.177
708	0.177
708	0.177
709	0.177
709	0.177
709	0.176
710	0.176
710	0.177
711	0.177
711	0.177
712	0.177
712	0.177
713	0.177
713	0.177
713	0.177
714	0.177
714	0.177
715	0.177
715	0.176
716	0.176
716	0.176
716	0.176
717	0.175
717	0.175
718	0.175
718	0.174
719	0.175
719	0.175
720	0.176
720	0.176
720	0.176
721	0.177
721	0.178
722	0.178
722	0.179
723	0.179
723	0.179
723	0.179
724	0.179
724	0.179
725	0.178
725	0.178
726	0.177
726	0.177
727	0.176
727	0.176
727	0.175
728	0.175
728	0.175
729	0.175
729	0.175
730	0.175
730	0.176
730	0.176
731	0.177
731	0.178
732	0.178
732	0.179
733	0.179
733	0.179
734	0.18
734	0.18
734	0.181
735	0.181
735	0.181
736	0.181
736	0.181
737	0.181
737	0.181
737	0.181
738	0.18
738	0.18
739	0.18
739	0.179
740	0.179
740	0.179
741	0.179
741	0.179
741	0.179
742	0.179
742	0.179
743	0.18
743	0.181
744	0.181
744	0.182
744	0.183
745	0.183
745	0.183
746	0.184
746	0.184
747	0.184
747	0.184
748	0.184
748	0.184
748	0.183
749	0.183
749	0.183
750	0.183
750	0.182
751	0.182
751	0.182
751	0.182
752	0.182
752	0.181
753	0.181
753	0.181
754	0.181
754	0.18
754	0.18
755	0.18
755	0.18
756	0.18
756	0.179
757	0.179
757	0.179
758	0.179
758	0.18
758	0.18
759	0.181
759	0.181
760	0.181
760	0.181
761	0.181
761	0.182
761	0.182
762	0.182
762	0.182
763	0.182
763	0.182
764	0.181
764	0.181
764	0.181
765	0.181
765	0.181
766	0.181
766	0.181
767	0.18
767	0.18
768	0.179
768	0.179
768	0.18
769	0.18
769	0.18
770	0.181
770	0.181
771	0.182
771	0.183
771	0.183
772	0.185
772	0.186
773	0.186
773	0.187
774	0.187
774	0.188
775	0.188
775	0.189
775	0.189
776	0.189
776	0.19
777	0.19
777	0.19
778	0.19
778	0.19
778	0.19
779	0.19
779	0.189
780	0.189
780	0.188
781	0.188
781	0.187
781	0.187
782	0.187
782	0.187
783	0.187
783	0.188
784	0.188
784	0.189
784	0.189
785	0.19
785	0.19
786	0.191
786	0.191
787	0.191
787	0.191
788	0.19
788	0.189
788	0.188
789	0.188
789	0.187
790	0.187
790	0.186
791	0.186
791	0.185
791	0.185
792	0.185
792	0.186
793	0.186
793	0.186
794	0.186
794	0.186
794	0.186
795	0.187
795	0.187
796	0.188
796	0.188
797	0.188
797	0.188
797	0.189
798	0.189
798	0.189
799	0.189
799	0.189
800	0.189
800	0.188
801	0.188
801	0.188
801	0.188
802	0.188
802	0.188
803	0.188
803	0.188
804	0.189
804	0.19
804	0.19
805	0.19
805	0.189
806	0.189
806	0.189
807	0.189
807	0.188
807	0.188
808	0.188
808	0.188
809	0.188
809	0.188
810	0.188
810	0.188
810	0.189
811	0.189
811	0.19
812	0.191
812	0.191
813	0.192
813	0.192
813	0.193
814	0.193
814	0.194
815	0.195
815	0.195
816	0.195
816	0.194
817	0.193
817	0.193
817	0.192
818	0.192
818	0.192
819	0.191
819	0.19
820	0.19
820	0.189
820	0.189
821	0.189
821	0.189
822	0.189
822	0.189
823	0.19
823	0.19
823	0.19
824	0.191
824	0.192
825	0.193
825	0.194
826	0.194
826	0.194
826	0.194
827	0.195
827	0.195
828	0.195
828	0.195
829	0.195
829	0.195
829	0.195
830	0.195
830	0.196
831	0.197
831	0.197
832	0.197
832	0.197
832	0.197
833	0.196
833	0.196
834	0.195
834	0.195
835	0.194
835	0.194
835	0.194
836	0.193
836	0.193
837	0.193
837	0.193
838	0.193
838	0.193
839	0.192
839	0.192
839	0.191
840	0.19
840	0.189
841	0.188
841	0.187
842	0.186
842	0.185
842	0.184
843	0.184
843	0.183
844	0.182
844	0.181
845	0.18
845	0.18
845	0.179
846	0.179
846	0.179
847	0.179
847	0.18
848	0.18
848	0.181
848	0.182
849	0.183
849	0.184
850	0.184
850	0.185
851	0.185
851	0.185
851	0.185
852	0.185
852	0.184
853	0.184
853	0.183
854	0.183
854	0.183
854	0.183
855	0.183
855	0.184
856	0.184
856	0.184
857	0.185
857	0.186
857	0.186
858	0.187
858	0.187
859	0.186
859	0.186
860	0.185
860	0.185
860	0.184
861	0.183
861	0.183
862	0.181
862	0.18
863	0.179
863	0.179
863	0.179
864	0.178
864	0.178
865	0.178
865	0.179
866	0.178
866	0.178
866	0.179
867	0.179
867	0.18
868	0.181
868	0.181
869	0.182
869	0.182
869	0.182
870	0.182
870	0.182
871	0.182
871	0.182
872	0.182
872	0.182
872	0.181
873	0.181
873	0.18
874	0.18
874	0.179
875	0.178
875	0.178
875	0.177
876	0.177
876	0.176
877	0.176
877	0.175
878	0.175
878	0.175
878	0.176
879	0.176
879	0.176
880	0.177
880	0.177
881	0.178
881	0.178
881	0.178
882	0.178
882	0.178
883	0.178
883	0.178
884	0.178
884	0.178
884	0.177
885	0.177
885	0.176
886	0.175
886	0.174
887	0.174
887	0.173
887	0.172
888	0.171
888	0.17
889	0.17
889	0.169
890	0.169
890	0.169
890	0.169
891	0.168
891	0.168
892	0.168
892	0.168
893	0.168
893	0.168
893	0.168
894	0.167
894	0.167
895	0.167
895	0.167
895	0.167
896	0.168
896	0.168
897	0.168
897	0.168
898	0.168
898	0.168
898	0.167
899	0.167
899	0.166
900	0.166
900	0.165
901	0.164
901	0.163
901	0.163
902	0.162
902	0.162
903	0.161
903	0.161
904	0.16
904	0.16
904	0.16
905	0.16
905	0.159
906	0.159
906	0.159
907	0.159
907	0.16
907	0.16
908	0.16
908	0.16
909	0.159
909	0.159
910	0.159
910	0.159
910	0.159
911	0.158
911	0.158
912	0.157
912	0.157
913	0.157
913	0.157
913	0.157
914	0.157
914	0.157
915	0.157
915	0.157
916	0.157
916	0.157
916	0.157
917	0.156
917	0.156
918	0.155
918	0.155
918	0.154
919	0.154
919	0.153
920	0.153
920	0.152
921	0.152
921	0.152
921	0.152
922	0.151
922	0.152
923	0.152
923	0.152
924	0.152
924	0.152
924	0.153
925	0.153
925	0.154
926	0.154
926	0.155
927	0.155
927	0.155
927	0.155
928	0.155
928	0.155
929	0.155
929	0.155
930	0.155
930	0.154
930	0.153
931	0.152
931	0.152
932	0.151
932	0.15
933	0.15
933	0.149
933	0.148
934	0.148
934	0.147
935	0.147
935	0.147
935	0.146
936	0.146
936	0.146
937	0.145
937	0.145
938	0.145
938	0.144
938	0.144
939	0.144
939	0.143
940	0.143
940	0.142
941	0.142
941	0.142
941	0.142
942	0.142
942	0.142
943	0.142
943	0.142
944	0.142
944	0.142
944	0.142
945	0.142
945	0.142
946	0.142
946	0.142
946	0.142
947	0.142
947	0.142
948	0.142
948	0.142
949	0.141
949	0.141
949	0.14
950	0.14
950	0.14
951	0.14
951	0.139
952	0.138
952	0.138
952	0.137
953	0.137
953	0.137
954	0.137
954	0.136
955	0.136
955	0.135
955	0.135
956	0.135
956	0.135
957	0.135
957	0.135
957	0.135
958	0.134
958	0.134
959	0.134
959	0.134
960	0.134
960	0.133
960	0.133
961	0.133
961	0.132
962	0.132
962	0.132
963	0.132
963	0.132
963	0.132
964	0.132
964	0.133
965	0.133
965	0.133
966	0.133
966	0.133
966	0.133
967	0.132
967	0.132
968	0.132
968	0.131
968	0.131
969	0.13
969	0.129
970	0.128
970	0.128
971	0.127
971	0.127
971	0.126
972	0.126
972	0.126
973	0.125
973	0.125
974	0.125
974	0.125
974	0.125
975	0.125
975	0.126
976	0.126
976	0.127
976	0.127
977	0.126
977	0.126
978	0.126
978	0.126
979	0.125
979	0.125
979	0.125
980	0.125
980	0.124
981	0.123
981	0.123
982	0.123
982	0.123
982	0.123
983	0.123
983	0.123
984	0.123
984	0.123
984	0.122
985	0.122
985	0.122
986	0.122
986	0.122
987	0.122
987	0.122
987	0.121
988	0.121
988	0.121
989	0.12
989	0.12
990	0.12
990	0.119
990	0.119
991	0.119
991	0.118
992	0.117
992	0.117
992	0.116
993	0.115
993	0.114
994	0.113
994	0.112
995	0.111
995	0.11
995	0.11
996	0.11
996	0.11
997	0.11
997	0.111
997	0.111
998	0.112
998	0.112
999	0.113
999	0.114
1000	0.115
1000	0.116
1000	0.116
1001	0.116
1001	0.116
1002	0.116
1002	0.115
1003	0.115
1003	0.115
1003	0.114
1004	0.113
1004	0.112
1005	0.112
1005	0.111
1005	0.11
1006	0.109
1006	0.109
1007	0.108
1007	0.108
1008	0.107
1008	0.107
1008	0.107
1009	0.107
1009	0.107
1010	0.107
1010	0.108
1010	0.108
1011	0.108
1011	0.108
1012	0.109
1012	0.109
1013	0.109
1013	0.108
1013	0.108
1014	0.107
1014	0.107
1015	0.107
1015	0.106
1016	0.106
1016	0.106
1016	0.105
1017	0.104
1017	0.104
1018	0.103
1018	0.103
1018	0.102
1019	0.102
1019	0.102
1020	0.101
1020	0.101
1021	0.101
1021	0.101
1021	0.101
1022	0.102
1022	0.102
1023	0.102
1023	0.102
1023	0.103
1024	0.103
1024	0.103
1025	0.104
1025	0.104
1026	0.104
1026	0.104
1026	0.104
1027	0.105
1027	0.105
1028	0.104
1028	0.104
1028	0.104
1029	0.104
1029	0.104
1030	0.104
1030	0.104
1031	0.104
1031	0.105
1031	0.105
1032	0.105
1032	0.105
1033	0.105
1033	0.106
1033	0.106
1034	0.106
1034	0.105
1035	0.106
1035	0.105
1036	0.105
1036	0.105
1036	0.105
1037	0.105
1037	0.105
1038	0.104
1038	0.104
1039	0.104
1039	0.104
1039	0.104
1040	0.104
1040	0.104
1041	0.104
1041	0.103
1041	0.103
1042	0.103
1042	0.103
1043	0.103
1043	0.103
1044	0.102
1044	0.102
1044	0.102
1045	0.102
1045	0.102
1046	0.102
1046	0.102
1046	0.102
1047	0.102
1047	0.101
1048	0.101
1048	0.102
1049	0.101
1049	0.101
1049	0.101
1050	0.101
1050	0.1
1051	0.099
1051	0.099
1051	0.098
1052	0.098
1052	0.097
1053	0.096
1053	0.096
1053	0.095
1054	0.094
1054	0.094
1055	0.094
1055	0.093
1056	0.093
1056	0.092
1056	0.092
1057	0.091
1057	0.091
1058	0.091
1058	0.09
1058	0.089
1059	0.088
1059	0.088
1060	0.088
1060	0.087
1061	0.086
1061	0.086
1061	0.085
1062	0.085
1062	0.085
1063	0.084
1063	0.084
1063	0.084
1064	0.084
1064	0.083
1065	0.083
1065	0.083
1066	0.083
1066	0.083
1066	0.083
1067	0.082
1067	0.082
1068	0.082
1068	0.082
1068	0.081
1069	0.081
1069	0.08
1070	0.08
1070	0.079
1071	0.078
1071	0.078
1071	0.077
1072	0.077
1072	0.076
1073	0.075
1073	0.075
1073	0.075
1074	0.075
1074	0.076
1075	0.076
1075	0.076
1076	0.076
1076	0.077
1076	0.077
1077	0.077
1077	0.077
1078	0.077
1078	0.076
1078	0.076
1079	0.076
1079	0.076
1080	0.075
1080	0.074
1080	0.074
1081	0.074
1081	0.074
1082	0.074
1082	0.074
1083	0.073
1083	0.073
1083	0.073
1084	0.073
1084	0.073
1085	0.073
1085	0.073
1085	0.073
1086	0.073
1086	0.073
1087	0.072
1087	0.072
1088	0.072
1088	0.072
1088	0.072
1089	0.071
1089	0.071
1090	0.07
1090	0.069
1090	0.068
1091	0.068
1091	0.068
1092	0.068
1092	0.068
1092	0.068
1093	0.067
1093	0.068
1094	0.068
1094	0.068
1095	0.067
1095	0.067
1095	0.067
1096	0.066
1096	0.065
1097	0.065
1097	0.064
1097	0.063
1098	0.062
1098	0.06
1099	0.059
1099	0.058
1100	0.057
1100	0.055
1100	0.054
1101	0.052
1101	0.051
1102	0.05
1102	0.049
1102	0.047
1103	0.046
1103	0.046
1104	0.045
1104	0.044
1104	0.044
1105	0.043
1105	0.041
1106	0.039
1106	0.038
1107	0.037
1107	0.038
1107	0.037
1108	0.036
1108	0.036
1109	0.035
1109	0.034
1109	0.035
1110	0.036
1110	0.036
1111	0.035
1111	0.032
