Data from reversibility-20sec_Absorbance__2276__000000000002276.txt Node

Date: Wed Dec 06 00:51:46 CET 2023
User: Marek
Spectrometer: MAYP115816
Trigger mode: 0
Integration Time (sec): 2.000000E-1
Scans to average: 10
Electric dark correction enabled: true
Nonlinearity correction enabled: true
Boxcar width: 5
XAxis mode: Wavelengths
Number of Pixels in Spectrum: 2068
>>>>>Begin Spectral Data<<<<<
199	-0.195
199	-0.176
200	-0.107
200	-0.049
201	-0.024
201	-0.006
202	0.008
202	0.019
203	0.025
203	0.029
204	0.044
204	0.058
205	0.074
205	0.079
205	0.076
206	0.078
206	0.079
207	0.081
207	0.08
208	0.083
208	0.082
209	0.082
209	0.081
210	0.082
210	0.083
211	0.085
211	0.089
212	0.088
212	0.089
213	0.094
213	0.094
213	0.096
214	0.1
214	0.103
215	0.102
215	0.102
216	0.103
216	0.1
217	0.105
217	0.105
218	0.102
218	0.107
219	0.115
219	0.115
220	0.113
220	0.115
221	0.118
221	0.12
221	0.127
222	0.13
222	0.136
223	0.141
223	0.144
224	0.145
224	0.153
225	0.163
225	0.174
226	0.182
226	0.192
227	0.202
227	0.213
228	0.224
228	0.241
229	0.258
229	0.281
229	0.304
230	0.33
230	0.359
231	0.394
231	0.433
232	0.47
232	0.513
233	0.561
233	0.608
234	0.659
234	0.712
235	0.765
235	0.817
236	0.871
236	0.926
236	0.979
237	1.034
237	1.087
238	1.135
238	1.186
239	1.237
239	1.281
240	1.324
240	1.365
241	1.404
241	1.437
242	1.472
242	1.509
243	1.542
243	1.571
243	1.598
244	1.62
244	1.645
245	1.666
245	1.693
246	1.715
246	1.738
247	1.757
247	1.773
248	1.79
248	1.809
249	1.822
249	1.835
250	1.846
250	1.859
250	1.865
251	1.872
251	1.878
252	1.884
252	1.888
253	1.893
253	1.89
254	1.892
254	1.896
255	1.896
255	1.896
256	1.898
256	1.899
257	1.903
257	1.904
258	1.904
258	1.906
258	1.908
259	1.912
259	1.913
260	1.917
260	1.922
261	1.922
261	1.927
262	1.93
262	1.932
263	1.938
263	1.939
264	1.942
264	1.944
265	1.948
265	1.948
265	1.949
266	1.953
266	1.954
267	1.953
267	1.954
268	1.953
268	1.955
269	1.959
269	1.957
270	1.957
270	1.957
271	1.955
271	1.954
272	1.951
272	1.952
272	1.949
273	1.944
273	1.938
274	1.932
274	1.928
275	1.922
275	1.916
276	1.91
276	1.904
277	1.897
277	1.885
278	1.873
278	1.863
278	1.849
279	1.834
279	1.814
280	1.79
280	1.761
281	1.727
281	1.688
282	1.647
282	1.606
283	1.566
283	1.525
284	1.485
284	1.446
285	1.409
285	1.376
285	1.345
286	1.318
286	1.294
287	1.272
287	1.254
288	1.238
288	1.224
289	1.212
289	1.202
290	1.193
290	1.184
291	1.177
291	1.171
292	1.165
292	1.16
292	1.155
293	1.151
293	1.146
294	1.142
294	1.138
295	1.135
295	1.132
296	1.128
296	1.125
297	1.121
297	1.119
298	1.115
298	1.112
298	1.109
299	1.106
299	1.103
300	1.1
300	1.097
301	1.094
301	1.091
302	1.088
302	1.085
303	1.082
303	1.08
304	1.077
304	1.074
305	1.071
305	1.068
305	1.065
306	1.063
306	1.06
307	1.057
307	1.054
308	1.051
308	1.048
309	1.045
309	1.041
310	1.038
310	1.035
311	1.031
311	1.027
311	1.024
312	1.02
312	1.017
313	1.012
313	1.008
314	1.004
314	1
315	0.996
315	0.991
316	0.987
316	0.982
317	0.977
317	0.972
318	0.967
318	0.962
318	0.956
319	0.95
319	0.945
320	0.939
320	0.933
321	0.926
321	0.92
322	0.913
322	0.907
323	0.9
323	0.894
324	0.887
324	0.88
324	0.873
325	0.866
325	0.859
326	0.852
326	0.845
327	0.838
327	0.831
328	0.824
328	0.817
329	0.81
329	0.802
330	0.795
330	0.788
330	0.781
331	0.774
331	0.767
332	0.76
332	0.753
333	0.746
333	0.739
334	0.732
334	0.725
335	0.718
335	0.711
336	0.705
336	0.698
336	0.692
337	0.685
337	0.679
338	0.673
338	0.666
339	0.66
339	0.654
340	0.648
340	0.642
341	0.637
341	0.631
342	0.625
342	0.62
342	0.614
343	0.609
343	0.604
344	0.599
344	0.594
345	0.589
345	0.584
346	0.579
346	0.575
347	0.57
347	0.566
348	0.562
348	0.558
348	0.554
349	0.55
349	0.546
350	0.542
350	0.539
351	0.535
351	0.532
352	0.528
352	0.525
353	0.522
353	0.518
354	0.515
354	0.512
354	0.509
355	0.506
355	0.503
356	0.5
356	0.497
357	0.494
357	0.492
358	0.489
358	0.486
359	0.483
359	0.481
360	0.478
360	0.476
360	0.474
361	0.472
361	0.469
362	0.467
362	0.465
363	0.463
363	0.461
364	0.459
364	0.457
365	0.455
365	0.452
366	0.45
366	0.448
366	0.446
367	0.445
367	0.443
368	0.441
368	0.439
369	0.438
369	0.436
370	0.434
370	0.433
371	0.431
371	0.43
372	0.428
372	0.427
372	0.425
373	0.424
373	0.423
374	0.421
374	0.42
375	0.419
375	0.418
376	0.416
376	0.415
377	0.414
377	0.413
378	0.412
378	0.411
378	0.409
379	0.408
379	0.407
380	0.406
380	0.405
381	0.404
381	0.403
382	0.402
382	0.401
383	0.4
383	0.399
383	0.399
384	0.398
384	0.397
385	0.396
385	0.396
386	0.395
386	0.394
387	0.393
387	0.392
388	0.391
388	0.391
389	0.39
389	0.389
389	0.389
390	0.388
390	0.387
391	0.387
391	0.386
392	0.386
392	0.385
393	0.384
393	0.384
394	0.383
394	0.383
394	0.382
395	0.381
395	0.381
396	0.38
396	0.379
397	0.379
397	0.378
398	0.378
398	0.377
399	0.376
399	0.376
400	0.375
400	0.375
400	0.374
401	0.374
401	0.373
402	0.373
402	0.372
403	0.372
403	0.371
404	0.371
404	0.37
405	0.37
405	0.37
405	0.369
406	0.369
406	0.368
407	0.367
407	0.367
408	0.366
408	0.366
409	0.365
409	0.365
410	0.364
410	0.364
411	0.364
411	0.363
411	0.363
412	0.363
412	0.362
413	0.362
413	0.362
414	0.361
414	0.361
415	0.36
415	0.36
416	0.359
416	0.359
416	0.358
417	0.358
417	0.357
418	0.357
418	0.357
419	0.356
419	0.356
420	0.355
420	0.355
421	0.354
421	0.354
421	0.354
422	0.353
422	0.353
423	0.353
423	0.352
424	0.352
424	0.351
425	0.351
425	0.35
426	0.35
426	0.35
427	0.349
427	0.349
427	0.349
428	0.348
428	0.348
429	0.348
429	0.347
430	0.347
430	0.347
431	0.347
431	0.347
432	0.346
432	0.346
432	0.346
433	0.346
433	0.345
434	0.345
434	0.345
435	0.345
435	0.345
436	0.345
436	0.345
437	0.344
437	0.344
437	0.344
438	0.344
438	0.344
439	0.344
439	0.343
440	0.343
440	0.343
441	0.342
441	0.342
442	0.342
442	0.342
442	0.342
443	0.342
443	0.342
444	0.342
444	0.341
445	0.341
445	0.341
446	0.341
446	0.341
447	0.341
447	0.341
447	0.341
448	0.341
448	0.34
449	0.34
449	0.34
450	0.34
450	0.34
451	0.34
451	0.34
452	0.34
452	0.34
452	0.34
453	0.341
453	0.341
454	0.341
454	0.34
455	0.34
455	0.34
456	0.34
456	0.34
457	0.34
457	0.34
458	0.34
458	0.34
458	0.34
459	0.34
459	0.34
460	0.341
460	0.341
461	0.341
461	0.341
462	0.341
462	0.341
463	0.341
463	0.341
463	0.341
464	0.341
464	0.341
465	0.341
465	0.341
466	0.341
466	0.342
467	0.342
467	0.342
467	0.342
468	0.343
468	0.343
469	0.344
469	0.344
470	0.345
470	0.345
471	0.346
471	0.346
472	0.347
472	0.347
472	0.348
473	0.348
473	0.349
474	0.349
474	0.35
475	0.35
475	0.35
476	0.351
476	0.351
477	0.352
477	0.352
477	0.353
478	0.353
478	0.354
479	0.355
479	0.355
480	0.356
480	0.357
481	0.357
481	0.358
482	0.359
482	0.36
482	0.361
483	0.362
483	0.363
484	0.364
484	0.365
485	0.366
485	0.367
486	0.368
486	0.368
487	0.369
487	0.37
487	0.371
488	0.372
488	0.373
489	0.374
489	0.376
490	0.378
490	0.379
491	0.381
491	0.382
492	0.384
492	0.385
492	0.387
493	0.388
493	0.39
494	0.392
494	0.393
495	0.394
495	0.396
496	0.397
496	0.399
496	0.401
497	0.402
497	0.403
498	0.405
498	0.406
499	0.408
499	0.409
500	0.411
500	0.413
501	0.415
501	0.416
501	0.417
502	0.419
502	0.42
503	0.422
503	0.423
504	0.425
504	0.426
505	0.427
505	0.429
506	0.43
506	0.431
506	0.433
507	0.434
507	0.436
508	0.437
508	0.438
509	0.44
509	0.441
510	0.442
510	0.444
511	0.445
511	0.447
511	0.448
512	0.449
512	0.45
513	0.452
513	0.453
514	0.454
514	0.455
515	0.456
515	0.456
515	0.457
516	0.458
516	0.458
517	0.459
517	0.46
518	0.46
518	0.461
519	0.461
519	0.461
520	0.461
520	0.461
520	0.461
521	0.461
521	0.461
522	0.461
522	0.461
523	0.461
523	0.46
524	0.46
524	0.46
524	0.46
525	0.46
525	0.459
526	0.458
526	0.458
527	0.457
527	0.456
528	0.455
528	0.454
529	0.453
529	0.452
529	0.45
530	0.449
530	0.448
531	0.446
531	0.445
532	0.443
532	0.442
533	0.44
533	0.439
533	0.437
534	0.435
534	0.433
535	0.432
535	0.43
536	0.428
536	0.426
537	0.424
537	0.422
538	0.419
538	0.417
538	0.415
539	0.413
539	0.411
540	0.409
540	0.406
541	0.404
541	0.402
542	0.399
542	0.397
542	0.395
543	0.393
543	0.39
544	0.387
544	0.385
545	0.383
545	0.38
546	0.378
546	0.375
547	0.372
547	0.369
547	0.366
548	0.364
548	0.361
549	0.359
549	0.356
550	0.354
550	0.351
551	0.348
551	0.345
551	0.343
552	0.34
552	0.338
553	0.335
553	0.333
554	0.33
554	0.327
555	0.324
555	0.322
556	0.319
556	0.316
556	0.314
557	0.312
557	0.31
558	0.308
558	0.305
559	0.303
559	0.3
560	0.298
560	0.296
560	0.293
561	0.291
561	0.289
562	0.286
562	0.284
563	0.281
563	0.279
564	0.277
564	0.274
564	0.272
565	0.271
565	0.268
566	0.266
566	0.264
567	0.262
567	0.26
568	0.258
568	0.256
568	0.254
569	0.253
569	0.251
570	0.248
570	0.246
571	0.245
571	0.243
572	0.241
572	0.239
573	0.237
573	0.236
573	0.234
574	0.232
574	0.231
575	0.229
575	0.228
576	0.227
576	0.225
577	0.223
577	0.221
577	0.22
578	0.218
578	0.217
579	0.216
579	0.215
580	0.213
580	0.212
581	0.21
581	0.208
581	0.208
582	0.207
582	0.206
583	0.205
583	0.204
584	0.202
584	0.199
585	0.198
585	0.197
585	0.195
586	0.194
586	0.192
587	0.191
587	0.189
588	0.188
588	0.186
589	0.185
589	0.185
590	0.184
590	0.183
590	0.183
591	0.182
591	0.18
592	0.179
592	0.178
593	0.177
593	0.176
594	0.175
594	0.173
594	0.172
595	0.172
595	0.17
596	0.169
596	0.169
597	0.169
597	0.168
598	0.167
598	0.167
598	0.166
599	0.165
599	0.165
600	0.164
600	0.163
601	0.162
601	0.161
602	0.16
602	0.159
602	0.157
603	0.156
603	0.156
604	0.155
604	0.154
605	0.154
605	0.154
606	0.153
606	0.152
606	0.151
607	0.15
607	0.15
608	0.149
608	0.148
609	0.147
609	0.147
610	0.146
610	0.145
610	0.144
611	0.144
611	0.143
612	0.143
612	0.143
613	0.143
613	0.142
614	0.142
614	0.141
614	0.14
615	0.14
615	0.139
616	0.138
616	0.138
617	0.137
617	0.137
618	0.136
618	0.136
618	0.136
619	0.136
619	0.136
620	0.136
620	0.136
621	0.135
621	0.134
622	0.133
622	0.133
622	0.132
623	0.131
623	0.13
624	0.129
624	0.128
625	0.127
625	0.127
626	0.126
626	0.126
626	0.126
627	0.125
627	0.125
628	0.124
628	0.124
629	0.123
629	0.123
630	0.123
630	0.122
630	0.122
631	0.122
631	0.121
632	0.121
632	0.12
633	0.12
633	0.12
634	0.12
634	0.12
634	0.119
635	0.118
635	0.118
636	0.117
636	0.117
637	0.117
637	0.116
638	0.116
638	0.115
638	0.114
639	0.114
639	0.113
640	0.113
640	0.113
641	0.112
641	0.112
642	0.111
642	0.111
642	0.111
643	0.111
643	0.111
644	0.11
644	0.11
645	0.11
645	0.11
646	0.11
646	0.109
646	0.109
647	0.109
647	0.108
648	0.107
648	0.107
649	0.107
649	0.106
650	0.106
650	0.106
650	0.105
651	0.105
651	0.105
652	0.105
652	0.105
653	0.106
653	0.107
653	0.114
654	0.091
654	0.074
655	0.072
655	0.072
656	0.072
656	0.072
657	0.072
657	0.073
657	0.073
658	0.071
658	0.063
659	0.079
659	0.099
660	0.105
660	0.105
661	0.104
661	0.103
661	0.103
662	0.102
662	0.101
663	0.1
663	0.099
664	0.098
664	0.098
665	0.097
665	0.097
665	0.097
666	0.097
666	0.096
667	0.097
667	0.097
668	0.098
668	0.098
669	0.098
669	0.098
669	0.099
670	0.099
670	0.099
671	0.099
671	0.098
672	0.098
672	0.097
672	0.096
673	0.096
673	0.096
674	0.095
674	0.095
675	0.094
675	0.094
676	0.094
676	0.094
676	0.094
677	0.094
677	0.093
678	0.093
678	0.093
679	0.092
679	0.092
680	0.092
680	0.092
680	0.092
681	0.092
681	0.092
682	0.092
682	0.092
683	0.092
683	0.092
684	0.092
684	0.092
684	0.091
685	0.091
685	0.091
686	0.091
686	0.09
687	0.09
687	0.09
687	0.089
688	0.089
688	0.089
689	0.089
689	0.089
690	0.089
690	0.089
691	0.089
691	0.089
691	0.089
692	0.089
692	0.089
693	0.09
693	0.09
694	0.089
694	0.089
695	0.089
695	0.09
695	0.09
696	0.089
696	0.088
697	0.088
697	0.088
698	0.088
698	0.087
698	0.087
699	0.088
699	0.087
700	0.087
700	0.087
701	0.087
701	0.087
702	0.086
702	0.086
702	0.086
703	0.086
703	0.085
704	0.085
704	0.085
705	0.084
705	0.084
705	0.084
706	0.083
706	0.083
707	0.083
707	0.083
708	0.083
708	0.083
709	0.083
709	0.082
709	0.082
710	0.081
710	0.081
711	0.081
711	0.081
712	0.08
712	0.08
713	0.08
713	0.08
713	0.08
714	0.079
714	0.079
715	0.079
715	0.079
716	0.079
716	0.078
716	0.078
717	0.077
717	0.077
718	0.076
718	0.076
719	0.076
719	0.076
720	0.076
720	0.077
720	0.077
721	0.077
721	0.077
722	0.077
722	0.078
723	0.078
723	0.078
723	0.078
724	0.078
724	0.078
725	0.077
725	0.077
726	0.076
726	0.076
727	0.075
727	0.075
727	0.074
728	0.074
728	0.073
729	0.074
729	0.074
730	0.074
730	0.074
730	0.074
731	0.074
731	0.075
732	0.075
732	0.075
733	0.075
733	0.075
734	0.075
734	0.075
734	0.075
735	0.074
735	0.074
736	0.073
736	0.073
737	0.072
737	0.072
737	0.071
738	0.07
738	0.069
739	0.069
739	0.069
740	0.068
740	0.068
741	0.068
741	0.068
741	0.068
742	0.068
742	0.068
743	0.069
743	0.069
744	0.069
744	0.069
744	0.069
745	0.069
745	0.069
746	0.069
746	0.069
747	0.069
747	0.07
748	0.07
748	0.07
748	0.07
749	0.071
749	0.071
750	0.071
750	0.071
751	0.072
751	0.072
751	0.072
752	0.071
752	0.07
753	0.07
753	0.069
754	0.069
754	0.068
754	0.068
755	0.068
755	0.067
756	0.066
756	0.065
757	0.065
757	0.064
758	0.064
758	0.064
758	0.064
759	0.064
759	0.064
760	0.064
760	0.064
761	0.064
761	0.065
761	0.066
762	0.066
762	0.066
763	0.066
763	0.066
764	0.066
764	0.066
764	0.066
765	0.065
765	0.065
766	0.065
766	0.064
767	0.064
767	0.063
768	0.062
768	0.062
768	0.062
769	0.061
769	0.061
770	0.061
770	0.061
771	0.061
771	0.061
771	0.061
772	0.061
772	0.061
773	0.062
773	0.062
774	0.062
774	0.063
775	0.063
775	0.063
775	0.064
776	0.064
776	0.064
777	0.064
777	0.064
778	0.064
778	0.064
778	0.063
779	0.063
779	0.062
780	0.061
780	0.06
781	0.06
781	0.059
781	0.059
782	0.059
782	0.059
783	0.059
783	0.059
784	0.059
784	0.06
784	0.06
785	0.06
785	0.06
786	0.06
786	0.06
787	0.06
787	0.06
788	0.06
788	0.059
788	0.059
789	0.059
789	0.059
790	0.059
790	0.059
791	0.059
791	0.059
791	0.059
792	0.06
792	0.06
793	0.06
793	0.06
794	0.06
794	0.06
794	0.06
795	0.06
795	0.06
796	0.061
796	0.061
797	0.06
797	0.06
797	0.06
798	0.06
798	0.06
799	0.059
799	0.059
800	0.058
800	0.057
801	0.056
801	0.056
801	0.055
802	0.055
802	0.054
803	0.054
803	0.054
804	0.054
804	0.054
804	0.055
805	0.055
805	0.055
806	0.055
806	0.055
807	0.055
807	0.055
807	0.055
808	0.055
808	0.055
809	0.055
809	0.055
810	0.055
810	0.056
810	0.056
811	0.056
811	0.056
812	0.057
812	0.057
813	0.057
813	0.058
813	0.058
814	0.058
814	0.058
815	0.058
815	0.058
816	0.057
816	0.057
817	0.056
817	0.056
817	0.056
818	0.056
818	0.056
819	0.056
819	0.055
820	0.055
820	0.055
820	0.054
821	0.055
821	0.055
822	0.054
822	0.054
823	0.054
823	0.054
823	0.054
824	0.055
824	0.056
825	0.056
825	0.057
826	0.057
826	0.057
826	0.057
827	0.058
827	0.058
828	0.058
828	0.058
829	0.057
829	0.057
829	0.057
830	0.057
830	0.057
831	0.057
831	0.057
832	0.057
832	0.057
832	0.057
833	0.057
833	0.056
834	0.056
834	0.056
835	0.056
835	0.056
835	0.056
836	0.056
836	0.057
837	0.057
837	0.057
838	0.058
838	0.058
839	0.058
839	0.057
839	0.057
840	0.056
840	0.055
841	0.054
841	0.053
842	0.052
842	0.051
842	0.05
843	0.05
843	0.049
844	0.049
844	0.049
845	0.049
845	0.049
845	0.049
846	0.05
846	0.05
847	0.05
847	0.051
848	0.052
848	0.052
848	0.052
849	0.052
849	0.053
850	0.053
850	0.053
851	0.053
851	0.053
851	0.053
852	0.052
852	0.051
853	0.05
853	0.05
854	0.05
854	0.05
854	0.051
855	0.051
855	0.052
856	0.052
856	0.053
857	0.054
857	0.055
857	0.055
858	0.056
858	0.056
859	0.055
859	0.055
860	0.054
860	0.054
860	0.053
861	0.052
861	0.051
862	0.05
862	0.049
863	0.048
863	0.048
863	0.047
864	0.047
864	0.047
865	0.047
865	0.046
866	0.046
866	0.046
866	0.046
867	0.047
867	0.047
868	0.047
868	0.047
869	0.047
869	0.047
869	0.047
870	0.047
870	0.047
871	0.048
871	0.048
872	0.048
872	0.048
872	0.048
873	0.048
873	0.048
874	0.048
874	0.047
875	0.047
875	0.046
875	0.046
876	0.046
876	0.046
877	0.046
877	0.046
878	0.046
878	0.047
878	0.048
879	0.049
879	0.05
880	0.05
880	0.051
881	0.052
881	0.052
881	0.052
882	0.052
882	0.052
883	0.052
883	0.052
884	0.051
884	0.051
884	0.05
885	0.049
885	0.049
886	0.048
886	0.048
887	0.047
887	0.047
887	0.046
888	0.046
888	0.045
889	0.045
889	0.045
890	0.045
890	0.045
890	0.045
891	0.045
891	0.046
892	0.046
892	0.046
893	0.047
893	0.047
893	0.048
894	0.048
894	0.048
895	0.048
895	0.048
895	0.048
896	0.048
896	0.047
897	0.047
897	0.046
898	0.046
898	0.045
898	0.045
899	0.045
899	0.045
900	0.045
900	0.045
901	0.045
901	0.046
901	0.046
902	0.047
902	0.047
903	0.047
903	0.047
904	0.047
904	0.047
904	0.047
905	0.047
905	0.047
906	0.047
906	0.048
907	0.048
907	0.048
907	0.049
908	0.049
908	0.049
909	0.049
909	0.049
910	0.049
910	0.049
910	0.049
911	0.048
911	0.048
912	0.048
912	0.048
913	0.048
913	0.048
913	0.048
914	0.048
914	0.048
915	0.048
915	0.048
916	0.048
916	0.047
916	0.047
917	0.046
917	0.046
918	0.045
918	0.045
918	0.044
919	0.044
919	0.043
920	0.043
920	0.042
921	0.042
921	0.041
921	0.041
922	0.041
922	0.041
923	0.041
923	0.041
924	0.041
924	0.041
924	0.042
925	0.043
925	0.043
926	0.044
926	0.044
927	0.044
927	0.045
927	0.045
928	0.045
928	0.045
929	0.046
929	0.046
930	0.046
930	0.046
930	0.046
931	0.046
931	0.046
932	0.046
932	0.047
933	0.047
933	0.047
933	0.047
934	0.047
934	0.047
935	0.047
935	0.046
935	0.046
936	0.046
936	0.045
937	0.045
937	0.045
938	0.045
938	0.045
938	0.045
939	0.045
939	0.045
940	0.045
940	0.045
941	0.046
941	0.046
941	0.046
942	0.047
942	0.047
943	0.047
943	0.047
944	0.048
944	0.048
944	0.048
945	0.048
945	0.048
946	0.048
946	0.048
946	0.048
947	0.049
947	0.048
948	0.048
948	0.048
949	0.048
949	0.048
949	0.048
950	0.048
950	0.048
951	0.048
951	0.047
952	0.047
952	0.046
952	0.046
953	0.045
953	0.045
954	0.044
954	0.043
955	0.043
955	0.042
955	0.041
956	0.041
956	0.041
957	0.041
957	0.041
957	0.042
958	0.042
958	0.042
959	0.043
959	0.043
960	0.044
960	0.044
960	0.045
961	0.045
961	0.045
962	0.045
962	0.045
963	0.046
963	0.046
963	0.046
964	0.046
964	0.046
965	0.047
965	0.047
966	0.048
966	0.048
966	0.049
967	0.049
967	0.05
968	0.051
968	0.051
968	0.051
969	0.052
969	0.052
970	0.052
970	0.051
971	0.051
971	0.05
971	0.05
972	0.05
972	0.049
973	0.049
973	0.048
974	0.048
974	0.048
974	0.048
975	0.049
975	0.049
976	0.05
976	0.05
976	0.05
977	0.051
977	0.051
978	0.051
978	0.051
979	0.051
979	0.051
979	0.051
980	0.051
980	0.051
981	0.05
981	0.05
982	0.05
982	0.049
982	0.049
983	0.048
983	0.048
984	0.047
984	0.046
984	0.046
985	0.045
985	0.044
986	0.044
986	0.043
987	0.043
987	0.042
987	0.042
988	0.041
988	0.041
989	0.041
989	0.04
990	0.04
990	0.04
990	0.039
991	0.039
991	0.038
992	0.038
992	0.037
992	0.036
993	0.036
993	0.036
994	0.035
994	0.035
995	0.035
995	0.035
995	0.036
996	0.036
996	0.037
997	0.038
997	0.039
997	0.039
998	0.04
998	0.041
999	0.042
999	0.043
1000	0.044
1000	0.045
1000	0.045
1001	0.046
1001	0.046
1002	0.046
1002	0.046
1003	0.046
1003	0.045
1003	0.045
1004	0.044
1004	0.043
1005	0.043
1005	0.042
1005	0.041
1006	0.041
1006	0.04
1007	0.04
1007	0.04
1008	0.039
1008	0.039
1008	0.039
1009	0.039
1009	0.039
1010	0.039
1010	0.04
1010	0.04
1011	0.04
1011	0.04
1012	0.04
1012	0.04
1013	0.04
1013	0.04
1013	0.04
1014	0.04
1014	0.04
1015	0.039
1015	0.039
1016	0.039
1016	0.039
1016	0.039
1017	0.039
1017	0.038
1018	0.038
1018	0.038
1018	0.038
1019	0.038
1019	0.038
1020	0.038
1020	0.038
1021	0.038
1021	0.038
1021	0.039
1022	0.039
1022	0.039
1023	0.039
1023	0.038
1023	0.039
1024	0.038
1024	0.038
1025	0.038
1025	0.037
1026	0.037
1026	0.036
1026	0.036
1027	0.035
1027	0.035
1028	0.035
1028	0.034
1028	0.034
1029	0.034
1029	0.034
1030	0.035
1030	0.035
1031	0.035
1031	0.036
1031	0.036
1032	0.036
1032	0.037
1033	0.037
1033	0.037
1033	0.037
1034	0.037
1034	0.037
1035	0.037
1035	0.037
1036	0.036
1036	0.036
1036	0.037
1037	0.036
1037	0.036
1038	0.036
1038	0.037
1039	0.037
1039	0.037
1039	0.038
1040	0.038
1040	0.038
1041	0.039
1041	0.039
1041	0.039
1042	0.039
1042	0.04
1043	0.04
1043	0.04
1044	0.04
1044	0.041
1044	0.041
1045	0.041
1045	0.041
1046	0.042
1046	0.042
1046	0.042
1047	0.043
1047	0.043
1048	0.044
1048	0.044
1049	0.045
1049	0.045
1049	0.045
1050	0.045
1050	0.045
1051	0.045
1051	0.045
1051	0.045
1052	0.044
1052	0.044
1053	0.043
1053	0.042
1053	0.042
1054	0.041
1054	0.041
1055	0.041
1055	0.04
1056	0.04
1056	0.039
1056	0.038
1057	0.038
1057	0.037
1058	0.037
1058	0.036
1058	0.035
1059	0.034
1059	0.033
1060	0.033
1060	0.032
1061	0.031
1061	0.031
1061	0.031
1062	0.031
1062	0.031
1063	0.031
1063	0.031
1063	0.03
1064	0.03
1064	0.03
1065	0.029
1065	0.029
1066	0.029
1066	0.029
1066	0.029
1067	0.029
1067	0.029
1068	0.029
1068	0.029
1068	0.028
1069	0.029
1069	0.028
1070	0.027
1070	0.027
1071	0.026
1071	0.026
1071	0.025
1072	0.025
1072	0.024
1073	0.023
1073	0.023
1073	0.023
1074	0.023
1074	0.023
1075	0.022
1075	0.022
1076	0.023
1076	0.023
1076	0.024
1077	0.024
1077	0.025
1078	0.025
1078	0.025
1078	0.026
1079	0.026
1079	0.027
1080	0.027
1080	0.027
1080	0.028
1081	0.028
1081	0.028
1082	0.029
1082	0.03
1083	0.03
1083	0.03
1083	0.03
1084	0.03
1084	0.03
1085	0.03
1085	0.029
1085	0.029
1086	0.029
1086	0.028
1087	0.027
1087	0.026
1088	0.026
1088	0.025
1088	0.025
1089	0.024
1089	0.024
1090	0.023
1090	0.023
1090	0.022
1091	0.022
1091	0.022
1092	0.022
1092	0.022
1092	0.022
1093	0.021
1093	0.021
1094	0.021
1094	0.02
1095	0.02
1095	0.02
1095	0.019
1096	0.019
1096	0.018
1097	0.018
1097	0.018
1097	0.018
1098	0.017
1098	0.017
1099	0.016
1099	0.015
1100	0.014
1100	0.013
1100	0.012
1101	0.012
1101	0.012
1102	0.011
1102	0.01
1102	0.009
1103	0.009
1103	0.009
1104	0.009
1104	0.01
1104	0.009
1105	0.008
1105	0.006
1106	0.004
1106	0.003
1107	0.002
1107	0.002
1107	0.001
1108	-0.001
1108	-0.002
1109	-0.003
1109	-0.004
1109	-0.004
1110	-0.002
1110	-0.003
1111	-0.002
1111	-0.005
