Data from reversibility-20sec_Absorbance__718__000000000000718.txt Node

Date: Tue Dec 05 16:12:27 CET 2023
User: Marek
Spectrometer: MAYP115816
Trigger mode: 0
Integration Time (sec): 2.000000E-1
Scans to average: 10
Electric dark correction enabled: true
Nonlinearity correction enabled: true
Boxcar width: 5
XAxis mode: Wavelengths
Number of Pixels in Spectrum: 2068
>>>>>Begin Spectral Data<<<<<
199	-0.223
199	-0.201
200	-0.129
200	-0.073
201	-0.046
201	-0.03
202	-0.021
202	-0.012
203	-0.005
203	0
204	0.011
204	0.025
205	0.038
205	0.041
205	0.037
206	0.038
206	0.037
207	0.041
207	0.041
208	0.041
208	0.039
209	0.043
209	0.041
210	0.043
210	0.045
211	0.045
211	0.047
212	0.045
212	0.046
213	0.05
213	0.052
213	0.052
214	0.055
214	0.056
215	0.057
215	0.056
216	0.061
216	0.06
217	0.065
217	0.067
218	0.065
218	0.07
219	0.075
219	0.074
220	0.079
220	0.08
221	0.08
221	0.084
221	0.09
222	0.094
222	0.098
223	0.104
223	0.107
224	0.11
224	0.121
225	0.13
225	0.139
226	0.15
226	0.159
227	0.168
227	0.178
228	0.193
228	0.205
229	0.221
229	0.243
229	0.263
230	0.287
230	0.317
231	0.35
231	0.389
232	0.425
232	0.47
233	0.514
233	0.564
234	0.613
234	0.662
235	0.714
235	0.763
236	0.815
236	0.866
236	0.916
237	0.97
237	1.018
238	1.066
238	1.112
239	1.16
239	1.205
240	1.246
240	1.284
241	1.321
241	1.355
242	1.386
242	1.416
243	1.443
243	1.468
243	1.494
244	1.516
244	1.537
245	1.557
245	1.577
246	1.595
246	1.613
247	1.626
247	1.641
248	1.658
248	1.671
249	1.679
249	1.689
250	1.698
250	1.705
250	1.712
251	1.716
251	1.717
252	1.724
252	1.725
253	1.724
253	1.724
254	1.724
254	1.724
255	1.722
255	1.722
256	1.721
256	1.72
257	1.721
257	1.718
258	1.717
258	1.716
258	1.716
259	1.717
259	1.716
260	1.715
260	1.717
261	1.715
261	1.718
262	1.719
262	1.719
263	1.721
263	1.723
264	1.723
264	1.724
265	1.724
265	1.725
265	1.725
266	1.724
266	1.724
267	1.721
267	1.723
268	1.722
268	1.721
269	1.723
269	1.721
270	1.721
270	1.72
271	1.718
271	1.717
272	1.715
272	1.713
272	1.709
273	1.705
273	1.7
274	1.695
274	1.69
275	1.684
275	1.679
276	1.671
276	1.664
277	1.656
277	1.647
278	1.637
278	1.626
278	1.614
279	1.6
279	1.582
280	1.561
280	1.535
281	1.506
281	1.472
282	1.437
282	1.401
283	1.364
283	1.328
284	1.293
284	1.258
285	1.225
285	1.195
285	1.169
286	1.144
286	1.124
287	1.105
287	1.09
288	1.076
288	1.064
289	1.054
289	1.045
290	1.037
290	1.031
291	1.025
291	1.021
292	1.016
292	1.012
292	1.008
293	1.004
293	1.001
294	0.997
294	0.995
295	0.993
295	0.99
296	0.987
296	0.984
297	0.982
297	0.979
298	0.977
298	0.974
298	0.972
299	0.97
299	0.967
300	0.964
300	0.962
301	0.96
301	0.958
302	0.955
302	0.953
303	0.951
303	0.948
304	0.946
304	0.944
305	0.942
305	0.94
305	0.937
306	0.935
306	0.932
307	0.93
307	0.928
308	0.925
308	0.923
309	0.92
309	0.917
310	0.914
310	0.911
311	0.908
311	0.905
311	0.902
312	0.898
312	0.895
313	0.892
313	0.888
314	0.884
314	0.88
315	0.876
315	0.872
316	0.868
316	0.863
317	0.859
317	0.854
318	0.849
318	0.844
318	0.839
319	0.834
319	0.828
320	0.823
320	0.817
321	0.812
321	0.806
322	0.8
322	0.794
323	0.788
323	0.782
324	0.776
324	0.769
324	0.763
325	0.757
325	0.75
326	0.744
326	0.737
327	0.73
327	0.724
328	0.717
328	0.711
329	0.704
329	0.697
330	0.69
330	0.683
330	0.676
331	0.669
331	0.662
332	0.655
332	0.649
333	0.642
333	0.635
334	0.628
334	0.622
335	0.615
335	0.609
336	0.602
336	0.596
336	0.59
337	0.584
337	0.577
338	0.571
338	0.565
339	0.559
339	0.554
340	0.548
340	0.543
341	0.537
341	0.532
342	0.527
342	0.521
342	0.516
343	0.511
343	0.507
344	0.502
344	0.497
345	0.493
345	0.488
346	0.484
346	0.479
347	0.475
347	0.471
348	0.467
348	0.463
348	0.46
349	0.456
349	0.452
350	0.449
350	0.445
351	0.442
351	0.439
352	0.436
352	0.433
353	0.43
353	0.427
354	0.424
354	0.421
354	0.418
355	0.415
355	0.412
356	0.409
356	0.407
357	0.403
357	0.401
358	0.398
358	0.395
359	0.393
359	0.391
360	0.389
360	0.386
360	0.385
361	0.382
361	0.381
362	0.379
362	0.377
363	0.375
363	0.374
364	0.372
364	0.37
365	0.368
365	0.366
366	0.364
366	0.362
366	0.361
367	0.359
367	0.357
368	0.356
368	0.354
369	0.353
369	0.351
370	0.349
370	0.348
371	0.346
371	0.345
372	0.344
372	0.342
372	0.341
373	0.34
373	0.338
374	0.338
374	0.336
375	0.335
375	0.334
376	0.333
376	0.332
377	0.331
377	0.33
378	0.329
378	0.328
378	0.327
379	0.326
379	0.325
380	0.324
380	0.323
381	0.322
381	0.321
382	0.32
382	0.32
383	0.319
383	0.318
383	0.317
384	0.316
384	0.316
385	0.315
385	0.314
386	0.314
386	0.313
387	0.312
387	0.312
388	0.311
388	0.31
389	0.31
389	0.309
389	0.308
390	0.308
390	0.307
391	0.307
391	0.306
392	0.306
392	0.305
393	0.305
393	0.304
394	0.304
394	0.303
394	0.302
395	0.302
395	0.301
396	0.301
396	0.3
397	0.299
397	0.299
398	0.298
398	0.298
399	0.297
399	0.297
400	0.296
400	0.296
400	0.296
401	0.295
401	0.295
402	0.294
402	0.294
403	0.294
403	0.293
404	0.293
404	0.292
405	0.292
405	0.292
405	0.291
406	0.291
406	0.29
407	0.29
407	0.289
408	0.289
408	0.289
409	0.288
409	0.288
410	0.287
410	0.287
411	0.286
411	0.286
411	0.286
412	0.286
412	0.285
413	0.285
413	0.285
414	0.285
414	0.284
415	0.284
415	0.283
416	0.283
416	0.283
416	0.282
417	0.282
417	0.281
418	0.281
418	0.281
419	0.28
419	0.28
420	0.28
420	0.279
421	0.279
421	0.279
421	0.279
422	0.278
422	0.278
423	0.278
423	0.277
424	0.277
424	0.277
425	0.277
425	0.276
426	0.276
426	0.276
427	0.275
427	0.275
427	0.275
428	0.275
428	0.274
429	0.274
429	0.274
430	0.274
430	0.273
431	0.273
431	0.273
432	0.273
432	0.273
432	0.273
433	0.272
433	0.272
434	0.272
434	0.272
435	0.272
435	0.272
436	0.272
436	0.272
437	0.271
437	0.271
437	0.271
438	0.271
438	0.271
439	0.27
439	0.27
440	0.27
440	0.27
441	0.27
441	0.269
442	0.269
442	0.269
442	0.269
443	0.269
443	0.269
444	0.269
444	0.269
445	0.269
445	0.269
446	0.269
446	0.269
447	0.269
447	0.269
447	0.269
448	0.269
448	0.269
449	0.269
449	0.269
450	0.269
450	0.269
451	0.269
451	0.269
452	0.269
452	0.269
452	0.269
453	0.269
453	0.269
454	0.269
454	0.269
455	0.269
455	0.269
456	0.269
456	0.269
457	0.269
457	0.269
458	0.269
458	0.269
458	0.27
459	0.27
459	0.27
460	0.27
460	0.27
461	0.27
461	0.27
462	0.27
462	0.27
463	0.27
463	0.271
463	0.271
464	0.271
464	0.271
465	0.271
465	0.271
466	0.271
466	0.272
467	0.272
467	0.272
467	0.272
468	0.273
468	0.273
469	0.274
469	0.274
470	0.274
470	0.275
471	0.275
471	0.275
472	0.276
472	0.276
472	0.277
473	0.277
473	0.278
474	0.278
474	0.279
475	0.279
475	0.28
476	0.28
476	0.282
477	0.282
477	0.283
477	0.284
478	0.285
478	0.286
479	0.286
479	0.287
480	0.287
480	0.288
481	0.289
481	0.289
482	0.29
482	0.291
482	0.291
483	0.292
483	0.294
484	0.295
484	0.296
485	0.297
485	0.298
486	0.298
486	0.299
487	0.3
487	0.302
487	0.303
488	0.304
488	0.305
489	0.306
489	0.308
490	0.309
490	0.311
491	0.312
491	0.314
492	0.315
492	0.316
492	0.317
493	0.319
493	0.32
494	0.321
494	0.323
495	0.324
495	0.326
496	0.328
496	0.329
496	0.331
497	0.332
497	0.334
498	0.335
498	0.336
499	0.338
499	0.34
500	0.342
500	0.343
501	0.345
501	0.346
501	0.348
502	0.349
502	0.351
503	0.352
503	0.354
504	0.355
504	0.357
505	0.358
505	0.36
506	0.361
506	0.362
506	0.364
507	0.365
507	0.367
508	0.368
508	0.37
509	0.371
509	0.372
510	0.374
510	0.375
511	0.376
511	0.378
511	0.379
512	0.38
512	0.381
513	0.382
513	0.383
514	0.384
514	0.386
515	0.386
515	0.387
515	0.388
516	0.389
516	0.389
517	0.39
517	0.391
518	0.391
518	0.392
519	0.392
519	0.392
520	0.393
520	0.393
520	0.393
521	0.393
521	0.393
522	0.393
522	0.393
523	0.393
523	0.393
524	0.393
524	0.393
524	0.393
525	0.392
525	0.391
526	0.39
526	0.39
527	0.389
527	0.389
528	0.388
528	0.387
529	0.386
529	0.385
529	0.383
530	0.382
530	0.381
531	0.38
531	0.378
532	0.377
532	0.375
533	0.374
533	0.372
533	0.371
534	0.37
534	0.368
535	0.367
535	0.365
536	0.364
536	0.362
537	0.36
537	0.358
538	0.356
538	0.354
538	0.352
539	0.35
539	0.348
540	0.346
540	0.344
541	0.341
541	0.34
542	0.337
542	0.335
542	0.332
543	0.33
543	0.328
544	0.326
544	0.324
545	0.322
545	0.319
546	0.317
546	0.315
547	0.313
547	0.31
547	0.308
548	0.306
548	0.303
549	0.301
549	0.299
550	0.296
550	0.294
551	0.291
551	0.288
551	0.285
552	0.283
552	0.28
553	0.278
553	0.276
554	0.273
554	0.271
555	0.268
555	0.266
556	0.263
556	0.261
556	0.259
557	0.257
557	0.255
558	0.253
558	0.252
559	0.249
559	0.247
560	0.245
560	0.243
560	0.241
561	0.24
561	0.238
562	0.236
562	0.233
563	0.231
563	0.229
564	0.226
564	0.224
564	0.223
565	0.221
565	0.219
566	0.217
566	0.215
567	0.213
567	0.211
568	0.209
568	0.208
568	0.206
569	0.205
569	0.203
570	0.201
570	0.199
571	0.198
571	0.196
572	0.194
572	0.193
573	0.191
573	0.19
573	0.188
574	0.186
574	0.185
575	0.184
575	0.183
576	0.182
576	0.18
577	0.178
577	0.177
577	0.176
578	0.174
578	0.173
579	0.172
579	0.171
580	0.169
580	0.167
581	0.166
581	0.165
581	0.164
582	0.163
582	0.162
583	0.161
583	0.16
584	0.158
584	0.156
585	0.155
585	0.154
585	0.153
586	0.152
586	0.151
587	0.149
587	0.148
588	0.146
588	0.145
589	0.144
589	0.143
590	0.142
590	0.142
590	0.141
591	0.141
591	0.139
592	0.138
592	0.137
593	0.136
593	0.136
594	0.135
594	0.134
594	0.133
595	0.132
595	0.131
596	0.13
596	0.129
597	0.129
597	0.129
598	0.128
598	0.127
598	0.127
599	0.126
599	0.125
600	0.124
600	0.123
601	0.123
601	0.122
602	0.121
602	0.12
602	0.119
603	0.118
603	0.118
604	0.118
604	0.117
605	0.117
605	0.116
606	0.115
606	0.114
606	0.114
607	0.113
607	0.113
608	0.112
608	0.111
609	0.11
609	0.109
610	0.109
610	0.108
610	0.107
611	0.107
611	0.107
612	0.106
612	0.106
613	0.106
613	0.105
614	0.105
614	0.104
614	0.104
615	0.103
615	0.103
616	0.102
616	0.102
617	0.101
617	0.101
618	0.1
618	0.1
618	0.099
619	0.099
619	0.099
620	0.099
620	0.098
621	0.098
621	0.097
622	0.096
622	0.096
622	0.095
623	0.095
623	0.094
624	0.094
624	0.093
625	0.092
625	0.092
626	0.091
626	0.091
626	0.091
627	0.09
627	0.09
628	0.089
628	0.089
629	0.088
629	0.088
630	0.087
630	0.087
630	0.087
631	0.087
631	0.086
632	0.086
632	0.085
633	0.085
633	0.085
634	0.085
634	0.086
634	0.085
635	0.085
635	0.084
636	0.084
636	0.084
637	0.083
637	0.083
638	0.082
638	0.082
638	0.081
639	0.081
639	0.08
640	0.08
640	0.08
641	0.079
641	0.079
642	0.079
642	0.079
642	0.079
643	0.079
643	0.079
644	0.078
644	0.078
645	0.078
645	0.078
646	0.078
646	0.078
646	0.078
647	0.078
647	0.077
648	0.077
648	0.076
649	0.076
649	0.075
650	0.075
650	0.075
650	0.075
651	0.075
651	0.074
652	0.074
652	0.074
653	0.075
653	0.077
653	0.083
654	0.067
654	0.055
655	0.053
655	0.053
656	0.053
656	0.053
657	0.053
657	0.053
657	0.053
658	0.052
658	0.045
659	0.055
659	0.069
660	0.073
660	0.072
661	0.072
661	0.072
661	0.071
662	0.071
662	0.07
663	0.07
663	0.07
664	0.069
664	0.069
665	0.069
665	0.068
665	0.068
666	0.068
666	0.068
667	0.068
667	0.068
668	0.067
668	0.067
669	0.067
669	0.067
669	0.068
670	0.068
670	0.068
671	0.068
671	0.067
672	0.067
672	0.066
672	0.066
673	0.066
673	0.066
674	0.066
674	0.065
675	0.065
675	0.065
676	0.066
676	0.066
676	0.066
677	0.067
677	0.067
678	0.067
678	0.066
679	0.066
679	0.066
680	0.066
680	0.066
680	0.065
681	0.065
681	0.065
682	0.065
682	0.065
683	0.065
683	0.065
684	0.066
684	0.065
684	0.065
685	0.065
685	0.065
686	0.064
686	0.064
687	0.063
687	0.063
687	0.063
688	0.062
688	0.062
689	0.062
689	0.062
690	0.062
690	0.062
691	0.062
691	0.062
691	0.063
692	0.063
692	0.063
693	0.064
693	0.064
694	0.064
694	0.064
695	0.064
695	0.065
695	0.065
696	0.065
696	0.065
697	0.065
697	0.064
698	0.064
698	0.063
698	0.063
699	0.063
699	0.063
700	0.062
700	0.062
701	0.062
701	0.061
702	0.061
702	0.061
702	0.061
703	0.061
703	0.061
704	0.061
704	0.061
705	0.061
705	0.061
705	0.06
706	0.06
706	0.06
707	0.06
707	0.06
708	0.06
708	0.059
709	0.059
709	0.059
709	0.058
710	0.058
710	0.058
711	0.058
711	0.058
712	0.058
712	0.058
713	0.058
713	0.058
713	0.058
714	0.058
714	0.058
715	0.057
715	0.057
716	0.057
716	0.057
716	0.056
717	0.056
717	0.056
718	0.055
718	0.055
719	0.055
719	0.055
720	0.056
720	0.056
720	0.056
721	0.056
721	0.056
722	0.056
722	0.056
723	0.057
723	0.057
723	0.057
724	0.057
724	0.056
725	0.055
725	0.054
726	0.054
726	0.053
727	0.053
727	0.052
727	0.052
728	0.051
728	0.051
729	0.051
729	0.051
730	0.051
730	0.051
730	0.051
731	0.051
731	0.051
732	0.051
732	0.05
733	0.05
733	0.049
734	0.049
734	0.049
734	0.049
735	0.049
735	0.048
736	0.048
736	0.048
737	0.048
737	0.048
737	0.048
738	0.047
738	0.046
739	0.046
739	0.046
740	0.045
740	0.045
741	0.045
741	0.044
741	0.044
742	0.044
742	0.044
743	0.045
743	0.046
744	0.046
744	0.046
744	0.046
745	0.047
745	0.046
746	0.047
746	0.047
747	0.047
747	0.047
748	0.047
748	0.047
748	0.046
749	0.046
749	0.046
750	0.045
750	0.045
751	0.045
751	0.044
751	0.044
752	0.044
752	0.043
753	0.043
753	0.043
754	0.043
754	0.043
754	0.043
755	0.043
755	0.043
756	0.043
756	0.042
757	0.041
757	0.04
758	0.04
758	0.039
758	0.038
759	0.038
759	0.037
760	0.037
760	0.037
761	0.037
761	0.038
761	0.039
762	0.039
762	0.039
763	0.039
763	0.039
764	0.038
764	0.038
764	0.038
765	0.037
765	0.037
766	0.036
766	0.035
767	0.034
767	0.033
768	0.032
768	0.032
768	0.032
769	0.031
769	0.031
770	0.031
770	0.032
771	0.032
771	0.032
771	0.032
772	0.033
772	0.034
773	0.034
773	0.034
774	0.035
774	0.035
775	0.036
775	0.036
775	0.036
776	0.036
776	0.036
777	0.036
777	0.036
778	0.035
778	0.035
778	0.034
779	0.033
779	0.032
780	0.031
780	0.03
781	0.03
781	0.029
781	0.028
782	0.028
782	0.027
783	0.027
783	0.027
784	0.027
784	0.027
784	0.028
785	0.028
785	0.028
786	0.028
786	0.029
787	0.029
787	0.029
788	0.028
788	0.028
788	0.027
789	0.027
789	0.027
790	0.027
790	0.027
791	0.026
791	0.026
791	0.026
792	0.026
792	0.026
793	0.026
793	0.026
794	0.025
794	0.025
794	0.024
795	0.024
795	0.024
796	0.023
796	0.023
797	0.023
797	0.022
797	0.022
798	0.022
798	0.022
799	0.022
799	0.022
800	0.022
800	0.022
801	0.022
801	0.022
801	0.021
802	0.022
802	0.022
803	0.022
803	0.022
804	0.022
804	0.023
804	0.023
805	0.023
805	0.023
806	0.023
806	0.023
807	0.023
807	0.023
807	0.023
808	0.023
808	0.023
809	0.023
809	0.023
810	0.024
810	0.024
810	0.024
811	0.024
811	0.024
812	0.025
812	0.025
813	0.025
813	0.025
813	0.025
814	0.025
814	0.025
815	0.026
815	0.026
816	0.026
816	0.026
817	0.025
817	0.025
817	0.025
818	0.024
818	0.024
819	0.023
819	0.022
820	0.021
820	0.02
820	0.019
821	0.019
821	0.018
822	0.018
822	0.018
823	0.017
823	0.017
823	0.018
824	0.019
824	0.02
825	0.021
825	0.022
826	0.022
826	0.022
826	0.023
827	0.023
827	0.023
828	0.023
828	0.023
829	0.022
829	0.022
829	0.022
830	0.022
830	0.022
831	0.023
831	0.023
832	0.023
832	0.023
832	0.023
833	0.023
833	0.023
834	0.023
834	0.023
835	0.023
835	0.023
835	0.023
836	0.023
836	0.023
837	0.023
837	0.023
838	0.023
838	0.022
839	0.021
839	0.02
839	0.019
840	0.018
840	0.017
841	0.015
841	0.014
842	0.013
842	0.012
842	0.012
843	0.011
843	0.011
844	0.011
844	0.011
845	0.011
845	0.011
845	0.012
846	0.012
846	0.012
847	0.013
847	0.014
848	0.015
848	0.016
848	0.016
849	0.017
849	0.017
850	0.018
850	0.018
851	0.018
851	0.018
851	0.017
852	0.016
852	0.015
853	0.014
853	0.013
854	0.013
854	0.013
854	0.013
855	0.013
855	0.013
856	0.013
856	0.013
857	0.014
857	0.014
857	0.014
858	0.014
858	0.014
859	0.013
859	0.012
860	0.011
860	0.01
860	0.009
861	0.009
861	0.008
862	0.007
862	0.007
863	0.006
863	0.006
863	0.006
864	0.006
864	0.006
865	0.006
865	0.006
866	0.006
866	0.006
866	0.007
867	0.007
867	0.007
868	0.008
868	0.008
869	0.009
869	0.009
869	0.009
870	0.009
870	0.01
871	0.011
871	0.012
872	0.012
872	0.013
872	0.013
873	0.014
873	0.013
874	0.013
874	0.013
875	0.012
875	0.012
875	0.012
876	0.011
876	0.011
877	0.011
877	0.011
878	0.012
878	0.013
878	0.014
879	0.014
879	0.015
880	0.016
880	0.016
881	0.016
881	0.016
881	0.015
882	0.014
882	0.013
883	0.012
883	0.011
884	0.01
884	0.009
884	0.008
885	0.007
885	0.006
886	0.005
886	0.005
887	0.004
887	0.004
887	0.004
888	0.003
888	0.003
889	0.003
889	0.002
890	0.003
890	0.003
890	0.003
891	0.003
891	0.004
892	0.005
892	0.005
893	0.006
893	0.007
893	0.008
894	0.008
894	0.009
895	0.009
895	0.01
895	0.01
896	0.01
896	0.01
897	0.009
897	0.009
898	0.009
898	0.008
898	0.008
899	0.008
899	0.007
900	0.007
900	0.007
901	0.007
901	0.007
901	0.007
902	0.007
902	0.007
903	0.007
903	0.007
904	0.007
904	0.007
904	0.007
905	0.006
905	0.006
906	0.006
906	0.007
907	0.007
907	0.008
907	0.008
908	0.009
908	0.01
909	0.01
909	0.011
910	0.011
910	0.011
910	0.011
911	0.011
911	0.011
912	0.011
912	0.01
913	0.01
913	0.009
913	0.009
914	0.009
914	0.008
915	0.008
915	0.007
916	0.007
916	0.006
916	0.006
917	0.005
917	0.005
918	0.004
918	0.003
918	0.003
919	0.003
919	0.002
920	0.002
920	0.002
921	0.003
921	0.003
921	0.003
922	0.004
922	0.004
923	0.005
923	0.005
924	0.006
924	0.006
924	0.007
925	0.007
925	0.007
926	0.008
926	0.008
927	0.008
927	0.008
927	0.008
928	0.008
928	0.009
929	0.009
929	0.009
930	0.009
930	0.009
930	0.008
931	0.008
931	0.008
932	0.008
932	0.008
933	0.008
933	0.007
933	0.007
934	0.007
934	0.007
935	0.007
935	0.007
935	0.007
936	0.006
936	0.006
937	0.006
937	0.006
938	0.006
938	0.006
938	0.006
939	0.006
939	0.006
940	0.006
940	0.006
941	0.006
941	0.007
941	0.007
942	0.007
942	0.007
943	0.007
943	0.007
944	0.007
944	0.007
944	0.007
945	0.007
945	0.006
946	0.006
946	0.005
946	0.005
947	0.005
947	0.005
948	0.005
948	0.005
949	0.005
949	0.005
949	0.005
950	0.005
950	0.005
951	0.005
951	0.004
952	0.004
952	0.004
952	0.004
953	0.004
953	0.003
954	0.003
954	0.003
955	0.003
955	0.002
955	0.002
956	0.003
956	0.003
957	0.004
957	0.005
957	0.005
958	0.006
958	0.007
959	0.007
959	0.008
960	0.008
960	0.008
960	0.008
961	0.008
961	0.008
962	0.007
962	0.007
963	0.007
963	0.006
963	0.006
964	0.006
964	0.006
965	0.006
965	0.006
966	0.006
966	0.007
966	0.007
967	0.007
967	0.008
968	0.008
968	0.008
968	0.009
969	0.009
969	0.009
970	0.009
970	0.009
971	0.009
971	0.009
971	0.009
972	0.009
972	0.009
973	0.008
973	0.008
974	0.009
974	0.009
974	0.009
975	0.009
975	0.009
976	0.009
976	0.009
976	0.009
977	0.008
977	0.008
978	0.008
978	0.007
979	0.007
979	0.006
979	0.006
980	0.005
980	0.005
981	0.004
981	0.004
982	0.003
982	0.003
982	0.003
983	0.003
983	0.002
984	0.002
984	0.001
984	0.001
985	0.001
985	0.001
986	0.001
986	0
987	0
987	-0
987	-0
988	-0.001
988	-0.001
989	-0.001
989	-0.002
990	-0.002
990	-0.002
990	-0.002
991	-0.002
991	-0.002
992	-0.002
992	-0.002
992	-0.002
993	-0.002
993	-0.002
994	-0.003
994	-0.003
995	-0.003
995	-0.003
995	-0.003
996	-0.002
996	-0.002
997	-0.001
997	-0.001
997	0
998	0.001
998	0.002
999	0.002
999	0.003
1000	0.004
1000	0.005
1000	0.005
1001	0.005
1001	0.006
1002	0.006
1002	0.006
1003	0.006
1003	0.006
1003	0.005
1004	0.005
1004	0.004
1005	0.004
1005	0.004
1005	0.003
1006	0.003
1006	0.003
1007	0.003
1007	0.003
1008	0.003
1008	0.003
1008	0.003
1009	0.004
1009	0.004
1010	0.005
1010	0.005
1010	0.006
1011	0.006
1011	0.006
1012	0.006
1012	0.006
1013	0.006
1013	0.005
1013	0.005
1014	0.005
1014	0.004
1015	0.004
1015	0.004
1016	0.003
1016	0.003
1016	0.002
1017	0.002
1017	0.002
1018	0.002
1018	0.001
1018	0.001
1019	0.001
1019	0.001
1020	0.001
1020	0
1021	0
1021	0
1021	-0
1022	-0
1022	-0
1023	-0.001
1023	-0.001
1023	-0.001
1024	-0.001
1024	-0.002
1025	-0.002
1025	-0.002
1026	-0.002
1026	-0.003
1026	-0.003
1027	-0.003
1027	-0.003
1028	-0.003
1028	-0.004
1028	-0.003
1029	-0.003
1029	-0.003
1030	-0.003
1030	-0.003
1031	-0.003
1031	-0.002
1031	-0.002
1032	-0.002
1032	-0.002
1033	-0.002
1033	-0.002
1033	-0.002
1034	-0.002
1034	-0.002
1035	-0.002
1035	-0.002
1036	-0.002
1036	-0.002
1036	-0.002
1037	-0.002
1037	-0.001
1038	-0.001
1038	-0.001
1039	-0
1039	0
1039	0
1040	0.001
1040	0.001
1041	0.002
1041	0.002
1041	0.002
1042	0.002
1042	0.002
1043	0.002
1043	0.002
1044	0.002
1044	0.002
1044	0.002
1045	0.002
1045	0.003
1046	0.003
1046	0.004
1046	0.004
1047	0.005
1047	0.005
1048	0.006
1048	0.007
1049	0.007
1049	0.007
1049	0.007
1050	0.007
1050	0.006
1051	0.005
1051	0.005
1051	0.004
1052	0.003
1052	0.002
1053	0.001
1053	0
1053	-0
1054	-0.001
1054	-0.001
1055	-0.002
1055	-0.002
1056	-0.003
1056	-0.003
1056	-0.004
1057	-0.004
1057	-0.005
1058	-0.006
1058	-0.007
1058	-0.008
1059	-0.009
1059	-0.009
1060	-0.009
1060	-0.01
1061	-0.01
1061	-0.01
1061	-0.01
1062	-0.01
1062	-0.01
1063	-0.01
1063	-0.01
1063	-0.01
1064	-0.01
1064	-0.01
1065	-0.01
1065	-0.01
1066	-0.01
1066	-0.01
1066	-0.01
1067	-0.011
1067	-0.011
1068	-0.011
1068	-0.011
1068	-0.012
1069	-0.012
1069	-0.013
1070	-0.013
1070	-0.013
1071	-0.014
1071	-0.015
1071	-0.016
1072	-0.017
1072	-0.017
1073	-0.018
1073	-0.019
1073	-0.019
1074	-0.019
1074	-0.019
1075	-0.019
1075	-0.018
1076	-0.018
1076	-0.017
1076	-0.016
1077	-0.016
1077	-0.015
1078	-0.015
1078	-0.015
1078	-0.014
1079	-0.014
1079	-0.014
1080	-0.014
1080	-0.014
1080	-0.014
1081	-0.014
1081	-0.014
1082	-0.013
1082	-0.013
1083	-0.013
1083	-0.013
1083	-0.013
1084	-0.013
1084	-0.013
1085	-0.014
1085	-0.013
1085	-0.013
1086	-0.013
1086	-0.014
1087	-0.014
1087	-0.014
1088	-0.014
1088	-0.014
1088	-0.014
1089	-0.015
1089	-0.015
1090	-0.017
1090	-0.017
1090	-0.018
1091	-0.018
1091	-0.018
1092	-0.017
1092	-0.017
1092	-0.017
1093	-0.017
1093	-0.016
1094	-0.016
1094	-0.015
1095	-0.015
1095	-0.015
1095	-0.014
1096	-0.015
1096	-0.016
1097	-0.016
1097	-0.016
1097	-0.017
1098	-0.017
1098	-0.018
1099	-0.019
1099	-0.02
1100	-0.02
1100	-0.022
1100	-0.022
1101	-0.023
1101	-0.024
1102	-0.025
1102	-0.026
1102	-0.027
1103	-0.027
1103	-0.027
1104	-0.027
1104	-0.028
1104	-0.029
1105	-0.03
1105	-0.032
1106	-0.033
1106	-0.035
1107	-0.035
1107	-0.035
1107	-0.036
1108	-0.037
1108	-0.038
1109	-0.039
1109	-0.04
1109	-0.042
1110	-0.037
1110	-0.038
1111	-0.038
1111	-0.038
