Data from reversibility-20sec_Absorbance__1939__000000000001939.txt Node

Date: Tue Dec 05 22:59:25 CET 2023
User: Marek
Spectrometer: MAYP115816
Trigger mode: 0
Integration Time (sec): 2.000000E-1
Scans to average: 10
Electric dark correction enabled: true
Nonlinearity correction enabled: true
Boxcar width: 5
XAxis mode: Wavelengths
Number of Pixels in Spectrum: 2068
>>>>>Begin Spectral Data<<<<<
199	-0.168
199	-0.148
200	-0.085
200	-0.028
201	-0.001
201	0.016
202	0.035
202	0.044
203	0.049
203	0.053
204	0.063
204	0.079
205	0.091
205	0.1
205	0.098
206	0.101
206	0.102
207	0.101
207	0.097
208	0.099
208	0.099
209	0.101
209	0.096
210	0.098
210	0.098
211	0.098
211	0.099
212	0.096
212	0.097
213	0.102
213	0.103
213	0.102
214	0.106
214	0.11
215	0.11
215	0.108
216	0.109
216	0.106
217	0.108
217	0.111
218	0.108
218	0.111
219	0.115
219	0.112
220	0.115
220	0.115
221	0.117
221	0.118
221	0.125
222	0.133
222	0.136
223	0.143
223	0.145
224	0.152
224	0.163
225	0.171
225	0.183
226	0.193
226	0.203
227	0.213
227	0.222
228	0.235
228	0.247
229	0.264
229	0.285
229	0.307
230	0.331
230	0.357
231	0.388
231	0.43
232	0.466
232	0.508
233	0.555
233	0.606
234	0.656
234	0.712
235	0.764
235	0.818
236	0.871
236	0.924
236	0.976
237	1.029
237	1.082
238	1.132
238	1.18
239	1.231
239	1.275
240	1.319
240	1.358
241	1.399
241	1.436
242	1.47
242	1.508
243	1.542
243	1.57
243	1.6
244	1.624
244	1.649
245	1.669
245	1.696
246	1.717
246	1.739
247	1.754
247	1.77
248	1.787
248	1.806
249	1.815
249	1.826
250	1.837
250	1.847
250	1.853
251	1.861
251	1.862
252	1.871
252	1.872
253	1.874
253	1.872
254	1.873
254	1.875
255	1.873
255	1.875
256	1.876
256	1.878
257	1.881
257	1.882
258	1.884
258	1.884
258	1.887
259	1.89
259	1.891
260	1.894
260	1.897
261	1.899
261	1.904
262	1.908
262	1.912
263	1.918
263	1.922
264	1.928
264	1.93
265	1.933
265	1.935
265	1.938
266	1.939
266	1.941
267	1.939
267	1.941
268	1.942
268	1.943
269	1.945
269	1.947
270	1.947
270	1.948
271	1.946
271	1.947
272	1.943
272	1.94
272	1.935
273	1.925
273	1.915
274	1.905
274	1.896
275	1.888
275	1.881
276	1.872
276	1.863
277	1.855
277	1.845
278	1.834
278	1.822
278	1.807
279	1.788
279	1.763
280	1.73
280	1.69
281	1.645
281	1.597
282	1.547
282	1.497
283	1.448
283	1.402
284	1.358
284	1.316
285	1.278
285	1.243
285	1.212
286	1.186
286	1.162
287	1.142
287	1.125
288	1.111
288	1.098
289	1.088
289	1.079
290	1.071
290	1.065
291	1.059
291	1.054
292	1.05
292	1.046
292	1.043
293	1.039
293	1.036
294	1.033
294	1.031
295	1.028
295	1.025
296	1.023
296	1.02
297	1.017
297	1.015
298	1.012
298	1.01
298	1.008
299	1.005
299	1.003
300	1
300	0.998
301	0.996
301	0.994
302	0.992
302	0.99
303	0.987
303	0.985
304	0.983
304	0.981
305	0.979
305	0.976
305	0.974
306	0.972
306	0.97
307	0.967
307	0.965
308	0.962
308	0.96
309	0.957
309	0.955
310	0.952
310	0.95
311	0.947
311	0.943
311	0.94
312	0.936
312	0.934
313	0.93
313	0.926
314	0.922
314	0.918
315	0.914
315	0.91
316	0.906
316	0.901
317	0.896
317	0.892
318	0.887
318	0.882
318	0.876
319	0.871
319	0.865
320	0.86
320	0.854
321	0.848
321	0.842
322	0.836
322	0.83
323	0.823
323	0.817
324	0.81
324	0.804
324	0.797
325	0.79
325	0.783
326	0.776
326	0.769
327	0.762
327	0.755
328	0.748
328	0.741
329	0.734
329	0.727
330	0.72
330	0.713
330	0.705
331	0.698
331	0.691
332	0.684
332	0.677
333	0.669
333	0.662
334	0.655
334	0.648
335	0.642
335	0.635
336	0.628
336	0.622
336	0.615
337	0.609
337	0.602
338	0.596
338	0.59
339	0.584
339	0.578
340	0.572
340	0.566
341	0.56
341	0.554
342	0.549
342	0.543
342	0.538
343	0.533
343	0.527
344	0.522
344	0.518
345	0.513
345	0.508
346	0.503
346	0.499
347	0.495
347	0.49
348	0.486
348	0.482
348	0.478
349	0.474
349	0.47
350	0.467
350	0.463
351	0.46
351	0.456
352	0.453
352	0.45
353	0.447
353	0.444
354	0.441
354	0.438
354	0.436
355	0.433
355	0.43
356	0.427
356	0.425
357	0.422
357	0.419
358	0.417
358	0.414
359	0.411
359	0.409
360	0.407
360	0.404
360	0.402
361	0.4
361	0.398
362	0.396
362	0.394
363	0.392
363	0.391
364	0.388
364	0.386
365	0.385
365	0.383
366	0.381
366	0.38
366	0.378
367	0.376
367	0.375
368	0.373
368	0.371
369	0.37
369	0.368
370	0.367
370	0.365
371	0.364
371	0.362
372	0.361
372	0.36
372	0.358
373	0.357
373	0.356
374	0.355
374	0.354
375	0.353
375	0.352
376	0.351
376	0.35
377	0.349
377	0.348
378	0.347
378	0.346
378	0.345
379	0.345
379	0.344
380	0.343
380	0.342
381	0.341
381	0.34
382	0.34
382	0.339
383	0.339
383	0.338
383	0.337
384	0.337
384	0.336
385	0.335
385	0.335
386	0.334
386	0.334
387	0.333
387	0.332
388	0.331
388	0.331
389	0.33
389	0.33
389	0.33
390	0.329
390	0.329
391	0.328
391	0.328
392	0.327
392	0.327
393	0.326
393	0.326
394	0.326
394	0.325
394	0.324
395	0.324
395	0.324
396	0.323
396	0.323
397	0.322
397	0.321
398	0.321
398	0.321
399	0.32
399	0.32
400	0.32
400	0.319
400	0.319
401	0.319
401	0.319
402	0.318
402	0.318
403	0.318
403	0.318
404	0.317
404	0.317
405	0.316
405	0.316
405	0.316
406	0.315
406	0.315
407	0.314
407	0.314
408	0.313
408	0.313
409	0.312
409	0.312
410	0.312
410	0.312
411	0.311
411	0.311
411	0.311
412	0.311
412	0.31
413	0.31
413	0.31
414	0.309
414	0.309
415	0.309
415	0.308
416	0.308
416	0.308
416	0.307
417	0.307
417	0.307
418	0.307
418	0.306
419	0.306
419	0.305
420	0.305
420	0.304
421	0.304
421	0.304
421	0.303
422	0.303
422	0.303
423	0.302
423	0.302
424	0.301
424	0.301
425	0.301
425	0.3
426	0.3
426	0.3
427	0.299
427	0.299
427	0.299
428	0.299
428	0.298
429	0.298
429	0.297
430	0.297
430	0.297
431	0.297
431	0.296
432	0.296
432	0.296
432	0.295
433	0.295
433	0.295
434	0.295
434	0.294
435	0.294
435	0.294
436	0.294
436	0.294
437	0.293
437	0.293
437	0.293
438	0.293
438	0.293
439	0.293
439	0.293
440	0.292
440	0.292
441	0.291
441	0.291
442	0.291
442	0.291
442	0.291
443	0.29
443	0.29
444	0.29
444	0.29
445	0.289
445	0.289
446	0.289
446	0.289
447	0.289
447	0.288
447	0.288
448	0.288
448	0.288
449	0.288
449	0.288
450	0.288
450	0.287
451	0.287
451	0.287
452	0.287
452	0.287
452	0.287
453	0.286
453	0.286
454	0.286
454	0.285
455	0.285
455	0.285
456	0.284
456	0.284
457	0.284
457	0.283
458	0.283
458	0.283
458	0.283
459	0.283
459	0.282
460	0.282
460	0.282
461	0.282
461	0.282
462	0.281
462	0.281
463	0.281
463	0.281
463	0.281
464	0.281
464	0.28
465	0.28
465	0.28
466	0.28
466	0.28
467	0.279
467	0.279
467	0.279
468	0.279
468	0.278
469	0.278
469	0.278
470	0.278
470	0.278
471	0.279
471	0.279
472	0.279
472	0.279
472	0.279
473	0.279
473	0.279
474	0.279
474	0.279
475	0.279
475	0.278
476	0.279
476	0.279
477	0.279
477	0.279
477	0.279
478	0.279
478	0.279
479	0.28
479	0.28
480	0.28
480	0.28
481	0.28
481	0.28
482	0.28
482	0.28
482	0.281
483	0.281
483	0.281
484	0.282
484	0.281
485	0.281
485	0.282
486	0.281
486	0.281
487	0.282
487	0.282
487	0.282
488	0.282
488	0.283
489	0.283
489	0.284
490	0.285
490	0.285
491	0.286
491	0.287
492	0.288
492	0.288
492	0.289
493	0.289
493	0.29
494	0.291
494	0.291
495	0.292
495	0.292
496	0.292
496	0.293
496	0.294
497	0.294
497	0.294
498	0.295
498	0.295
499	0.295
499	0.296
500	0.297
500	0.297
501	0.298
501	0.298
501	0.298
502	0.299
502	0.3
503	0.3
503	0.301
504	0.301
504	0.302
505	0.302
505	0.303
506	0.303
506	0.304
506	0.305
507	0.305
507	0.306
508	0.307
508	0.307
509	0.308
509	0.308
510	0.309
510	0.31
511	0.31
511	0.311
511	0.312
512	0.312
512	0.313
513	0.313
513	0.314
514	0.314
514	0.315
515	0.316
515	0.316
515	0.317
516	0.317
516	0.318
517	0.318
517	0.319
518	0.319
518	0.319
519	0.319
519	0.319
520	0.32
520	0.319
520	0.32
521	0.32
521	0.32
522	0.32
522	0.32
523	0.32
523	0.32
524	0.321
524	0.321
524	0.321
525	0.321
525	0.321
526	0.322
526	0.322
527	0.322
527	0.322
528	0.322
528	0.322
529	0.321
529	0.321
529	0.321
530	0.32
530	0.32
531	0.32
531	0.319
532	0.319
532	0.319
533	0.319
533	0.318
533	0.318
534	0.318
534	0.318
535	0.318
535	0.318
536	0.318
536	0.317
537	0.317
537	0.317
538	0.316
538	0.316
538	0.315
539	0.315
539	0.315
540	0.314
540	0.314
541	0.313
541	0.313
542	0.312
542	0.312
542	0.311
543	0.311
543	0.31
544	0.31
544	0.309
545	0.308
545	0.308
546	0.308
546	0.307
547	0.306
547	0.306
547	0.305
548	0.305
548	0.304
549	0.303
549	0.303
550	0.302
550	0.301
551	0.3
551	0.3
551	0.299
552	0.298
552	0.298
553	0.297
553	0.297
554	0.296
554	0.295
555	0.294
555	0.293
556	0.293
556	0.292
556	0.292
557	0.291
557	0.291
558	0.291
558	0.29
559	0.29
559	0.29
560	0.289
560	0.289
560	0.289
561	0.289
561	0.288
562	0.288
562	0.287
563	0.285
563	0.285
564	0.284
564	0.283
564	0.283
565	0.282
565	0.282
566	0.281
566	0.28
567	0.28
567	0.28
568	0.28
568	0.28
568	0.279
569	0.279
569	0.278
570	0.278
570	0.277
571	0.276
571	0.276
572	0.275
572	0.274
573	0.273
573	0.273
573	0.272
574	0.271
574	0.271
575	0.27
575	0.27
576	0.27
576	0.269
577	0.268
577	0.267
577	0.267
578	0.266
578	0.266
579	0.266
579	0.266
580	0.265
580	0.264
581	0.263
581	0.262
581	0.263
582	0.263
582	0.263
583	0.263
583	0.262
584	0.261
584	0.26
585	0.26
585	0.26
585	0.259
586	0.259
586	0.258
587	0.257
587	0.256
588	0.255
588	0.254
589	0.254
589	0.254
590	0.253
590	0.253
590	0.254
591	0.254
591	0.253
592	0.253
592	0.252
593	0.252
593	0.252
594	0.251
594	0.25
594	0.25
595	0.249
595	0.249
596	0.248
596	0.248
597	0.249
597	0.249
598	0.248
598	0.248
598	0.248
599	0.248
599	0.247
600	0.246
600	0.246
601	0.246
601	0.245
602	0.245
602	0.244
602	0.244
603	0.243
603	0.243
604	0.244
604	0.243
605	0.243
605	0.243
606	0.242
606	0.241
606	0.241
607	0.241
607	0.24
608	0.24
608	0.239
609	0.238
609	0.238
610	0.237
610	0.237
610	0.237
611	0.237
611	0.237
612	0.237
612	0.238
613	0.238
613	0.238
614	0.237
614	0.237
614	0.237
615	0.237
615	0.236
616	0.236
616	0.236
617	0.235
617	0.235
618	0.235
618	0.235
618	0.235
619	0.235
619	0.235
620	0.235
620	0.235
621	0.234
621	0.234
622	0.233
622	0.233
622	0.232
623	0.231
623	0.231
624	0.231
624	0.23
625	0.23
625	0.23
626	0.229
626	0.229
626	0.229
627	0.229
627	0.229
628	0.229
628	0.228
629	0.228
629	0.227
630	0.227
630	0.226
630	0.226
631	0.226
631	0.226
632	0.226
632	0.226
633	0.226
633	0.226
634	0.227
634	0.227
634	0.227
635	0.227
635	0.226
636	0.226
636	0.226
637	0.226
637	0.225
638	0.225
638	0.225
638	0.224
639	0.224
639	0.224
640	0.223
640	0.223
641	0.223
641	0.223
642	0.222
642	0.222
642	0.222
643	0.222
643	0.222
644	0.222
644	0.222
645	0.222
645	0.222
646	0.222
646	0.222
646	0.222
647	0.222
647	0.222
648	0.222
648	0.221
649	0.221
649	0.221
650	0.221
650	0.221
650	0.221
651	0.221
651	0.221
652	0.221
652	0.221
653	0.221
653	0.223
653	0.23
654	0.179
654	0.142
655	0.144
655	0.144
656	0.144
656	0.145
657	0.145
657	0.145
657	0.145
658	0.144
658	0.132
659	0.167
659	0.217
660	0.221
660	0.221
661	0.221
661	0.22
661	0.22
662	0.22
662	0.219
663	0.219
663	0.218
664	0.218
664	0.217
665	0.217
665	0.217
665	0.217
666	0.218
666	0.218
667	0.218
667	0.219
668	0.219
668	0.219
669	0.219
669	0.22
669	0.22
670	0.22
670	0.22
671	0.22
671	0.219
672	0.219
672	0.219
672	0.219
673	0.219
673	0.219
674	0.219
674	0.218
675	0.218
675	0.218
676	0.218
676	0.219
676	0.218
677	0.218
677	0.218
678	0.218
678	0.217
679	0.217
679	0.217
680	0.217
680	0.217
680	0.217
681	0.218
681	0.218
682	0.219
682	0.219
683	0.22
683	0.221
684	0.222
684	0.222
684	0.222
685	0.222
685	0.223
686	0.222
686	0.222
687	0.222
687	0.222
687	0.222
688	0.221
688	0.221
689	0.221
689	0.222
690	0.221
690	0.221
691	0.221
691	0.222
691	0.222
692	0.222
692	0.222
693	0.223
693	0.223
694	0.223
694	0.224
695	0.225
695	0.226
695	0.226
696	0.226
696	0.226
697	0.225
697	0.225
698	0.225
698	0.224
698	0.225
699	0.225
699	0.224
700	0.224
700	0.224
701	0.225
701	0.225
702	0.225
702	0.225
702	0.226
703	0.226
703	0.225
704	0.225
704	0.225
705	0.225
705	0.224
705	0.224
706	0.224
706	0.224
707	0.224
707	0.224
708	0.224
708	0.224
709	0.224
709	0.224
709	0.223
710	0.223
710	0.224
711	0.224
711	0.224
712	0.224
712	0.224
713	0.224
713	0.225
713	0.225
714	0.225
714	0.225
715	0.225
715	0.225
716	0.225
716	0.225
716	0.224
717	0.223
717	0.223
718	0.222
718	0.222
719	0.222
719	0.223
720	0.223
720	0.224
720	0.224
721	0.225
721	0.225
722	0.226
722	0.227
723	0.227
723	0.228
723	0.228
724	0.228
724	0.228
725	0.227
725	0.227
726	0.226
726	0.226
727	0.225
727	0.225
727	0.224
728	0.224
728	0.223
729	0.224
729	0.224
730	0.224
730	0.224
730	0.225
731	0.225
731	0.225
732	0.226
732	0.226
733	0.226
733	0.226
734	0.225
734	0.225
734	0.225
735	0.225
735	0.225
736	0.225
736	0.225
737	0.224
737	0.225
737	0.225
738	0.224
738	0.224
739	0.223
739	0.223
740	0.223
740	0.223
741	0.223
741	0.223
741	0.222
742	0.222
742	0.223
743	0.224
743	0.224
744	0.225
744	0.226
744	0.226
745	0.226
745	0.226
746	0.227
746	0.227
747	0.227
747	0.228
748	0.228
748	0.228
748	0.228
749	0.228
749	0.228
750	0.228
750	0.228
751	0.227
751	0.227
751	0.227
752	0.227
752	0.226
753	0.226
753	0.225
754	0.225
754	0.225
754	0.226
755	0.226
755	0.226
756	0.225
756	0.224
757	0.224
757	0.224
758	0.223
758	0.223
758	0.223
759	0.223
759	0.223
760	0.222
760	0.222
761	0.223
761	0.224
761	0.224
762	0.225
762	0.226
763	0.226
763	0.226
764	0.226
764	0.226
764	0.226
765	0.226
765	0.226
766	0.225
766	0.225
767	0.224
767	0.223
768	0.222
768	0.222
768	0.222
769	0.222
769	0.222
770	0.222
770	0.222
771	0.223
771	0.223
771	0.223
772	0.224
772	0.225
773	0.226
773	0.226
774	0.227
774	0.227
775	0.228
775	0.228
775	0.228
776	0.228
776	0.229
777	0.228
777	0.228
778	0.228
778	0.227
778	0.227
779	0.227
779	0.226
780	0.226
780	0.225
781	0.225
781	0.225
781	0.225
782	0.225
782	0.226
783	0.226
783	0.227
784	0.226
784	0.227
784	0.227
785	0.227
785	0.227
786	0.227
786	0.227
787	0.227
787	0.227
788	0.227
788	0.227
788	0.226
789	0.226
789	0.227
790	0.227
790	0.227
791	0.228
791	0.228
791	0.228
792	0.229
792	0.229
793	0.23
793	0.23
794	0.23
794	0.23
794	0.23
795	0.23
795	0.23
796	0.23
796	0.23
797	0.23
797	0.23
797	0.23
798	0.23
798	0.23
799	0.23
799	0.23
800	0.23
800	0.23
801	0.23
801	0.23
801	0.23
802	0.23
802	0.231
803	0.231
803	0.231
804	0.232
804	0.232
804	0.232
805	0.231
805	0.231
806	0.23
806	0.23
807	0.23
807	0.229
807	0.229
808	0.229
808	0.229
809	0.228
809	0.228
810	0.229
810	0.229
810	0.229
811	0.229
811	0.229
812	0.23
812	0.23
813	0.23
813	0.231
813	0.231
814	0.231
814	0.232
815	0.232
815	0.232
816	0.232
816	0.232
817	0.232
817	0.232
817	0.231
818	0.231
818	0.231
819	0.231
819	0.23
820	0.229
820	0.229
820	0.229
821	0.228
821	0.228
822	0.228
822	0.228
823	0.228
823	0.228
823	0.228
824	0.228
824	0.229
825	0.23
825	0.23
826	0.231
826	0.231
826	0.231
827	0.231
827	0.231
828	0.231
828	0.231
829	0.231
829	0.231
829	0.23
830	0.23
830	0.23
831	0.231
831	0.231
832	0.231
832	0.231
832	0.232
833	0.232
833	0.232
834	0.231
834	0.231
835	0.231
835	0.231
835	0.232
836	0.232
836	0.232
837	0.233
837	0.233
838	0.233
838	0.232
839	0.232
839	0.231
839	0.23
840	0.229
840	0.228
841	0.227
841	0.226
842	0.225
842	0.225
842	0.224
843	0.224
843	0.223
844	0.223
844	0.223
845	0.223
845	0.223
845	0.223
846	0.223
846	0.223
847	0.223
847	0.223
848	0.223
848	0.223
848	0.224
849	0.224
849	0.224
850	0.224
850	0.224
851	0.224
851	0.224
851	0.224
852	0.223
852	0.222
853	0.222
853	0.221
854	0.221
854	0.221
854	0.221
855	0.221
855	0.221
856	0.221
856	0.221
857	0.222
857	0.222
857	0.222
858	0.222
858	0.221
859	0.221
859	0.219
860	0.218
860	0.218
860	0.217
861	0.216
861	0.215
862	0.214
862	0.213
863	0.212
863	0.212
863	0.212
864	0.212
864	0.212
865	0.212
865	0.211
866	0.211
866	0.211
866	0.211
867	0.211
867	0.211
868	0.21
868	0.21
869	0.21
869	0.21
869	0.21
870	0.21
870	0.21
871	0.21
871	0.21
872	0.21
872	0.21
872	0.209
873	0.209
873	0.209
874	0.208
874	0.208
875	0.207
875	0.207
875	0.207
876	0.207
876	0.206
877	0.206
877	0.206
878	0.207
878	0.208
878	0.209
879	0.209
879	0.21
880	0.21
880	0.211
881	0.211
881	0.211
881	0.21
882	0.209
882	0.208
883	0.207
883	0.206
884	0.205
884	0.204
884	0.203
885	0.202
885	0.201
886	0.2
886	0.2
887	0.199
887	0.199
887	0.198
888	0.197
888	0.197
889	0.197
889	0.196
890	0.196
890	0.196
890	0.196
891	0.196
891	0.196
892	0.196
892	0.197
893	0.197
893	0.197
893	0.198
894	0.198
894	0.198
895	0.198
895	0.198
895	0.198
896	0.198
896	0.198
897	0.198
897	0.198
898	0.197
898	0.197
898	0.197
899	0.196
899	0.196
900	0.196
900	0.196
901	0.196
901	0.196
901	0.196
902	0.195
902	0.195
903	0.195
903	0.194
904	0.193
904	0.193
904	0.192
905	0.191
905	0.19
906	0.189
906	0.189
907	0.189
907	0.189
907	0.189
908	0.19
908	0.19
909	0.19
909	0.19
910	0.19
910	0.19
910	0.19
911	0.189
911	0.188
912	0.187
912	0.187
913	0.186
913	0.185
913	0.185
914	0.184
914	0.184
915	0.183
915	0.183
916	0.183
916	0.182
916	0.181
917	0.181
917	0.18
918	0.178
918	0.177
918	0.176
919	0.175
919	0.174
920	0.174
920	0.173
921	0.172
921	0.172
921	0.172
922	0.171
922	0.172
923	0.172
923	0.172
924	0.172
924	0.173
924	0.173
925	0.173
925	0.173
926	0.173
926	0.173
927	0.173
927	0.173
927	0.173
928	0.172
928	0.172
929	0.172
929	0.172
930	0.171
930	0.171
930	0.17
931	0.17
931	0.17
932	0.17
932	0.169
933	0.169
933	0.169
933	0.168
934	0.168
934	0.167
935	0.166
935	0.166
935	0.165
936	0.165
936	0.164
937	0.164
937	0.164
938	0.163
938	0.163
938	0.163
939	0.162
939	0.162
940	0.162
940	0.162
941	0.162
941	0.163
941	0.163
942	0.163
942	0.163
943	0.163
943	0.163
944	0.163
944	0.162
944	0.162
945	0.162
945	0.162
946	0.162
946	0.162
946	0.161
947	0.161
947	0.161
948	0.161
948	0.161
949	0.16
949	0.159
949	0.159
950	0.158
950	0.158
951	0.157
951	0.156
952	0.155
952	0.154
952	0.153
953	0.152
953	0.152
954	0.151
954	0.151
955	0.15
955	0.15
955	0.15
956	0.15
956	0.151
957	0.151
957	0.151
957	0.151
958	0.151
958	0.151
959	0.152
959	0.151
960	0.151
960	0.151
960	0.15
961	0.15
961	0.15
962	0.149
962	0.149
963	0.149
963	0.148
963	0.148
964	0.148
964	0.147
965	0.147
965	0.147
966	0.147
966	0.147
966	0.146
967	0.146
967	0.146
968	0.146
968	0.146
968	0.146
969	0.146
969	0.145
970	0.145
970	0.145
971	0.145
971	0.145
971	0.144
972	0.144
972	0.144
973	0.144
973	0.143
974	0.143
974	0.143
974	0.143
975	0.143
975	0.143
976	0.143
976	0.144
976	0.143
977	0.144
977	0.144
978	0.144
978	0.144
979	0.144
979	0.144
979	0.143
980	0.143
980	0.142
981	0.141
981	0.141
982	0.14
982	0.139
982	0.139
983	0.137
983	0.136
984	0.135
984	0.134
984	0.133
985	0.132
985	0.131
986	0.13
986	0.129
987	0.128
987	0.127
987	0.126
988	0.125
988	0.125
989	0.124
989	0.124
990	0.123
990	0.123
990	0.122
991	0.122
991	0.121
992	0.121
992	0.121
992	0.12
993	0.12
993	0.12
994	0.119
994	0.119
995	0.119
995	0.119
995	0.119
996	0.119
996	0.119
997	0.12
997	0.12
997	0.12
998	0.121
998	0.121
999	0.122
999	0.123
1000	0.123
1000	0.124
1000	0.125
1001	0.125
1001	0.126
1002	0.126
1002	0.126
1003	0.126
1003	0.127
1003	0.126
1004	0.126
1004	0.126
1005	0.125
1005	0.125
1005	0.124
1006	0.124
1006	0.123
1007	0.123
1007	0.122
1008	0.122
1008	0.122
1008	0.122
1009	0.122
1009	0.121
1010	0.121
1010	0.121
1010	0.121
1011	0.121
1011	0.121
1012	0.121
1012	0.12
1013	0.12
1013	0.12
1013	0.12
1014	0.119
1014	0.119
1015	0.119
1015	0.119
1016	0.118
1016	0.118
1016	0.117
1017	0.117
1017	0.116
1018	0.116
1018	0.115
1018	0.115
1019	0.114
1019	0.113
1020	0.113
1020	0.112
1021	0.112
1021	0.112
1021	0.111
1022	0.111
1022	0.11
1023	0.11
1023	0.11
1023	0.11
1024	0.11
1024	0.109
1025	0.109
1025	0.109
1026	0.109
1026	0.108
1026	0.108
1027	0.108
1027	0.107
1028	0.107
1028	0.107
1028	0.107
1029	0.108
1029	0.108
1030	0.108
1030	0.108
1031	0.109
1031	0.109
1031	0.109
1032	0.109
1032	0.109
1033	0.109
1033	0.109
1033	0.109
1034	0.109
1034	0.108
1035	0.108
1035	0.107
1036	0.107
1036	0.107
1036	0.107
1037	0.107
1037	0.107
1038	0.107
1038	0.107
1039	0.107
1039	0.107
1039	0.107
1040	0.107
1040	0.107
1041	0.107
1041	0.107
1041	0.106
1042	0.106
1042	0.106
1043	0.106
1043	0.105
1044	0.105
1044	0.105
1044	0.105
1045	0.105
1045	0.105
1046	0.105
1046	0.105
1046	0.105
1047	0.106
1047	0.106
1048	0.107
1048	0.107
1049	0.108
1049	0.107
1049	0.107
1050	0.107
1050	0.106
1051	0.106
1051	0.105
1051	0.104
1052	0.103
1052	0.102
1053	0.101
1053	0.1
1053	0.099
1054	0.099
1054	0.098
1055	0.098
1055	0.097
1056	0.097
1056	0.096
1056	0.096
1057	0.095
1057	0.094
1058	0.094
1058	0.092
1058	0.092
1059	0.091
1059	0.09
1060	0.089
1060	0.088
1061	0.087
1061	0.087
1061	0.087
1062	0.087
1062	0.087
1063	0.087
1063	0.087
1063	0.087
1064	0.087
1064	0.087
1065	0.088
1065	0.088
1066	0.088
1066	0.088
1066	0.088
1067	0.088
1067	0.088
1068	0.088
1068	0.088
1068	0.087
1069	0.087
1069	0.086
1070	0.086
1070	0.085
1071	0.084
1071	0.084
1071	0.083
1072	0.082
1072	0.081
1073	0.081
1073	0.08
1073	0.08
1074	0.08
1074	0.08
1075	0.08
1075	0.079
1076	0.08
1076	0.08
1076	0.08
1077	0.081
1077	0.081
1078	0.081
1078	0.081
1078	0.081
1079	0.081
1079	0.081
1080	0.081
1080	0.08
1080	0.08
1081	0.08
1081	0.08
1082	0.08
1082	0.08
1083	0.079
1083	0.079
1083	0.079
1084	0.079
1084	0.079
1085	0.078
1085	0.078
1085	0.077
1086	0.077
1086	0.076
1087	0.075
1087	0.075
1088	0.074
1088	0.074
1088	0.073
1089	0.072
1089	0.072
1090	0.071
1090	0.07
1090	0.07
1091	0.07
1091	0.07
1092	0.069
1092	0.07
1092	0.07
1093	0.069
1093	0.069
1094	0.069
1094	0.069
1095	0.068
1095	0.068
1095	0.068
1096	0.066
1096	0.066
1097	0.065
1097	0.063
1097	0.062
1098	0.061
1098	0.06
1099	0.059
1099	0.057
1100	0.056
1100	0.055
1100	0.054
1101	0.052
1101	0.052
1102	0.053
1102	0.051
1102	0.051
1103	0.051
1103	0.051
1104	0.051
1104	0.051
1104	0.051
1105	0.05
1105	0.048
1106	0.047
1106	0.045
1107	0.045
1107	0.044
1107	0.042
1108	0.041
1108	0.039
1109	0.037
1109	0.035
1109	0.035
1110	0.038
1110	0.036
1111	0.035
1111	0.032
