Data from reversibility-20sec_Absorbance__4897__000000000004897.txt Node

Date: Wed Dec 06 15:25:26 CET 2023
User: Marek
Spectrometer: MAYP115816
Trigger mode: 0
Integration Time (sec): 2.000000E-1
Scans to average: 10
Electric dark correction enabled: true
Nonlinearity correction enabled: true
Boxcar width: 5
XAxis mode: Wavelengths
Number of Pixels in Spectrum: 2068
>>>>>Begin Spectral Data<<<<<
199	-0.123
199	-0.081
200	-0.014
200	0.032
201	0.061
201	0.076
202	0.089
202	0.097
203	0.105
203	0.109
204	0.123
204	0.138
205	0.148
205	0.155
205	0.155
206	0.157
206	0.155
207	0.156
207	0.156
208	0.155
208	0.155
209	0.157
209	0.153
210	0.155
210	0.155
211	0.154
211	0.157
212	0.156
212	0.159
213	0.159
213	0.16
213	0.163
214	0.165
214	0.169
215	0.169
215	0.167
216	0.171
216	0.166
217	0.171
217	0.173
218	0.175
218	0.178
219	0.181
219	0.181
220	0.18
220	0.182
221	0.185
221	0.185
221	0.192
222	0.198
222	0.2
223	0.206
223	0.208
224	0.21
224	0.219
225	0.23
225	0.24
226	0.252
226	0.264
227	0.274
227	0.283
228	0.301
228	0.317
229	0.335
229	0.361
229	0.385
230	0.41
230	0.439
231	0.469
231	0.506
232	0.542
232	0.587
233	0.627
233	0.672
234	0.721
234	0.774
235	0.828
235	0.881
236	0.93
236	0.981
236	1.032
237	1.084
237	1.133
238	1.178
238	1.226
239	1.273
239	1.312
240	1.348
240	1.384
241	1.418
241	1.451
242	1.485
242	1.519
243	1.547
243	1.573
243	1.596
244	1.616
244	1.636
245	1.655
245	1.678
246	1.695
246	1.712
247	1.719
247	1.729
248	1.743
248	1.754
249	1.765
249	1.77
250	1.779
250	1.785
250	1.785
251	1.791
251	1.791
252	1.796
252	1.796
253	1.795
253	1.793
254	1.791
254	1.792
255	1.79
255	1.787
256	1.787
256	1.784
257	1.784
257	1.782
258	1.781
258	1.781
258	1.781
259	1.781
259	1.782
260	1.78
260	1.783
261	1.783
261	1.786
262	1.789
262	1.79
263	1.792
263	1.794
264	1.796
264	1.797
265	1.798
265	1.799
265	1.799
266	1.799
266	1.799
267	1.795
267	1.797
268	1.798
268	1.798
269	1.798
269	1.797
270	1.795
270	1.794
271	1.79
271	1.789
272	1.786
272	1.785
272	1.78
273	1.772
273	1.764
274	1.757
274	1.749
275	1.742
275	1.735
276	1.729
276	1.72
277	1.711
277	1.7
278	1.689
278	1.678
278	1.663
279	1.646
279	1.623
280	1.596
280	1.563
281	1.524
281	1.482
282	1.438
282	1.394
283	1.35
283	1.307
284	1.267
284	1.227
285	1.191
285	1.158
285	1.129
286	1.103
286	1.081
287	1.062
287	1.045
288	1.031
288	1.019
289	1.009
289	1
290	0.993
290	0.987
291	0.981
291	0.976
292	0.972
292	0.967
292	0.964
293	0.961
293	0.957
294	0.955
294	0.952
295	0.949
295	0.946
296	0.944
296	0.941
297	0.938
297	0.936
298	0.933
298	0.93
298	0.927
299	0.925
299	0.923
300	0.92
300	0.918
301	0.915
301	0.913
302	0.91
302	0.908
303	0.906
303	0.904
304	0.901
304	0.899
305	0.897
305	0.894
305	0.892
306	0.89
306	0.888
307	0.886
307	0.884
308	0.881
308	0.878
309	0.876
309	0.873
310	0.871
310	0.868
311	0.865
311	0.862
311	0.859
312	0.856
312	0.853
313	0.85
313	0.846
314	0.842
314	0.838
315	0.834
315	0.83
316	0.826
316	0.821
317	0.817
317	0.812
318	0.807
318	0.802
318	0.797
319	0.792
319	0.787
320	0.781
320	0.776
321	0.77
321	0.764
322	0.759
322	0.752
323	0.746
323	0.74
324	0.734
324	0.728
324	0.721
325	0.714
325	0.707
326	0.701
326	0.694
327	0.687
327	0.68
328	0.674
328	0.667
329	0.66
329	0.653
330	0.646
330	0.639
330	0.632
331	0.625
331	0.619
332	0.612
332	0.605
333	0.599
333	0.592
334	0.585
334	0.578
335	0.572
335	0.565
336	0.558
336	0.552
336	0.546
337	0.539
337	0.533
338	0.526
338	0.52
339	0.514
339	0.509
340	0.503
340	0.498
341	0.492
341	0.487
342	0.481
342	0.476
342	0.471
343	0.466
343	0.461
344	0.456
344	0.451
345	0.446
345	0.442
346	0.437
346	0.433
347	0.429
347	0.424
348	0.42
348	0.416
348	0.413
349	0.409
349	0.405
350	0.402
350	0.398
351	0.395
351	0.392
352	0.389
352	0.386
353	0.383
353	0.38
354	0.377
354	0.374
354	0.371
355	0.368
355	0.366
356	0.363
356	0.361
357	0.357
357	0.355
358	0.352
358	0.35
359	0.348
359	0.346
360	0.344
360	0.342
360	0.34
361	0.338
361	0.336
362	0.335
362	0.333
363	0.331
363	0.329
364	0.328
364	0.326
365	0.324
365	0.322
366	0.321
366	0.319
366	0.317
367	0.316
367	0.314
368	0.313
368	0.311
369	0.31
369	0.309
370	0.308
370	0.306
371	0.305
371	0.304
372	0.303
372	0.302
372	0.3
373	0.299
373	0.298
374	0.298
374	0.296
375	0.295
375	0.295
376	0.294
376	0.293
377	0.292
377	0.291
378	0.29
378	0.289
378	0.289
379	0.288
379	0.287
380	0.287
380	0.286
381	0.285
381	0.284
382	0.284
382	0.284
383	0.283
383	0.283
383	0.282
384	0.282
384	0.281
385	0.281
385	0.281
386	0.28
386	0.28
387	0.279
387	0.279
388	0.278
388	0.278
389	0.278
389	0.277
389	0.277
390	0.277
390	0.276
391	0.276
391	0.275
392	0.275
392	0.275
393	0.274
393	0.274
394	0.274
394	0.273
394	0.273
395	0.273
395	0.272
396	0.272
396	0.272
397	0.272
397	0.271
398	0.271
398	0.271
399	0.27
399	0.27
400	0.27
400	0.269
400	0.269
401	0.269
401	0.269
402	0.268
402	0.268
403	0.268
403	0.268
404	0.268
404	0.267
405	0.267
405	0.267
405	0.267
406	0.267
406	0.266
407	0.266
407	0.266
408	0.265
408	0.265
409	0.265
409	0.264
410	0.264
410	0.264
411	0.264
411	0.263
411	0.263
412	0.263
412	0.263
413	0.262
413	0.262
414	0.262
414	0.261
415	0.261
415	0.261
416	0.26
416	0.26
416	0.26
417	0.259
417	0.259
418	0.259
418	0.259
419	0.258
419	0.258
420	0.258
420	0.257
421	0.257
421	0.257
421	0.256
422	0.256
422	0.256
423	0.256
423	0.255
424	0.255
424	0.254
425	0.254
425	0.254
426	0.254
426	0.253
427	0.253
427	0.252
427	0.252
428	0.252
428	0.251
429	0.251
429	0.251
430	0.251
430	0.251
431	0.25
431	0.25
432	0.25
432	0.25
432	0.25
433	0.25
433	0.249
434	0.249
434	0.249
435	0.248
435	0.248
436	0.248
436	0.248
437	0.247
437	0.247
437	0.247
438	0.247
438	0.247
439	0.246
439	0.246
440	0.246
440	0.246
441	0.245
441	0.245
442	0.245
442	0.245
442	0.244
443	0.244
443	0.244
444	0.244
444	0.244
445	0.244
445	0.244
446	0.244
446	0.243
447	0.243
447	0.243
447	0.243
448	0.242
448	0.242
449	0.242
449	0.242
450	0.242
450	0.241
451	0.241
451	0.241
452	0.241
452	0.241
452	0.241
453	0.241
453	0.241
454	0.24
454	0.24
455	0.24
455	0.24
456	0.239
456	0.239
457	0.239
457	0.238
458	0.238
458	0.238
458	0.238
459	0.237
459	0.237
460	0.237
460	0.237
461	0.237
461	0.236
462	0.236
462	0.236
463	0.236
463	0.235
463	0.235
464	0.235
464	0.235
465	0.234
465	0.234
466	0.234
466	0.234
467	0.234
467	0.234
467	0.234
468	0.233
468	0.233
469	0.233
469	0.233
470	0.234
470	0.234
471	0.234
471	0.233
472	0.233
472	0.234
472	0.234
473	0.234
473	0.233
474	0.233
474	0.233
475	0.233
475	0.233
476	0.233
476	0.233
477	0.233
477	0.233
477	0.233
478	0.233
478	0.233
479	0.234
479	0.234
480	0.233
480	0.233
481	0.233
481	0.233
482	0.233
482	0.233
482	0.233
483	0.234
483	0.234
484	0.234
484	0.234
485	0.234
485	0.234
486	0.234
486	0.234
487	0.234
487	0.234
487	0.234
488	0.234
488	0.234
489	0.234
489	0.235
490	0.235
490	0.236
491	0.236
491	0.237
492	0.237
492	0.237
492	0.238
493	0.238
493	0.238
494	0.239
494	0.239
495	0.239
495	0.24
496	0.24
496	0.241
496	0.241
497	0.241
497	0.242
498	0.242
498	0.242
499	0.243
499	0.243
500	0.244
500	0.244
501	0.245
501	0.245
501	0.245
502	0.245
502	0.245
503	0.246
503	0.246
504	0.247
504	0.247
505	0.247
505	0.248
506	0.248
506	0.248
506	0.249
507	0.25
507	0.25
508	0.25
508	0.251
509	0.251
509	0.251
510	0.252
510	0.252
511	0.253
511	0.253
511	0.254
512	0.255
512	0.255
513	0.256
513	0.256
514	0.257
514	0.258
515	0.258
515	0.258
515	0.259
516	0.259
516	0.26
517	0.26
517	0.26
518	0.261
518	0.261
519	0.261
519	0.261
520	0.262
520	0.262
520	0.262
521	0.263
521	0.263
522	0.263
522	0.263
523	0.263
523	0.263
524	0.263
524	0.263
524	0.263
525	0.264
525	0.264
526	0.264
526	0.264
527	0.264
527	0.264
528	0.264
528	0.265
529	0.264
529	0.265
529	0.264
530	0.264
530	0.264
531	0.265
531	0.264
532	0.264
532	0.264
533	0.264
533	0.264
533	0.264
534	0.264
534	0.264
535	0.264
535	0.264
536	0.263
536	0.263
537	0.263
537	0.263
538	0.263
538	0.263
538	0.262
539	0.262
539	0.262
540	0.262
540	0.262
541	0.261
541	0.261
542	0.261
542	0.26
542	0.26
543	0.26
543	0.26
544	0.26
544	0.259
545	0.259
545	0.259
546	0.259
546	0.258
547	0.258
547	0.257
547	0.257
548	0.257
548	0.256
549	0.256
549	0.256
550	0.256
550	0.255
551	0.255
551	0.254
551	0.254
552	0.254
552	0.253
553	0.253
553	0.253
554	0.252
554	0.252
555	0.251
555	0.25
556	0.25
556	0.25
556	0.25
557	0.249
557	0.249
558	0.249
558	0.249
559	0.249
559	0.249
560	0.249
560	0.249
560	0.248
561	0.248
561	0.248
562	0.247
562	0.246
563	0.245
563	0.245
564	0.244
564	0.244
564	0.243
565	0.243
565	0.243
566	0.243
566	0.242
567	0.242
567	0.242
568	0.242
568	0.242
568	0.241
569	0.241
569	0.241
570	0.24
570	0.239
571	0.239
571	0.238
572	0.238
572	0.237
573	0.237
573	0.237
573	0.236
574	0.236
574	0.235
575	0.235
575	0.235
576	0.235
576	0.235
577	0.234
577	0.233
577	0.233
578	0.232
578	0.232
579	0.232
579	0.232
580	0.232
580	0.231
581	0.23
581	0.23
581	0.23
582	0.23
582	0.23
583	0.23
583	0.23
584	0.229
584	0.228
585	0.228
585	0.227
585	0.227
586	0.227
586	0.226
587	0.226
587	0.225
588	0.224
588	0.224
589	0.224
589	0.224
590	0.224
590	0.224
590	0.225
591	0.225
591	0.225
592	0.224
592	0.224
593	0.224
593	0.224
594	0.223
594	0.222
594	0.222
595	0.221
595	0.221
596	0.22
596	0.22
597	0.221
597	0.221
598	0.22
598	0.22
598	0.22
599	0.22
599	0.22
600	0.219
600	0.219
601	0.218
601	0.218
602	0.217
602	0.217
602	0.217
603	0.217
603	0.217
604	0.217
604	0.217
605	0.217
605	0.217
606	0.217
606	0.216
606	0.216
607	0.215
607	0.215
608	0.215
608	0.214
609	0.213
609	0.213
610	0.213
610	0.213
610	0.213
611	0.213
611	0.213
612	0.213
612	0.213
613	0.213
613	0.213
614	0.212
614	0.212
614	0.212
615	0.212
615	0.211
616	0.211
616	0.211
617	0.211
617	0.211
618	0.21
618	0.211
618	0.211
619	0.211
619	0.211
620	0.211
620	0.211
621	0.21
621	0.21
622	0.209
622	0.209
622	0.209
623	0.208
623	0.208
624	0.207
624	0.207
625	0.207
625	0.206
626	0.206
626	0.206
626	0.206
627	0.206
627	0.206
628	0.206
628	0.206
629	0.205
629	0.205
630	0.205
630	0.205
630	0.205
631	0.205
631	0.204
632	0.204
632	0.204
633	0.204
633	0.204
634	0.205
634	0.205
634	0.205
635	0.204
635	0.204
636	0.204
636	0.204
637	0.203
637	0.203
638	0.203
638	0.203
638	0.202
639	0.202
639	0.202
640	0.202
640	0.202
641	0.202
641	0.202
642	0.202
642	0.203
642	0.203
643	0.203
643	0.204
644	0.204
644	0.204
645	0.204
645	0.203
646	0.203
646	0.203
646	0.203
647	0.202
647	0.202
648	0.201
648	0.201
649	0.2
649	0.2
650	0.2
650	0.2
650	0.2
651	0.2
651	0.2
652	0.2
652	0.2
653	0.2
653	0.202
653	0.208
654	0.162
654	0.129
655	0.131
655	0.131
656	0.131
656	0.132
657	0.132
657	0.133
657	0.133
658	0.131
658	0.121
659	0.153
659	0.197
660	0.202
660	0.202
661	0.201
661	0.201
661	0.201
662	0.201
662	0.201
663	0.201
663	0.201
664	0.201
664	0.201
665	0.201
665	0.201
665	0.201
666	0.201
666	0.201
667	0.202
667	0.201
668	0.201
668	0.201
669	0.201
669	0.201
669	0.202
670	0.202
670	0.201
671	0.201
671	0.201
672	0.2
672	0.199
672	0.199
673	0.199
673	0.199
674	0.199
674	0.198
675	0.198
675	0.198
676	0.198
676	0.198
676	0.199
677	0.199
677	0.199
678	0.199
678	0.198
679	0.198
679	0.198
680	0.199
680	0.198
680	0.198
681	0.198
681	0.199
682	0.199
682	0.2
683	0.2
683	0.201
684	0.201
684	0.201
684	0.201
685	0.201
685	0.201
686	0.201
686	0.201
687	0.2
687	0.2
687	0.2
688	0.2
688	0.2
689	0.201
689	0.201
690	0.201
690	0.201
691	0.201
691	0.201
691	0.201
692	0.201
692	0.2
693	0.2
693	0.201
694	0.2
694	0.2
695	0.201
695	0.202
695	0.203
696	0.203
696	0.204
697	0.204
697	0.205
698	0.205
698	0.205
698	0.205
699	0.205
699	0.205
700	0.204
700	0.204
701	0.204
701	0.203
702	0.203
702	0.202
702	0.202
703	0.202
703	0.201
704	0.201
704	0.201
705	0.202
705	0.202
705	0.202
706	0.202
706	0.203
707	0.203
707	0.203
708	0.204
708	0.204
709	0.205
709	0.205
709	0.205
710	0.205
710	0.205
711	0.205
711	0.205
712	0.205
712	0.206
713	0.205
713	0.205
713	0.205
714	0.205
714	0.205
715	0.204
715	0.204
716	0.203
716	0.203
716	0.202
717	0.202
717	0.202
718	0.201
718	0.201
719	0.202
719	0.202
720	0.203
720	0.204
720	0.204
721	0.205
721	0.205
722	0.206
722	0.207
723	0.207
723	0.207
723	0.207
724	0.207
724	0.207
725	0.206
725	0.206
726	0.206
726	0.205
727	0.205
727	0.205
727	0.205
728	0.205
728	0.205
729	0.205
729	0.205
730	0.205
730	0.206
730	0.206
731	0.207
731	0.207
732	0.208
732	0.209
733	0.209
733	0.209
734	0.21
734	0.21
734	0.211
735	0.211
735	0.211
736	0.211
736	0.211
737	0.211
737	0.211
737	0.211
738	0.21
738	0.209
739	0.209
739	0.208
740	0.208
740	0.208
741	0.208
741	0.208
741	0.208
742	0.208
742	0.209
743	0.21
743	0.211
744	0.212
744	0.212
744	0.213
745	0.213
745	0.213
746	0.213
746	0.213
747	0.212
747	0.212
748	0.211
748	0.211
748	0.21
749	0.21
749	0.21
750	0.209
750	0.209
751	0.209
751	0.209
751	0.21
752	0.21
752	0.21
753	0.209
753	0.209
754	0.209
754	0.209
754	0.21
755	0.21
755	0.211
756	0.21
756	0.21
757	0.209
757	0.209
758	0.21
758	0.21
758	0.211
759	0.211
759	0.211
760	0.211
760	0.211
761	0.211
761	0.212
761	0.212
762	0.213
762	0.213
763	0.213
763	0.213
764	0.212
764	0.213
764	0.213
765	0.212
765	0.212
766	0.212
766	0.212
767	0.212
767	0.212
768	0.211
768	0.211
768	0.211
769	0.211
769	0.211
770	0.212
770	0.212
771	0.213
771	0.213
771	0.213
772	0.214
772	0.215
773	0.215
773	0.215
774	0.216
774	0.216
775	0.216
775	0.216
775	0.216
776	0.216
776	0.216
777	0.216
777	0.216
778	0.216
778	0.215
778	0.215
779	0.215
779	0.215
780	0.214
780	0.214
781	0.213
781	0.213
781	0.213
782	0.213
782	0.214
783	0.214
783	0.215
784	0.216
784	0.216
784	0.217
785	0.218
785	0.218
786	0.219
786	0.219
787	0.22
787	0.22
788	0.219
788	0.219
788	0.218
789	0.218
789	0.218
790	0.217
790	0.217
791	0.216
791	0.215
791	0.215
792	0.215
792	0.215
793	0.214
793	0.214
794	0.214
794	0.213
794	0.213
795	0.213
795	0.214
796	0.214
796	0.215
797	0.215
797	0.215
797	0.216
798	0.217
798	0.217
799	0.218
799	0.218
800	0.218
800	0.217
801	0.217
801	0.217
801	0.217
802	0.217
802	0.217
803	0.217
803	0.217
804	0.217
804	0.218
804	0.218
805	0.219
805	0.219
806	0.219
806	0.219
807	0.219
807	0.219
807	0.219
808	0.22
808	0.219
809	0.219
809	0.219
810	0.219
810	0.219
810	0.219
811	0.219
811	0.219
812	0.219
812	0.219
813	0.219
813	0.219
813	0.219
814	0.219
814	0.22
815	0.221
815	0.221
816	0.221
816	0.221
817	0.221
817	0.221
817	0.221
818	0.221
818	0.222
819	0.222
819	0.221
820	0.221
820	0.221
820	0.221
821	0.221
821	0.221
822	0.222
822	0.222
823	0.222
823	0.222
823	0.223
824	0.224
824	0.224
825	0.225
825	0.226
826	0.226
826	0.226
826	0.226
827	0.227
827	0.227
828	0.227
828	0.227
829	0.227
829	0.227
829	0.227
830	0.227
830	0.227
831	0.227
831	0.228
832	0.227
832	0.228
832	0.228
833	0.228
833	0.228
834	0.228
834	0.227
835	0.227
835	0.227
835	0.226
836	0.226
836	0.225
837	0.225
837	0.224
838	0.223
838	0.223
839	0.222
839	0.222
839	0.221
840	0.22
840	0.22
841	0.219
841	0.219
842	0.218
842	0.218
842	0.217
843	0.217
843	0.216
844	0.216
844	0.215
845	0.215
845	0.214
845	0.214
846	0.214
846	0.214
847	0.214
847	0.215
848	0.215
848	0.216
848	0.216
849	0.217
849	0.217
850	0.218
850	0.218
851	0.219
851	0.219
851	0.22
852	0.22
852	0.22
853	0.22
853	0.221
854	0.221
854	0.222
854	0.223
855	0.223
855	0.224
856	0.224
856	0.224
857	0.224
857	0.224
857	0.224
858	0.224
858	0.223
859	0.223
859	0.222
860	0.222
860	0.222
860	0.221
861	0.221
861	0.221
862	0.22
862	0.22
863	0.219
863	0.219
863	0.219
864	0.219
864	0.219
865	0.219
865	0.219
866	0.219
866	0.219
866	0.219
867	0.219
867	0.219
868	0.22
868	0.22
869	0.22
869	0.219
869	0.218
870	0.218
870	0.218
871	0.217
871	0.217
872	0.217
872	0.217
872	0.217
873	0.217
873	0.217
874	0.216
874	0.216
875	0.217
875	0.217
875	0.217
876	0.217
876	0.218
877	0.218
877	0.218
878	0.218
878	0.218
878	0.219
879	0.219
879	0.219
880	0.219
880	0.218
881	0.218
881	0.217
881	0.217
882	0.216
882	0.216
883	0.215
883	0.215
884	0.215
884	0.215
884	0.214
885	0.214
885	0.214
886	0.214
886	0.213
887	0.213
887	0.212
887	0.211
888	0.211
888	0.21
889	0.209
889	0.208
890	0.208
890	0.208
890	0.208
891	0.207
891	0.207
892	0.207
892	0.206
893	0.206
893	0.205
893	0.205
894	0.204
894	0.203
895	0.202
895	0.202
895	0.202
896	0.202
896	0.202
897	0.202
897	0.203
898	0.203
898	0.204
898	0.205
899	0.206
899	0.206
900	0.207
900	0.207
901	0.207
901	0.207
901	0.206
902	0.206
902	0.205
903	0.205
903	0.204
904	0.203
904	0.203
904	0.202
905	0.201
905	0.2
906	0.2
906	0.2
907	0.2
907	0.2
907	0.2
908	0.199
908	0.199
909	0.199
909	0.198
910	0.198
910	0.198
910	0.198
911	0.197
911	0.197
912	0.197
912	0.197
913	0.197
913	0.197
913	0.197
914	0.197
914	0.197
915	0.197
915	0.197
916	0.197
916	0.197
916	0.196
917	0.196
917	0.196
918	0.196
918	0.195
918	0.195
919	0.195
919	0.195
920	0.194
920	0.194
921	0.194
921	0.194
921	0.193
922	0.193
922	0.193
923	0.194
923	0.194
924	0.194
924	0.195
924	0.195
925	0.195
925	0.195
926	0.195
926	0.196
927	0.196
927	0.195
927	0.195
928	0.195
928	0.194
929	0.194
929	0.194
930	0.193
930	0.193
930	0.192
931	0.192
931	0.192
932	0.191
932	0.191
933	0.191
933	0.19
933	0.19
934	0.189
934	0.189
935	0.188
935	0.188
935	0.187
936	0.186
936	0.185
937	0.185
937	0.184
938	0.183
938	0.183
938	0.182
939	0.182
939	0.181
940	0.181
940	0.18
941	0.18
941	0.18
941	0.18
942	0.18
942	0.18
943	0.18
943	0.18
944	0.18
944	0.18
944	0.18
945	0.18
945	0.18
946	0.18
946	0.18
946	0.18
947	0.179
947	0.179
948	0.178
948	0.178
949	0.177
949	0.176
949	0.176
950	0.175
950	0.175
951	0.174
951	0.173
952	0.172
952	0.171
952	0.171
953	0.17
953	0.169
954	0.168
954	0.168
955	0.167
955	0.166
955	0.166
956	0.166
956	0.166
957	0.166
957	0.166
957	0.166
958	0.166
958	0.166
959	0.166
959	0.166
960	0.166
960	0.166
960	0.166
961	0.166
961	0.166
962	0.166
962	0.165
963	0.165
963	0.165
963	0.165
964	0.165
964	0.165
965	0.165
965	0.164
966	0.164
966	0.164
966	0.164
967	0.164
967	0.163
968	0.163
968	0.163
968	0.163
969	0.162
969	0.162
970	0.161
970	0.161
971	0.16
971	0.16
971	0.159
972	0.159
972	0.158
973	0.158
973	0.158
974	0.157
974	0.157
974	0.157
975	0.156
975	0.156
976	0.156
976	0.156
976	0.155
977	0.155
977	0.154
978	0.154
978	0.153
979	0.153
979	0.152
979	0.152
980	0.151
980	0.151
981	0.15
981	0.15
982	0.15
982	0.15
982	0.149
983	0.149
983	0.149
984	0.149
984	0.149
984	0.149
985	0.149
985	0.15
986	0.15
986	0.15
987	0.15
987	0.15
987	0.15
988	0.15
988	0.15
989	0.15
989	0.151
990	0.151
990	0.15
990	0.15
991	0.15
991	0.15
992	0.149
992	0.148
992	0.147
993	0.146
993	0.145
994	0.144
994	0.143
995	0.142
995	0.142
995	0.141
996	0.141
996	0.14
997	0.14
997	0.141
997	0.141
998	0.142
998	0.142
999	0.143
999	0.144
1000	0.144
1000	0.145
1000	0.145
1001	0.145
1001	0.146
1002	0.145
1002	0.145
1003	0.145
1003	0.144
1003	0.143
1004	0.143
1004	0.142
1005	0.142
1005	0.141
1005	0.14
1006	0.14
1006	0.139
1007	0.139
1007	0.138
1008	0.138
1008	0.138
1008	0.137
1009	0.137
1009	0.137
1010	0.136
1010	0.136
1010	0.136
1011	0.135
1011	0.134
1012	0.133
1012	0.133
1013	0.132
1013	0.132
1013	0.131
1014	0.13
1014	0.13
1015	0.13
1015	0.13
1016	0.13
1016	0.129
1016	0.129
1017	0.129
1017	0.129
1018	0.129
1018	0.129
1018	0.129
1019	0.129
1019	0.129
1020	0.129
1020	0.129
1021	0.129
1021	0.129
1021	0.129
1022	0.129
1022	0.129
1023	0.129
1023	0.13
1023	0.13
1024	0.13
1024	0.13
1025	0.13
1025	0.129
1026	0.129
1026	0.129
1026	0.129
1027	0.129
1027	0.129
1028	0.129
1028	0.129
1028	0.129
1029	0.129
1029	0.129
1030	0.129
1030	0.129
1031	0.129
1031	0.13
1031	0.13
1032	0.13
1032	0.13
1033	0.129
1033	0.129
1033	0.129
1034	0.129
1034	0.128
1035	0.128
1035	0.127
1036	0.127
1036	0.127
1036	0.126
1037	0.126
1037	0.126
1038	0.126
1038	0.125
1039	0.125
1039	0.125
1039	0.125
1040	0.125
1040	0.125
1041	0.124
1041	0.124
1041	0.124
1042	0.123
1042	0.123
1043	0.123
1043	0.122
1044	0.122
1044	0.121
1044	0.121
1045	0.121
1045	0.121
1046	0.121
1046	0.121
1046	0.121
1047	0.121
1047	0.121
1048	0.121
1048	0.121
1049	0.121
1049	0.121
1049	0.12
1050	0.12
1050	0.119
1051	0.119
1051	0.118
1051	0.118
1052	0.117
1052	0.116
1053	0.116
1053	0.115
1053	0.115
1054	0.114
1054	0.114
1055	0.113
1055	0.113
1056	0.112
1056	0.112
1056	0.111
1057	0.11
1057	0.109
1058	0.109
1058	0.108
1058	0.107
1059	0.106
1059	0.105
1060	0.104
1060	0.104
1061	0.103
1061	0.103
1061	0.103
1062	0.102
1062	0.102
1063	0.101
1063	0.101
1063	0.101
1064	0.101
1064	0.101
1065	0.1
1065	0.1
1066	0.1
1066	0.099
1066	0.099
1067	0.099
1067	0.099
1068	0.099
1068	0.099
1068	0.098
1069	0.098
1069	0.098
1070	0.097
1070	0.097
1071	0.097
1071	0.097
1071	0.096
1072	0.096
1072	0.096
1073	0.096
1073	0.096
1073	0.096
1074	0.096
1074	0.097
1075	0.097
1075	0.097
1076	0.097
1076	0.097
1076	0.098
1077	0.098
1077	0.098
1078	0.098
1078	0.098
1078	0.098
1079	0.098
1079	0.097
1080	0.097
1080	0.097
1080	0.097
1081	0.097
1081	0.097
1082	0.097
1082	0.097
1083	0.096
1083	0.096
1083	0.096
1084	0.095
1084	0.096
1085	0.096
1085	0.096
1085	0.096
1086	0.096
1086	0.095
1087	0.095
1087	0.095
1088	0.095
1088	0.095
1088	0.095
1089	0.094
1089	0.094
1090	0.093
1090	0.093
1090	0.092
1091	0.092
1091	0.091
1092	0.092
1092	0.092
1092	0.091
1093	0.091
1093	0.092
1094	0.092
1094	0.091
1095	0.091
1095	0.091
1095	0.091
1096	0.09
1096	0.089
1097	0.088
1097	0.087
1097	0.087
1098	0.086
1098	0.085
1099	0.084
1099	0.083
1100	0.082
1100	0.081
1100	0.08
1101	0.079
1101	0.079
1102	0.078
1102	0.076
1102	0.074
1103	0.072
1103	0.072
1104	0.071
1104	0.071
1104	0.07
1105	0.069
1105	0.067
1106	0.066
1106	0.065
1107	0.064
1107	0.064
1107	0.065
1108	0.064
1108	0.064
1109	0.062
1109	0.063
1109	0.063
1110	0.065
1110	0.063
1111	0.064
1111	0.066
