Data from reversibility-20sec_Absorbance__7788__000000000007788.txt Node

Date: Thu Dec 07 07:29:06 CET 2023
User: Marek
Spectrometer: MAYP115816
Trigger mode: 0
Integration Time (sec): 2.000000E-1
Scans to average: 10
Electric dark correction enabled: true
Nonlinearity correction enabled: true
Boxcar width: 5
XAxis mode: Wavelengths
Number of Pixels in Spectrum: 2068
>>>>>Begin Spectral Data<<<<<
199	-0.127
199	-0.088
200	-0.024
200	0.015
201	0.042
201	0.057
202	0.063
202	0.071
203	0.077
203	0.08
204	0.096
204	0.11
205	0.117
205	0.119
205	0.122
206	0.122
206	0.121
207	0.123
207	0.121
208	0.122
208	0.123
209	0.124
209	0.121
210	0.123
210	0.124
211	0.125
211	0.127
212	0.129
212	0.13
213	0.136
213	0.134
213	0.134
214	0.137
214	0.138
215	0.14
215	0.141
216	0.141
216	0.139
217	0.143
217	0.146
218	0.143
218	0.15
219	0.155
219	0.156
220	0.161
220	0.161
221	0.16
221	0.165
221	0.173
222	0.176
222	0.18
223	0.188
223	0.192
224	0.197
224	0.204
225	0.213
225	0.224
226	0.236
226	0.244
227	0.248
227	0.257
228	0.272
228	0.286
229	0.302
229	0.325
229	0.347
230	0.371
230	0.402
231	0.432
231	0.47
232	0.513
232	0.559
233	0.604
233	0.651
234	0.704
234	0.755
235	0.809
235	0.862
236	0.908
236	0.961
236	1.011
237	1.062
237	1.11
238	1.157
238	1.204
239	1.247
239	1.288
240	1.326
240	1.362
241	1.401
241	1.436
242	1.468
242	1.501
243	1.528
243	1.553
243	1.578
244	1.597
244	1.619
245	1.639
245	1.661
246	1.678
246	1.694
247	1.707
247	1.718
248	1.733
248	1.747
249	1.755
249	1.764
250	1.771
250	1.778
250	1.782
251	1.786
251	1.789
252	1.796
252	1.798
253	1.799
253	1.796
254	1.796
254	1.797
255	1.798
255	1.798
256	1.798
256	1.798
257	1.797
257	1.795
258	1.796
258	1.795
258	1.794
259	1.794
259	1.794
260	1.793
260	1.793
261	1.794
261	1.794
262	1.796
262	1.797
263	1.798
263	1.798
264	1.799
264	1.8
265	1.802
265	1.802
265	1.802
266	1.801
266	1.801
267	1.799
267	1.8
268	1.799
268	1.8
269	1.801
269	1.799
270	1.798
270	1.796
271	1.792
271	1.792
272	1.791
272	1.79
272	1.787
273	1.783
273	1.779
274	1.774
274	1.77
275	1.764
275	1.759
276	1.753
276	1.745
277	1.736
277	1.727
278	1.716
278	1.705
278	1.692
279	1.678
279	1.661
280	1.641
280	1.617
281	1.588
281	1.555
282	1.519
282	1.482
283	1.444
283	1.407
284	1.371
284	1.334
285	1.3
285	1.268
285	1.238
286	1.212
286	1.189
287	1.168
287	1.15
288	1.135
288	1.121
289	1.109
289	1.099
290	1.09
290	1.082
291	1.075
291	1.068
292	1.062
292	1.057
292	1.053
293	1.048
293	1.044
294	1.04
294	1.036
295	1.032
295	1.028
296	1.025
296	1.022
297	1.018
297	1.015
298	1.011
298	1.007
298	1.004
299	1.001
299	0.997
300	0.994
300	0.99
301	0.987
301	0.984
302	0.981
302	0.978
303	0.976
303	0.973
304	0.97
304	0.967
305	0.965
305	0.962
305	0.959
306	0.956
306	0.953
307	0.951
307	0.948
308	0.944
308	0.941
309	0.938
309	0.935
310	0.932
310	0.929
311	0.925
311	0.922
311	0.919
312	0.915
312	0.911
313	0.907
313	0.903
314	0.899
314	0.895
315	0.89
315	0.886
316	0.881
316	0.876
317	0.871
317	0.866
318	0.861
318	0.856
318	0.851
319	0.845
319	0.84
320	0.834
320	0.828
321	0.822
321	0.816
322	0.809
322	0.803
323	0.796
323	0.79
324	0.783
324	0.776
324	0.77
325	0.763
325	0.756
326	0.749
326	0.741
327	0.734
327	0.727
328	0.72
328	0.713
329	0.706
329	0.698
330	0.691
330	0.684
330	0.677
331	0.67
331	0.663
332	0.656
332	0.649
333	0.642
333	0.635
334	0.628
334	0.621
335	0.614
335	0.607
336	0.6
336	0.593
336	0.587
337	0.58
337	0.574
338	0.567
338	0.561
339	0.555
339	0.549
340	0.543
340	0.537
341	0.531
341	0.526
342	0.52
342	0.515
342	0.509
343	0.504
343	0.499
344	0.494
344	0.489
345	0.484
345	0.479
346	0.474
346	0.469
347	0.464
347	0.46
348	0.456
348	0.452
348	0.448
349	0.444
349	0.44
350	0.436
350	0.433
351	0.429
351	0.426
352	0.423
352	0.42
353	0.417
353	0.414
354	0.411
354	0.408
354	0.404
355	0.401
355	0.398
356	0.395
356	0.392
357	0.389
357	0.386
358	0.384
358	0.381
359	0.379
359	0.376
360	0.374
360	0.372
360	0.37
361	0.368
361	0.366
362	0.365
362	0.363
363	0.361
363	0.359
364	0.357
364	0.355
365	0.353
365	0.351
366	0.349
366	0.347
366	0.345
367	0.343
367	0.342
368	0.34
368	0.338
369	0.337
369	0.335
370	0.334
370	0.332
371	0.331
371	0.33
372	0.328
372	0.327
372	0.326
373	0.324
373	0.323
374	0.322
374	0.321
375	0.32
375	0.319
376	0.318
376	0.317
377	0.316
377	0.315
378	0.314
378	0.313
378	0.312
379	0.311
379	0.31
380	0.309
380	0.308
381	0.307
381	0.307
382	0.306
382	0.305
383	0.305
383	0.304
383	0.303
384	0.303
384	0.302
385	0.301
385	0.301
386	0.3
386	0.3
387	0.299
387	0.299
388	0.298
388	0.298
389	0.297
389	0.297
389	0.296
390	0.296
390	0.295
391	0.295
391	0.294
392	0.294
392	0.294
393	0.293
393	0.293
394	0.292
394	0.292
394	0.291
395	0.291
395	0.29
396	0.29
396	0.289
397	0.289
397	0.288
398	0.288
398	0.288
399	0.287
399	0.287
400	0.286
400	0.286
400	0.286
401	0.285
401	0.285
402	0.284
402	0.284
403	0.283
403	0.283
404	0.283
404	0.282
405	0.282
405	0.281
405	0.281
406	0.281
406	0.28
407	0.28
407	0.28
408	0.279
408	0.279
409	0.279
409	0.279
410	0.278
410	0.278
411	0.278
411	0.278
411	0.277
412	0.277
412	0.277
413	0.276
413	0.276
414	0.276
414	0.275
415	0.275
415	0.274
416	0.274
416	0.274
416	0.273
417	0.273
417	0.273
418	0.272
418	0.272
419	0.271
419	0.271
420	0.27
420	0.27
421	0.27
421	0.269
421	0.269
422	0.269
422	0.268
423	0.268
423	0.267
424	0.267
424	0.267
425	0.267
425	0.267
426	0.266
426	0.266
427	0.266
427	0.265
427	0.265
428	0.265
428	0.264
429	0.264
429	0.263
430	0.263
430	0.263
431	0.262
431	0.262
432	0.262
432	0.262
432	0.262
433	0.261
433	0.261
434	0.261
434	0.261
435	0.261
435	0.261
436	0.261
436	0.261
437	0.26
437	0.26
437	0.26
438	0.26
438	0.259
439	0.259
439	0.259
440	0.259
440	0.259
441	0.258
441	0.258
442	0.258
442	0.258
442	0.258
443	0.257
443	0.257
444	0.257
444	0.257
445	0.257
445	0.257
446	0.257
446	0.256
447	0.256
447	0.256
447	0.256
448	0.256
448	0.256
449	0.256
449	0.256
450	0.256
450	0.255
451	0.255
451	0.255
452	0.255
452	0.255
452	0.255
453	0.255
453	0.255
454	0.255
454	0.255
455	0.255
455	0.255
456	0.255
456	0.254
457	0.254
457	0.254
458	0.254
458	0.254
458	0.254
459	0.254
459	0.254
460	0.254
460	0.255
461	0.255
461	0.255
462	0.255
462	0.255
463	0.255
463	0.255
463	0.254
464	0.254
464	0.254
465	0.254
465	0.254
466	0.254
466	0.254
467	0.254
467	0.254
467	0.255
468	0.255
468	0.255
469	0.255
469	0.256
470	0.256
470	0.257
471	0.257
471	0.257
472	0.257
472	0.257
472	0.258
473	0.258
473	0.258
474	0.258
474	0.258
475	0.258
475	0.258
476	0.259
476	0.259
477	0.259
477	0.259
477	0.26
478	0.26
478	0.261
479	0.261
479	0.262
480	0.262
480	0.263
481	0.263
481	0.263
482	0.264
482	0.265
482	0.265
483	0.266
483	0.267
484	0.267
484	0.267
485	0.268
485	0.268
486	0.268
486	0.269
487	0.269
487	0.27
487	0.27
488	0.271
488	0.271
489	0.272
489	0.274
490	0.275
490	0.276
491	0.277
491	0.278
492	0.279
492	0.28
492	0.281
493	0.282
493	0.283
494	0.284
494	0.285
495	0.285
495	0.286
496	0.287
496	0.288
496	0.29
497	0.291
497	0.292
498	0.293
498	0.294
499	0.295
499	0.296
500	0.298
500	0.299
501	0.3
501	0.301
501	0.301
502	0.302
502	0.303
503	0.304
503	0.305
504	0.306
504	0.307
505	0.308
505	0.309
506	0.31
506	0.311
506	0.312
507	0.313
507	0.314
508	0.315
508	0.316
509	0.316
509	0.317
510	0.318
510	0.318
511	0.319
511	0.321
511	0.321
512	0.322
512	0.323
513	0.323
513	0.324
514	0.325
514	0.325
515	0.326
515	0.327
515	0.327
516	0.327
516	0.328
517	0.329
517	0.329
518	0.33
518	0.33
519	0.33
519	0.331
520	0.331
520	0.331
520	0.331
521	0.331
521	0.331
522	0.331
522	0.331
523	0.331
523	0.331
524	0.331
524	0.331
524	0.331
525	0.331
525	0.33
526	0.33
526	0.329
527	0.329
527	0.328
528	0.328
528	0.327
529	0.327
529	0.326
529	0.325
530	0.324
530	0.323
531	0.323
531	0.321
532	0.32
532	0.319
533	0.318
533	0.317
533	0.316
534	0.315
534	0.314
535	0.313
535	0.313
536	0.311
536	0.31
537	0.309
537	0.308
538	0.306
538	0.304
538	0.303
539	0.302
539	0.301
540	0.299
540	0.297
541	0.296
541	0.294
542	0.293
542	0.291
542	0.29
543	0.288
543	0.287
544	0.285
544	0.283
545	0.282
545	0.28
546	0.279
546	0.277
547	0.275
547	0.273
547	0.272
548	0.271
548	0.269
549	0.268
549	0.266
550	0.265
550	0.263
551	0.261
551	0.26
551	0.258
552	0.256
552	0.255
553	0.253
553	0.252
554	0.25
554	0.248
555	0.246
555	0.245
556	0.243
556	0.242
556	0.241
557	0.239
557	0.238
558	0.237
558	0.236
559	0.234
559	0.233
560	0.232
560	0.23
560	0.229
561	0.228
561	0.226
562	0.224
562	0.222
563	0.22
563	0.219
564	0.217
564	0.215
564	0.214
565	0.213
565	0.212
566	0.21
566	0.209
567	0.208
567	0.207
568	0.206
568	0.204
568	0.203
569	0.202
569	0.2
570	0.199
570	0.197
571	0.196
571	0.194
572	0.193
572	0.192
573	0.191
573	0.189
573	0.188
574	0.187
574	0.186
575	0.185
575	0.185
576	0.184
576	0.182
577	0.181
577	0.18
577	0.179
578	0.178
578	0.177
579	0.177
579	0.176
580	0.175
580	0.174
581	0.173
581	0.172
581	0.171
582	0.171
582	0.17
583	0.169
583	0.168
584	0.167
584	0.165
585	0.164
585	0.164
585	0.163
586	0.162
586	0.162
587	0.161
587	0.16
588	0.159
588	0.159
589	0.158
589	0.158
590	0.157
590	0.157
590	0.156
591	0.156
591	0.154
592	0.154
592	0.152
593	0.151
593	0.151
594	0.15
594	0.149
594	0.148
595	0.147
595	0.146
596	0.145
596	0.145
597	0.145
597	0.145
598	0.145
598	0.144
598	0.144
599	0.143
599	0.143
600	0.142
600	0.141
601	0.141
601	0.14
602	0.139
602	0.139
602	0.138
603	0.138
603	0.138
604	0.138
604	0.138
605	0.137
605	0.137
606	0.137
606	0.136
606	0.135
607	0.135
607	0.134
608	0.134
608	0.133
609	0.132
609	0.131
610	0.131
610	0.13
610	0.13
611	0.129
611	0.129
612	0.129
612	0.129
613	0.129
613	0.129
614	0.128
614	0.128
614	0.128
615	0.128
615	0.127
616	0.127
616	0.127
617	0.127
617	0.127
618	0.126
618	0.126
618	0.126
619	0.125
619	0.125
620	0.125
620	0.125
621	0.124
621	0.123
622	0.123
622	0.122
622	0.122
623	0.121
623	0.121
624	0.121
624	0.12
625	0.12
625	0.119
626	0.119
626	0.119
626	0.119
627	0.119
627	0.119
628	0.119
628	0.118
629	0.118
629	0.118
630	0.117
630	0.117
630	0.117
631	0.116
631	0.116
632	0.115
632	0.115
633	0.115
633	0.114
634	0.114
634	0.114
634	0.114
635	0.114
635	0.113
636	0.113
636	0.113
637	0.113
637	0.113
638	0.112
638	0.112
638	0.112
639	0.112
639	0.111
640	0.111
640	0.111
641	0.11
641	0.11
642	0.11
642	0.11
642	0.11
643	0.109
643	0.109
644	0.109
644	0.11
645	0.11
645	0.11
646	0.11
646	0.11
646	0.11
647	0.11
647	0.109
648	0.108
648	0.108
649	0.107
649	0.107
650	0.107
650	0.106
650	0.106
651	0.106
651	0.106
652	0.106
652	0.106
653	0.107
653	0.108
653	0.113
654	0.091
654	0.074
655	0.072
655	0.072
656	0.072
656	0.072
657	0.072
657	0.073
657	0.073
658	0.072
658	0.064
659	0.08
659	0.101
660	0.107
660	0.107
661	0.106
661	0.105
661	0.105
662	0.104
662	0.104
663	0.103
663	0.103
664	0.102
664	0.102
665	0.101
665	0.101
665	0.101
666	0.101
666	0.102
667	0.102
667	0.102
668	0.102
668	0.103
669	0.103
669	0.103
669	0.104
670	0.104
670	0.104
671	0.104
671	0.104
672	0.103
672	0.103
672	0.102
673	0.102
673	0.102
674	0.101
674	0.101
675	0.1
675	0.1
676	0.1
676	0.1
676	0.1
677	0.101
677	0.101
678	0.101
678	0.1
679	0.1
679	0.1
680	0.1
680	0.1
680	0.1
681	0.1
681	0.1
682	0.101
682	0.101
683	0.101
683	0.101
684	0.101
684	0.101
684	0.1
685	0.1
685	0.1
686	0.1
686	0.099
687	0.099
687	0.099
687	0.099
688	0.099
688	0.099
689	0.099
689	0.1
690	0.1
690	0.099
691	0.1
691	0.1
691	0.1
692	0.1
692	0.1
693	0.1
693	0.101
694	0.101
694	0.1
695	0.101
695	0.102
695	0.102
696	0.102
696	0.102
697	0.102
697	0.102
698	0.101
698	0.101
698	0.101
699	0.101
699	0.101
700	0.1
700	0.1
701	0.1
701	0.099
702	0.099
702	0.098
702	0.098
703	0.097
703	0.097
704	0.096
704	0.096
705	0.096
705	0.095
705	0.095
706	0.095
706	0.095
707	0.096
707	0.096
708	0.096
708	0.096
709	0.096
709	0.096
709	0.096
710	0.096
710	0.096
711	0.097
711	0.097
712	0.097
712	0.097
713	0.097
713	0.097
713	0.096
714	0.096
714	0.096
715	0.095
715	0.095
716	0.094
716	0.094
716	0.093
717	0.093
717	0.093
718	0.092
718	0.092
719	0.093
719	0.093
720	0.094
720	0.094
720	0.095
721	0.095
721	0.096
722	0.097
722	0.097
723	0.097
723	0.097
723	0.097
724	0.097
724	0.096
725	0.095
725	0.095
726	0.094
726	0.094
727	0.093
727	0.093
727	0.093
728	0.093
728	0.093
729	0.093
729	0.093
730	0.093
730	0.093
730	0.094
731	0.094
731	0.094
732	0.094
732	0.094
733	0.094
733	0.094
734	0.094
734	0.094
734	0.094
735	0.094
735	0.094
736	0.094
736	0.094
737	0.093
737	0.093
737	0.093
738	0.093
738	0.092
739	0.092
739	0.092
740	0.092
740	0.092
741	0.092
741	0.093
741	0.093
742	0.093
742	0.094
743	0.095
743	0.095
744	0.095
744	0.095
744	0.095
745	0.095
745	0.094
746	0.094
746	0.094
747	0.093
747	0.093
748	0.092
748	0.092
748	0.092
749	0.092
749	0.093
750	0.093
750	0.093
751	0.094
751	0.094
751	0.094
752	0.094
752	0.093
753	0.093
753	0.093
754	0.092
754	0.091
754	0.091
755	0.091
755	0.09
756	0.089
756	0.088
757	0.087
757	0.087
758	0.087
758	0.087
758	0.087
759	0.087
759	0.087
760	0.087
760	0.087
761	0.087
761	0.087
761	0.088
762	0.088
762	0.088
763	0.088
763	0.088
764	0.088
764	0.088
764	0.087
765	0.087
765	0.087
766	0.087
766	0.087
767	0.086
767	0.085
768	0.085
768	0.085
768	0.085
769	0.085
769	0.085
770	0.085
770	0.086
771	0.086
771	0.085
771	0.086
772	0.086
772	0.086
773	0.087
773	0.087
774	0.087
774	0.087
775	0.087
775	0.088
775	0.088
776	0.089
776	0.089
777	0.09
777	0.09
778	0.091
778	0.09
778	0.09
779	0.09
779	0.089
780	0.087
780	0.086
781	0.085
781	0.083
781	0.083
782	0.082
782	0.081
783	0.081
783	0.081
784	0.081
784	0.081
784	0.082
785	0.082
785	0.083
786	0.083
786	0.083
787	0.083
787	0.083
788	0.083
788	0.082
788	0.082
789	0.082
789	0.082
790	0.082
790	0.081
791	0.081
791	0.08
791	0.08
792	0.08
792	0.08
793	0.079
793	0.078
794	0.078
794	0.077
794	0.077
795	0.077
795	0.076
796	0.076
796	0.076
797	0.076
797	0.076
797	0.076
798	0.076
798	0.077
799	0.077
799	0.077
800	0.077
800	0.077
801	0.077
801	0.078
801	0.078
802	0.079
802	0.08
803	0.08
803	0.081
804	0.081
804	0.082
804	0.082
805	0.082
805	0.081
806	0.081
806	0.081
807	0.08
807	0.08
807	0.079
808	0.079
808	0.079
809	0.078
809	0.078
810	0.078
810	0.078
810	0.078
811	0.078
811	0.079
812	0.079
812	0.079
813	0.079
813	0.079
813	0.079
814	0.08
814	0.08
815	0.08
815	0.08
816	0.079
816	0.079
817	0.078
817	0.078
817	0.077
818	0.077
818	0.077
819	0.076
819	0.076
820	0.075
820	0.074
820	0.074
821	0.074
821	0.074
822	0.074
822	0.074
823	0.074
823	0.074
823	0.074
824	0.075
824	0.076
825	0.077
825	0.078
826	0.078
826	0.078
826	0.079
827	0.08
827	0.08
828	0.08
828	0.08
829	0.08
829	0.081
829	0.081
830	0.081
830	0.081
831	0.082
831	0.082
832	0.082
832	0.082
832	0.082
833	0.082
833	0.081
834	0.081
834	0.08
835	0.079
835	0.078
835	0.078
836	0.077
836	0.077
837	0.076
837	0.076
838	0.075
838	0.074
839	0.074
839	0.073
839	0.072
840	0.071
840	0.07
841	0.07
841	0.069
842	0.068
842	0.067
842	0.066
843	0.065
843	0.064
844	0.064
844	0.063
845	0.063
845	0.063
845	0.063
846	0.063
846	0.063
847	0.063
847	0.064
848	0.064
848	0.064
848	0.064
849	0.065
849	0.065
850	0.065
850	0.064
851	0.064
851	0.064
851	0.063
852	0.063
852	0.063
853	0.063
853	0.063
854	0.064
854	0.065
854	0.066
855	0.067
855	0.068
856	0.07
856	0.071
857	0.072
857	0.073
857	0.073
858	0.074
858	0.073
859	0.073
859	0.073
860	0.072
860	0.072
860	0.071
861	0.07
861	0.07
862	0.069
862	0.068
863	0.068
863	0.068
863	0.068
864	0.068
864	0.068
865	0.068
865	0.069
866	0.069
866	0.069
866	0.069
867	0.069
867	0.069
868	0.069
868	0.069
869	0.069
869	0.069
869	0.068
870	0.068
870	0.068
871	0.068
871	0.068
872	0.068
872	0.067
872	0.067
873	0.067
873	0.066
874	0.066
874	0.065
875	0.065
875	0.065
875	0.064
876	0.064
876	0.064
877	0.064
877	0.064
878	0.064
878	0.065
878	0.065
879	0.066
879	0.066
880	0.066
880	0.066
881	0.066
881	0.066
881	0.066
882	0.066
882	0.066
883	0.066
883	0.065
884	0.065
884	0.065
884	0.065
885	0.065
885	0.064
886	0.064
886	0.064
887	0.064
887	0.064
887	0.064
888	0.064
888	0.063
889	0.064
889	0.064
890	0.065
890	0.065
890	0.066
891	0.066
891	0.066
892	0.066
892	0.066
893	0.066
893	0.066
893	0.065
894	0.065
894	0.064
895	0.064
895	0.064
895	0.064
896	0.064
896	0.064
897	0.064
897	0.065
898	0.065
898	0.065
898	0.065
899	0.064
899	0.064
900	0.064
900	0.064
901	0.063
901	0.063
901	0.062
902	0.062
902	0.061
903	0.061
903	0.061
904	0.061
904	0.061
904	0.061
905	0.061
905	0.061
906	0.061
906	0.061
907	0.061
907	0.061
907	0.061
908	0.061
908	0.061
909	0.06
909	0.06
910	0.06
910	0.059
910	0.059
911	0.058
911	0.058
912	0.057
912	0.057
913	0.056
913	0.056
913	0.056
914	0.055
914	0.055
915	0.055
915	0.055
916	0.054
916	0.054
916	0.054
917	0.053
917	0.053
918	0.052
918	0.052
918	0.051
919	0.051
919	0.05
920	0.05
920	0.05
921	0.05
921	0.05
921	0.05
922	0.05
922	0.05
923	0.051
923	0.051
924	0.052
924	0.053
924	0.054
925	0.054
925	0.055
926	0.055
926	0.056
927	0.056
927	0.057
927	0.057
928	0.057
928	0.057
929	0.058
929	0.058
930	0.058
930	0.058
930	0.058
931	0.058
931	0.059
932	0.059
932	0.059
933	0.058
933	0.058
933	0.058
934	0.057
934	0.057
935	0.056
935	0.056
935	0.055
936	0.054
936	0.054
937	0.053
937	0.052
938	0.051
938	0.051
938	0.05
939	0.049
939	0.048
940	0.048
940	0.048
941	0.048
941	0.049
941	0.049
942	0.05
942	0.05
943	0.051
943	0.051
944	0.052
944	0.053
944	0.053
945	0.054
945	0.054
946	0.055
946	0.055
946	0.055
947	0.055
947	0.055
948	0.055
948	0.054
949	0.054
949	0.053
949	0.053
950	0.052
950	0.052
951	0.051
951	0.05
952	0.05
952	0.049
952	0.049
953	0.048
953	0.048
954	0.048
954	0.048
955	0.048
955	0.048
955	0.049
956	0.049
956	0.05
957	0.051
957	0.052
957	0.053
958	0.053
958	0.054
959	0.054
959	0.055
960	0.055
960	0.056
960	0.056
961	0.056
961	0.056
962	0.056
962	0.055
963	0.055
963	0.054
963	0.054
964	0.053
964	0.053
965	0.053
965	0.053
966	0.053
966	0.053
966	0.053
967	0.053
967	0.053
968	0.054
968	0.054
968	0.054
969	0.054
969	0.053
970	0.053
970	0.052
971	0.052
971	0.051
971	0.05
972	0.049
972	0.048
973	0.048
973	0.047
974	0.047
974	0.047
974	0.047
975	0.047
975	0.048
976	0.048
976	0.049
976	0.049
977	0.05
977	0.05
978	0.05
978	0.05
979	0.051
979	0.051
979	0.051
980	0.052
980	0.052
981	0.051
981	0.051
982	0.051
982	0.051
982	0.051
983	0.051
983	0.05
984	0.05
984	0.05
984	0.05
985	0.049
985	0.049
986	0.049
986	0.049
987	0.049
987	0.048
987	0.048
988	0.048
988	0.048
989	0.048
989	0.047
990	0.047
990	0.047
990	0.046
991	0.046
991	0.046
992	0.045
992	0.044
992	0.043
993	0.043
993	0.042
994	0.041
994	0.04
995	0.039
995	0.039
995	0.038
996	0.038
996	0.038
997	0.038
997	0.038
997	0.039
998	0.039
998	0.04
999	0.04
999	0.041
1000	0.041
1000	0.042
1000	0.042
1001	0.043
1001	0.043
1002	0.043
1002	0.043
1003	0.044
1003	0.044
1003	0.044
1004	0.044
1004	0.043
1005	0.043
1005	0.043
1005	0.042
1006	0.042
1006	0.041
1007	0.041
1007	0.04
1008	0.04
1008	0.04
1008	0.039
1009	0.039
1009	0.039
1010	0.039
1010	0.038
1010	0.038
1011	0.038
1011	0.037
1012	0.037
1012	0.037
1013	0.037
1013	0.037
1013	0.036
1014	0.036
1014	0.036
1015	0.036
1015	0.037
1016	0.037
1016	0.037
1016	0.037
1017	0.037
1017	0.038
1018	0.038
1018	0.038
1018	0.038
1019	0.038
1019	0.039
1020	0.039
1020	0.039
1021	0.04
1021	0.04
1021	0.041
1022	0.041
1022	0.041
1023	0.042
1023	0.042
1023	0.042
1024	0.042
1024	0.042
1025	0.042
1025	0.042
1026	0.042
1026	0.042
1026	0.042
1027	0.042
1027	0.041
1028	0.041
1028	0.041
1028	0.041
1029	0.041
1029	0.041
1030	0.041
1030	0.041
1031	0.041
1031	0.042
1031	0.041
1032	0.042
1032	0.042
1033	0.042
1033	0.042
1033	0.042
1034	0.043
1034	0.043
1035	0.043
1035	0.042
1036	0.042
1036	0.042
1036	0.042
1037	0.042
1037	0.042
1038	0.042
1038	0.042
1039	0.042
1039	0.042
1039	0.042
1040	0.042
1040	0.042
1041	0.042
1041	0.042
1041	0.042
1042	0.042
1042	0.041
1043	0.041
1043	0.041
1044	0.041
1044	0.04
1044	0.04
1045	0.04
1045	0.039
1046	0.039
1046	0.039
1046	0.039
1047	0.039
1047	0.039
1048	0.039
1048	0.039
1049	0.039
1049	0.039
1049	0.039
1050	0.039
1050	0.038
1051	0.038
1051	0.037
1051	0.037
1052	0.036
1052	0.035
1053	0.035
1053	0.034
1053	0.033
1054	0.032
1054	0.032
1055	0.032
1055	0.031
1056	0.031
1056	0.031
1056	0.031
1057	0.03
1057	0.03
1058	0.03
1058	0.029
1058	0.028
1059	0.028
1059	0.028
1060	0.027
1060	0.027
1061	0.026
1061	0.026
1061	0.026
1062	0.026
1062	0.026
1063	0.027
1063	0.027
1063	0.027
1064	0.028
1064	0.028
1065	0.028
1065	0.029
1066	0.029
1066	0.03
1066	0.03
1067	0.029
1067	0.029
1068	0.029
1068	0.029
1068	0.029
1069	0.029
1069	0.029
1070	0.029
1070	0.029
1071	0.028
1071	0.028
1071	0.028
1072	0.028
1072	0.028
1073	0.028
1073	0.028
1073	0.028
1074	0.028
1074	0.028
1075	0.028
1075	0.029
1076	0.029
1076	0.03
1076	0.03
1077	0.031
1077	0.031
1078	0.031
1078	0.031
1078	0.031
1079	0.031
1079	0.031
1080	0.03
1080	0.03
1080	0.03
1081	0.03
1081	0.03
1082	0.031
1082	0.031
1083	0.031
1083	0.031
1083	0.031
1084	0.031
1084	0.032
1085	0.031
1085	0.032
1085	0.032
1086	0.032
1086	0.031
1087	0.031
1087	0.031
1088	0.031
1088	0.031
1088	0.031
1089	0.03
1089	0.029
1090	0.028
1090	0.028
1090	0.027
1091	0.027
1091	0.026
1092	0.027
1092	0.026
1092	0.026
1093	0.026
1093	0.026
1094	0.026
1094	0.026
1095	0.026
1095	0.025
1095	0.025
1096	0.025
1096	0.024
1097	0.024
1097	0.023
1097	0.023
1098	0.023
1098	0.022
1099	0.022
1099	0.021
1100	0.021
1100	0.019
1100	0.019
1101	0.018
1101	0.017
1102	0.016
1102	0.016
1102	0.015
1103	0.014
1103	0.013
1104	0.014
1104	0.013
1104	0.013
1105	0.012
1105	0.011
1106	0.009
1106	0.009
1107	0.008
1107	0.007
1107	0.008
1108	0.007
1108	0.005
1109	0.004
1109	0.004
1109	0.004
1110	0.007
1110	0.01
1111	0.01
1111	0.009
