Data from reversibility-20sec_Absorbance__188__000000000000188.txt Node

Date: Tue Dec 05 13:15:46 CET 2023
User: Marek
Spectrometer: MAYP115816
Trigger mode: 0
Integration Time (sec): 2.000000E-1
Scans to average: 10
Electric dark correction enabled: true
Nonlinearity correction enabled: true
Boxcar width: 5
XAxis mode: Wavelengths
Number of Pixels in Spectrum: 2068
>>>>>Begin Spectral Data<<<<<
199	-0.245
199	-0.215
200	-0.145
200	-0.089
201	-0.061
201	-0.043
202	-0.027
202	-0.018
203	-0.01
203	-0.007
204	0.003
204	0.021
205	0.033
205	0.039
205	0.037
206	0.038
206	0.038
207	0.04
207	0.039
208	0.038
208	0.038
209	0.041
209	0.036
210	0.036
210	0.037
211	0.037
211	0.038
212	0.037
212	0.036
213	0.04
213	0.041
213	0.041
214	0.046
214	0.048
215	0.05
215	0.048
216	0.05
216	0.05
217	0.053
217	0.056
218	0.055
218	0.057
219	0.06
219	0.058
220	0.062
220	0.062
221	0.065
221	0.067
221	0.07
222	0.073
222	0.076
223	0.084
223	0.088
224	0.092
224	0.103
225	0.111
225	0.121
226	0.131
226	0.141
227	0.154
227	0.166
228	0.181
228	0.193
229	0.213
229	0.237
229	0.259
230	0.281
230	0.311
231	0.341
231	0.381
232	0.417
232	0.459
233	0.502
233	0.554
234	0.599
234	0.649
235	0.7
235	0.754
236	0.803
236	0.856
236	0.907
237	0.958
237	1.008
238	1.057
238	1.104
239	1.154
239	1.196
240	1.236
240	1.272
241	1.311
241	1.345
242	1.376
242	1.409
243	1.437
243	1.461
243	1.484
244	1.507
244	1.53
245	1.548
245	1.568
246	1.587
246	1.602
247	1.618
247	1.632
248	1.648
248	1.664
249	1.674
249	1.679
250	1.686
250	1.697
250	1.705
251	1.708
251	1.713
252	1.715
252	1.717
253	1.717
253	1.715
254	1.715
254	1.719
255	1.717
255	1.717
256	1.716
256	1.718
257	1.718
257	1.717
258	1.715
258	1.716
258	1.715
259	1.715
259	1.713
260	1.713
260	1.713
261	1.713
261	1.713
262	1.715
262	1.716
263	1.719
263	1.718
264	1.718
264	1.721
265	1.721
265	1.722
265	1.722
266	1.722
266	1.721
267	1.719
267	1.72
268	1.719
268	1.721
269	1.721
269	1.718
270	1.717
270	1.717
271	1.715
271	1.712
272	1.71
272	1.708
272	1.704
273	1.699
273	1.695
274	1.691
274	1.686
275	1.681
275	1.675
276	1.669
276	1.662
277	1.655
277	1.646
278	1.635
278	1.625
278	1.612
279	1.598
279	1.58
280	1.559
280	1.535
281	1.505
281	1.472
282	1.437
282	1.401
283	1.365
283	1.329
284	1.295
284	1.26
285	1.228
285	1.198
285	1.172
286	1.148
286	1.127
287	1.109
287	1.093
288	1.08
288	1.068
289	1.058
289	1.049
290	1.042
290	1.036
291	1.03
291	1.025
292	1.02
292	1.016
292	1.012
293	1.009
293	1.006
294	1.003
294	1
295	0.998
295	0.996
296	0.993
296	0.99
297	0.988
297	0.985
298	0.983
298	0.98
298	0.978
299	0.976
299	0.973
300	0.97
300	0.968
301	0.965
301	0.964
302	0.961
302	0.959
303	0.957
303	0.955
304	0.953
304	0.951
305	0.949
305	0.946
305	0.944
306	0.942
306	0.939
307	0.937
307	0.934
308	0.932
308	0.929
309	0.926
309	0.924
310	0.921
310	0.918
311	0.915
311	0.912
311	0.909
312	0.906
312	0.902
313	0.899
313	0.895
314	0.892
314	0.887
315	0.883
315	0.879
316	0.875
316	0.87
317	0.866
317	0.861
318	0.856
318	0.851
318	0.846
319	0.841
319	0.836
320	0.83
320	0.825
321	0.819
321	0.813
322	0.807
322	0.801
323	0.795
323	0.789
324	0.783
324	0.776
324	0.77
325	0.764
325	0.757
326	0.751
326	0.744
327	0.738
327	0.731
328	0.724
328	0.717
329	0.711
329	0.704
330	0.697
330	0.69
330	0.683
331	0.676
331	0.67
332	0.663
332	0.656
333	0.649
333	0.642
334	0.636
334	0.629
335	0.623
335	0.616
336	0.61
336	0.603
336	0.597
337	0.591
337	0.585
338	0.579
338	0.573
339	0.567
339	0.561
340	0.555
340	0.55
341	0.544
341	0.539
342	0.534
342	0.529
342	0.523
343	0.519
343	0.514
344	0.509
344	0.504
345	0.499
345	0.495
346	0.49
346	0.486
347	0.482
347	0.478
348	0.474
348	0.47
348	0.466
349	0.462
349	0.459
350	0.455
350	0.452
351	0.448
351	0.445
352	0.442
352	0.439
353	0.436
353	0.433
354	0.43
354	0.427
354	0.424
355	0.421
355	0.418
356	0.416
356	0.413
357	0.409
357	0.407
358	0.404
358	0.401
359	0.399
359	0.397
360	0.395
360	0.392
360	0.391
361	0.389
361	0.387
362	0.386
362	0.384
363	0.382
363	0.38
364	0.378
364	0.376
365	0.374
365	0.372
366	0.371
366	0.369
366	0.367
367	0.366
367	0.364
368	0.362
368	0.36
369	0.359
369	0.357
370	0.356
370	0.354
371	0.353
371	0.351
372	0.35
372	0.348
372	0.347
373	0.346
373	0.344
374	0.343
374	0.342
375	0.341
375	0.34
376	0.339
376	0.338
377	0.337
377	0.336
378	0.335
378	0.333
378	0.333
379	0.332
379	0.331
380	0.329
380	0.328
381	0.327
381	0.327
382	0.326
382	0.325
383	0.324
383	0.323
383	0.322
384	0.322
384	0.321
385	0.32
385	0.319
386	0.319
386	0.318
387	0.317
387	0.317
388	0.316
388	0.315
389	0.314
389	0.314
389	0.313
390	0.313
390	0.312
391	0.311
391	0.311
392	0.31
392	0.31
393	0.309
393	0.309
394	0.308
394	0.308
394	0.307
395	0.307
395	0.306
396	0.306
396	0.305
397	0.304
397	0.304
398	0.303
398	0.303
399	0.302
399	0.302
400	0.301
400	0.301
400	0.3
401	0.3
401	0.299
402	0.299
402	0.298
403	0.298
403	0.297
404	0.297
404	0.296
405	0.296
405	0.296
405	0.295
406	0.295
406	0.294
407	0.294
407	0.293
408	0.293
408	0.293
409	0.292
409	0.291
410	0.291
410	0.291
411	0.29
411	0.29
411	0.29
412	0.289
412	0.289
413	0.289
413	0.288
414	0.288
414	0.288
415	0.287
415	0.287
416	0.286
416	0.286
416	0.286
417	0.285
417	0.285
418	0.285
418	0.285
419	0.284
419	0.284
420	0.283
420	0.283
421	0.283
421	0.283
421	0.282
422	0.282
422	0.282
423	0.281
423	0.281
424	0.281
424	0.28
425	0.28
425	0.28
426	0.28
426	0.279
427	0.279
427	0.279
427	0.279
428	0.278
428	0.278
429	0.278
429	0.278
430	0.278
430	0.278
431	0.277
431	0.277
432	0.277
432	0.277
432	0.277
433	0.277
433	0.276
434	0.276
434	0.276
435	0.276
435	0.276
436	0.276
436	0.276
437	0.276
437	0.276
437	0.276
438	0.276
438	0.276
439	0.276
439	0.276
440	0.275
440	0.275
441	0.275
441	0.275
442	0.274
442	0.275
442	0.274
443	0.274
443	0.274
444	0.274
444	0.274
445	0.274
445	0.274
446	0.274
446	0.274
447	0.274
447	0.274
447	0.274
448	0.274
448	0.274
449	0.274
449	0.274
450	0.274
450	0.274
451	0.274
451	0.274
452	0.274
452	0.274
452	0.274
453	0.274
453	0.274
454	0.274
454	0.274
455	0.274
455	0.274
456	0.274
456	0.274
457	0.274
457	0.274
458	0.274
458	0.274
458	0.274
459	0.275
459	0.275
460	0.275
460	0.275
461	0.275
461	0.275
462	0.275
462	0.275
463	0.275
463	0.275
463	0.276
464	0.276
464	0.276
465	0.276
465	0.276
466	0.277
466	0.277
467	0.277
467	0.278
467	0.278
468	0.279
468	0.279
469	0.28
469	0.28
470	0.28
470	0.281
471	0.281
471	0.281
472	0.282
472	0.282
472	0.283
473	0.283
473	0.284
474	0.284
474	0.285
475	0.286
475	0.286
476	0.287
476	0.288
477	0.289
477	0.289
477	0.29
478	0.291
478	0.292
479	0.292
479	0.293
480	0.294
480	0.294
481	0.295
481	0.296
482	0.296
482	0.297
482	0.298
483	0.299
483	0.3
484	0.301
484	0.303
485	0.304
485	0.305
486	0.306
486	0.307
487	0.308
487	0.309
487	0.31
488	0.311
488	0.312
489	0.314
489	0.315
490	0.317
490	0.318
491	0.319
491	0.321
492	0.322
492	0.323
492	0.325
493	0.326
493	0.327
494	0.329
494	0.331
495	0.332
495	0.334
496	0.335
496	0.337
496	0.339
497	0.34
497	0.342
498	0.344
498	0.345
499	0.346
499	0.348
500	0.35
500	0.352
501	0.354
501	0.355
501	0.357
502	0.359
502	0.36
503	0.362
503	0.363
504	0.365
504	0.367
505	0.368
505	0.369
506	0.371
506	0.372
506	0.374
507	0.375
507	0.377
508	0.378
508	0.38
509	0.381
509	0.383
510	0.384
510	0.385
511	0.386
511	0.388
511	0.389
512	0.39
512	0.391
513	0.392
513	0.394
514	0.395
514	0.396
515	0.397
515	0.398
515	0.399
516	0.399
516	0.4
517	0.401
517	0.401
518	0.402
518	0.402
519	0.403
519	0.403
520	0.404
520	0.404
520	0.404
521	0.404
521	0.404
522	0.404
522	0.404
523	0.404
523	0.403
524	0.403
524	0.403
524	0.402
525	0.402
525	0.402
526	0.401
526	0.4
527	0.4
527	0.399
528	0.398
528	0.398
529	0.397
529	0.395
529	0.394
530	0.393
530	0.391
531	0.39
531	0.389
532	0.387
532	0.386
533	0.384
533	0.382
533	0.381
534	0.379
534	0.378
535	0.376
535	0.375
536	0.373
536	0.371
537	0.369
537	0.366
538	0.364
538	0.362
538	0.36
539	0.358
539	0.356
540	0.354
540	0.351
541	0.349
541	0.347
542	0.344
542	0.342
542	0.339
543	0.337
543	0.334
544	0.332
544	0.33
545	0.327
545	0.325
546	0.323
546	0.32
547	0.318
547	0.316
547	0.313
548	0.311
548	0.308
549	0.306
549	0.303
550	0.3
550	0.298
551	0.295
551	0.292
551	0.289
552	0.286
552	0.284
553	0.281
553	0.279
554	0.276
554	0.274
555	0.271
555	0.269
556	0.266
556	0.264
556	0.262
557	0.26
557	0.258
558	0.256
558	0.254
559	0.251
559	0.249
560	0.247
560	0.245
560	0.243
561	0.241
561	0.239
562	0.236
562	0.234
563	0.231
563	0.229
564	0.226
564	0.224
564	0.222
565	0.22
565	0.218
566	0.216
566	0.214
567	0.212
567	0.21
568	0.208
568	0.206
568	0.205
569	0.203
569	0.201
570	0.199
570	0.198
571	0.196
571	0.195
572	0.193
572	0.191
573	0.19
573	0.188
573	0.186
574	0.185
574	0.183
575	0.182
575	0.181
576	0.179
576	0.178
577	0.176
577	0.175
577	0.173
578	0.172
578	0.171
579	0.17
579	0.168
580	0.167
580	0.165
581	0.163
581	0.162
581	0.161
582	0.16
582	0.159
583	0.158
583	0.157
584	0.155
584	0.153
585	0.152
585	0.151
585	0.149
586	0.148
586	0.146
587	0.145
587	0.144
588	0.142
588	0.141
589	0.14
589	0.139
590	0.138
590	0.137
590	0.137
591	0.136
591	0.134
592	0.133
592	0.132
593	0.132
593	0.131
594	0.13
594	0.129
594	0.128
595	0.127
595	0.126
596	0.125
596	0.125
597	0.125
597	0.124
598	0.123
598	0.123
598	0.122
599	0.121
599	0.12
600	0.119
600	0.119
601	0.118
601	0.117
602	0.116
602	0.115
602	0.114
603	0.113
603	0.113
604	0.112
604	0.111
605	0.111
605	0.11
606	0.11
606	0.109
606	0.108
607	0.108
607	0.107
608	0.106
608	0.105
609	0.105
609	0.104
610	0.103
610	0.103
610	0.102
611	0.102
611	0.101
612	0.101
612	0.101
613	0.1
613	0.1
614	0.099
614	0.098
614	0.098
615	0.097
615	0.097
616	0.096
616	0.096
617	0.095
617	0.094
618	0.094
618	0.093
618	0.093
619	0.093
619	0.092
620	0.092
620	0.091
621	0.091
621	0.09
622	0.09
622	0.089
622	0.089
623	0.088
623	0.088
624	0.087
624	0.086
625	0.086
625	0.085
626	0.085
626	0.084
626	0.084
627	0.084
627	0.083
628	0.082
628	0.081
629	0.081
629	0.08
630	0.08
630	0.079
630	0.079
631	0.078
631	0.078
632	0.078
632	0.078
633	0.078
633	0.078
634	0.078
634	0.078
634	0.078
635	0.078
635	0.078
636	0.077
636	0.077
637	0.076
637	0.076
638	0.075
638	0.075
638	0.074
639	0.073
639	0.073
640	0.072
640	0.071
641	0.071
641	0.071
642	0.07
642	0.07
642	0.07
643	0.07
643	0.069
644	0.069
644	0.069
645	0.069
645	0.069
646	0.069
646	0.069
646	0.069
647	0.069
647	0.068
648	0.068
648	0.068
649	0.068
649	0.067
650	0.067
650	0.067
650	0.067
651	0.066
651	0.066
652	0.065
652	0.065
653	0.066
653	0.067
653	0.071
654	0.058
654	0.048
655	0.047
655	0.047
656	0.047
656	0.047
657	0.047
657	0.047
657	0.047
658	0.046
658	0.041
659	0.05
659	0.063
660	0.065
660	0.065
661	0.064
661	0.063
661	0.063
662	0.063
662	0.062
663	0.062
663	0.061
664	0.061
664	0.061
665	0.06
665	0.06
665	0.06
666	0.059
666	0.059
667	0.059
667	0.059
668	0.059
668	0.059
669	0.059
669	0.059
669	0.059
670	0.059
670	0.059
671	0.058
671	0.058
672	0.057
672	0.057
672	0.056
673	0.056
673	0.056
674	0.055
674	0.055
675	0.055
675	0.055
676	0.055
676	0.055
676	0.055
677	0.056
677	0.056
678	0.056
678	0.055
679	0.055
679	0.055
680	0.055
680	0.055
680	0.055
681	0.055
681	0.055
682	0.055
682	0.055
683	0.055
683	0.056
684	0.056
684	0.056
684	0.056
685	0.056
685	0.055
686	0.055
686	0.055
687	0.055
687	0.055
687	0.054
688	0.054
688	0.053
689	0.053
689	0.053
690	0.053
690	0.052
691	0.052
691	0.052
691	0.052
692	0.052
692	0.052
693	0.052
693	0.052
694	0.052
694	0.052
695	0.052
695	0.053
695	0.053
696	0.053
696	0.053
697	0.053
697	0.053
698	0.053
698	0.052
698	0.052
699	0.052
699	0.052
700	0.051
700	0.051
701	0.051
701	0.05
702	0.05
702	0.05
702	0.05
703	0.05
703	0.049
704	0.049
704	0.049
705	0.049
705	0.048
705	0.048
706	0.048
706	0.048
707	0.047
707	0.047
708	0.048
708	0.048
709	0.048
709	0.048
709	0.047
710	0.047
710	0.047
711	0.047
711	0.047
712	0.047
712	0.047
713	0.047
713	0.047
713	0.046
714	0.046
714	0.046
715	0.045
715	0.045
716	0.045
716	0.045
716	0.045
717	0.045
717	0.045
718	0.044
718	0.044
719	0.045
719	0.045
720	0.045
720	0.045
720	0.045
721	0.045
721	0.045
722	0.045
722	0.045
723	0.045
723	0.045
723	0.044
724	0.044
724	0.043
725	0.043
725	0.042
726	0.041
726	0.041
727	0.041
727	0.04
727	0.04
728	0.04
728	0.04
729	0.04
729	0.04
730	0.04
730	0.04
730	0.04
731	0.04
731	0.039
732	0.039
732	0.039
733	0.039
733	0.038
734	0.038
734	0.038
734	0.038
735	0.038
735	0.038
736	0.038
736	0.037
737	0.037
737	0.037
737	0.037
738	0.036
738	0.036
739	0.035
739	0.035
740	0.034
740	0.034
741	0.034
741	0.034
741	0.034
742	0.034
742	0.035
743	0.036
743	0.036
744	0.037
744	0.037
744	0.037
745	0.037
745	0.037
746	0.037
746	0.037
747	0.037
747	0.036
748	0.036
748	0.036
748	0.035
749	0.035
749	0.034
750	0.034
750	0.034
751	0.033
751	0.033
751	0.033
752	0.032
752	0.032
753	0.032
753	0.032
754	0.032
754	0.032
754	0.033
755	0.033
755	0.033
756	0.032
756	0.031
757	0.031
757	0.03
758	0.029
758	0.029
758	0.028
759	0.028
759	0.028
760	0.027
760	0.027
761	0.028
761	0.028
761	0.029
762	0.029
762	0.03
763	0.03
763	0.029
764	0.029
764	0.029
764	0.029
765	0.029
765	0.028
766	0.028
766	0.027
767	0.026
767	0.026
768	0.025
768	0.025
768	0.025
769	0.024
769	0.024
770	0.024
770	0.024
771	0.024
771	0.024
771	0.025
772	0.025
772	0.025
773	0.025
773	0.025
774	0.026
774	0.026
775	0.026
775	0.026
775	0.026
776	0.026
776	0.026
777	0.026
777	0.026
778	0.026
778	0.025
778	0.025
779	0.025
779	0.024
780	0.024
780	0.023
781	0.023
781	0.022
781	0.022
782	0.021
782	0.021
783	0.021
783	0.022
784	0.022
784	0.022
784	0.023
785	0.023
785	0.023
786	0.024
786	0.024
787	0.024
787	0.024
788	0.023
788	0.023
788	0.023
789	0.022
789	0.022
790	0.021
790	0.021
791	0.02
791	0.019
791	0.019
792	0.019
792	0.019
793	0.018
793	0.018
794	0.018
794	0.017
794	0.017
795	0.017
795	0.017
796	0.017
796	0.017
797	0.016
797	0.016
797	0.016
798	0.016
798	0.016
799	0.016
799	0.016
800	0.015
800	0.015
801	0.015
801	0.015
801	0.015
802	0.015
802	0.015
803	0.016
803	0.016
804	0.017
804	0.018
804	0.018
805	0.018
805	0.019
806	0.019
806	0.019
807	0.019
807	0.019
807	0.019
808	0.019
808	0.019
809	0.019
809	0.019
810	0.02
810	0.02
810	0.02
811	0.02
811	0.02
812	0.02
812	0.02
813	0.02
813	0.02
813	0.019
814	0.019
814	0.019
815	0.019
815	0.019
816	0.019
816	0.019
817	0.019
817	0.018
817	0.018
818	0.018
818	0.017
819	0.017
819	0.016
820	0.015
820	0.014
820	0.014
821	0.013
821	0.013
822	0.012
822	0.012
823	0.012
823	0.012
823	0.013
824	0.014
824	0.015
825	0.016
825	0.017
826	0.017
826	0.018
826	0.018
827	0.019
827	0.019
828	0.019
828	0.019
829	0.019
829	0.019
829	0.019
830	0.019
830	0.019
831	0.019
831	0.019
832	0.019
832	0.019
832	0.019
833	0.019
833	0.019
834	0.019
834	0.019
835	0.019
835	0.019
835	0.019
836	0.019
836	0.019
837	0.019
837	0.019
838	0.018
838	0.017
839	0.016
839	0.015
839	0.014
840	0.013
840	0.012
841	0.011
841	0.01
842	0.009
842	0.009
842	0.009
843	0.008
843	0.008
844	0.008
844	0.008
845	0.008
845	0.008
845	0.008
846	0.009
846	0.009
847	0.009
847	0.009
848	0.01
848	0.011
848	0.011
849	0.012
849	0.012
850	0.013
850	0.013
851	0.013
851	0.012
851	0.012
852	0.011
852	0.01
853	0.01
853	0.009
854	0.009
854	0.009
854	0.009
855	0.01
855	0.01
856	0.011
856	0.011
857	0.012
857	0.013
857	0.013
858	0.013
858	0.013
859	0.013
859	0.012
860	0.011
860	0.011
860	0.01
861	0.01
861	0.01
862	0.009
862	0.009
863	0.009
863	0.008
863	0.008
864	0.008
864	0.008
865	0.009
865	0.009
866	0.008
866	0.008
866	0.008
867	0.008
867	0.008
868	0.008
868	0.009
869	0.009
869	0.009
869	0.009
870	0.009
870	0.009
871	0.01
871	0.01
872	0.01
872	0.01
872	0.011
873	0.011
873	0.01
874	0.01
874	0.01
875	0.01
875	0.01
875	0.01
876	0.01
876	0.009
877	0.009
877	0.01
878	0.01
878	0.011
878	0.012
879	0.012
879	0.013
880	0.013
880	0.013
881	0.013
881	0.013
881	0.013
882	0.012
882	0.012
883	0.011
883	0.01
884	0.009
884	0.008
884	0.007
885	0.006
885	0.005
886	0.004
886	0.004
887	0.003
887	0.002
887	0.001
888	0.001
888	0
889	0
889	0
890	0
890	0.001
890	0.001
891	0.002
891	0.003
892	0.004
892	0.005
893	0.006
893	0.007
893	0.008
894	0.008
894	0.008
895	0.008
895	0.008
895	0.008
896	0.008
896	0.008
897	0.007
897	0.007
898	0.006
898	0.006
898	0.006
899	0.006
899	0.006
900	0.006
900	0.005
901	0.005
901	0.006
901	0.006
902	0.006
902	0.006
903	0.006
903	0.006
904	0.006
904	0.006
904	0.006
905	0.006
905	0.005
906	0.005
906	0.006
907	0.006
907	0.006
907	0.007
908	0.007
908	0.008
909	0.008
909	0.008
910	0.008
910	0.008
910	0.008
911	0.008
911	0.007
912	0.007
912	0.007
913	0.006
913	0.006
913	0.006
914	0.005
914	0.005
915	0.004
915	0.004
916	0.004
916	0.003
916	0.003
917	0.002
917	0.001
918	0.001
918	0.001
918	0
919	0
919	0
920	0
920	0.001
921	0.001
921	0.001
921	0.002
922	0.002
922	0.003
923	0.004
923	0.004
924	0.005
924	0.006
924	0.006
925	0.007
925	0.008
926	0.008
926	0.009
927	0.009
927	0.009
927	0.01
928	0.01
928	0.01
929	0.01
929	0.01
930	0.009
930	0.009
930	0.008
931	0.008
931	0.007
932	0.007
932	0.007
933	0.007
933	0.006
933	0.006
934	0.006
934	0.006
935	0.006
935	0.006
935	0.006
936	0.006
936	0.006
937	0.006
937	0.006
938	0.006
938	0.006
938	0.006
939	0.006
939	0.006
940	0.006
940	0.006
941	0.006
941	0.007
941	0.007
942	0.007
942	0.007
943	0.008
943	0.008
944	0.008
944	0.008
944	0.008
945	0.008
945	0.008
946	0.008
946	0.007
946	0.007
947	0.006
947	0.006
948	0.006
948	0.005
949	0.005
949	0.005
949	0.004
950	0.004
950	0.004
951	0.004
951	0.004
952	0.004
952	0.003
952	0.003
953	0.003
953	0.003
954	0.002
954	0.002
955	0.002
955	0.001
955	0.001
956	0.001
956	0.001
957	0.001
957	0.002
957	0.002
958	0.002
958	0.002
959	0.003
959	0.003
960	0.003
960	0.004
960	0.004
961	0.004
961	0.004
962	0.004
962	0.004
963	0.004
963	0.005
963	0.005
964	0.005
964	0.005
965	0.005
965	0.006
966	0.006
966	0.007
966	0.007
967	0.008
967	0.008
968	0.008
968	0.009
968	0.009
969	0.009
969	0.009
970	0.009
970	0.009
971	0.008
971	0.008
971	0.008
972	0.008
972	0.007
973	0.007
973	0.007
974	0.007
974	0.007
974	0.007
975	0.007
975	0.007
976	0.007
976	0.007
976	0.007
977	0.006
977	0.006
978	0.006
978	0.006
979	0.005
979	0.005
979	0.005
980	0.004
980	0.004
981	0.003
981	0.003
982	0.002
982	0.002
982	0.002
983	0.002
983	0.002
984	0.002
984	0.002
984	0.002
985	0.002
985	0.002
986	0.002
986	0.002
987	0.002
987	0.002
987	0.001
988	0.001
988	0.001
989	0
989	0
990	0
990	-0
990	-0
991	-0
991	-0
992	-0
992	-0
992	-0
993	-0
993	-0
994	-0
994	-0
995	-0
995	-0
995	0
996	0
996	0.001
997	0.002
997	0.002
997	0.003
998	0.004
998	0.005
999	0.006
999	0.006
1000	0.007
1000	0.008
1000	0.008
1001	0.008
1001	0.008
1002	0.008
1002	0.008
1003	0.008
1003	0.008
1003	0.007
1004	0.007
1004	0.006
1005	0.006
1005	0.006
1005	0.005
1006	0.005
1006	0.005
1007	0.005
1007	0.004
1008	0.005
1008	0.005
1008	0.005
1009	0.005
1009	0.005
1010	0.005
1010	0.006
1010	0.006
1011	0.006
1011	0.006
1012	0.006
1012	0.005
1013	0.005
1013	0.005
1013	0.004
1014	0.003
1014	0.003
1015	0.003
1015	0.002
1016	0.002
1016	0.002
1016	0.002
1017	0.002
1017	0.001
1018	0.002
1018	0.002
1018	0.002
1019	0.002
1019	0.002
1020	0.002
1020	0.002
1021	0.002
1021	0.003
1021	0.003
1022	0.003
1022	0.002
1023	0.002
1023	0.002
1023	0.002
1024	0.001
1024	0.001
1025	0.001
1025	0
1026	-0
1026	-0.001
1026	-0.001
1027	-0.002
1027	-0.002
1028	-0.003
1028	-0.003
1028	-0.003
1029	-0.004
1029	-0.004
1030	-0.004
1030	-0.004
1031	-0.004
1031	-0.004
1031	-0.003
1032	-0.003
1032	-0.003
1033	-0.003
1033	-0.003
1033	-0.003
1034	-0.002
1034	-0.002
1035	-0.002
1035	-0.002
1036	-0.002
1036	-0.002
1036	-0.001
1037	-0.001
1037	-0.001
1038	-0.001
1038	-0.001
1039	-0.001
1039	-0
1039	-0
1040	0
1040	0
1041	0
1041	0
1041	-0
1042	-0
1042	-0
1043	-0
1043	-0
1044	-0
1044	-0
1044	-0.001
1045	-0
1045	-0
1046	0
1046	0
1046	0.001
1047	0.001
1047	0.002
1048	0.003
1048	0.003
1049	0.004
1049	0.004
1049	0.004
1050	0.004
1050	0.003
1051	0.003
1051	0.003
1051	0.002
1052	0.001
1052	0.001
1053	-0
1053	-0.001
1053	-0.002
1054	-0.002
1054	-0.002
1055	-0.002
1055	-0.002
1056	-0.003
1056	-0.002
1056	-0.003
1057	-0.003
1057	-0.003
1058	-0.004
1058	-0.005
1058	-0.005
1059	-0.006
1059	-0.006
1060	-0.006
1060	-0.007
1061	-0.007
1061	-0.007
1061	-0.007
1062	-0.007
1062	-0.007
1063	-0.007
1063	-0.007
1063	-0.007
1064	-0.007
1064	-0.007
1065	-0.007
1065	-0.007
1066	-0.008
1066	-0.008
1066	-0.008
1067	-0.009
1067	-0.009
1068	-0.009
1068	-0.009
1068	-0.01
1069	-0.01
1069	-0.01
1070	-0.011
1070	-0.011
1071	-0.012
1071	-0.013
1071	-0.014
1072	-0.014
1072	-0.015
1073	-0.016
1073	-0.016
1073	-0.016
1074	-0.016
1074	-0.016
1075	-0.016
1075	-0.015
1076	-0.014
1076	-0.013
1076	-0.013
1077	-0.012
1077	-0.011
1078	-0.011
1078	-0.01
1078	-0.01
1079	-0.01
1079	-0.01
1080	-0.011
1080	-0.01
1080	-0.011
1081	-0.011
1081	-0.011
1082	-0.01
1082	-0.01
1083	-0.011
1083	-0.011
1083	-0.012
1084	-0.012
1084	-0.012
1085	-0.013
1085	-0.013
1085	-0.013
1086	-0.013
1086	-0.015
1087	-0.015
1087	-0.015
1088	-0.015
1088	-0.015
1088	-0.015
1089	-0.016
1089	-0.016
1090	-0.017
1090	-0.017
1090	-0.018
1091	-0.018
1091	-0.018
1092	-0.018
1092	-0.018
1092	-0.018
1093	-0.018
1093	-0.017
1094	-0.017
1094	-0.017
1095	-0.017
1095	-0.017
1095	-0.017
1096	-0.018
1096	-0.018
1097	-0.019
1097	-0.019
1097	-0.019
1098	-0.02
1098	-0.022
1099	-0.023
1099	-0.024
1100	-0.025
1100	-0.026
1100	-0.026
1101	-0.027
1101	-0.028
1102	-0.029
1102	-0.03
1102	-0.031
1103	-0.03
1103	-0.031
1104	-0.032
1104	-0.032
1104	-0.033
1105	-0.034
1105	-0.035
1106	-0.037
1106	-0.037
1107	-0.038
1107	-0.039
1107	-0.04
1108	-0.041
1108	-0.042
1109	-0.044
1109	-0.044
1109	-0.043
1110	-0.042
1110	-0.042
1111	-0.044
1111	-0.044
