Data from reversibility-20sec_Absorbance__8205__000000000008205.txt Node

Date: Thu Dec 07 09:48:05 CET 2023
User: Marek
Spectrometer: MAYP115816
Trigger mode: 0
Integration Time (sec): 2.000000E-1
Scans to average: 10
Electric dark correction enabled: true
Nonlinearity correction enabled: true
Boxcar width: 5
XAxis mode: Wavelengths
Number of Pixels in Spectrum: 2068
>>>>>Begin Spectral Data<<<<<
199	-0.096
199	-0.075
200	-0.018
200	0.033
201	0.057
201	0.075
202	0.081
202	0.09
203	0.101
203	0.104
204	0.116
204	0.13
205	0.143
205	0.15
205	0.147
206	0.148
206	0.146
207	0.152
207	0.152
208	0.149
208	0.147
209	0.149
209	0.144
210	0.145
210	0.144
211	0.146
211	0.151
212	0.151
212	0.15
213	0.153
213	0.153
213	0.153
214	0.158
214	0.159
215	0.159
215	0.161
216	0.163
216	0.16
217	0.163
217	0.164
218	0.164
218	0.168
219	0.174
219	0.172
220	0.178
220	0.178
221	0.178
221	0.181
221	0.183
222	0.187
222	0.193
223	0.2
223	0.204
224	0.209
224	0.22
225	0.23
225	0.241
226	0.25
226	0.263
227	0.275
227	0.285
228	0.3
228	0.313
229	0.331
229	0.357
229	0.375
230	0.399
230	0.429
231	0.459
231	0.496
232	0.534
232	0.579
233	0.619
233	0.666
234	0.72
234	0.77
235	0.827
235	0.88
236	0.934
236	0.989
236	1.038
237	1.09
237	1.137
238	1.186
238	1.234
239	1.276
239	1.315
240	1.353
240	1.388
241	1.42
241	1.453
242	1.484
242	1.516
243	1.544
243	1.569
243	1.593
244	1.611
244	1.636
245	1.653
245	1.676
246	1.695
246	1.712
247	1.726
247	1.739
248	1.753
248	1.766
249	1.776
249	1.783
250	1.787
250	1.793
250	1.796
251	1.8
251	1.801
252	1.806
252	1.805
253	1.805
253	1.804
254	1.802
254	1.804
255	1.802
255	1.802
256	1.801
256	1.799
257	1.799
257	1.796
258	1.796
258	1.795
258	1.795
259	1.795
259	1.794
260	1.795
260	1.796
261	1.795
261	1.798
262	1.801
262	1.804
263	1.807
263	1.808
264	1.809
264	1.811
265	1.813
265	1.812
265	1.811
266	1.813
266	1.812
267	1.81
267	1.811
268	1.81
268	1.81
269	1.81
269	1.807
270	1.807
270	1.807
271	1.806
271	1.804
272	1.801
272	1.797
272	1.794
273	1.788
273	1.781
274	1.775
274	1.769
275	1.761
275	1.754
276	1.747
276	1.739
277	1.732
277	1.723
278	1.711
278	1.7
278	1.686
279	1.67
279	1.649
280	1.623
280	1.592
281	1.553
281	1.511
282	1.466
282	1.421
283	1.376
283	1.332
284	1.291
284	1.25
285	1.213
285	1.178
285	1.147
286	1.121
286	1.098
287	1.077
287	1.06
288	1.045
288	1.032
289	1.021
289	1.012
290	1.004
290	0.997
291	0.991
291	0.985
292	0.98
292	0.976
292	0.972
293	0.968
293	0.965
294	0.961
294	0.958
295	0.955
295	0.952
296	0.949
296	0.945
297	0.942
297	0.939
298	0.936
298	0.933
298	0.93
299	0.927
299	0.923
300	0.921
300	0.918
301	0.915
301	0.913
302	0.91
302	0.908
303	0.905
303	0.903
304	0.9
304	0.898
305	0.896
305	0.893
305	0.891
306	0.889
306	0.887
307	0.884
307	0.882
308	0.879
308	0.877
309	0.874
309	0.872
310	0.868
310	0.866
311	0.862
311	0.859
311	0.856
312	0.852
312	0.848
313	0.844
313	0.84
314	0.836
314	0.832
315	0.828
315	0.824
316	0.82
316	0.815
317	0.81
317	0.805
318	0.8
318	0.795
318	0.79
319	0.785
319	0.779
320	0.773
320	0.767
321	0.761
321	0.755
322	0.749
322	0.742
323	0.736
323	0.729
324	0.722
324	0.715
324	0.708
325	0.701
325	0.694
326	0.687
326	0.68
327	0.673
327	0.665
328	0.658
328	0.651
329	0.643
329	0.636
330	0.629
330	0.622
330	0.614
331	0.607
331	0.6
332	0.593
332	0.586
333	0.579
333	0.571
334	0.564
334	0.557
335	0.551
335	0.543
336	0.537
336	0.53
336	0.523
337	0.516
337	0.51
338	0.503
338	0.497
339	0.491
339	0.485
340	0.478
340	0.473
341	0.467
341	0.461
342	0.455
342	0.45
342	0.444
343	0.439
343	0.433
344	0.428
344	0.423
345	0.418
345	0.413
346	0.409
346	0.404
347	0.4
347	0.395
348	0.391
348	0.387
348	0.383
349	0.379
349	0.375
350	0.372
350	0.368
351	0.364
351	0.361
352	0.358
352	0.355
353	0.352
353	0.349
354	0.346
354	0.343
354	0.34
355	0.337
355	0.334
356	0.331
356	0.329
357	0.325
357	0.323
358	0.32
358	0.317
359	0.315
359	0.313
360	0.311
360	0.309
360	0.307
361	0.305
361	0.303
362	0.302
362	0.3
363	0.299
363	0.297
364	0.295
364	0.293
365	0.291
365	0.289
366	0.287
366	0.286
366	0.284
367	0.282
367	0.281
368	0.279
368	0.277
369	0.276
369	0.275
370	0.273
370	0.272
371	0.271
371	0.27
372	0.269
372	0.268
372	0.267
373	0.266
373	0.265
374	0.264
374	0.263
375	0.262
375	0.261
376	0.26
376	0.26
377	0.259
377	0.258
378	0.257
378	0.256
378	0.255
379	0.254
379	0.254
380	0.253
380	0.252
381	0.252
381	0.251
382	0.251
382	0.25
383	0.25
383	0.249
383	0.249
384	0.248
384	0.248
385	0.247
385	0.247
386	0.246
386	0.246
387	0.245
387	0.245
388	0.245
388	0.244
389	0.244
389	0.244
389	0.243
390	0.243
390	0.243
391	0.243
391	0.242
392	0.242
392	0.242
393	0.241
393	0.241
394	0.241
394	0.24
394	0.24
395	0.24
395	0.239
396	0.239
396	0.239
397	0.238
397	0.238
398	0.238
398	0.237
399	0.237
399	0.237
400	0.237
400	0.237
400	0.236
401	0.236
401	0.236
402	0.235
402	0.235
403	0.235
403	0.235
404	0.234
404	0.234
405	0.234
405	0.234
405	0.234
406	0.234
406	0.233
407	0.233
407	0.233
408	0.233
408	0.233
409	0.233
409	0.232
410	0.232
410	0.232
411	0.232
411	0.231
411	0.231
412	0.231
412	0.231
413	0.23
413	0.23
414	0.23
414	0.229
415	0.229
415	0.229
416	0.228
416	0.228
416	0.228
417	0.227
417	0.227
418	0.227
418	0.226
419	0.226
419	0.226
420	0.225
420	0.225
421	0.224
421	0.224
421	0.223
422	0.223
422	0.223
423	0.222
423	0.222
424	0.222
424	0.221
425	0.221
425	0.221
426	0.221
426	0.221
427	0.22
427	0.22
427	0.219
428	0.219
428	0.219
429	0.218
429	0.218
430	0.217
430	0.217
431	0.217
431	0.217
432	0.217
432	0.216
432	0.216
433	0.216
433	0.216
434	0.216
434	0.216
435	0.216
435	0.215
436	0.215
436	0.215
437	0.215
437	0.214
437	0.214
438	0.214
438	0.213
439	0.213
439	0.213
440	0.212
440	0.212
441	0.212
441	0.212
442	0.211
442	0.211
442	0.211
443	0.21
443	0.21
444	0.21
444	0.21
445	0.21
445	0.21
446	0.209
446	0.209
447	0.209
447	0.209
447	0.209
448	0.208
448	0.208
449	0.208
449	0.208
450	0.207
450	0.207
451	0.207
451	0.207
452	0.207
452	0.207
452	0.207
453	0.206
453	0.206
454	0.206
454	0.205
455	0.205
455	0.205
456	0.205
456	0.205
457	0.204
457	0.204
458	0.204
458	0.204
458	0.204
459	0.203
459	0.203
460	0.203
460	0.203
461	0.203
461	0.203
462	0.203
462	0.202
463	0.202
463	0.201
463	0.201
464	0.201
464	0.2
465	0.2
465	0.2
466	0.199
466	0.199
467	0.199
467	0.199
467	0.199
468	0.199
468	0.199
469	0.199
469	0.199
470	0.2
470	0.199
471	0.199
471	0.199
472	0.199
472	0.199
472	0.199
473	0.198
473	0.198
474	0.198
474	0.197
475	0.197
475	0.197
476	0.197
476	0.197
477	0.197
477	0.197
477	0.197
478	0.197
478	0.197
479	0.197
479	0.197
480	0.197
480	0.197
481	0.197
481	0.197
482	0.197
482	0.197
482	0.197
483	0.197
483	0.197
484	0.197
484	0.197
485	0.196
485	0.196
486	0.196
486	0.196
487	0.196
487	0.196
487	0.196
488	0.196
488	0.195
489	0.196
489	0.196
490	0.197
490	0.197
491	0.198
491	0.198
492	0.198
492	0.199
492	0.199
493	0.199
493	0.2
494	0.2
494	0.2
495	0.2
495	0.2
496	0.2
496	0.201
496	0.201
497	0.201
497	0.201
498	0.202
498	0.202
499	0.202
499	0.202
500	0.203
500	0.204
501	0.204
501	0.204
501	0.204
502	0.204
502	0.205
503	0.205
503	0.206
504	0.206
504	0.206
505	0.207
505	0.207
506	0.207
506	0.207
506	0.207
507	0.208
507	0.208
508	0.208
508	0.208
509	0.208
509	0.208
510	0.209
510	0.209
511	0.209
511	0.21
511	0.21
512	0.211
512	0.211
513	0.212
513	0.212
514	0.213
514	0.213
515	0.214
515	0.214
515	0.214
516	0.214
516	0.215
517	0.215
517	0.215
518	0.215
518	0.216
519	0.216
519	0.216
520	0.216
520	0.216
520	0.216
521	0.217
521	0.217
522	0.217
522	0.217
523	0.218
523	0.218
524	0.218
524	0.218
524	0.219
525	0.219
525	0.219
526	0.219
526	0.219
527	0.219
527	0.219
528	0.219
528	0.219
529	0.219
529	0.219
529	0.219
530	0.219
530	0.219
531	0.219
531	0.219
532	0.219
532	0.219
533	0.219
533	0.219
533	0.218
534	0.218
534	0.218
535	0.218
535	0.218
536	0.218
536	0.218
537	0.218
537	0.218
538	0.218
538	0.218
538	0.218
539	0.218
539	0.218
540	0.218
540	0.218
541	0.217
541	0.217
542	0.217
542	0.217
542	0.217
543	0.217
543	0.217
544	0.217
544	0.217
545	0.216
545	0.217
546	0.216
546	0.216
547	0.215
547	0.215
547	0.215
548	0.214
548	0.214
549	0.214
549	0.214
550	0.213
550	0.213
551	0.213
551	0.213
551	0.213
552	0.213
552	0.212
553	0.212
553	0.212
554	0.212
554	0.211
555	0.211
555	0.21
556	0.21
556	0.209
556	0.209
557	0.209
557	0.209
558	0.209
558	0.209
559	0.209
559	0.209
560	0.209
560	0.21
560	0.21
561	0.21
561	0.21
562	0.209
562	0.208
563	0.208
563	0.207
564	0.206
564	0.206
564	0.205
565	0.205
565	0.205
566	0.204
566	0.204
567	0.204
567	0.204
568	0.204
568	0.204
568	0.204
569	0.203
569	0.203
570	0.202
570	0.201
571	0.201
571	0.2
572	0.2
572	0.199
573	0.199
573	0.199
573	0.199
574	0.198
574	0.198
575	0.198
575	0.198
576	0.198
576	0.197
577	0.197
577	0.196
577	0.196
578	0.195
578	0.195
579	0.195
579	0.195
580	0.195
580	0.194
581	0.194
581	0.194
581	0.194
582	0.194
582	0.194
583	0.194
583	0.194
584	0.193
584	0.192
585	0.192
585	0.192
585	0.191
586	0.191
586	0.191
587	0.19
587	0.19
588	0.189
588	0.189
589	0.189
589	0.189
590	0.189
590	0.189
590	0.189
591	0.19
591	0.189
592	0.189
592	0.188
593	0.188
593	0.188
594	0.187
594	0.186
594	0.186
595	0.185
595	0.185
596	0.184
596	0.184
597	0.185
597	0.185
598	0.185
598	0.185
598	0.185
599	0.185
599	0.185
600	0.185
600	0.184
601	0.184
601	0.184
602	0.183
602	0.183
602	0.183
603	0.183
603	0.183
604	0.183
604	0.183
605	0.183
605	0.183
606	0.182
606	0.182
606	0.181
607	0.181
607	0.181
608	0.181
608	0.18
609	0.18
609	0.18
610	0.179
610	0.179
610	0.179
611	0.179
611	0.179
612	0.179
612	0.179
613	0.179
613	0.179
614	0.179
614	0.179
614	0.179
615	0.179
615	0.179
616	0.179
616	0.179
617	0.179
617	0.179
618	0.178
618	0.178
618	0.178
619	0.178
619	0.178
620	0.179
620	0.178
621	0.178
621	0.177
622	0.177
622	0.176
622	0.176
623	0.176
623	0.176
624	0.176
624	0.176
625	0.175
625	0.175
626	0.175
626	0.175
626	0.176
627	0.176
627	0.175
628	0.175
628	0.175
629	0.174
629	0.174
630	0.174
630	0.173
630	0.174
631	0.174
631	0.173
632	0.173
632	0.173
633	0.173
633	0.173
634	0.174
634	0.174
634	0.174
635	0.173
635	0.173
636	0.173
636	0.173
637	0.172
637	0.172
638	0.172
638	0.171
638	0.171
639	0.17
639	0.17
640	0.17
640	0.17
641	0.17
641	0.17
642	0.169
642	0.169
642	0.17
643	0.17
643	0.17
644	0.171
644	0.171
645	0.171
645	0.171
646	0.171
646	0.171
646	0.171
647	0.171
647	0.171
648	0.17
648	0.17
649	0.169
649	0.169
650	0.169
650	0.169
650	0.169
651	0.169
651	0.169
652	0.17
652	0.17
653	0.171
653	0.172
653	0.177
654	0.14
654	0.112
655	0.112
655	0.112
656	0.112
656	0.113
657	0.113
657	0.113
657	0.113
658	0.112
658	0.103
659	0.129
659	0.165
660	0.171
660	0.171
661	0.17
661	0.17
661	0.17
662	0.169
662	0.169
663	0.169
663	0.169
664	0.169
664	0.168
665	0.168
665	0.168
665	0.168
666	0.168
666	0.168
667	0.169
667	0.169
668	0.169
668	0.169
669	0.169
669	0.169
669	0.17
670	0.17
670	0.17
671	0.169
671	0.169
672	0.169
672	0.168
672	0.168
673	0.167
673	0.167
674	0.167
674	0.167
675	0.167
675	0.167
676	0.167
676	0.167
676	0.168
677	0.168
677	0.168
678	0.168
678	0.168
679	0.168
679	0.168
680	0.168
680	0.167
680	0.167
681	0.167
681	0.167
682	0.167
682	0.167
683	0.167
683	0.167
684	0.167
684	0.167
684	0.166
685	0.167
685	0.167
686	0.167
686	0.166
687	0.166
687	0.167
687	0.167
688	0.167
688	0.167
689	0.168
689	0.168
690	0.168
690	0.168
691	0.168
691	0.168
691	0.168
692	0.168
692	0.168
693	0.169
693	0.17
694	0.169
694	0.169
695	0.17
695	0.172
695	0.172
696	0.173
696	0.173
697	0.173
697	0.173
698	0.173
698	0.172
698	0.173
699	0.173
699	0.172
700	0.172
700	0.172
701	0.172
701	0.171
702	0.171
702	0.17
702	0.17
703	0.17
703	0.169
704	0.168
704	0.168
705	0.168
705	0.168
705	0.167
706	0.167
706	0.167
707	0.167
707	0.168
708	0.168
708	0.169
709	0.169
709	0.169
709	0.169
710	0.169
710	0.17
711	0.171
711	0.171
712	0.172
712	0.172
713	0.172
713	0.173
713	0.173
714	0.172
714	0.172
715	0.172
715	0.171
716	0.171
716	0.17
716	0.169
717	0.168
717	0.168
718	0.167
718	0.167
719	0.167
719	0.168
720	0.168
720	0.169
720	0.17
721	0.17
721	0.171
722	0.172
722	0.173
723	0.173
723	0.173
723	0.173
724	0.172
724	0.172
725	0.171
725	0.17
726	0.17
726	0.169
727	0.169
727	0.168
727	0.168
728	0.168
728	0.168
729	0.169
729	0.169
730	0.169
730	0.169
730	0.169
731	0.17
731	0.17
732	0.171
732	0.172
733	0.172
733	0.173
734	0.173
734	0.174
734	0.174
735	0.175
735	0.175
736	0.174
736	0.174
737	0.174
737	0.174
737	0.174
738	0.173
738	0.173
739	0.172
739	0.172
740	0.172
740	0.173
741	0.173
741	0.173
741	0.173
742	0.173
742	0.174
743	0.175
743	0.176
744	0.177
744	0.177
744	0.177
745	0.177
745	0.177
746	0.177
746	0.177
747	0.177
747	0.177
748	0.176
748	0.176
748	0.175
749	0.175
749	0.175
750	0.175
750	0.175
751	0.176
751	0.176
751	0.176
752	0.176
752	0.176
753	0.176
753	0.176
754	0.175
754	0.175
754	0.175
755	0.175
755	0.175
756	0.174
756	0.173
757	0.173
757	0.173
758	0.173
758	0.173
758	0.174
759	0.174
759	0.174
760	0.174
760	0.174
761	0.174
761	0.175
761	0.175
762	0.175
762	0.176
763	0.176
763	0.176
764	0.176
764	0.176
764	0.176
765	0.176
765	0.176
766	0.176
766	0.176
767	0.175
767	0.174
768	0.174
768	0.174
768	0.174
769	0.173
769	0.174
770	0.174
770	0.174
771	0.175
771	0.175
771	0.176
772	0.177
772	0.177
773	0.178
773	0.178
774	0.178
774	0.178
775	0.178
775	0.178
775	0.178
776	0.179
776	0.179
777	0.18
777	0.18
778	0.181
778	0.181
778	0.181
779	0.182
779	0.181
780	0.181
780	0.18
781	0.18
781	0.18
781	0.179
782	0.179
782	0.179
783	0.179
783	0.18
784	0.18
784	0.181
784	0.181
785	0.182
785	0.182
786	0.182
786	0.182
787	0.183
787	0.182
788	0.182
788	0.181
788	0.181
789	0.18
789	0.18
790	0.18
790	0.18
791	0.179
791	0.179
791	0.179
792	0.179
792	0.18
793	0.179
793	0.179
794	0.179
794	0.179
794	0.179
795	0.18
795	0.181
796	0.181
796	0.181
797	0.181
797	0.181
797	0.182
798	0.182
798	0.182
799	0.182
799	0.182
800	0.181
800	0.181
801	0.181
801	0.181
801	0.181
802	0.181
802	0.181
803	0.182
803	0.182
804	0.183
804	0.183
804	0.184
805	0.184
805	0.184
806	0.184
806	0.184
807	0.184
807	0.184
807	0.184
808	0.184
808	0.183
809	0.183
809	0.183
810	0.183
810	0.182
810	0.182
811	0.182
811	0.183
812	0.183
812	0.183
813	0.184
813	0.184
813	0.185
814	0.186
814	0.187
815	0.187
815	0.188
816	0.188
816	0.188
817	0.187
817	0.187
817	0.187
818	0.186
818	0.186
819	0.185
819	0.185
820	0.184
820	0.184
820	0.183
821	0.184
821	0.184
822	0.185
822	0.185
823	0.185
823	0.186
823	0.187
824	0.188
824	0.189
825	0.19
825	0.19
826	0.191
826	0.191
826	0.191
827	0.192
827	0.192
828	0.192
828	0.192
829	0.192
829	0.193
829	0.192
830	0.193
830	0.193
831	0.193
831	0.193
832	0.193
832	0.193
832	0.193
833	0.192
833	0.192
834	0.192
834	0.192
835	0.191
835	0.19
835	0.19
836	0.19
836	0.189
837	0.189
837	0.189
838	0.188
838	0.187
839	0.187
839	0.186
839	0.185
840	0.184
840	0.184
841	0.183
841	0.182
842	0.182
842	0.182
842	0.181
843	0.181
843	0.181
844	0.181
844	0.18
845	0.18
845	0.18
845	0.18
846	0.18
846	0.18
847	0.18
847	0.181
848	0.181
848	0.181
848	0.181
849	0.181
849	0.181
850	0.181
850	0.181
851	0.181
851	0.181
851	0.181
852	0.18
852	0.18
853	0.18
853	0.18
854	0.18
854	0.18
854	0.181
855	0.182
855	0.183
856	0.183
856	0.184
857	0.185
857	0.186
857	0.186
858	0.187
858	0.187
859	0.187
859	0.187
860	0.187
860	0.187
860	0.187
861	0.186
861	0.186
862	0.185
862	0.185
863	0.184
863	0.184
863	0.183
864	0.183
864	0.182
865	0.183
865	0.183
866	0.182
866	0.182
866	0.183
867	0.183
867	0.183
868	0.184
868	0.184
869	0.184
869	0.184
869	0.184
870	0.184
870	0.183
871	0.183
871	0.183
872	0.183
872	0.182
872	0.182
873	0.182
873	0.181
874	0.181
874	0.181
875	0.18
875	0.18
875	0.18
876	0.18
876	0.179
877	0.179
877	0.179
878	0.179
878	0.179
878	0.179
879	0.179
879	0.179
880	0.179
880	0.18
881	0.18
881	0.18
881	0.181
882	0.181
882	0.181
883	0.181
883	0.182
884	0.182
884	0.182
884	0.182
885	0.182
885	0.181
886	0.181
886	0.18
887	0.18
887	0.179
887	0.178
888	0.177
888	0.176
889	0.176
889	0.175
890	0.175
890	0.175
890	0.175
891	0.175
891	0.175
892	0.174
892	0.174
893	0.174
893	0.174
893	0.174
894	0.173
894	0.173
895	0.173
895	0.173
895	0.173
896	0.173
896	0.173
897	0.173
897	0.173
898	0.173
898	0.173
898	0.173
899	0.172
899	0.172
900	0.172
900	0.171
901	0.171
901	0.171
901	0.171
902	0.171
902	0.17
903	0.17
903	0.17
904	0.17
904	0.17
904	0.17
905	0.17
905	0.17
906	0.17
906	0.17
907	0.17
907	0.17
907	0.17
908	0.17
908	0.17
909	0.17
909	0.17
910	0.17
910	0.17
910	0.169
911	0.169
911	0.168
912	0.168
912	0.168
913	0.167
913	0.167
913	0.167
914	0.166
914	0.166
915	0.165
915	0.165
916	0.165
916	0.165
916	0.164
917	0.164
917	0.163
918	0.163
918	0.163
918	0.162
919	0.162
919	0.162
920	0.161
920	0.161
921	0.161
921	0.161
921	0.161
922	0.161
922	0.161
923	0.162
923	0.162
924	0.163
924	0.163
924	0.163
925	0.164
925	0.164
926	0.164
926	0.164
927	0.165
927	0.165
927	0.165
928	0.165
928	0.165
929	0.165
929	0.165
930	0.164
930	0.164
930	0.164
931	0.164
931	0.163
932	0.163
932	0.163
933	0.163
933	0.162
933	0.162
934	0.162
934	0.162
935	0.161
935	0.161
935	0.161
936	0.16
936	0.16
937	0.159
937	0.159
938	0.158
938	0.158
938	0.157
939	0.156
939	0.156
940	0.156
940	0.155
941	0.155
941	0.155
941	0.156
942	0.156
942	0.156
943	0.157
943	0.157
944	0.157
944	0.157
944	0.157
945	0.157
945	0.157
946	0.156
946	0.156
946	0.155
947	0.155
947	0.154
948	0.154
948	0.154
949	0.153
949	0.152
949	0.152
950	0.151
950	0.151
951	0.151
951	0.15
952	0.149
952	0.149
952	0.149
953	0.148
953	0.148
954	0.148
954	0.148
955	0.148
955	0.148
955	0.148
956	0.148
956	0.149
957	0.15
957	0.151
957	0.151
958	0.152
958	0.152
959	0.153
959	0.153
960	0.153
960	0.154
960	0.154
961	0.153
961	0.153
962	0.153
962	0.153
963	0.152
963	0.152
963	0.152
964	0.152
964	0.152
965	0.151
965	0.151
966	0.151
966	0.15
966	0.15
967	0.15
967	0.15
968	0.149
968	0.149
968	0.149
969	0.148
969	0.147
970	0.147
970	0.146
971	0.145
971	0.144
971	0.143
972	0.143
972	0.142
973	0.141
973	0.141
974	0.14
974	0.14
974	0.14
975	0.14
975	0.14
976	0.141
976	0.141
976	0.141
977	0.141
977	0.141
978	0.14
978	0.14
979	0.14
979	0.14
979	0.14
980	0.14
980	0.14
981	0.139
981	0.139
982	0.139
982	0.14
982	0.14
983	0.14
983	0.14
984	0.14
984	0.14
984	0.14
985	0.141
985	0.141
986	0.14
986	0.14
987	0.14
987	0.14
987	0.14
988	0.14
988	0.14
989	0.14
989	0.139
990	0.139
990	0.139
990	0.139
991	0.139
991	0.139
992	0.139
992	0.138
992	0.137
993	0.137
993	0.136
994	0.135
994	0.134
995	0.134
995	0.133
995	0.133
996	0.133
996	0.133
997	0.133
997	0.133
997	0.134
998	0.134
998	0.135
999	0.136
999	0.137
1000	0.138
1000	0.139
1000	0.139
1001	0.14
1001	0.14
1002	0.14
1002	0.14
1003	0.14
1003	0.14
1003	0.139
1004	0.138
1004	0.137
1005	0.137
1005	0.136
1005	0.135
1006	0.135
1006	0.134
1007	0.134
1007	0.133
1008	0.133
1008	0.133
1008	0.133
1009	0.133
1009	0.132
1010	0.132
1010	0.132
1010	0.131
1011	0.131
1011	0.13
1012	0.13
1012	0.129
1013	0.129
1013	0.128
1013	0.127
1014	0.126
1014	0.126
1015	0.125
1015	0.125
1016	0.125
1016	0.124
1016	0.124
1017	0.124
1017	0.124
1018	0.124
1018	0.123
1018	0.123
1019	0.123
1019	0.123
1020	0.123
1020	0.123
1021	0.123
1021	0.124
1021	0.124
1022	0.124
1022	0.124
1023	0.125
1023	0.125
1023	0.125
1024	0.126
1024	0.126
1025	0.126
1025	0.126
1026	0.126
1026	0.126
1026	0.126
1027	0.126
1027	0.126
1028	0.126
1028	0.126
1028	0.126
1029	0.126
1029	0.126
1030	0.126
1030	0.127
1031	0.127
1031	0.127
1031	0.127
1032	0.127
1032	0.127
1033	0.127
1033	0.127
1033	0.127
1034	0.127
1034	0.126
1035	0.126
1035	0.126
1036	0.125
1036	0.125
1036	0.125
1037	0.125
1037	0.124
1038	0.124
1038	0.123
1039	0.123
1039	0.123
1039	0.122
1040	0.122
1040	0.122
1041	0.122
1041	0.122
1041	0.121
1042	0.121
1042	0.121
1043	0.121
1043	0.121
1044	0.121
1044	0.12
1044	0.12
1045	0.12
1045	0.119
1046	0.119
1046	0.118
1046	0.118
1047	0.117
1047	0.117
1048	0.117
1048	0.116
1049	0.116
1049	0.116
1049	0.115
1050	0.115
1050	0.115
1051	0.114
1051	0.114
1051	0.114
1052	0.114
1052	0.114
1053	0.114
1053	0.113
1053	0.113
1054	0.113
1054	0.113
1055	0.112
1055	0.112
1056	0.111
1056	0.111
1056	0.11
1057	0.11
1057	0.109
1058	0.108
1058	0.107
1058	0.107
1059	0.106
1059	0.105
1060	0.105
1060	0.104
1061	0.104
1061	0.103
1061	0.103
1062	0.103
1062	0.103
1063	0.102
1063	0.102
1063	0.102
1064	0.102
1064	0.102
1065	0.102
1065	0.101
1066	0.101
1066	0.101
1066	0.101
1067	0.101
1067	0.101
1068	0.101
1068	0.101
1068	0.101
1069	0.101
1069	0.101
1070	0.101
1070	0.101
1071	0.101
1071	0.101
1071	0.101
1072	0.101
1072	0.1
1073	0.099
1073	0.099
1073	0.099
1074	0.099
1074	0.099
1075	0.099
1075	0.1
1076	0.1
1076	0.101
1076	0.101
1077	0.102
1077	0.102
1078	0.102
1078	0.102
1078	0.102
1079	0.101
1079	0.101
1080	0.1
1080	0.099
1080	0.099
1081	0.098
1081	0.098
1082	0.098
1082	0.098
1083	0.098
1083	0.098
1083	0.098
1084	0.098
1084	0.099
1085	0.099
1085	0.099
1085	0.1
1086	0.1
1086	0.1
1087	0.1
1087	0.1
1088	0.1
1088	0.099
1088	0.1
1089	0.099
1089	0.099
1090	0.098
1090	0.097
1090	0.096
1091	0.096
1091	0.096
1092	0.096
1092	0.097
1092	0.096
1093	0.096
1093	0.096
1094	0.096
1094	0.096
1095	0.096
1095	0.096
1095	0.095
1096	0.095
1096	0.093
1097	0.093
1097	0.092
1097	0.092
1098	0.091
1098	0.09
1099	0.089
1099	0.087
1100	0.086
1100	0.084
1100	0.083
1101	0.083
1101	0.081
1102	0.08
1102	0.079
1102	0.077
1103	0.077
1103	0.076
1104	0.076
1104	0.076
1104	0.075
1105	0.074
1105	0.072
1106	0.072
1106	0.071
1107	0.07
1107	0.07
1107	0.07
1108	0.069
1108	0.068
1109	0.066
1109	0.067
1109	0.066
1110	0.069
1110	0.068
1111	0.069
1111	0.069
