Data from reversibility-20sec_Absorbance__772__000000000000772.txt Node

Date: Tue Dec 05 16:30:27 CET 2023
User: Marek
Spectrometer: MAYP115816
Trigger mode: 0
Integration Time (sec): 2.000000E-1
Scans to average: 10
Electric dark correction enabled: true
Nonlinearity correction enabled: true
Boxcar width: 5
XAxis mode: Wavelengths
Number of Pixels in Spectrum: 2068
>>>>>Begin Spectral Data<<<<<
199	-0.229
199	-0.204
200	-0.141
200	-0.094
201	-0.063
201	-0.047
202	-0.035
202	-0.024
203	-0.018
203	-0.015
204	-0.004
204	0.011
205	0.023
205	0.028
205	0.028
206	0.027
206	0.026
207	0.028
207	0.027
208	0.026
208	0.027
209	0.03
209	0.026
210	0.026
210	0.028
211	0.027
211	0.027
212	0.026
212	0.03
213	0.034
213	0.036
213	0.038
214	0.04
214	0.044
215	0.047
215	0.047
216	0.051
216	0.052
217	0.057
217	0.056
218	0.055
218	0.058
219	0.061
219	0.062
220	0.062
220	0.061
221	0.062
221	0.063
221	0.069
222	0.075
222	0.078
223	0.083
223	0.086
224	0.092
224	0.099
225	0.112
225	0.125
226	0.133
226	0.144
227	0.154
227	0.163
228	0.18
228	0.196
229	0.214
229	0.238
229	0.26
230	0.283
230	0.312
231	0.345
231	0.383
232	0.42
232	0.46
233	0.504
233	0.553
234	0.598
234	0.647
235	0.7
235	0.751
236	0.802
236	0.854
236	0.905
237	0.955
237	1.005
238	1.051
238	1.097
239	1.148
239	1.191
240	1.231
240	1.267
241	1.302
241	1.337
242	1.367
242	1.4
243	1.431
243	1.457
243	1.48
244	1.5
244	1.521
245	1.537
245	1.559
246	1.576
246	1.593
247	1.608
247	1.624
248	1.637
248	1.65
249	1.662
249	1.67
250	1.677
250	1.687
250	1.691
251	1.696
251	1.699
252	1.704
252	1.704
253	1.706
253	1.703
254	1.702
254	1.703
255	1.702
255	1.702
256	1.703
256	1.702
257	1.701
257	1.698
258	1.698
258	1.697
258	1.698
259	1.698
259	1.697
260	1.697
260	1.696
261	1.696
261	1.699
262	1.699
262	1.701
263	1.702
263	1.702
264	1.703
264	1.704
265	1.705
265	1.706
265	1.705
266	1.704
266	1.703
267	1.701
267	1.701
268	1.7
268	1.7
269	1.7
269	1.699
270	1.698
270	1.696
271	1.694
271	1.694
272	1.692
272	1.691
272	1.688
273	1.685
273	1.681
274	1.677
274	1.672
275	1.666
275	1.661
276	1.655
276	1.648
277	1.64
277	1.63
278	1.62
278	1.608
278	1.596
279	1.582
279	1.566
280	1.547
280	1.524
281	1.496
281	1.465
282	1.433
282	1.4
283	1.365
283	1.331
284	1.297
284	1.264
285	1.231
285	1.202
285	1.175
286	1.151
286	1.13
287	1.111
287	1.095
288	1.081
288	1.068
289	1.058
289	1.049
290	1.041
290	1.034
291	1.028
291	1.022
292	1.017
292	1.012
292	1.008
293	1.004
293	1.001
294	0.997
294	0.995
295	0.992
295	0.989
296	0.986
296	0.983
297	0.98
297	0.977
298	0.975
298	0.972
298	0.969
299	0.967
299	0.964
300	0.961
300	0.958
301	0.956
301	0.954
302	0.951
302	0.949
303	0.947
303	0.945
304	0.942
304	0.94
305	0.937
305	0.935
305	0.932
306	0.93
306	0.927
307	0.925
307	0.922
308	0.919
308	0.916
309	0.914
309	0.911
310	0.908
310	0.905
311	0.902
311	0.899
311	0.896
312	0.892
312	0.889
313	0.885
313	0.882
314	0.878
314	0.873
315	0.869
315	0.865
316	0.861
316	0.857
317	0.852
317	0.848
318	0.843
318	0.838
318	0.833
319	0.828
319	0.823
320	0.818
320	0.812
321	0.806
321	0.801
322	0.795
322	0.789
323	0.783
323	0.776
324	0.77
324	0.764
324	0.758
325	0.751
325	0.745
326	0.738
326	0.731
327	0.725
327	0.718
328	0.712
328	0.705
329	0.698
329	0.692
330	0.685
330	0.678
330	0.671
331	0.665
331	0.658
332	0.651
332	0.645
333	0.638
333	0.631
334	0.624
334	0.618
335	0.611
335	0.605
336	0.598
336	0.592
336	0.586
337	0.58
337	0.574
338	0.568
338	0.562
339	0.556
339	0.55
340	0.545
340	0.539
341	0.534
341	0.529
342	0.524
342	0.518
342	0.513
343	0.508
343	0.504
344	0.499
344	0.494
345	0.49
345	0.485
346	0.481
346	0.477
347	0.472
347	0.468
348	0.464
348	0.461
348	0.457
349	0.453
349	0.449
350	0.446
350	0.442
351	0.439
351	0.436
352	0.433
352	0.43
353	0.427
353	0.424
354	0.421
354	0.418
354	0.415
355	0.412
355	0.409
356	0.406
356	0.404
357	0.4
357	0.397
358	0.395
358	0.392
359	0.389
359	0.387
360	0.385
360	0.383
360	0.381
361	0.379
361	0.378
362	0.376
362	0.375
363	0.373
363	0.371
364	0.369
364	0.367
365	0.365
365	0.363
366	0.361
366	0.359
366	0.357
367	0.356
367	0.354
368	0.352
368	0.35
369	0.349
369	0.347
370	0.345
370	0.344
371	0.342
371	0.341
372	0.34
372	0.338
372	0.337
373	0.336
373	0.335
374	0.333
374	0.332
375	0.331
375	0.33
376	0.329
376	0.328
377	0.327
377	0.326
378	0.325
378	0.324
378	0.323
379	0.322
379	0.321
380	0.32
380	0.319
381	0.318
381	0.317
382	0.316
382	0.315
383	0.314
383	0.314
383	0.313
384	0.312
384	0.311
385	0.31
385	0.309
386	0.309
386	0.308
387	0.307
387	0.306
388	0.306
388	0.305
389	0.305
389	0.304
389	0.304
390	0.303
390	0.303
391	0.302
391	0.302
392	0.301
392	0.301
393	0.3
393	0.299
394	0.299
394	0.298
394	0.297
395	0.297
395	0.296
396	0.296
396	0.295
397	0.294
397	0.294
398	0.293
398	0.293
399	0.292
399	0.292
400	0.291
400	0.291
400	0.29
401	0.29
401	0.29
402	0.289
402	0.289
403	0.288
403	0.288
404	0.288
404	0.287
405	0.287
405	0.287
405	0.286
406	0.286
406	0.285
407	0.285
407	0.284
408	0.284
408	0.283
409	0.283
409	0.282
410	0.282
410	0.281
411	0.281
411	0.281
411	0.28
412	0.28
412	0.28
413	0.279
413	0.279
414	0.279
414	0.279
415	0.278
415	0.278
416	0.278
416	0.278
416	0.277
417	0.277
417	0.276
418	0.276
418	0.276
419	0.276
419	0.275
420	0.275
420	0.274
421	0.274
421	0.274
421	0.274
422	0.273
422	0.273
423	0.273
423	0.272
424	0.272
424	0.272
425	0.272
425	0.271
426	0.271
426	0.271
427	0.271
427	0.27
427	0.27
428	0.27
428	0.269
429	0.269
429	0.269
430	0.269
430	0.269
431	0.269
431	0.269
432	0.269
432	0.268
432	0.268
433	0.268
433	0.268
434	0.267
434	0.267
435	0.267
435	0.267
436	0.267
436	0.267
437	0.267
437	0.267
437	0.267
438	0.267
438	0.267
439	0.267
439	0.266
440	0.266
440	0.266
441	0.266
441	0.266
442	0.266
442	0.266
442	0.266
443	0.265
443	0.265
444	0.265
444	0.265
445	0.265
445	0.265
446	0.265
446	0.265
447	0.265
447	0.265
447	0.265
448	0.265
448	0.265
449	0.265
449	0.265
450	0.265
450	0.265
451	0.265
451	0.265
452	0.265
452	0.265
452	0.265
453	0.265
453	0.266
454	0.266
454	0.266
455	0.266
455	0.266
456	0.266
456	0.266
457	0.266
457	0.266
458	0.267
458	0.267
458	0.267
459	0.267
459	0.267
460	0.268
460	0.268
461	0.268
461	0.268
462	0.268
462	0.268
463	0.268
463	0.268
463	0.268
464	0.269
464	0.269
465	0.269
465	0.269
466	0.269
466	0.27
467	0.27
467	0.27
467	0.27
468	0.271
468	0.271
469	0.272
469	0.272
470	0.273
470	0.273
471	0.273
471	0.274
472	0.275
472	0.275
472	0.276
473	0.277
473	0.277
474	0.278
474	0.278
475	0.279
475	0.28
476	0.28
476	0.281
477	0.282
477	0.282
477	0.283
478	0.284
478	0.285
479	0.285
479	0.286
480	0.287
480	0.288
481	0.288
481	0.289
482	0.29
482	0.291
482	0.292
483	0.293
483	0.294
484	0.295
484	0.296
485	0.297
485	0.298
486	0.299
486	0.3
487	0.301
487	0.303
487	0.304
488	0.305
488	0.306
489	0.307
489	0.309
490	0.311
490	0.312
491	0.314
491	0.315
492	0.317
492	0.318
492	0.32
493	0.321
493	0.323
494	0.324
494	0.326
495	0.327
495	0.329
496	0.331
496	0.332
496	0.334
497	0.335
497	0.337
498	0.339
498	0.34
499	0.342
499	0.344
500	0.345
500	0.347
501	0.349
501	0.35
501	0.351
502	0.353
502	0.354
503	0.356
503	0.358
504	0.359
504	0.361
505	0.362
505	0.364
506	0.365
506	0.367
506	0.369
507	0.37
507	0.372
508	0.373
508	0.375
509	0.376
509	0.378
510	0.379
510	0.38
511	0.382
511	0.383
511	0.385
512	0.386
512	0.387
513	0.388
513	0.389
514	0.39
514	0.391
515	0.392
515	0.393
515	0.394
516	0.395
516	0.396
517	0.396
517	0.397
518	0.397
518	0.398
519	0.398
519	0.398
520	0.398
520	0.398
520	0.398
521	0.398
521	0.398
522	0.398
522	0.398
523	0.398
523	0.398
524	0.398
524	0.398
524	0.398
525	0.397
525	0.396
526	0.396
526	0.395
527	0.394
527	0.394
528	0.393
528	0.392
529	0.391
529	0.389
529	0.388
530	0.387
530	0.385
531	0.384
531	0.383
532	0.381
532	0.379
533	0.378
533	0.376
533	0.374
534	0.373
534	0.371
535	0.369
535	0.368
536	0.366
536	0.364
537	0.362
537	0.36
538	0.358
538	0.355
538	0.353
539	0.351
539	0.349
540	0.347
540	0.344
541	0.342
541	0.339
542	0.337
542	0.334
542	0.331
543	0.329
543	0.326
544	0.324
544	0.321
545	0.319
545	0.316
546	0.314
546	0.311
547	0.308
547	0.305
547	0.303
548	0.301
548	0.298
549	0.296
549	0.293
550	0.29
550	0.287
551	0.284
551	0.281
551	0.278
552	0.276
552	0.273
553	0.27
553	0.267
554	0.264
554	0.262
555	0.259
555	0.257
556	0.254
556	0.251
556	0.249
557	0.247
557	0.245
558	0.243
558	0.241
559	0.238
559	0.236
560	0.234
560	0.232
560	0.229
561	0.227
561	0.225
562	0.222
562	0.22
563	0.217
563	0.214
564	0.212
564	0.21
564	0.207
565	0.205
565	0.203
566	0.201
566	0.199
567	0.197
567	0.195
568	0.193
568	0.191
568	0.189
569	0.188
569	0.186
570	0.183
570	0.182
571	0.18
571	0.178
572	0.176
572	0.175
573	0.173
573	0.171
573	0.169
574	0.168
574	0.166
575	0.165
575	0.163
576	0.162
576	0.16
577	0.158
577	0.156
577	0.155
578	0.153
578	0.152
579	0.151
579	0.15
580	0.148
580	0.146
581	0.144
581	0.143
581	0.142
582	0.141
582	0.14
583	0.139
583	0.138
584	0.136
584	0.133
585	0.132
585	0.131
585	0.13
586	0.128
586	0.127
587	0.125
587	0.123
588	0.122
588	0.121
589	0.12
589	0.119
590	0.118
590	0.117
590	0.117
591	0.116
591	0.115
592	0.114
592	0.112
593	0.112
593	0.111
594	0.11
594	0.108
594	0.107
595	0.106
595	0.105
596	0.104
596	0.103
597	0.103
597	0.102
598	0.101
598	0.101
598	0.1
599	0.099
599	0.098
600	0.097
600	0.097
601	0.096
601	0.095
602	0.094
602	0.093
602	0.092
603	0.091
603	0.091
604	0.09
604	0.09
605	0.089
605	0.089
606	0.088
606	0.087
606	0.086
607	0.085
607	0.085
608	0.084
608	0.083
609	0.082
609	0.081
610	0.08
610	0.079
610	0.079
611	0.078
611	0.078
612	0.077
612	0.077
613	0.076
613	0.076
614	0.075
614	0.074
614	0.074
615	0.074
615	0.073
616	0.073
616	0.072
617	0.072
617	0.072
618	0.071
618	0.071
618	0.071
619	0.07
619	0.07
620	0.07
620	0.07
621	0.069
621	0.068
622	0.067
622	0.067
622	0.066
623	0.065
623	0.065
624	0.064
624	0.063
625	0.063
625	0.062
626	0.062
626	0.061
626	0.061
627	0.061
627	0.06
628	0.06
628	0.059
629	0.058
629	0.057
630	0.057
630	0.056
630	0.056
631	0.056
631	0.055
632	0.055
632	0.054
633	0.054
633	0.054
634	0.054
634	0.054
634	0.054
635	0.053
635	0.052
636	0.052
636	0.052
637	0.051
637	0.051
638	0.051
638	0.051
638	0.05
639	0.049
639	0.049
640	0.049
640	0.049
641	0.049
641	0.048
642	0.048
642	0.048
642	0.047
643	0.047
643	0.047
644	0.047
644	0.047
645	0.047
645	0.046
646	0.046
646	0.046
646	0.046
647	0.046
647	0.045
648	0.045
648	0.044
649	0.043
649	0.043
650	0.043
650	0.042
650	0.042
651	0.042
651	0.041
652	0.041
652	0.041
653	0.041
653	0.043
653	0.049
654	0.04
654	0.033
655	0.031
655	0.031
656	0.031
656	0.031
657	0.031
657	0.031
657	0.031
658	0.03
658	0.024
659	0.03
659	0.037
660	0.04
660	0.04
661	0.039
661	0.039
661	0.038
662	0.038
662	0.037
663	0.036
663	0.036
664	0.035
664	0.035
665	0.035
665	0.034
665	0.034
666	0.034
666	0.034
667	0.034
667	0.034
668	0.034
668	0.034
669	0.034
669	0.034
669	0.034
670	0.034
670	0.034
671	0.034
671	0.034
672	0.034
672	0.033
672	0.033
673	0.033
673	0.033
674	0.033
674	0.032
675	0.032
675	0.032
676	0.032
676	0.032
676	0.032
677	0.032
677	0.031
678	0.031
678	0.03
679	0.03
679	0.029
680	0.03
680	0.029
680	0.029
681	0.029
681	0.029
682	0.029
682	0.029
683	0.03
683	0.03
684	0.031
684	0.031
684	0.03
685	0.03
685	0.03
686	0.03
686	0.029
687	0.029
687	0.029
687	0.028
688	0.028
688	0.028
689	0.028
689	0.029
690	0.029
690	0.028
691	0.028
691	0.029
691	0.029
692	0.029
692	0.029
693	0.029
693	0.03
694	0.029
694	0.029
695	0.03
695	0.03
695	0.03
696	0.03
696	0.029
697	0.029
697	0.029
698	0.028
698	0.028
698	0.028
699	0.028
699	0.027
700	0.027
700	0.027
701	0.027
701	0.027
702	0.027
702	0.026
702	0.026
703	0.026
703	0.025
704	0.024
704	0.024
705	0.024
705	0.023
705	0.023
706	0.023
706	0.023
707	0.023
707	0.023
708	0.023
708	0.023
709	0.023
709	0.022
709	0.022
710	0.022
710	0.022
711	0.022
711	0.022
712	0.022
712	0.022
713	0.022
713	0.022
713	0.022
714	0.022
714	0.022
715	0.021
715	0.021
716	0.021
716	0.021
716	0.02
717	0.02
717	0.019
718	0.019
718	0.018
719	0.018
719	0.019
720	0.019
720	0.019
720	0.019
721	0.02
721	0.02
722	0.02
722	0.021
723	0.021
723	0.021
723	0.021
724	0.021
724	0.021
725	0.02
725	0.019
726	0.019
726	0.018
727	0.018
727	0.017
727	0.017
728	0.016
728	0.016
729	0.016
729	0.015
730	0.015
730	0.015
730	0.016
731	0.016
731	0.016
732	0.016
732	0.016
733	0.016
733	0.016
734	0.016
734	0.016
734	0.016
735	0.016
735	0.016
736	0.015
736	0.015
737	0.015
737	0.015
737	0.015
738	0.014
738	0.014
739	0.013
739	0.013
740	0.012
740	0.012
741	0.012
741	0.012
741	0.011
742	0.011
742	0.012
743	0.012
743	0.013
744	0.014
744	0.014
744	0.014
745	0.015
745	0.015
746	0.015
746	0.015
747	0.015
747	0.015
748	0.015
748	0.015
748	0.015
749	0.015
749	0.015
750	0.015
750	0.014
751	0.014
751	0.014
751	0.014
752	0.013
752	0.012
753	0.012
753	0.011
754	0.011
754	0.011
754	0.011
755	0.011
755	0.011
756	0.011
756	0.01
757	0.01
757	0.009
758	0.009
758	0.008
758	0.008
759	0.008
759	0.008
760	0.008
760	0.007
761	0.008
761	0.009
761	0.009
762	0.01
762	0.011
763	0.011
763	0.011
764	0.011
764	0.011
764	0.011
765	0.011
765	0.01
766	0.01
766	0.01
767	0.009
767	0.008
768	0.008
768	0.008
768	0.007
769	0.007
769	0.007
770	0.007
770	0.008
771	0.008
771	0.008
771	0.008
772	0.008
772	0.009
773	0.009
773	0.009
774	0.01
774	0.01
775	0.01
775	0.01
775	0.01
776	0.01
776	0.01
777	0.01
777	0.009
778	0.009
778	0.008
778	0.007
779	0.007
779	0.007
780	0.007
780	0.006
781	0.007
781	0.007
781	0.007
782	0.007
782	0.008
783	0.008
783	0.009
784	0.009
784	0.009
784	0.009
785	0.009
785	0.009
786	0.009
786	0.009
787	0.009
787	0.009
788	0.008
788	0.008
788	0.007
789	0.007
789	0.008
790	0.008
790	0.008
791	0.008
791	0.007
791	0.007
792	0.008
792	0.008
793	0.007
793	0.007
794	0.006
794	0.006
794	0.005
795	0.005
795	0.005
796	0.004
796	0.004
797	0.003
797	0.003
797	0.004
798	0.004
798	0.004
799	0.004
799	0.004
800	0.003
800	0.003
801	0.003
801	0.003
801	0.003
802	0.003
802	0.003
803	0.003
803	0.003
804	0.004
804	0.004
804	0.005
805	0.005
805	0.005
806	0.005
806	0.005
807	0.006
807	0.006
807	0.006
808	0.006
808	0.006
809	0.006
809	0.006
810	0.007
810	0.007
810	0.007
811	0.007
811	0.007
812	0.007
812	0.007
813	0.007
813	0.007
813	0.007
814	0.008
814	0.008
815	0.008
815	0.009
816	0.009
816	0.008
817	0.008
817	0.008
817	0.008
818	0.008
818	0.008
819	0.007
819	0.007
820	0.006
820	0.006
820	0.005
821	0.006
821	0.005
822	0.005
822	0.005
823	0.005
823	0.005
823	0.006
824	0.006
824	0.007
825	0.008
825	0.008
826	0.008
826	0.007
826	0.007
827	0.007
827	0.007
828	0.007
828	0.006
829	0.006
829	0.006
829	0.005
830	0.005
830	0.005
831	0.006
831	0.006
832	0.006
832	0.006
832	0.006
833	0.006
833	0.006
834	0.005
834	0.005
835	0.005
835	0.005
835	0.005
836	0.005
836	0.006
837	0.006
837	0.006
838	0.006
838	0.006
839	0.006
839	0.005
839	0.005
840	0.004
840	0.003
841	0.001
841	0
842	-0.001
842	-0.002
842	-0.002
843	-0.003
843	-0.003
844	-0.004
844	-0.004
845	-0.004
845	-0.004
845	-0.004
846	-0.004
846	-0.004
847	-0.003
847	-0.003
848	-0.002
848	-0.001
848	-0
849	0.001
849	0.001
850	0.002
850	0.003
851	0.003
851	0.003
851	0.003
852	0.003
852	0.002
853	0.002
853	0.001
854	0.001
854	0.001
854	0.001
855	0.001
855	0.001
856	0.001
856	0.001
857	0.002
857	0.002
857	0.002
858	0.001
858	0.001
859	0
859	-0.001
860	-0.001
860	-0.002
860	-0.003
861	-0.003
861	-0.004
862	-0.005
862	-0.006
863	-0.006
863	-0.006
863	-0.006
864	-0.007
864	-0.007
865	-0.007
865	-0.007
866	-0.007
866	-0.007
866	-0.007
867	-0.007
867	-0.007
868	-0.007
868	-0.006
869	-0.006
869	-0.006
869	-0.006
870	-0.006
870	-0.006
871	-0.005
871	-0.004
872	-0.003
872	-0.003
872	-0.002
873	-0.002
873	-0.002
874	-0.002
874	-0.002
875	-0.002
875	-0.002
875	-0.003
876	-0.003
876	-0.004
877	-0.004
877	-0.004
878	-0.003
878	-0.003
878	-0.002
879	-0.001
879	-0.001
880	0
880	0.001
881	0.001
881	0.001
881	0.001
882	0.001
882	0.001
883	-0
883	-0.001
884	-0.002
884	-0.003
884	-0.003
885	-0.004
885	-0.005
886	-0.005
886	-0.006
887	-0.006
887	-0.006
887	-0.006
888	-0.007
888	-0.007
889	-0.007
889	-0.007
890	-0.007
890	-0.006
890	-0.006
891	-0.006
891	-0.005
892	-0.005
892	-0.004
893	-0.003
893	-0.003
893	-0.002
894	-0.002
894	-0.001
895	-0.001
895	-0.001
895	-0
896	-0.001
896	-0.001
897	-0.001
897	-0.002
898	-0.002
898	-0.003
898	-0.003
899	-0.004
899	-0.004
900	-0.005
900	-0.005
901	-0.006
901	-0.006
901	-0.006
902	-0.007
902	-0.007
903	-0.007
903	-0.007
904	-0.007
904	-0.007
904	-0.007
905	-0.007
905	-0.007
906	-0.007
906	-0.006
907	-0.006
907	-0.005
907	-0.005
908	-0.005
908	-0.004
909	-0.004
909	-0.004
910	-0.003
910	-0.003
910	-0.003
911	-0.004
911	-0.003
912	-0.003
912	-0.003
913	-0.003
913	-0.002
913	-0.002
914	-0.002
914	-0.002
915	-0.002
915	-0.002
916	-0.003
916	-0.003
916	-0.003
917	-0.004
917	-0.005
918	-0.005
918	-0.006
918	-0.006
919	-0.007
919	-0.006
920	-0.006
920	-0.006
921	-0.005
921	-0.004
921	-0.003
922	-0.003
922	-0.002
923	-0.001
923	-0
924	0
924	0.001
924	0.001
925	0.001
925	0.001
926	0.001
926	0.001
927	0.001
927	0
927	-0
928	-0
928	-0
929	-0
929	-0
930	-0.001
930	-0.001
930	-0.001
931	-0.001
931	-0.002
932	-0.002
932	-0.002
933	-0.002
933	-0.003
933	-0.004
934	-0.004
934	-0.005
935	-0.005
935	-0.006
935	-0.006
936	-0.007
936	-0.007
937	-0.007
937	-0.007
938	-0.006
938	-0.006
938	-0.005
939	-0.005
939	-0.005
940	-0.004
940	-0.003
941	-0.003
941	-0.002
941	-0.002
942	-0.001
942	-0.001
943	-0.001
943	-0.001
944	-0.001
944	-0
944	0
945	0
945	0.001
946	0.001
946	0.001
946	0.001
947	0.002
947	0.002
948	0.002
948	0.003
949	0.003
949	0.003
949	0.003
950	0.003
950	0.003
951	0.003
951	0.003
952	0.002
952	0.002
952	0.001
953	0.001
953	0
954	-0.001
954	-0.001
955	-0.002
955	-0.003
955	-0.003
956	-0.003
956	-0.003
957	-0.003
957	-0.003
957	-0.002
958	-0.002
958	-0.001
959	-0.001
959	-0
960	0
960	0.001
960	0.001
961	0.001
961	0.001
962	0
962	0
963	-0
963	-0
963	-0
964	-0
964	-0
965	0
965	0
966	0.001
966	0.001
966	0.002
967	0.002
967	0.003
968	0.003
968	0.004
968	0.004
969	0.003
969	0.003
970	0.003
970	0.003
971	0.002
971	0.002
971	0.002
972	0.001
972	0.001
973	0
973	0
974	0
974	0
974	0
975	0
975	0.001
976	0.001
976	0.001
976	0.001
977	0.001
977	0.001
978	0.001
978	0.001
979	0.001
979	0
979	0
980	0
980	-0.001
981	-0.001
981	-0.002
982	-0.002
982	-0.002
982	-0.002
983	-0.003
983	-0.003
984	-0.004
984	-0.005
984	-0.006
985	-0.007
985	-0.007
986	-0.008
986	-0.009
987	-0.01
987	-0.01
987	-0.011
988	-0.011
988	-0.012
989	-0.012
989	-0.013
990	-0.013
990	-0.013
990	-0.014
991	-0.014
991	-0.014
992	-0.014
992	-0.014
992	-0.014
993	-0.014
993	-0.013
994	-0.013
994	-0.013
995	-0.012
995	-0.012
995	-0.012
996	-0.011
996	-0.01
997	-0.01
997	-0.009
997	-0.008
998	-0.007
998	-0.006
999	-0.005
999	-0.004
1000	-0.003
1000	-0.002
1000	-0.002
1001	-0.001
1001	-0.001
1002	-0.001
1002	-0.001
1003	-0.001
1003	-0.001
1003	-0.001
1004	-0.001
1004	-0.002
1005	-0.002
1005	-0.003
1005	-0.003
1006	-0.003
1006	-0.004
1007	-0.004
1007	-0.004
1008	-0.005
1008	-0.005
1008	-0.005
1009	-0.005
1009	-0.006
1010	-0.006
1010	-0.006
1010	-0.006
1011	-0.007
1011	-0.007
1012	-0.007
1012	-0.007
1013	-0.007
1013	-0.007
1013	-0.007
1014	-0.007
1014	-0.007
1015	-0.007
1015	-0.007
1016	-0.007
1016	-0.007
1016	-0.007
1017	-0.007
1017	-0.007
1018	-0.007
1018	-0.007
1018	-0.007
1019	-0.007
1019	-0.007
1020	-0.007
1020	-0.007
1021	-0.007
1021	-0.007
1021	-0.007
1022	-0.007
1022	-0.008
1023	-0.008
1023	-0.008
1023	-0.008
1024	-0.009
1024	-0.009
1025	-0.01
1025	-0.01
1026	-0.011
1026	-0.011
1026	-0.012
1027	-0.013
1027	-0.013
1028	-0.014
1028	-0.014
1028	-0.015
1029	-0.015
1029	-0.015
1030	-0.015
1030	-0.015
1031	-0.014
1031	-0.014
1031	-0.014
1032	-0.014
1032	-0.013
1033	-0.013
1033	-0.013
1033	-0.013
1034	-0.013
1034	-0.013
1035	-0.013
1035	-0.013
1036	-0.014
1036	-0.014
1036	-0.014
1037	-0.014
1037	-0.014
1038	-0.014
1038	-0.013
1039	-0.013
1039	-0.013
1039	-0.012
1040	-0.012
1040	-0.012
1041	-0.011
1041	-0.011
1041	-0.011
1042	-0.01
1042	-0.01
1043	-0.01
1043	-0.01
1044	-0.01
1044	-0.009
1044	-0.009
1045	-0.008
1045	-0.008
1046	-0.008
1046	-0.007
1046	-0.007
1047	-0.006
1047	-0.006
1048	-0.005
1048	-0.005
1049	-0.005
1049	-0.005
1049	-0.005
1050	-0.005
1050	-0.006
1051	-0.006
1051	-0.006
1051	-0.007
1052	-0.007
1052	-0.008
1053	-0.009
1053	-0.01
1053	-0.01
1054	-0.011
1054	-0.011
1055	-0.011
1055	-0.011
1056	-0.012
1056	-0.013
1056	-0.013
1057	-0.013
1057	-0.014
1058	-0.014
1058	-0.015
1058	-0.015
1059	-0.016
1059	-0.016
1060	-0.017
1060	-0.017
1061	-0.017
1061	-0.017
1061	-0.017
1062	-0.018
1062	-0.018
1063	-0.018
1063	-0.018
1063	-0.019
1064	-0.019
1064	-0.019
1065	-0.019
1065	-0.019
1066	-0.019
1066	-0.02
1066	-0.02
1067	-0.02
1067	-0.02
1068	-0.02
1068	-0.02
1068	-0.021
1069	-0.021
1069	-0.022
1070	-0.022
1070	-0.022
1071	-0.023
1071	-0.023
1071	-0.023
1072	-0.024
1072	-0.024
1073	-0.025
1073	-0.025
1073	-0.025
1074	-0.025
1074	-0.025
1075	-0.024
1075	-0.024
1076	-0.023
1076	-0.023
1076	-0.022
1077	-0.022
1077	-0.022
1078	-0.021
1078	-0.021
1078	-0.02
1079	-0.02
1079	-0.02
1080	-0.02
1080	-0.019
1080	-0.019
1081	-0.019
1081	-0.018
1082	-0.017
1082	-0.017
1083	-0.017
1083	-0.017
1083	-0.017
1084	-0.017
1084	-0.017
1085	-0.017
1085	-0.017
1085	-0.017
1086	-0.018
1086	-0.018
1087	-0.019
1087	-0.019
1088	-0.019
1088	-0.02
1088	-0.02
1089	-0.021
1089	-0.021
1090	-0.022
1090	-0.022
1090	-0.023
1091	-0.023
1091	-0.023
1092	-0.023
1092	-0.024
1092	-0.024
1093	-0.025
1093	-0.024
1094	-0.024
1094	-0.024
1095	-0.024
1095	-0.024
1095	-0.024
1096	-0.024
1096	-0.025
1097	-0.024
1097	-0.024
1097	-0.024
1098	-0.024
1098	-0.025
1099	-0.025
1099	-0.026
1100	-0.026
1100	-0.027
1100	-0.028
1101	-0.029
1101	-0.03
1102	-0.03
1102	-0.032
1102	-0.033
1103	-0.034
1103	-0.033
1104	-0.034
1104	-0.034
1104	-0.034
1105	-0.035
1105	-0.037
1106	-0.038
1106	-0.039
1107	-0.04
1107	-0.04
1107	-0.04
1108	-0.041
1108	-0.042
1109	-0.044
1109	-0.046
1109	-0.044
1110	-0.042
1110	-0.043
1111	-0.042
1111	-0.038
