Data from reversibility-20sec_Absorbance__1535__000000000001535.txt Node

Date: Tue Dec 05 20:44:45 CET 2023
User: Marek
Spectrometer: MAYP115816
Trigger mode: 0
Integration Time (sec): 2.000000E-1
Scans to average: 10
Electric dark correction enabled: true
Nonlinearity correction enabled: true
Boxcar width: 5
XAxis mode: Wavelengths
Number of Pixels in Spectrum: 2068
>>>>>Begin Spectral Data<<<<<
199	-0.226
199	-0.197
200	-0.14
200	-0.086
201	-0.056
201	-0.039
202	-0.024
202	-0.013
203	-0.004
203	0
204	0.015
204	0.03
205	0.045
205	0.052
205	0.053
206	0.055
206	0.056
207	0.059
207	0.058
208	0.056
208	0.058
209	0.06
209	0.056
210	0.052
210	0.056
211	0.056
211	0.057
212	0.055
212	0.056
213	0.058
213	0.061
213	0.06
214	0.063
214	0.065
215	0.069
215	0.069
216	0.071
216	0.068
217	0.072
217	0.074
218	0.075
218	0.077
219	0.081
219	0.082
220	0.086
220	0.084
221	0.084
221	0.087
221	0.094
222	0.099
222	0.101
223	0.107
223	0.11
224	0.113
224	0.121
225	0.131
225	0.142
226	0.153
226	0.162
227	0.173
227	0.182
228	0.198
228	0.214
229	0.234
229	0.26
229	0.284
230	0.306
230	0.335
231	0.369
231	0.408
232	0.445
232	0.49
233	0.537
233	0.585
234	0.633
234	0.684
235	0.735
235	0.789
236	0.845
236	0.897
236	0.952
237	1.008
237	1.059
238	1.107
238	1.156
239	1.211
239	1.256
240	1.301
240	1.343
241	1.38
241	1.418
242	1.45
242	1.486
243	1.519
243	1.548
243	1.579
244	1.601
244	1.63
245	1.651
245	1.677
246	1.7
246	1.721
247	1.738
247	1.755
248	1.775
248	1.794
249	1.805
249	1.814
250	1.825
250	1.836
250	1.845
251	1.852
251	1.858
252	1.869
252	1.874
253	1.879
253	1.879
254	1.881
254	1.889
255	1.89
255	1.895
256	1.896
256	1.9
257	1.904
257	1.904
258	1.904
258	1.905
258	1.907
259	1.911
259	1.909
260	1.91
260	1.912
261	1.912
261	1.915
262	1.917
262	1.92
263	1.927
263	1.93
264	1.933
264	1.937
265	1.94
265	1.944
265	1.946
266	1.951
266	1.955
267	1.953
267	1.955
268	1.955
268	1.958
269	1.96
269	1.959
270	1.962
270	1.961
271	1.959
271	1.958
272	1.954
272	1.956
272	1.953
273	1.946
273	1.94
274	1.935
274	1.929
275	1.923
275	1.918
276	1.912
276	1.905
277	1.898
277	1.889
278	1.879
278	1.869
278	1.856
279	1.841
279	1.823
280	1.8
280	1.77
281	1.736
281	1.698
282	1.658
282	1.617
283	1.576
283	1.535
284	1.495
284	1.456
285	1.42
285	1.385
285	1.356
286	1.328
286	1.305
287	1.283
287	1.265
288	1.249
288	1.235
289	1.223
289	1.213
290	1.204
290	1.196
291	1.189
291	1.183
292	1.177
292	1.171
292	1.167
293	1.162
293	1.158
294	1.153
294	1.15
295	1.146
295	1.143
296	1.14
296	1.136
297	1.133
297	1.129
298	1.126
298	1.123
298	1.12
299	1.117
299	1.113
300	1.11
300	1.107
301	1.104
301	1.102
302	1.099
302	1.096
303	1.094
303	1.091
304	1.088
304	1.086
305	1.083
305	1.08
305	1.078
306	1.075
306	1.072
307	1.069
307	1.066
308	1.063
308	1.06
309	1.057
309	1.054
310	1.05
310	1.047
311	1.044
311	1.04
311	1.037
312	1.033
312	1.029
313	1.025
313	1.021
314	1.016
314	1.012
315	1.007
315	1.003
316	0.998
316	0.993
317	0.988
317	0.983
318	0.978
318	0.972
318	0.967
319	0.961
319	0.956
320	0.95
320	0.944
321	0.938
321	0.932
322	0.925
322	0.919
323	0.912
323	0.905
324	0.898
324	0.892
324	0.885
325	0.878
325	0.871
326	0.864
326	0.857
327	0.85
327	0.843
328	0.836
328	0.829
329	0.822
329	0.815
330	0.807
330	0.8
330	0.793
331	0.785
331	0.778
332	0.771
332	0.764
333	0.757
333	0.75
334	0.743
334	0.736
335	0.729
335	0.722
336	0.715
336	0.709
336	0.702
337	0.695
337	0.689
338	0.683
338	0.676
339	0.67
339	0.664
340	0.658
340	0.652
341	0.647
341	0.641
342	0.635
342	0.63
342	0.624
343	0.619
343	0.614
344	0.609
344	0.604
345	0.599
345	0.594
346	0.589
346	0.585
347	0.58
347	0.576
348	0.571
348	0.568
348	0.564
349	0.56
349	0.556
350	0.552
350	0.548
351	0.544
351	0.541
352	0.537
352	0.534
353	0.531
353	0.528
354	0.525
354	0.522
354	0.519
355	0.516
355	0.513
356	0.51
356	0.507
357	0.503
357	0.5
358	0.497
358	0.495
359	0.492
359	0.489
360	0.487
360	0.485
360	0.482
361	0.48
361	0.478
362	0.476
362	0.474
363	0.472
363	0.47
364	0.468
364	0.466
365	0.464
365	0.462
366	0.46
366	0.458
366	0.456
367	0.454
367	0.452
368	0.45
368	0.448
369	0.446
369	0.445
370	0.443
370	0.441
371	0.439
371	0.438
372	0.436
372	0.435
372	0.433
373	0.432
373	0.43
374	0.429
374	0.428
375	0.427
375	0.425
376	0.424
376	0.423
377	0.422
377	0.421
378	0.419
378	0.418
378	0.417
379	0.416
379	0.415
380	0.413
380	0.412
381	0.411
381	0.41
382	0.409
382	0.408
383	0.407
383	0.406
383	0.405
384	0.405
384	0.404
385	0.403
385	0.402
386	0.401
386	0.4
387	0.399
387	0.399
388	0.398
388	0.397
389	0.397
389	0.396
389	0.395
390	0.394
390	0.394
391	0.393
391	0.392
392	0.392
392	0.391
393	0.39
393	0.39
394	0.389
394	0.388
394	0.387
395	0.387
395	0.386
396	0.385
396	0.384
397	0.384
397	0.383
398	0.382
398	0.382
399	0.381
399	0.38
400	0.38
400	0.379
400	0.379
401	0.379
401	0.378
402	0.378
402	0.377
403	0.377
403	0.376
404	0.376
404	0.375
405	0.375
405	0.374
405	0.374
406	0.373
406	0.372
407	0.372
407	0.372
408	0.371
408	0.371
409	0.37
409	0.37
410	0.369
410	0.369
411	0.368
411	0.368
411	0.368
412	0.367
412	0.366
413	0.366
413	0.365
414	0.365
414	0.365
415	0.364
415	0.364
416	0.363
416	0.363
416	0.362
417	0.362
417	0.362
418	0.361
418	0.361
419	0.36
419	0.36
420	0.359
420	0.359
421	0.358
421	0.358
421	0.358
422	0.357
422	0.357
423	0.356
423	0.356
424	0.355
424	0.355
425	0.355
425	0.354
426	0.354
426	0.354
427	0.353
427	0.353
427	0.353
428	0.353
428	0.352
429	0.352
429	0.352
430	0.351
430	0.351
431	0.351
431	0.351
432	0.35
432	0.35
432	0.35
433	0.35
433	0.349
434	0.349
434	0.349
435	0.349
435	0.349
436	0.349
436	0.349
437	0.348
437	0.348
437	0.348
438	0.347
438	0.347
439	0.347
439	0.347
440	0.346
440	0.346
441	0.346
441	0.346
442	0.346
442	0.346
442	0.346
443	0.345
443	0.345
444	0.345
444	0.345
445	0.345
445	0.345
446	0.344
446	0.344
447	0.344
447	0.344
447	0.344
448	0.344
448	0.344
449	0.344
449	0.344
450	0.344
450	0.344
451	0.344
451	0.344
452	0.344
452	0.344
452	0.344
453	0.344
453	0.344
454	0.344
454	0.344
455	0.343
455	0.343
456	0.343
456	0.343
457	0.343
457	0.343
458	0.343
458	0.343
458	0.343
459	0.343
459	0.344
460	0.344
460	0.344
461	0.344
461	0.344
462	0.344
462	0.344
463	0.345
463	0.345
463	0.345
464	0.345
464	0.345
465	0.345
465	0.345
466	0.345
466	0.345
467	0.346
467	0.346
467	0.346
468	0.346
468	0.346
469	0.346
469	0.347
470	0.347
470	0.348
471	0.348
471	0.348
472	0.349
472	0.35
472	0.35
473	0.351
473	0.351
474	0.352
474	0.352
475	0.353
475	0.354
476	0.354
476	0.355
477	0.356
477	0.356
477	0.357
478	0.358
478	0.359
479	0.359
479	0.36
480	0.361
480	0.362
481	0.362
481	0.363
482	0.363
482	0.364
482	0.365
483	0.366
483	0.367
484	0.368
484	0.369
485	0.37
485	0.371
486	0.372
486	0.373
487	0.374
487	0.375
487	0.376
488	0.377
488	0.378
489	0.379
489	0.381
490	0.383
490	0.384
491	0.386
491	0.387
492	0.389
492	0.39
492	0.391
493	0.393
493	0.394
494	0.396
494	0.398
495	0.399
495	0.4
496	0.402
496	0.404
496	0.406
497	0.407
497	0.409
498	0.41
498	0.412
499	0.413
499	0.415
500	0.417
500	0.419
501	0.42
501	0.422
501	0.423
502	0.424
502	0.426
503	0.427
503	0.429
504	0.43
504	0.431
505	0.433
505	0.434
506	0.436
506	0.437
506	0.438
507	0.44
507	0.442
508	0.443
508	0.444
509	0.445
509	0.447
510	0.448
510	0.449
511	0.451
511	0.452
511	0.454
512	0.455
512	0.456
513	0.457
513	0.458
514	0.459
514	0.46
515	0.461
515	0.462
515	0.463
516	0.463
516	0.464
517	0.465
517	0.465
518	0.466
518	0.466
519	0.466
519	0.467
520	0.467
520	0.467
520	0.467
521	0.467
521	0.467
522	0.467
522	0.467
523	0.467
523	0.467
524	0.466
524	0.466
524	0.466
525	0.466
525	0.465
526	0.464
526	0.463
527	0.462
527	0.461
528	0.46
528	0.459
529	0.458
529	0.457
529	0.455
530	0.453
530	0.452
531	0.451
531	0.449
532	0.448
532	0.446
533	0.444
533	0.443
533	0.441
534	0.439
534	0.438
535	0.436
535	0.435
536	0.433
536	0.43
537	0.428
537	0.426
538	0.424
538	0.422
538	0.419
539	0.417
539	0.415
540	0.412
540	0.41
541	0.407
541	0.405
542	0.403
542	0.4
542	0.397
543	0.395
543	0.393
544	0.39
544	0.387
545	0.384
545	0.382
546	0.379
546	0.376
547	0.373
547	0.37
547	0.368
548	0.365
548	0.362
549	0.36
549	0.358
550	0.355
550	0.352
551	0.349
551	0.346
551	0.343
552	0.341
552	0.338
553	0.336
553	0.333
554	0.33
554	0.327
555	0.325
555	0.322
556	0.319
556	0.316
556	0.314
557	0.312
557	0.309
558	0.307
558	0.305
559	0.302
559	0.3
560	0.297
560	0.295
560	0.293
561	0.291
561	0.289
562	0.286
562	0.284
563	0.281
563	0.279
564	0.276
564	0.274
564	0.272
565	0.27
565	0.268
566	0.265
566	0.263
567	0.261
567	0.259
568	0.258
568	0.256
568	0.254
569	0.252
569	0.25
570	0.248
570	0.246
571	0.244
571	0.242
572	0.24
572	0.238
573	0.236
573	0.234
573	0.232
574	0.23
574	0.228
575	0.227
575	0.226
576	0.224
576	0.222
577	0.22
577	0.218
577	0.217
578	0.216
578	0.214
579	0.214
579	0.212
580	0.21
580	0.208
581	0.206
581	0.205
581	0.204
582	0.203
582	0.202
583	0.201
583	0.2
584	0.198
584	0.196
585	0.195
585	0.194
585	0.192
586	0.191
586	0.19
587	0.188
587	0.187
588	0.185
588	0.184
589	0.182
589	0.182
590	0.181
590	0.18
590	0.179
591	0.179
591	0.177
592	0.176
592	0.174
593	0.174
593	0.173
594	0.171
594	0.17
594	0.169
595	0.168
595	0.167
596	0.165
596	0.165
597	0.165
597	0.164
598	0.163
598	0.162
598	0.161
599	0.16
599	0.159
600	0.158
600	0.158
601	0.157
601	0.156
602	0.155
602	0.154
602	0.153
603	0.152
603	0.151
604	0.151
604	0.15
605	0.15
605	0.149
606	0.148
606	0.147
606	0.146
607	0.146
607	0.145
608	0.144
608	0.143
609	0.142
609	0.142
610	0.141
610	0.14
610	0.139
611	0.139
611	0.138
612	0.138
612	0.138
613	0.138
613	0.137
614	0.137
614	0.136
614	0.135
615	0.135
615	0.134
616	0.133
616	0.133
617	0.132
617	0.131
618	0.13
618	0.13
618	0.13
619	0.13
619	0.129
620	0.129
620	0.129
621	0.128
621	0.127
622	0.126
622	0.125
622	0.125
623	0.124
623	0.123
624	0.123
624	0.122
625	0.121
625	0.121
626	0.12
626	0.12
626	0.12
627	0.12
627	0.119
628	0.119
628	0.118
629	0.118
629	0.117
630	0.117
630	0.116
630	0.116
631	0.115
631	0.115
632	0.114
632	0.114
633	0.113
633	0.113
634	0.113
634	0.113
634	0.112
635	0.112
635	0.111
636	0.111
636	0.111
637	0.11
637	0.11
638	0.109
638	0.109
638	0.109
639	0.108
639	0.108
640	0.108
640	0.107
641	0.107
641	0.107
642	0.106
642	0.106
642	0.106
643	0.105
643	0.105
644	0.105
644	0.104
645	0.104
645	0.104
646	0.103
646	0.103
646	0.103
647	0.103
647	0.102
648	0.102
648	0.101
649	0.101
649	0.101
650	0.1
650	0.1
650	0.1
651	0.1
651	0.099
652	0.099
652	0.098
653	0.099
653	0.1
653	0.107
654	0.086
654	0.07
655	0.068
655	0.068
656	0.068
656	0.068
657	0.068
657	0.068
657	0.068
658	0.066
658	0.057
659	0.072
659	0.09
660	0.095
660	0.095
661	0.094
661	0.093
661	0.093
662	0.092
662	0.092
663	0.091
663	0.09
664	0.09
664	0.089
665	0.089
665	0.089
665	0.088
666	0.088
666	0.088
667	0.088
667	0.088
668	0.089
668	0.089
669	0.089
669	0.089
669	0.089
670	0.09
670	0.09
671	0.09
671	0.089
672	0.089
672	0.088
672	0.088
673	0.088
673	0.087
674	0.087
674	0.086
675	0.086
675	0.086
676	0.086
676	0.086
676	0.085
677	0.085
677	0.084
678	0.084
678	0.083
679	0.083
679	0.082
680	0.082
680	0.082
680	0.081
681	0.081
681	0.081
682	0.081
682	0.082
683	0.082
683	0.083
684	0.083
684	0.083
684	0.083
685	0.083
685	0.083
686	0.083
686	0.082
687	0.081
687	0.081
687	0.08
688	0.08
688	0.079
689	0.079
689	0.08
690	0.079
690	0.079
691	0.079
691	0.08
691	0.08
692	0.08
692	0.08
693	0.08
693	0.081
694	0.08
694	0.08
695	0.08
695	0.081
695	0.081
696	0.081
696	0.08
697	0.08
697	0.08
698	0.079
698	0.078
698	0.078
699	0.078
699	0.078
700	0.077
700	0.078
701	0.078
701	0.078
702	0.077
702	0.077
702	0.077
703	0.077
703	0.076
704	0.076
704	0.076
705	0.075
705	0.075
705	0.074
706	0.074
706	0.074
707	0.074
707	0.074
708	0.074
708	0.074
709	0.074
709	0.073
709	0.072
710	0.072
710	0.072
711	0.072
711	0.072
712	0.072
712	0.072
713	0.071
713	0.071
713	0.071
714	0.071
714	0.071
715	0.071
715	0.071
716	0.071
716	0.071
716	0.071
717	0.07
717	0.07
718	0.069
718	0.069
719	0.069
719	0.07
720	0.07
720	0.07
720	0.07
721	0.07
721	0.07
722	0.07
722	0.07
723	0.071
723	0.071
723	0.071
724	0.071
724	0.071
725	0.07
725	0.069
726	0.068
726	0.068
727	0.067
727	0.066
727	0.066
728	0.065
728	0.065
729	0.064
729	0.064
730	0.064
730	0.064
730	0.064
731	0.064
731	0.064
732	0.065
732	0.065
733	0.065
733	0.065
734	0.065
734	0.065
734	0.065
735	0.066
735	0.066
736	0.066
736	0.066
737	0.066
737	0.066
737	0.066
738	0.066
738	0.065
739	0.064
739	0.064
740	0.063
740	0.063
741	0.063
741	0.062
741	0.061
742	0.061
742	0.061
743	0.062
743	0.062
744	0.063
744	0.064
744	0.064
745	0.064
745	0.064
746	0.064
746	0.065
747	0.065
747	0.065
748	0.065
748	0.065
748	0.064
749	0.064
749	0.064
750	0.063
750	0.063
751	0.063
751	0.062
751	0.062
752	0.061
752	0.061
753	0.06
753	0.06
754	0.06
754	0.06
754	0.06
755	0.06
755	0.06
756	0.059
756	0.058
757	0.057
757	0.056
758	0.056
758	0.055
758	0.055
759	0.055
759	0.054
760	0.054
760	0.054
761	0.054
761	0.055
761	0.056
762	0.057
762	0.057
763	0.058
763	0.058
764	0.058
764	0.058
764	0.058
765	0.057
765	0.057
766	0.056
766	0.056
767	0.055
767	0.054
768	0.052
768	0.052
768	0.052
769	0.051
769	0.051
770	0.051
770	0.051
771	0.051
771	0.051
771	0.052
772	0.052
772	0.053
773	0.053
773	0.053
774	0.053
774	0.053
775	0.053
775	0.053
775	0.053
776	0.053
776	0.053
777	0.053
777	0.053
778	0.052
778	0.052
778	0.052
779	0.052
779	0.052
780	0.051
780	0.051
781	0.05
781	0.05
781	0.05
782	0.05
782	0.05
783	0.051
783	0.051
784	0.052
784	0.052
784	0.052
785	0.053
785	0.053
786	0.053
786	0.053
787	0.053
787	0.053
788	0.052
788	0.052
788	0.052
789	0.051
789	0.052
790	0.052
790	0.052
791	0.052
791	0.051
791	0.051
792	0.052
792	0.052
793	0.052
793	0.052
794	0.051
794	0.051
794	0.051
795	0.051
795	0.051
796	0.051
796	0.05
797	0.05
797	0.049
797	0.049
798	0.049
798	0.049
799	0.049
799	0.048
800	0.048
800	0.047
801	0.047
801	0.047
801	0.048
802	0.048
802	0.049
803	0.049
803	0.05
804	0.051
804	0.052
804	0.052
805	0.052
805	0.052
806	0.051
806	0.051
807	0.05
807	0.05
807	0.049
808	0.049
808	0.048
809	0.048
809	0.048
810	0.048
810	0.048
810	0.048
811	0.048
811	0.048
812	0.049
812	0.049
813	0.05
813	0.05
813	0.05
814	0.051
814	0.052
815	0.052
815	0.053
816	0.053
816	0.053
817	0.053
817	0.053
817	0.052
818	0.052
818	0.052
819	0.051
819	0.05
820	0.049
820	0.048
820	0.048
821	0.047
821	0.047
822	0.047
822	0.047
823	0.046
823	0.046
823	0.047
824	0.047
824	0.048
825	0.049
825	0.049
826	0.049
826	0.049
826	0.049
827	0.049
827	0.049
828	0.048
828	0.048
829	0.048
829	0.048
829	0.048
830	0.048
830	0.048
831	0.049
831	0.049
832	0.049
832	0.05
832	0.05
833	0.05
833	0.05
834	0.05
834	0.05
835	0.05
835	0.05
835	0.05
836	0.051
836	0.051
837	0.051
837	0.051
838	0.051
838	0.05
839	0.05
839	0.049
839	0.048
840	0.047
840	0.046
841	0.044
841	0.044
842	0.043
842	0.042
842	0.042
843	0.042
843	0.042
844	0.043
844	0.043
845	0.043
845	0.043
845	0.044
846	0.044
846	0.043
847	0.043
847	0.044
848	0.044
848	0.044
848	0.044
849	0.045
849	0.045
850	0.045
850	0.045
851	0.046
851	0.046
851	0.046
852	0.045
852	0.044
853	0.044
853	0.043
854	0.043
854	0.042
854	0.042
855	0.042
855	0.042
856	0.042
856	0.042
857	0.043
857	0.043
857	0.043
858	0.043
858	0.043
859	0.042
859	0.042
860	0.041
860	0.041
860	0.04
861	0.04
861	0.039
862	0.039
862	0.038
863	0.037
863	0.037
863	0.037
864	0.037
864	0.036
865	0.036
865	0.036
866	0.036
866	0.035
866	0.035
867	0.036
867	0.036
868	0.036
868	0.037
869	0.037
869	0.038
869	0.038
870	0.039
870	0.039
871	0.04
871	0.041
872	0.041
872	0.042
872	0.042
873	0.042
873	0.042
874	0.042
874	0.042
875	0.042
875	0.041
875	0.041
876	0.041
876	0.041
877	0.041
877	0.041
878	0.042
878	0.042
878	0.043
879	0.044
879	0.045
880	0.045
880	0.045
881	0.045
881	0.045
881	0.045
882	0.044
882	0.043
883	0.042
883	0.041
884	0.04
884	0.039
884	0.038
885	0.037
885	0.037
886	0.036
886	0.036
887	0.035
887	0.035
887	0.034
888	0.034
888	0.033
889	0.033
889	0.033
890	0.034
890	0.034
890	0.035
891	0.035
891	0.036
892	0.036
892	0.037
893	0.038
893	0.039
893	0.039
894	0.04
894	0.04
895	0.039
895	0.039
895	0.039
896	0.039
896	0.039
897	0.038
897	0.037
898	0.037
898	0.036
898	0.036
899	0.035
899	0.035
900	0.035
900	0.035
901	0.035
901	0.035
901	0.036
902	0.036
902	0.036
903	0.036
903	0.037
904	0.037
904	0.037
904	0.037
905	0.037
905	0.038
906	0.038
906	0.038
907	0.039
907	0.04
907	0.04
908	0.04
908	0.041
909	0.041
909	0.042
910	0.042
910	0.042
910	0.042
911	0.041
911	0.041
912	0.041
912	0.04
913	0.04
913	0.039
913	0.039
914	0.039
914	0.038
915	0.038
915	0.038
916	0.038
916	0.037
916	0.037
917	0.036
917	0.036
918	0.035
918	0.035
918	0.034
919	0.034
919	0.034
920	0.034
920	0.034
921	0.035
921	0.035
921	0.036
922	0.036
922	0.037
923	0.038
923	0.038
924	0.039
924	0.039
924	0.039
925	0.04
925	0.04
926	0.04
926	0.04
927	0.039
927	0.039
927	0.039
928	0.038
928	0.038
929	0.038
929	0.037
930	0.037
930	0.037
930	0.036
931	0.036
931	0.036
932	0.036
932	0.036
933	0.036
933	0.036
933	0.036
934	0.036
934	0.036
935	0.035
935	0.035
935	0.035
936	0.035
936	0.035
937	0.035
937	0.035
938	0.035
938	0.035
938	0.035
939	0.036
939	0.036
940	0.037
940	0.037
941	0.038
941	0.039
941	0.039
942	0.039
942	0.039
943	0.039
943	0.039
944	0.039
944	0.039
944	0.039
945	0.039
945	0.039
946	0.039
946	0.039
946	0.039
947	0.04
947	0.04
948	0.041
948	0.041
949	0.041
949	0.042
949	0.042
950	0.042
950	0.042
951	0.042
951	0.041
952	0.041
952	0.041
952	0.04
953	0.04
953	0.039
954	0.039
954	0.038
955	0.038
955	0.038
955	0.038
956	0.039
956	0.039
957	0.04
957	0.041
957	0.041
958	0.042
958	0.042
959	0.043
959	0.043
960	0.043
960	0.043
960	0.042
961	0.042
961	0.042
962	0.041
962	0.041
963	0.041
963	0.041
963	0.041
964	0.041
964	0.041
965	0.041
965	0.041
966	0.041
966	0.041
966	0.041
967	0.042
967	0.042
968	0.042
968	0.042
968	0.042
969	0.042
969	0.042
970	0.042
970	0.042
971	0.042
971	0.042
971	0.042
972	0.042
972	0.042
973	0.043
973	0.043
974	0.043
974	0.044
974	0.044
975	0.044
975	0.044
976	0.044
976	0.045
976	0.045
977	0.044
977	0.044
978	0.044
978	0.043
979	0.043
979	0.043
979	0.042
980	0.042
980	0.041
981	0.04
981	0.04
982	0.04
982	0.039
982	0.039
983	0.039
983	0.038
984	0.038
984	0.037
984	0.037
985	0.037
985	0.037
986	0.036
986	0.036
987	0.035
987	0.034
987	0.034
988	0.033
988	0.032
989	0.032
989	0.031
990	0.03
990	0.03
990	0.029
991	0.029
991	0.029
992	0.029
992	0.029
992	0.029
993	0.029
993	0.029
994	0.029
994	0.029
995	0.029
995	0.028
995	0.029
996	0.029
996	0.029
997	0.029
997	0.03
997	0.03
998	0.031
998	0.032
999	0.033
999	0.034
1000	0.035
1000	0.036
1000	0.037
1001	0.038
1001	0.039
1002	0.039
1002	0.04
1003	0.04
1003	0.04
1003	0.039
1004	0.039
1004	0.039
1005	0.038
1005	0.038
1005	0.038
1006	0.037
1006	0.037
1007	0.037
1007	0.037
1008	0.037
1008	0.037
1008	0.037
1009	0.037
1009	0.036
1010	0.036
1010	0.036
1010	0.036
1011	0.036
1011	0.035
1012	0.035
1012	0.035
1013	0.035
1013	0.035
1013	0.034
1014	0.034
1014	0.034
1015	0.034
1015	0.034
1016	0.034
1016	0.034
1016	0.034
1017	0.034
1017	0.033
1018	0.033
1018	0.033
1018	0.033
1019	0.032
1019	0.032
1020	0.032
1020	0.031
1021	0.031
1021	0.031
1021	0.031
1022	0.031
1022	0.031
1023	0.031
1023	0.031
1023	0.032
1024	0.032
1024	0.032
1025	0.032
1025	0.032
1026	0.032
1026	0.031
1026	0.031
1027	0.031
1027	0.031
1028	0.03
1028	0.03
1028	0.03
1029	0.03
1029	0.03
1030	0.029
1030	0.029
1031	0.03
1031	0.03
1031	0.03
1032	0.03
1032	0.03
1033	0.03
1033	0.03
1033	0.03
1034	0.03
1034	0.03
1035	0.03
1035	0.03
1036	0.03
1036	0.03
1036	0.03
1037	0.03
1037	0.03
1038	0.03
1038	0.03
1039	0.03
1039	0.03
1039	0.031
1040	0.031
1040	0.031
1041	0.031
1041	0.031
1041	0.031
1042	0.031
1042	0.031
1043	0.03
1043	0.03
1044	0.03
1044	0.03
1044	0.031
1045	0.031
1045	0.031
1046	0.032
1046	0.032
1046	0.033
1047	0.033
1047	0.034
1048	0.034
1048	0.035
1049	0.035
1049	0.035
1049	0.035
1050	0.035
1050	0.035
1051	0.034
1051	0.034
1051	0.033
1052	0.032
1052	0.032
1053	0.031
1053	0.03
1053	0.029
1054	0.028
1054	0.028
1055	0.028
1055	0.028
1056	0.027
1056	0.027
1056	0.027
1057	0.027
1057	0.026
1058	0.026
1058	0.026
1058	0.025
1059	0.025
1059	0.024
1060	0.024
1060	0.023
1061	0.023
1061	0.023
1061	0.022
1062	0.022
1062	0.022
1063	0.022
1063	0.022
1063	0.022
1064	0.022
1064	0.023
1065	0.023
1065	0.023
1066	0.023
1066	0.024
1066	0.023
1067	0.023
1067	0.023
1068	0.023
1068	0.023
1068	0.023
1069	0.022
1069	0.022
1070	0.021
1070	0.021
1071	0.02
1071	0.02
1071	0.019
1072	0.019
1072	0.018
1073	0.017
1073	0.017
1073	0.016
1074	0.016
1074	0.017
1075	0.016
1075	0.017
1076	0.017
1076	0.018
1076	0.018
1077	0.018
1077	0.018
1078	0.018
1078	0.019
1078	0.019
1079	0.019
1079	0.019
1080	0.019
1080	0.019
1080	0.019
1081	0.019
1081	0.019
1082	0.019
1082	0.019
1083	0.019
1083	0.019
1083	0.019
1084	0.018
1084	0.018
1085	0.018
1085	0.018
1085	0.018
1086	0.018
1086	0.017
1087	0.017
1087	0.016
1088	0.016
1088	0.015
1088	0.015
1089	0.015
1089	0.014
1090	0.013
1090	0.013
1090	0.012
1091	0.013
1091	0.012
1092	0.012
1092	0.012
1092	0.012
1093	0.012
1093	0.012
1094	0.012
1094	0.012
1095	0.012
1095	0.012
1095	0.011
1096	0.011
1096	0.01
1097	0.01
1097	0.009
1097	0.009
1098	0.008
1098	0.007
1099	0.007
1099	0.005
1100	0.005
1100	0.003
1100	0.002
1101	0.001
1101	0
1102	0
1102	-0.001
1102	-0.002
1103	-0.002
1103	-0.003
1104	-0.003
1104	-0.003
1104	-0.004
1105	-0.005
1105	-0.007
1106	-0.008
1106	-0.01
1107	-0.011
1107	-0.012
1107	-0.014
1108	-0.015
1108	-0.017
1109	-0.018
1109	-0.019
1109	-0.019
1110	-0.018
1110	-0.021
1111	-0.02
1111	-0.02
