Data from reversibility-20sec_Absorbance__7608__000000000007608.txt Node

Date: Thu Dec 07 06:29:06 CET 2023
User: Marek
Spectrometer: MAYP115816
Trigger mode: 0
Integration Time (sec): 2.000000E-1
Scans to average: 10
Electric dark correction enabled: true
Nonlinearity correction enabled: true
Boxcar width: 5
XAxis mode: Wavelengths
Number of Pixels in Spectrum: 2068
>>>>>Begin Spectral Data<<<<<
199	-0.055
199	-0.042
200	0.018
200	0.063
201	0.089
201	0.108
202	0.111
202	0.119
203	0.123
203	0.125
204	0.14
204	0.148
205	0.159
205	0.163
205	0.16
206	0.161
206	0.158
207	0.159
207	0.158
208	0.16
208	0.161
209	0.16
209	0.16
210	0.162
210	0.162
211	0.165
211	0.167
212	0.166
212	0.169
213	0.175
213	0.175
213	0.179
214	0.183
214	0.185
215	0.188
215	0.188
216	0.186
216	0.185
217	0.19
217	0.193
218	0.189
218	0.193
219	0.193
219	0.192
220	0.194
220	0.192
221	0.193
221	0.197
221	0.203
222	0.206
222	0.21
223	0.217
223	0.219
224	0.225
224	0.234
225	0.243
225	0.255
226	0.268
226	0.282
227	0.288
227	0.299
228	0.311
228	0.327
229	0.345
229	0.367
229	0.389
230	0.416
230	0.444
231	0.473
231	0.507
232	0.548
232	0.591
233	0.636
233	0.686
234	0.736
234	0.789
235	0.842
235	0.895
236	0.941
236	0.994
236	1.045
237	1.095
237	1.142
238	1.189
238	1.233
239	1.277
239	1.316
240	1.352
240	1.387
241	1.424
241	1.457
242	1.489
242	1.523
243	1.552
243	1.577
243	1.599
244	1.62
244	1.641
245	1.66
245	1.68
246	1.699
246	1.716
247	1.729
247	1.739
248	1.754
248	1.767
249	1.777
249	1.784
250	1.792
250	1.801
250	1.804
251	1.806
251	1.808
252	1.811
252	1.809
253	1.809
253	1.806
254	1.804
254	1.804
255	1.802
255	1.798
256	1.799
256	1.799
257	1.797
257	1.796
258	1.798
258	1.798
258	1.797
259	1.798
259	1.798
260	1.796
260	1.799
261	1.799
261	1.8
262	1.804
262	1.806
263	1.808
263	1.809
264	1.811
264	1.812
265	1.813
265	1.815
265	1.816
266	1.815
266	1.814
267	1.813
267	1.813
268	1.812
268	1.811
269	1.811
269	1.81
270	1.81
270	1.809
271	1.808
271	1.806
272	1.803
272	1.8
272	1.795
273	1.789
273	1.783
274	1.776
274	1.769
275	1.761
275	1.754
276	1.744
276	1.737
277	1.73
277	1.72
278	1.709
278	1.696
278	1.681
279	1.664
279	1.642
280	1.614
280	1.579
281	1.54
281	1.497
282	1.451
282	1.406
283	1.36
283	1.316
284	1.274
284	1.233
285	1.196
285	1.162
285	1.132
286	1.106
286	1.083
287	1.063
287	1.046
288	1.032
288	1.019
289	1.009
289	1
290	0.993
290	0.986
291	0.98
291	0.974
292	0.97
292	0.965
292	0.961
293	0.957
293	0.954
294	0.95
294	0.947
295	0.944
295	0.941
296	0.938
296	0.934
297	0.931
297	0.929
298	0.926
298	0.923
298	0.92
299	0.917
299	0.915
300	0.912
300	0.909
301	0.907
301	0.904
302	0.902
302	0.899
303	0.897
303	0.895
304	0.892
304	0.89
305	0.888
305	0.886
305	0.883
306	0.881
306	0.879
307	0.877
307	0.874
308	0.872
308	0.87
309	0.867
309	0.864
310	0.861
310	0.858
311	0.855
311	0.852
311	0.849
312	0.845
312	0.842
313	0.838
313	0.834
314	0.83
314	0.826
315	0.822
315	0.818
316	0.814
316	0.809
317	0.804
317	0.799
318	0.794
318	0.789
318	0.784
319	0.779
319	0.773
320	0.768
320	0.762
321	0.756
321	0.749
322	0.743
322	0.737
323	0.731
323	0.724
324	0.718
324	0.711
324	0.704
325	0.697
325	0.69
326	0.683
326	0.676
327	0.669
327	0.662
328	0.655
328	0.647
329	0.64
329	0.633
330	0.625
330	0.618
330	0.611
331	0.604
331	0.597
332	0.59
332	0.582
333	0.575
333	0.568
334	0.561
334	0.554
335	0.547
335	0.54
336	0.534
336	0.527
336	0.52
337	0.514
337	0.507
338	0.501
338	0.494
339	0.488
339	0.482
340	0.476
340	0.471
341	0.465
341	0.459
342	0.454
342	0.448
342	0.443
343	0.438
343	0.432
344	0.427
344	0.423
345	0.418
345	0.413
346	0.408
346	0.404
347	0.399
347	0.395
348	0.391
348	0.386
348	0.382
349	0.378
349	0.374
350	0.371
350	0.367
351	0.364
351	0.361
352	0.358
352	0.355
353	0.352
353	0.349
354	0.346
354	0.343
354	0.341
355	0.338
355	0.335
356	0.332
356	0.33
357	0.326
357	0.323
358	0.321
358	0.318
359	0.316
359	0.314
360	0.312
360	0.31
360	0.308
361	0.306
361	0.304
362	0.303
362	0.302
363	0.3
363	0.298
364	0.296
364	0.294
365	0.292
365	0.29
366	0.289
366	0.287
366	0.285
367	0.284
367	0.282
368	0.28
368	0.279
369	0.277
369	0.276
370	0.275
370	0.274
371	0.272
371	0.271
372	0.27
372	0.269
372	0.268
373	0.267
373	0.266
374	0.265
374	0.264
375	0.263
375	0.262
376	0.262
376	0.261
377	0.26
377	0.259
378	0.258
378	0.257
378	0.257
379	0.256
379	0.255
380	0.254
380	0.254
381	0.253
381	0.253
382	0.252
382	0.252
383	0.251
383	0.251
383	0.25
384	0.249
384	0.249
385	0.249
385	0.249
386	0.248
386	0.248
387	0.247
387	0.247
388	0.246
388	0.246
389	0.246
389	0.246
389	0.245
390	0.245
390	0.245
391	0.244
391	0.244
392	0.244
392	0.244
393	0.243
393	0.243
394	0.243
394	0.243
394	0.242
395	0.242
395	0.242
396	0.241
396	0.241
397	0.241
397	0.24
398	0.24
398	0.24
399	0.239
399	0.239
400	0.239
400	0.239
400	0.238
401	0.238
401	0.238
402	0.238
402	0.238
403	0.237
403	0.237
404	0.237
404	0.236
405	0.236
405	0.236
405	0.236
406	0.236
406	0.236
407	0.236
407	0.235
408	0.235
408	0.235
409	0.234
409	0.234
410	0.234
410	0.234
411	0.233
411	0.233
411	0.233
412	0.233
412	0.232
413	0.232
413	0.232
414	0.232
414	0.231
415	0.231
415	0.231
416	0.231
416	0.23
416	0.23
417	0.23
417	0.23
418	0.229
418	0.229
419	0.228
419	0.228
420	0.228
420	0.227
421	0.226
421	0.226
421	0.226
422	0.225
422	0.225
423	0.225
423	0.224
424	0.224
424	0.224
425	0.223
425	0.223
426	0.223
426	0.223
427	0.223
427	0.222
427	0.222
428	0.221
428	0.221
429	0.221
429	0.22
430	0.22
430	0.219
431	0.219
431	0.219
432	0.219
432	0.219
432	0.218
433	0.218
433	0.218
434	0.218
434	0.218
435	0.218
435	0.217
436	0.217
436	0.217
437	0.217
437	0.216
437	0.216
438	0.216
438	0.216
439	0.216
439	0.215
440	0.215
440	0.214
441	0.214
441	0.214
442	0.213
442	0.213
442	0.213
443	0.213
443	0.213
444	0.212
444	0.212
445	0.212
445	0.212
446	0.212
446	0.212
447	0.211
447	0.211
447	0.211
448	0.211
448	0.211
449	0.21
449	0.21
450	0.21
450	0.21
451	0.21
451	0.21
452	0.209
452	0.209
452	0.209
453	0.209
453	0.208
454	0.208
454	0.208
455	0.207
455	0.207
456	0.207
456	0.207
457	0.206
457	0.206
458	0.206
458	0.205
458	0.205
459	0.205
459	0.205
460	0.204
460	0.204
461	0.204
461	0.204
462	0.204
462	0.204
463	0.204
463	0.203
463	0.203
464	0.203
464	0.202
465	0.202
465	0.202
466	0.201
466	0.201
467	0.201
467	0.201
467	0.201
468	0.201
468	0.201
469	0.201
469	0.201
470	0.201
470	0.201
471	0.201
471	0.201
472	0.201
472	0.201
472	0.201
473	0.201
473	0.2
474	0.2
474	0.2
475	0.2
475	0.199
476	0.199
476	0.199
477	0.199
477	0.199
477	0.199
478	0.199
478	0.199
479	0.199
479	0.199
480	0.199
480	0.199
481	0.199
481	0.199
482	0.199
482	0.199
482	0.199
483	0.199
483	0.199
484	0.199
484	0.198
485	0.198
485	0.198
486	0.198
486	0.198
487	0.198
487	0.198
487	0.198
488	0.198
488	0.197
489	0.198
489	0.198
490	0.198
490	0.199
491	0.199
491	0.2
492	0.2
492	0.2
492	0.201
493	0.201
493	0.201
494	0.202
494	0.202
495	0.202
495	0.202
496	0.202
496	0.203
496	0.203
497	0.203
497	0.203
498	0.203
498	0.203
499	0.204
499	0.204
500	0.205
500	0.205
501	0.205
501	0.206
501	0.206
502	0.206
502	0.206
503	0.207
503	0.207
504	0.207
504	0.207
505	0.208
505	0.208
506	0.208
506	0.209
506	0.209
507	0.209
507	0.209
508	0.209
508	0.21
509	0.21
509	0.21
510	0.21
510	0.21
511	0.211
511	0.211
511	0.211
512	0.212
512	0.212
513	0.213
513	0.213
514	0.214
514	0.214
515	0.214
515	0.215
515	0.215
516	0.216
516	0.216
517	0.216
517	0.217
518	0.217
518	0.217
519	0.217
519	0.217
520	0.217
520	0.217
520	0.218
521	0.218
521	0.218
522	0.218
522	0.218
523	0.219
523	0.219
524	0.219
524	0.22
524	0.22
525	0.22
525	0.22
526	0.22
526	0.22
527	0.221
527	0.221
528	0.221
528	0.221
529	0.221
529	0.221
529	0.221
530	0.221
530	0.221
531	0.221
531	0.221
532	0.22
532	0.22
533	0.22
533	0.22
533	0.22
534	0.22
534	0.22
535	0.22
535	0.22
536	0.22
536	0.221
537	0.221
537	0.221
538	0.221
538	0.22
538	0.22
539	0.221
539	0.221
540	0.22
540	0.22
541	0.22
541	0.22
542	0.22
542	0.22
542	0.22
543	0.22
543	0.22
544	0.22
544	0.22
545	0.22
545	0.22
546	0.22
546	0.219
547	0.219
547	0.218
547	0.218
548	0.218
548	0.218
549	0.218
549	0.217
550	0.217
550	0.217
551	0.217
551	0.216
551	0.217
552	0.217
552	0.216
553	0.216
553	0.216
554	0.216
554	0.215
555	0.215
555	0.215
556	0.214
556	0.214
556	0.214
557	0.214
557	0.214
558	0.214
558	0.214
559	0.215
559	0.214
560	0.214
560	0.214
560	0.214
561	0.214
561	0.214
562	0.213
562	0.212
563	0.211
563	0.211
564	0.21
564	0.21
564	0.21
565	0.21
565	0.209
566	0.209
566	0.209
567	0.209
567	0.21
568	0.209
568	0.209
568	0.209
569	0.209
569	0.209
570	0.208
570	0.207
571	0.206
571	0.206
572	0.206
572	0.205
573	0.205
573	0.205
573	0.204
574	0.204
574	0.204
575	0.204
575	0.204
576	0.204
576	0.203
577	0.202
577	0.202
577	0.201
578	0.201
578	0.2
579	0.201
579	0.201
580	0.201
580	0.2
581	0.2
581	0.2
581	0.2
582	0.2
582	0.2
583	0.2
583	0.2
584	0.199
584	0.198
585	0.198
585	0.198
585	0.198
586	0.197
586	0.197
587	0.197
587	0.196
588	0.196
588	0.196
589	0.195
589	0.195
590	0.195
590	0.195
590	0.195
591	0.195
591	0.195
592	0.194
592	0.194
593	0.193
593	0.193
594	0.193
594	0.192
594	0.192
595	0.191
595	0.191
596	0.19
596	0.191
597	0.191
597	0.192
598	0.192
598	0.192
598	0.192
599	0.192
599	0.191
600	0.191
600	0.191
601	0.19
601	0.19
602	0.19
602	0.189
602	0.189
603	0.189
603	0.189
604	0.189
604	0.189
605	0.189
605	0.189
606	0.188
606	0.187
606	0.187
607	0.187
607	0.187
608	0.186
608	0.186
609	0.185
609	0.185
610	0.185
610	0.184
610	0.184
611	0.185
611	0.185
612	0.185
612	0.185
613	0.185
613	0.185
614	0.185
614	0.185
614	0.185
615	0.186
615	0.186
616	0.186
616	0.186
617	0.186
617	0.185
618	0.185
618	0.185
618	0.185
619	0.185
619	0.185
620	0.185
620	0.184
621	0.184
621	0.183
622	0.183
622	0.183
622	0.182
623	0.182
623	0.182
624	0.181
624	0.181
625	0.181
625	0.181
626	0.181
626	0.181
626	0.182
627	0.182
627	0.182
628	0.182
628	0.182
629	0.182
629	0.181
630	0.181
630	0.181
630	0.181
631	0.181
631	0.18
632	0.18
632	0.179
633	0.179
633	0.179
634	0.18
634	0.18
634	0.18
635	0.18
635	0.179
636	0.179
636	0.179
637	0.179
637	0.179
638	0.178
638	0.178
638	0.178
639	0.177
639	0.177
640	0.177
640	0.177
641	0.177
641	0.176
642	0.176
642	0.176
642	0.176
643	0.176
643	0.177
644	0.177
644	0.177
645	0.177
645	0.178
646	0.178
646	0.179
646	0.179
647	0.179
647	0.178
648	0.178
648	0.177
649	0.177
649	0.177
650	0.176
650	0.176
650	0.176
651	0.176
651	0.176
652	0.176
652	0.177
653	0.177
653	0.179
653	0.184
654	0.145
654	0.116
655	0.117
655	0.117
656	0.117
656	0.118
657	0.118
657	0.118
657	0.118
658	0.117
658	0.108
659	0.136
659	0.173
660	0.178
660	0.178
661	0.177
661	0.176
661	0.176
662	0.176
662	0.175
663	0.175
663	0.175
664	0.174
664	0.174
665	0.174
665	0.174
665	0.174
666	0.175
666	0.175
667	0.175
667	0.175
668	0.175
668	0.175
669	0.175
669	0.176
669	0.176
670	0.177
670	0.176
671	0.176
671	0.176
672	0.175
672	0.175
672	0.175
673	0.174
673	0.174
674	0.174
674	0.174
675	0.173
675	0.173
676	0.174
676	0.174
676	0.174
677	0.174
677	0.175
678	0.175
678	0.174
679	0.174
679	0.174
680	0.174
680	0.174
680	0.174
681	0.174
681	0.174
682	0.174
682	0.174
683	0.174
683	0.175
684	0.175
684	0.175
684	0.174
685	0.175
685	0.175
686	0.175
686	0.175
687	0.175
687	0.175
687	0.175
688	0.176
688	0.176
689	0.177
689	0.177
690	0.177
690	0.177
691	0.177
691	0.177
691	0.177
692	0.177
692	0.177
693	0.177
693	0.178
694	0.178
694	0.178
695	0.179
695	0.18
695	0.18
696	0.18
696	0.18
697	0.18
697	0.18
698	0.18
698	0.179
698	0.179
699	0.179
699	0.179
700	0.178
700	0.178
701	0.177
701	0.177
702	0.176
702	0.176
702	0.176
703	0.175
703	0.175
704	0.174
704	0.174
705	0.174
705	0.174
705	0.173
706	0.173
706	0.174
707	0.174
707	0.174
708	0.174
708	0.175
709	0.175
709	0.175
709	0.175
710	0.175
710	0.176
711	0.177
711	0.177
712	0.177
712	0.178
713	0.178
713	0.178
713	0.179
714	0.179
714	0.179
715	0.178
715	0.178
716	0.177
716	0.177
716	0.176
717	0.175
717	0.175
718	0.174
718	0.174
719	0.174
719	0.175
720	0.175
720	0.176
720	0.177
721	0.177
721	0.179
722	0.18
722	0.18
723	0.181
723	0.181
723	0.181
724	0.181
724	0.18
725	0.179
725	0.178
726	0.178
726	0.177
727	0.176
727	0.176
727	0.175
728	0.175
728	0.175
729	0.176
729	0.176
730	0.176
730	0.177
730	0.177
731	0.178
731	0.178
732	0.179
732	0.179
733	0.179
733	0.18
734	0.18
734	0.18
734	0.181
735	0.181
735	0.181
736	0.18
736	0.18
737	0.18
737	0.18
737	0.18
738	0.179
738	0.179
739	0.179
739	0.179
740	0.178
740	0.179
741	0.179
741	0.18
741	0.18
742	0.18
742	0.182
743	0.183
743	0.184
744	0.184
744	0.185
744	0.185
745	0.185
745	0.185
746	0.185
746	0.185
747	0.185
747	0.184
748	0.184
748	0.184
748	0.183
749	0.183
749	0.183
750	0.184
750	0.184
751	0.184
751	0.184
751	0.185
752	0.185
752	0.184
753	0.184
753	0.184
754	0.184
754	0.183
754	0.183
755	0.183
755	0.183
756	0.182
756	0.182
757	0.181
757	0.182
758	0.182
758	0.182
758	0.182
759	0.182
759	0.181
760	0.181
760	0.181
761	0.181
761	0.182
761	0.182
762	0.182
762	0.183
763	0.183
763	0.183
764	0.183
764	0.183
764	0.183
765	0.183
765	0.183
766	0.183
766	0.183
767	0.182
767	0.182
768	0.181
768	0.181
768	0.182
769	0.182
769	0.182
770	0.182
770	0.183
771	0.183
771	0.183
771	0.184
772	0.184
772	0.185
773	0.185
773	0.185
774	0.185
774	0.186
775	0.186
775	0.186
775	0.186
776	0.186
776	0.187
777	0.188
777	0.188
778	0.188
778	0.189
778	0.189
779	0.189
779	0.189
780	0.188
780	0.187
781	0.187
781	0.186
781	0.185
782	0.185
782	0.185
783	0.185
783	0.186
784	0.186
784	0.186
784	0.187
785	0.187
785	0.188
786	0.188
786	0.188
787	0.188
787	0.188
788	0.188
788	0.187
788	0.187
789	0.187
789	0.187
790	0.187
790	0.187
791	0.187
791	0.187
791	0.187
792	0.188
792	0.188
793	0.188
793	0.188
794	0.188
794	0.188
794	0.188
795	0.189
795	0.189
796	0.189
796	0.189
797	0.189
797	0.189
797	0.189
798	0.189
798	0.189
799	0.189
799	0.189
800	0.188
800	0.188
801	0.188
801	0.189
801	0.189
802	0.189
802	0.19
803	0.19
803	0.191
804	0.192
804	0.192
804	0.192
805	0.192
805	0.192
806	0.192
806	0.192
807	0.192
807	0.191
807	0.191
808	0.191
808	0.191
809	0.19
809	0.191
810	0.191
810	0.191
810	0.191
811	0.191
811	0.192
812	0.192
812	0.193
813	0.193
813	0.194
813	0.194
814	0.195
814	0.196
815	0.196
815	0.196
816	0.196
816	0.196
817	0.195
817	0.195
817	0.194
818	0.194
818	0.194
819	0.193
819	0.193
820	0.192
820	0.192
820	0.192
821	0.192
821	0.193
822	0.193
822	0.193
823	0.193
823	0.194
823	0.194
824	0.195
824	0.197
825	0.198
825	0.199
826	0.2
826	0.2
826	0.2
827	0.201
827	0.202
828	0.202
828	0.203
829	0.203
829	0.203
829	0.203
830	0.203
830	0.203
831	0.204
831	0.203
832	0.203
832	0.203
832	0.203
833	0.203
833	0.202
834	0.202
834	0.202
835	0.201
835	0.201
835	0.2
836	0.2
836	0.2
837	0.199
837	0.199
838	0.198
838	0.197
839	0.196
839	0.195
839	0.194
840	0.194
840	0.193
841	0.192
841	0.192
842	0.191
842	0.19
842	0.19
843	0.19
843	0.189
844	0.189
844	0.189
845	0.189
845	0.189
845	0.19
846	0.19
846	0.191
847	0.191
847	0.192
848	0.192
848	0.192
848	0.192
849	0.192
849	0.192
850	0.191
850	0.191
851	0.19
851	0.19
851	0.189
852	0.189
852	0.189
853	0.189
853	0.189
854	0.19
854	0.19
854	0.191
855	0.192
855	0.193
856	0.194
856	0.195
857	0.196
857	0.197
857	0.198
858	0.199
858	0.199
859	0.199
859	0.199
860	0.199
860	0.199
860	0.199
861	0.199
861	0.198
862	0.198
862	0.197
863	0.196
863	0.196
863	0.196
864	0.195
864	0.195
865	0.195
865	0.195
866	0.195
866	0.195
866	0.195
867	0.195
867	0.196
868	0.196
868	0.195
869	0.195
869	0.195
869	0.194
870	0.194
870	0.193
871	0.193
871	0.193
872	0.193
872	0.193
872	0.193
873	0.193
873	0.192
874	0.192
874	0.192
875	0.191
875	0.191
875	0.191
876	0.191
876	0.19
877	0.19
877	0.19
878	0.189
878	0.189
878	0.19
879	0.19
879	0.19
880	0.19
880	0.19
881	0.19
881	0.19
881	0.191
882	0.191
882	0.191
883	0.191
883	0.192
884	0.192
884	0.193
884	0.193
885	0.193
885	0.193
886	0.193
886	0.193
887	0.192
887	0.192
887	0.191
888	0.191
888	0.19
889	0.19
889	0.19
890	0.19
890	0.19
890	0.19
891	0.19
891	0.19
892	0.19
892	0.191
893	0.191
893	0.191
893	0.19
894	0.19
894	0.189
895	0.189
895	0.188
895	0.188
896	0.188
896	0.187
897	0.187
897	0.187
898	0.186
898	0.186
898	0.185
899	0.185
899	0.184
900	0.184
900	0.184
901	0.183
901	0.183
901	0.183
902	0.183
902	0.183
903	0.183
903	0.183
904	0.183
904	0.183
904	0.183
905	0.183
905	0.183
906	0.183
906	0.183
907	0.183
907	0.183
907	0.183
908	0.182
908	0.182
909	0.182
909	0.181
910	0.181
910	0.18
910	0.18
911	0.179
911	0.179
912	0.178
912	0.177
913	0.177
913	0.176
913	0.176
914	0.176
914	0.175
915	0.175
915	0.175
916	0.175
916	0.175
916	0.175
917	0.175
917	0.174
918	0.174
918	0.174
918	0.174
919	0.174
919	0.173
920	0.173
920	0.173
921	0.173
921	0.173
921	0.173
922	0.173
922	0.173
923	0.173
923	0.173
924	0.173
924	0.173
924	0.173
925	0.174
925	0.174
926	0.174
926	0.174
927	0.174
927	0.174
927	0.174
928	0.174
928	0.174
929	0.174
929	0.175
930	0.175
930	0.175
930	0.174
931	0.174
931	0.174
932	0.174
932	0.173
933	0.173
933	0.173
933	0.172
934	0.172
934	0.171
935	0.171
935	0.17
935	0.17
936	0.17
936	0.169
937	0.168
937	0.168
938	0.167
938	0.166
938	0.166
939	0.165
939	0.164
940	0.164
940	0.164
941	0.163
941	0.164
941	0.164
942	0.164
942	0.164
943	0.165
943	0.165
944	0.165
944	0.165
944	0.165
945	0.166
945	0.166
946	0.165
946	0.165
946	0.165
947	0.164
947	0.164
948	0.164
948	0.164
949	0.163
949	0.162
949	0.162
950	0.161
950	0.16
951	0.16
951	0.159
952	0.158
952	0.158
952	0.157
953	0.156
953	0.156
954	0.155
954	0.155
955	0.155
955	0.155
955	0.155
956	0.156
956	0.157
957	0.158
957	0.159
957	0.159
958	0.16
958	0.161
959	0.162
959	0.162
960	0.162
960	0.162
960	0.163
961	0.162
961	0.162
962	0.162
962	0.161
963	0.161
963	0.16
963	0.16
964	0.159
964	0.159
965	0.159
965	0.158
966	0.158
966	0.158
966	0.158
967	0.158
967	0.158
968	0.158
968	0.158
968	0.158
969	0.157
969	0.157
970	0.156
970	0.155
971	0.154
971	0.153
971	0.152
972	0.151
972	0.15
973	0.15
973	0.149
974	0.149
974	0.149
974	0.149
975	0.149
975	0.149
976	0.149
976	0.15
976	0.15
977	0.15
977	0.15
978	0.15
978	0.15
979	0.15
979	0.15
979	0.15
980	0.15
980	0.15
981	0.15
981	0.15
982	0.15
982	0.15
982	0.15
983	0.15
983	0.15
984	0.15
984	0.15
984	0.149
985	0.149
985	0.149
986	0.149
986	0.148
987	0.148
987	0.147
987	0.147
988	0.147
988	0.146
989	0.146
989	0.146
990	0.145
990	0.145
990	0.145
991	0.144
991	0.144
992	0.144
992	0.143
992	0.142
993	0.142
993	0.141
994	0.14
994	0.139
995	0.139
995	0.138
995	0.138
996	0.138
996	0.138
997	0.138
997	0.138
997	0.138
998	0.139
998	0.139
999	0.14
999	0.141
1000	0.141
1000	0.142
1000	0.143
1001	0.143
1001	0.144
1002	0.144
1002	0.144
1003	0.144
1003	0.144
1003	0.144
1004	0.143
1004	0.143
1005	0.142
1005	0.142
1005	0.141
1006	0.141
1006	0.14
1007	0.14
1007	0.14
1008	0.139
1008	0.139
1008	0.139
1009	0.139
1009	0.138
1010	0.138
1010	0.137
1010	0.137
1011	0.136
1011	0.136
1012	0.135
1012	0.135
1013	0.134
1013	0.134
1013	0.133
1014	0.133
1014	0.132
1015	0.132
1015	0.132
1016	0.132
1016	0.132
1016	0.132
1017	0.131
1017	0.131
1018	0.131
1018	0.131
1018	0.131
1019	0.131
1019	0.131
1020	0.131
1020	0.131
1021	0.131
1021	0.132
1021	0.132
1022	0.132
1022	0.132
1023	0.132
1023	0.132
1023	0.132
1024	0.132
1024	0.132
1025	0.132
1025	0.132
1026	0.132
1026	0.132
1026	0.132
1027	0.132
1027	0.132
1028	0.132
1028	0.132
1028	0.132
1029	0.132
1029	0.132
1030	0.132
1030	0.132
1031	0.132
1031	0.132
1031	0.132
1032	0.131
1032	0.131
1033	0.131
1033	0.131
1033	0.131
1034	0.131
1034	0.131
1035	0.131
1035	0.131
1036	0.13
1036	0.13
1036	0.13
1037	0.13
1037	0.129
1038	0.129
1038	0.129
1039	0.128
1039	0.128
1039	0.128
1040	0.128
1040	0.127
1041	0.127
1041	0.127
1041	0.127
1042	0.127
1042	0.126
1043	0.126
1043	0.126
1044	0.125
1044	0.125
1044	0.125
1045	0.124
1045	0.124
1046	0.123
1046	0.123
1046	0.123
1047	0.123
1047	0.122
1048	0.122
1048	0.122
1049	0.122
1049	0.122
1049	0.122
1050	0.121
1050	0.121
1051	0.121
1051	0.12
1051	0.12
1052	0.12
1052	0.119
1053	0.118
1053	0.118
1053	0.118
1054	0.117
1054	0.116
1055	0.116
1055	0.115
1056	0.115
1056	0.114
1056	0.113
1057	0.113
1057	0.112
1058	0.112
1058	0.111
1058	0.11
1059	0.11
1059	0.109
1060	0.109
1060	0.108
1061	0.108
1061	0.108
1061	0.108
1062	0.108
1062	0.108
1063	0.107
1063	0.107
1063	0.107
1064	0.107
1064	0.106
1065	0.106
1065	0.106
1066	0.106
1066	0.106
1066	0.105
1067	0.105
1067	0.105
1068	0.105
1068	0.105
1068	0.105
1069	0.105
1069	0.105
1070	0.104
1070	0.104
1071	0.104
1071	0.104
1071	0.104
1072	0.103
1072	0.103
1073	0.103
1073	0.102
1073	0.102
1074	0.103
1074	0.103
1075	0.103
1075	0.103
1076	0.104
1076	0.105
1076	0.105
1077	0.105
1077	0.105
1078	0.106
1078	0.106
1078	0.106
1079	0.105
1079	0.105
1080	0.104
1080	0.104
1080	0.104
1081	0.104
1081	0.104
1082	0.104
1082	0.104
1083	0.103
1083	0.103
1083	0.103
1084	0.103
1084	0.104
1085	0.103
1085	0.103
1085	0.104
1086	0.104
1086	0.104
1087	0.103
1087	0.103
1088	0.103
1088	0.103
1088	0.103
1089	0.102
1089	0.101
1090	0.1
1090	0.099
1090	0.098
1091	0.098
1091	0.098
1092	0.098
1092	0.099
1092	0.099
1093	0.099
1093	0.099
1094	0.099
1094	0.099
1095	0.099
1095	0.099
1095	0.098
1096	0.097
1096	0.096
1097	0.096
1097	0.094
1097	0.094
1098	0.093
1098	0.092
1099	0.092
1099	0.09
1100	0.089
1100	0.088
1100	0.088
1101	0.088
1101	0.086
1102	0.086
1102	0.085
1102	0.084
1103	0.083
1103	0.082
1104	0.082
1104	0.082
1104	0.082
1105	0.081
1105	0.079
1106	0.077
1106	0.075
1107	0.075
1107	0.075
1107	0.075
1108	0.074
1108	0.073
1109	0.073
1109	0.073
1109	0.071
1110	0.073
1110	0.074
1111	0.074
1111	0.07
