Data from reversibility-20sec_Absorbance__1707__000000000001707.txt Node

Date: Tue Dec 05 21:42:05 CET 2023
User: Marek
Spectrometer: MAYP115816
Trigger mode: 0
Integration Time (sec): 2.000000E-1
Scans to average: 10
Electric dark correction enabled: true
Nonlinearity correction enabled: true
Boxcar width: 5
XAxis mode: Wavelengths
Number of Pixels in Spectrum: 2068
>>>>>Begin Spectral Data<<<<<
199	-0.224
199	-0.19
200	-0.11
200	-0.056
201	-0.027
201	-0.004
202	0.012
202	0.024
203	0.029
203	0.034
204	0.05
204	0.064
205	0.078
205	0.082
205	0.082
206	0.082
206	0.082
207	0.084
207	0.079
208	0.079
208	0.076
209	0.078
209	0.074
210	0.074
210	0.074
211	0.075
211	0.078
212	0.073
212	0.075
213	0.081
213	0.082
213	0.081
214	0.084
214	0.089
215	0.09
215	0.088
216	0.09
216	0.088
217	0.093
217	0.093
218	0.091
218	0.099
219	0.105
219	0.104
220	0.106
220	0.106
221	0.109
221	0.109
221	0.113
222	0.118
222	0.122
223	0.127
223	0.127
224	0.133
224	0.143
225	0.151
225	0.161
226	0.167
226	0.177
227	0.188
227	0.197
228	0.21
228	0.226
229	0.242
229	0.265
229	0.286
230	0.311
230	0.343
231	0.38
231	0.419
232	0.455
232	0.498
233	0.544
233	0.591
234	0.644
234	0.695
235	0.749
235	0.803
236	0.852
236	0.904
236	0.958
237	1.012
237	1.062
238	1.112
238	1.163
239	1.213
239	1.26
240	1.302
240	1.339
241	1.379
241	1.418
242	1.453
242	1.492
243	1.529
243	1.558
243	1.587
244	1.613
244	1.637
245	1.66
245	1.689
246	1.713
246	1.731
247	1.747
247	1.765
248	1.78
248	1.798
249	1.811
249	1.82
250	1.83
250	1.841
250	1.847
251	1.854
251	1.861
252	1.867
252	1.869
253	1.87
253	1.867
254	1.867
254	1.869
255	1.87
255	1.871
256	1.869
256	1.869
257	1.87
257	1.871
258	1.873
258	1.877
258	1.881
259	1.884
259	1.887
260	1.888
260	1.891
261	1.894
261	1.901
262	1.906
262	1.909
263	1.915
263	1.919
264	1.922
264	1.927
265	1.93
265	1.933
265	1.937
266	1.942
266	1.943
267	1.943
267	1.945
268	1.946
268	1.949
269	1.954
269	1.952
270	1.952
270	1.953
271	1.951
271	1.95
272	1.947
272	1.944
272	1.939
273	1.93
273	1.92
274	1.912
274	1.905
275	1.897
275	1.89
276	1.883
276	1.875
277	1.869
277	1.858
278	1.847
278	1.835
278	1.82
279	1.801
279	1.776
280	1.745
280	1.707
281	1.664
281	1.616
282	1.566
282	1.518
283	1.472
283	1.426
284	1.383
284	1.342
285	1.304
285	1.27
285	1.24
286	1.213
286	1.19
287	1.17
287	1.152
288	1.138
288	1.125
289	1.115
289	1.106
290	1.098
290	1.092
291	1.086
291	1.081
292	1.077
292	1.073
292	1.069
293	1.065
293	1.062
294	1.059
294	1.057
295	1.054
295	1.051
296	1.048
296	1.045
297	1.042
297	1.04
298	1.038
298	1.035
298	1.033
299	1.031
299	1.028
300	1.026
300	1.023
301	1.021
301	1.018
302	1.016
302	1.013
303	1.011
303	1.009
304	1.006
304	1.004
305	1.002
305	0.999
305	0.997
306	0.995
306	0.993
307	0.991
307	0.988
308	0.985
308	0.983
309	0.981
309	0.978
310	0.975
310	0.972
311	0.97
311	0.967
311	0.963
312	0.96
312	0.957
313	0.953
313	0.95
314	0.945
314	0.942
315	0.937
315	0.933
316	0.928
316	0.924
317	0.919
317	0.914
318	0.909
318	0.904
318	0.899
319	0.893
319	0.887
320	0.881
320	0.876
321	0.87
321	0.863
322	0.857
322	0.851
323	0.844
323	0.837
324	0.831
324	0.824
324	0.818
325	0.811
325	0.804
326	0.797
326	0.79
327	0.783
327	0.776
328	0.769
328	0.762
329	0.755
329	0.748
330	0.741
330	0.733
330	0.726
331	0.719
331	0.712
332	0.705
332	0.697
333	0.69
333	0.683
334	0.676
334	0.669
335	0.662
335	0.655
336	0.649
336	0.642
336	0.636
337	0.629
337	0.623
338	0.616
338	0.61
339	0.604
339	0.598
340	0.592
340	0.586
341	0.58
341	0.574
342	0.568
342	0.563
342	0.558
343	0.552
343	0.547
344	0.542
344	0.537
345	0.533
345	0.528
346	0.523
346	0.519
347	0.514
347	0.51
348	0.506
348	0.502
348	0.498
349	0.494
349	0.49
350	0.486
350	0.482
351	0.479
351	0.476
352	0.472
352	0.469
353	0.466
353	0.463
354	0.46
354	0.458
354	0.455
355	0.452
355	0.449
356	0.446
356	0.444
357	0.44
357	0.437
358	0.435
358	0.432
359	0.43
359	0.427
360	0.425
360	0.423
360	0.421
361	0.418
361	0.416
362	0.415
362	0.413
363	0.411
363	0.409
364	0.407
364	0.405
365	0.403
365	0.401
366	0.399
366	0.398
366	0.396
367	0.394
367	0.392
368	0.391
368	0.389
369	0.388
369	0.386
370	0.385
370	0.383
371	0.382
371	0.381
372	0.379
372	0.377
372	0.376
373	0.375
373	0.374
374	0.373
374	0.372
375	0.37
375	0.37
376	0.369
376	0.367
377	0.366
377	0.365
378	0.364
378	0.363
378	0.362
379	0.362
379	0.361
380	0.36
380	0.359
381	0.358
381	0.357
382	0.357
382	0.356
383	0.355
383	0.354
383	0.354
384	0.353
384	0.352
385	0.352
385	0.351
386	0.35
386	0.35
387	0.349
387	0.348
388	0.348
388	0.347
389	0.346
389	0.346
389	0.346
390	0.345
390	0.345
391	0.344
391	0.344
392	0.343
392	0.343
393	0.342
393	0.342
394	0.341
394	0.341
394	0.34
395	0.339
395	0.339
396	0.338
396	0.338
397	0.337
397	0.337
398	0.336
398	0.336
399	0.335
399	0.335
400	0.334
400	0.334
400	0.333
401	0.333
401	0.333
402	0.332
402	0.332
403	0.332
403	0.331
404	0.331
404	0.33
405	0.33
405	0.33
405	0.329
406	0.329
406	0.329
407	0.328
407	0.328
408	0.327
408	0.327
409	0.327
409	0.326
410	0.326
410	0.326
411	0.325
411	0.325
411	0.325
412	0.324
412	0.324
413	0.324
413	0.324
414	0.323
414	0.323
415	0.323
415	0.322
416	0.322
416	0.321
416	0.321
417	0.32
417	0.32
418	0.32
418	0.319
419	0.319
419	0.318
420	0.318
420	0.318
421	0.317
421	0.317
421	0.317
422	0.316
422	0.316
423	0.315
423	0.315
424	0.314
424	0.314
425	0.314
425	0.313
426	0.313
426	0.313
427	0.312
427	0.312
427	0.312
428	0.312
428	0.311
429	0.311
429	0.311
430	0.31
430	0.31
431	0.31
431	0.309
432	0.309
432	0.309
432	0.308
433	0.308
433	0.308
434	0.307
434	0.307
435	0.307
435	0.307
436	0.307
436	0.307
437	0.307
437	0.306
437	0.306
438	0.306
438	0.306
439	0.306
439	0.306
440	0.305
440	0.305
441	0.305
441	0.305
442	0.305
442	0.304
442	0.304
443	0.304
443	0.304
444	0.303
444	0.303
445	0.303
445	0.303
446	0.303
446	0.302
447	0.302
447	0.302
447	0.302
448	0.301
448	0.301
449	0.301
449	0.301
450	0.301
450	0.301
451	0.3
451	0.3
452	0.3
452	0.3
452	0.3
453	0.3
453	0.3
454	0.299
454	0.299
455	0.299
455	0.298
456	0.298
456	0.298
457	0.297
457	0.297
458	0.297
458	0.297
458	0.296
459	0.296
459	0.296
460	0.296
460	0.296
461	0.296
461	0.296
462	0.296
462	0.296
463	0.296
463	0.296
463	0.296
464	0.295
464	0.295
465	0.295
465	0.294
466	0.294
466	0.294
467	0.294
467	0.294
467	0.294
468	0.293
468	0.293
469	0.293
469	0.294
470	0.294
470	0.294
471	0.294
471	0.294
472	0.294
472	0.294
472	0.295
473	0.295
473	0.295
474	0.294
474	0.294
475	0.294
475	0.294
476	0.294
476	0.295
477	0.295
477	0.295
477	0.295
478	0.296
478	0.296
479	0.296
479	0.297
480	0.297
480	0.297
481	0.297
481	0.297
482	0.298
482	0.298
482	0.298
483	0.299
483	0.3
484	0.3
484	0.3
485	0.3
485	0.3
486	0.3
486	0.301
487	0.301
487	0.302
487	0.302
488	0.302
488	0.303
489	0.303
489	0.305
490	0.306
490	0.306
491	0.307
491	0.308
492	0.308
492	0.309
492	0.31
493	0.31
493	0.311
494	0.312
494	0.312
495	0.313
495	0.313
496	0.314
496	0.315
496	0.316
497	0.316
497	0.317
498	0.317
498	0.318
499	0.319
499	0.32
500	0.321
500	0.322
501	0.323
501	0.324
501	0.324
502	0.325
502	0.326
503	0.327
503	0.328
504	0.328
504	0.329
505	0.329
505	0.33
506	0.331
506	0.331
506	0.332
507	0.332
507	0.333
508	0.334
508	0.335
509	0.335
509	0.336
510	0.337
510	0.338
511	0.338
511	0.339
511	0.34
512	0.341
512	0.341
513	0.342
513	0.343
514	0.343
514	0.344
515	0.345
515	0.345
515	0.345
516	0.346
516	0.347
517	0.347
517	0.348
518	0.348
518	0.348
519	0.348
519	0.348
520	0.348
520	0.349
520	0.349
521	0.349
521	0.349
522	0.349
522	0.349
523	0.349
523	0.35
524	0.35
524	0.35
524	0.35
525	0.35
525	0.35
526	0.35
526	0.35
527	0.35
527	0.35
528	0.349
528	0.349
529	0.349
529	0.348
529	0.348
530	0.347
530	0.347
531	0.346
531	0.346
532	0.345
532	0.345
533	0.344
533	0.344
533	0.343
534	0.343
534	0.343
535	0.342
535	0.342
536	0.341
536	0.341
537	0.34
537	0.34
538	0.339
538	0.338
538	0.338
539	0.337
539	0.336
540	0.335
540	0.334
541	0.333
541	0.332
542	0.332
542	0.331
542	0.33
543	0.329
543	0.328
544	0.328
544	0.327
545	0.326
545	0.326
546	0.325
546	0.324
547	0.323
547	0.322
547	0.321
548	0.32
548	0.319
549	0.318
549	0.317
550	0.316
550	0.315
551	0.314
551	0.313
551	0.312
552	0.311
552	0.31
553	0.309
553	0.308
554	0.307
554	0.306
555	0.305
555	0.304
556	0.303
556	0.302
556	0.301
557	0.3
557	0.3
558	0.299
558	0.298
559	0.298
559	0.297
560	0.296
560	0.295
560	0.294
561	0.294
561	0.293
562	0.292
562	0.291
563	0.29
563	0.288
564	0.287
564	0.286
564	0.285
565	0.285
565	0.285
566	0.283
566	0.283
567	0.282
567	0.282
568	0.281
568	0.281
568	0.28
569	0.28
569	0.279
570	0.278
570	0.277
571	0.276
571	0.276
572	0.275
572	0.274
573	0.273
573	0.272
573	0.271
574	0.27
574	0.269
575	0.268
575	0.268
576	0.267
576	0.266
577	0.265
577	0.264
577	0.264
578	0.263
578	0.263
579	0.263
579	0.263
580	0.262
580	0.26
581	0.259
581	0.259
581	0.259
582	0.259
582	0.259
583	0.259
583	0.258
584	0.257
584	0.256
585	0.255
585	0.255
585	0.254
586	0.254
586	0.253
587	0.251
587	0.25
588	0.249
588	0.248
589	0.248
589	0.248
590	0.247
590	0.247
590	0.247
591	0.247
591	0.247
592	0.246
592	0.245
593	0.245
593	0.245
594	0.244
594	0.243
594	0.242
595	0.242
595	0.241
596	0.24
596	0.24
597	0.241
597	0.24
598	0.24
598	0.239
598	0.239
599	0.239
599	0.238
600	0.238
600	0.237
601	0.237
601	0.236
602	0.235
602	0.235
602	0.234
603	0.234
603	0.234
604	0.234
604	0.234
605	0.234
605	0.234
606	0.233
606	0.232
606	0.232
607	0.231
607	0.231
608	0.231
608	0.23
609	0.229
609	0.228
610	0.228
610	0.227
610	0.227
611	0.227
611	0.227
612	0.227
612	0.227
613	0.227
613	0.227
614	0.227
614	0.226
614	0.226
615	0.226
615	0.225
616	0.225
616	0.225
617	0.225
617	0.224
618	0.224
618	0.223
618	0.223
619	0.223
619	0.223
620	0.223
620	0.223
621	0.222
621	0.222
622	0.221
622	0.221
622	0.22
623	0.22
623	0.22
624	0.22
624	0.219
625	0.218
625	0.218
626	0.217
626	0.217
626	0.217
627	0.217
627	0.217
628	0.217
628	0.216
629	0.216
629	0.216
630	0.215
630	0.215
630	0.215
631	0.215
631	0.214
632	0.214
632	0.213
633	0.213
633	0.213
634	0.214
634	0.214
634	0.214
635	0.214
635	0.214
636	0.214
636	0.214
637	0.213
637	0.213
638	0.212
638	0.212
638	0.212
639	0.211
639	0.211
640	0.21
640	0.21
641	0.21
641	0.209
642	0.209
642	0.209
642	0.209
643	0.209
643	0.209
644	0.21
644	0.21
645	0.209
645	0.209
646	0.209
646	0.209
646	0.209
647	0.209
647	0.209
648	0.208
648	0.208
649	0.207
649	0.207
650	0.207
650	0.207
650	0.207
651	0.207
651	0.207
652	0.207
652	0.207
653	0.207
653	0.209
653	0.216
654	0.169
654	0.134
655	0.135
655	0.136
656	0.136
656	0.136
657	0.137
657	0.137
657	0.137
658	0.135
658	0.123
659	0.156
659	0.201
660	0.206
660	0.206
661	0.206
661	0.205
661	0.205
662	0.205
662	0.205
663	0.205
663	0.205
664	0.204
664	0.204
665	0.204
665	0.204
665	0.204
666	0.204
666	0.204
667	0.204
667	0.204
668	0.204
668	0.204
669	0.204
669	0.204
669	0.205
670	0.205
670	0.204
671	0.204
671	0.204
672	0.204
672	0.204
672	0.203
673	0.203
673	0.203
674	0.203
674	0.202
675	0.202
675	0.202
676	0.203
676	0.203
676	0.203
677	0.203
677	0.203
678	0.203
678	0.203
679	0.202
679	0.202
680	0.202
680	0.202
680	0.202
681	0.202
681	0.203
682	0.203
682	0.204
683	0.205
683	0.206
684	0.207
684	0.207
684	0.207
685	0.207
685	0.208
686	0.208
686	0.207
687	0.207
687	0.207
687	0.206
688	0.206
688	0.205
689	0.205
689	0.206
690	0.205
690	0.205
691	0.205
691	0.206
691	0.206
692	0.206
692	0.206
693	0.206
693	0.207
694	0.207
694	0.207
695	0.207
695	0.209
695	0.209
696	0.208
696	0.208
697	0.208
697	0.208
698	0.208
698	0.207
698	0.207
699	0.207
699	0.207
700	0.206
700	0.207
701	0.207
701	0.207
702	0.207
702	0.207
702	0.207
703	0.207
703	0.207
704	0.206
704	0.206
705	0.206
705	0.206
705	0.205
706	0.205
706	0.205
707	0.206
707	0.205
708	0.206
708	0.206
709	0.206
709	0.206
709	0.205
710	0.205
710	0.205
711	0.206
711	0.206
712	0.206
712	0.206
713	0.206
713	0.206
713	0.206
714	0.206
714	0.206
715	0.206
715	0.205
716	0.205
716	0.205
716	0.204
717	0.204
717	0.203
718	0.203
718	0.203
719	0.203
719	0.203
720	0.204
720	0.204
720	0.205
721	0.206
721	0.207
722	0.208
722	0.208
723	0.208
723	0.209
723	0.209
724	0.209
724	0.209
725	0.208
725	0.207
726	0.207
726	0.206
727	0.206
727	0.205
727	0.205
728	0.205
728	0.204
729	0.204
729	0.204
730	0.204
730	0.204
730	0.205
731	0.205
731	0.205
732	0.205
732	0.205
733	0.204
733	0.204
734	0.204
734	0.204
734	0.204
735	0.204
735	0.204
736	0.204
736	0.204
737	0.204
737	0.205
737	0.205
738	0.205
738	0.205
739	0.204
739	0.204
740	0.204
740	0.204
741	0.204
741	0.203
741	0.203
742	0.202
742	0.202
743	0.203
743	0.203
744	0.204
744	0.205
744	0.205
745	0.205
745	0.206
746	0.206
746	0.207
747	0.207
747	0.208
748	0.208
748	0.208
748	0.208
749	0.208
749	0.208
750	0.207
750	0.207
751	0.207
751	0.206
751	0.206
752	0.206
752	0.205
753	0.204
753	0.204
754	0.204
754	0.204
754	0.204
755	0.204
755	0.204
756	0.204
756	0.203
757	0.202
757	0.202
758	0.201
758	0.201
758	0.201
759	0.201
759	0.201
760	0.201
760	0.201
761	0.202
761	0.203
761	0.204
762	0.204
762	0.205
763	0.206
763	0.206
764	0.206
764	0.206
764	0.206
765	0.206
765	0.206
766	0.205
766	0.205
767	0.204
767	0.203
768	0.202
768	0.202
768	0.202
769	0.202
769	0.202
770	0.202
770	0.202
771	0.202
771	0.202
771	0.203
772	0.203
772	0.204
773	0.205
773	0.205
774	0.205
774	0.206
775	0.207
775	0.207
775	0.207
776	0.207
776	0.207
777	0.207
777	0.207
778	0.206
778	0.206
778	0.206
779	0.206
779	0.205
780	0.205
780	0.204
781	0.204
781	0.204
781	0.204
782	0.204
782	0.204
783	0.205
783	0.205
784	0.205
784	0.206
784	0.206
785	0.207
785	0.207
786	0.208
786	0.208
787	0.208
787	0.208
788	0.208
788	0.208
788	0.208
789	0.207
789	0.208
790	0.208
790	0.207
791	0.207
791	0.206
791	0.206
792	0.207
792	0.207
793	0.207
793	0.206
794	0.206
794	0.206
794	0.206
795	0.206
795	0.206
796	0.206
796	0.206
797	0.206
797	0.206
797	0.206
798	0.206
798	0.206
799	0.206
799	0.205
800	0.205
800	0.205
801	0.205
801	0.205
801	0.205
802	0.206
802	0.206
803	0.206
803	0.207
804	0.208
804	0.208
804	0.208
805	0.208
805	0.208
806	0.208
806	0.207
807	0.207
807	0.206
807	0.206
808	0.205
808	0.205
809	0.204
809	0.204
810	0.204
810	0.204
810	0.204
811	0.204
811	0.204
812	0.205
812	0.205
813	0.205
813	0.205
813	0.205
814	0.206
814	0.206
815	0.206
815	0.207
816	0.207
816	0.207
817	0.206
817	0.206
817	0.206
818	0.206
818	0.205
819	0.205
819	0.204
820	0.203
820	0.202
820	0.202
821	0.201
821	0.201
822	0.2
822	0.2
823	0.2
823	0.2
823	0.2
824	0.201
824	0.202
825	0.202
825	0.203
826	0.203
826	0.203
826	0.203
827	0.203
827	0.202
828	0.202
828	0.201
829	0.201
829	0.201
829	0.2
830	0.2
830	0.2
831	0.2
831	0.2
832	0.2
832	0.201
832	0.201
833	0.201
833	0.201
834	0.201
834	0.201
835	0.2
835	0.201
835	0.201
836	0.201
836	0.201
837	0.201
837	0.201
838	0.201
838	0.2
839	0.2
839	0.199
839	0.198
840	0.197
840	0.196
841	0.194
841	0.193
842	0.193
842	0.192
842	0.191
843	0.191
843	0.191
844	0.19
844	0.19
845	0.19
845	0.189
845	0.189
846	0.189
846	0.189
847	0.188
847	0.188
848	0.188
848	0.188
848	0.188
849	0.189
849	0.188
850	0.188
850	0.188
851	0.187
851	0.187
851	0.187
852	0.186
852	0.185
853	0.184
853	0.183
854	0.182
854	0.182
854	0.182
855	0.183
855	0.183
856	0.183
856	0.183
857	0.184
857	0.184
857	0.185
858	0.185
858	0.184
859	0.183
859	0.182
860	0.181
860	0.18
860	0.179
861	0.179
861	0.178
862	0.177
862	0.176
863	0.176
863	0.175
863	0.175
864	0.175
864	0.175
865	0.175
865	0.175
866	0.174
866	0.173
866	0.173
867	0.173
867	0.172
868	0.172
868	0.172
869	0.172
869	0.172
869	0.171
870	0.171
870	0.172
871	0.172
871	0.172
872	0.173
872	0.173
872	0.173
873	0.173
873	0.173
874	0.172
874	0.172
875	0.172
875	0.171
875	0.171
876	0.171
876	0.171
877	0.17
877	0.171
878	0.171
878	0.171
878	0.172
879	0.172
879	0.172
880	0.172
880	0.171
881	0.171
881	0.17
881	0.169
882	0.168
882	0.167
883	0.165
883	0.164
884	0.163
884	0.162
884	0.161
885	0.16
885	0.16
886	0.159
886	0.159
887	0.158
887	0.157
887	0.157
888	0.156
888	0.156
889	0.155
889	0.155
890	0.155
890	0.155
890	0.156
891	0.156
891	0.156
892	0.156
892	0.157
893	0.157
893	0.158
893	0.158
894	0.158
894	0.158
895	0.158
895	0.158
895	0.158
896	0.159
896	0.159
897	0.158
897	0.158
898	0.158
898	0.158
898	0.157
899	0.157
899	0.157
900	0.157
900	0.156
901	0.156
901	0.156
901	0.155
902	0.155
902	0.154
903	0.154
903	0.153
904	0.152
904	0.152
904	0.151
905	0.15
905	0.15
906	0.149
906	0.149
907	0.15
907	0.15
907	0.15
908	0.15
908	0.15
909	0.15
909	0.15
910	0.15
910	0.15
910	0.15
911	0.149
911	0.148
912	0.148
912	0.147
913	0.146
913	0.146
913	0.145
914	0.145
914	0.144
915	0.144
915	0.143
916	0.143
916	0.142
916	0.141
917	0.14
917	0.14
918	0.138
918	0.138
918	0.137
919	0.136
919	0.135
920	0.135
920	0.135
921	0.134
921	0.134
921	0.134
922	0.134
922	0.135
923	0.135
923	0.135
924	0.135
924	0.135
924	0.135
925	0.135
925	0.135
926	0.135
926	0.134
927	0.134
927	0.133
927	0.132
928	0.132
928	0.132
929	0.132
929	0.132
930	0.131
930	0.131
930	0.131
931	0.131
931	0.131
932	0.131
932	0.131
933	0.131
933	0.13
933	0.13
934	0.129
934	0.128
935	0.128
935	0.127
935	0.126
936	0.126
936	0.125
937	0.124
937	0.124
938	0.123
938	0.123
938	0.123
939	0.123
939	0.122
940	0.123
940	0.123
941	0.123
941	0.124
941	0.124
942	0.125
942	0.125
943	0.125
943	0.125
944	0.126
944	0.126
944	0.126
945	0.126
945	0.127
946	0.127
946	0.127
946	0.127
947	0.127
947	0.127
948	0.127
948	0.127
949	0.127
949	0.126
949	0.126
950	0.125
950	0.124
951	0.123
951	0.123
952	0.122
952	0.121
952	0.121
953	0.12
953	0.12
954	0.119
954	0.119
955	0.119
955	0.118
955	0.118
956	0.119
956	0.119
957	0.119
957	0.119
957	0.119
958	0.119
958	0.119
959	0.119
959	0.119
960	0.119
960	0.119
960	0.118
961	0.118
961	0.118
962	0.118
962	0.117
963	0.117
963	0.117
963	0.117
964	0.116
964	0.116
965	0.116
965	0.115
966	0.115
966	0.115
966	0.115
967	0.114
967	0.114
968	0.114
968	0.114
968	0.114
969	0.114
969	0.114
970	0.114
970	0.113
971	0.114
971	0.114
971	0.114
972	0.114
972	0.114
973	0.113
973	0.113
974	0.113
974	0.113
974	0.113
975	0.113
975	0.113
976	0.113
976	0.113
976	0.113
977	0.113
977	0.113
978	0.113
978	0.113
979	0.113
979	0.113
979	0.113
980	0.113
980	0.112
981	0.111
981	0.11
982	0.11
982	0.109
982	0.108
983	0.107
983	0.106
984	0.105
984	0.104
984	0.103
985	0.102
985	0.101
986	0.1
986	0.099
987	0.099
987	0.098
987	0.097
988	0.097
988	0.096
989	0.096
989	0.096
990	0.096
990	0.095
990	0.095
991	0.096
991	0.095
992	0.095
992	0.095
992	0.095
993	0.095
993	0.094
994	0.094
994	0.094
995	0.093
995	0.093
995	0.093
996	0.093
996	0.092
997	0.092
997	0.093
997	0.093
998	0.093
998	0.094
999	0.094
999	0.095
1000	0.096
1000	0.097
1000	0.097
1001	0.098
1001	0.098
1002	0.098
1002	0.099
1003	0.099
1003	0.099
1003	0.098
1004	0.098
1004	0.098
1005	0.097
1005	0.097
1005	0.096
1006	0.096
1006	0.095
1007	0.095
1007	0.095
1008	0.094
1008	0.094
1008	0.094
1009	0.094
1009	0.095
1010	0.094
1010	0.095
1010	0.095
1011	0.095
1011	0.094
1012	0.095
1012	0.094
1013	0.094
1013	0.094
1013	0.094
1014	0.093
1014	0.093
1015	0.093
1015	0.093
1016	0.093
1016	0.093
1016	0.092
1017	0.092
1017	0.091
1018	0.091
1018	0.091
1018	0.09
1019	0.09
1019	0.089
1020	0.089
1020	0.088
1021	0.088
1021	0.087
1021	0.087
1022	0.087
1022	0.086
1023	0.086
1023	0.085
1023	0.085
1024	0.085
1024	0.085
1025	0.085
1025	0.084
1026	0.084
1026	0.084
1026	0.083
1027	0.083
1027	0.083
1028	0.083
1028	0.083
1028	0.083
1029	0.083
1029	0.083
1030	0.083
1030	0.083
1031	0.083
1031	0.083
1031	0.083
1032	0.083
1032	0.083
1033	0.083
1033	0.083
1033	0.083
1034	0.082
1034	0.082
1035	0.082
1035	0.081
1036	0.081
1036	0.081
1036	0.081
1037	0.081
1037	0.081
1038	0.081
1038	0.081
1039	0.081
1039	0.082
1039	0.082
1040	0.082
1040	0.082
1041	0.082
1041	0.082
1041	0.082
1042	0.081
1042	0.081
1043	0.081
1043	0.08
1044	0.08
1044	0.08
1044	0.08
1045	0.08
1045	0.08
1046	0.081
1046	0.081
1046	0.082
1047	0.083
1047	0.083
1048	0.084
1048	0.085
1049	0.085
1049	0.085
1049	0.085
1050	0.085
1050	0.084
1051	0.084
1051	0.083
1051	0.082
1052	0.081
1052	0.08
1053	0.079
1053	0.078
1053	0.077
1054	0.077
1054	0.076
1055	0.076
1055	0.075
1056	0.075
1056	0.075
1056	0.074
1057	0.074
1057	0.073
1058	0.073
1058	0.072
1058	0.071
1059	0.071
1059	0.07
1060	0.07
1060	0.069
1061	0.069
1061	0.069
1061	0.068
1062	0.068
1062	0.068
1063	0.068
1063	0.068
1063	0.068
1064	0.068
1064	0.068
1065	0.068
1065	0.068
1066	0.068
1066	0.068
1066	0.068
1067	0.068
1067	0.068
1068	0.068
1068	0.068
1068	0.067
1069	0.067
1069	0.066
1070	0.065
1070	0.064
1071	0.063
1071	0.062
1071	0.062
1072	0.061
1072	0.061
1073	0.06
1073	0.06
1073	0.06
1074	0.06
1074	0.061
1075	0.061
1075	0.062
1076	0.062
1076	0.062
1076	0.063
1077	0.063
1077	0.063
1078	0.062
1078	0.063
1078	0.062
1079	0.062
1079	0.062
1080	0.061
1080	0.06
1080	0.06
1081	0.059
1081	0.06
1082	0.06
1082	0.06
1083	0.059
1083	0.058
1083	0.058
1084	0.058
1084	0.058
1085	0.057
1085	0.057
1085	0.057
1086	0.057
1086	0.056
1087	0.055
1087	0.055
1088	0.054
1088	0.054
1088	0.055
1089	0.054
1089	0.053
1090	0.053
1090	0.052
1090	0.05
1091	0.051
1091	0.051
1092	0.051
1092	0.051
1092	0.051
1093	0.05
1093	0.05
1094	0.05
1094	0.05
1095	0.05
1095	0.05
1095	0.049
1096	0.049
1096	0.047
1097	0.046
1097	0.045
1097	0.044
1098	0.043
1098	0.041
1099	0.04
1099	0.039
1100	0.038
1100	0.037
1100	0.035
1101	0.035
1101	0.033
1102	0.033
1102	0.032
1102	0.031
1103	0.031
1103	0.03
1104	0.031
1104	0.03
1104	0.029
1105	0.029
1105	0.028
1106	0.026
1106	0.026
1107	0.025
1107	0.024
1107	0.023
1108	0.022
1108	0.021
1109	0.019
1109	0.018
1109	0.016
1110	0.017
1110	0.016
1111	0.015
1111	0.015
