Data from reversibility-20sec_Absorbance__7222__000000000007222.txt Node

Date: Thu Dec 07 04:20:25 CET 2023
User: Marek
Spectrometer: MAYP115816
Trigger mode: 0
Integration Time (sec): 2.000000E-1
Scans to average: 10
Electric dark correction enabled: true
Nonlinearity correction enabled: true
Boxcar width: 5
XAxis mode: Wavelengths
Number of Pixels in Spectrum: 2068
>>>>>Begin Spectral Data<<<<<
199	-0.095
199	-0.067
200	-0.007
200	0.042
201	0.069
201	0.084
202	0.094
202	0.102
203	0.111
203	0.114
204	0.127
204	0.14
205	0.15
205	0.154
205	0.153
206	0.151
206	0.154
207	0.155
207	0.153
208	0.15
208	0.148
209	0.149
209	0.146
210	0.148
210	0.15
211	0.15
211	0.151
212	0.146
212	0.147
213	0.152
213	0.152
213	0.156
214	0.16
214	0.161
215	0.162
215	0.161
216	0.162
216	0.161
217	0.166
217	0.168
218	0.165
218	0.172
219	0.174
219	0.176
220	0.179
220	0.18
221	0.183
221	0.186
221	0.195
222	0.201
222	0.206
223	0.214
223	0.215
224	0.222
224	0.226
225	0.232
225	0.244
226	0.252
226	0.263
227	0.27
227	0.279
228	0.293
228	0.306
229	0.321
229	0.344
229	0.369
230	0.394
230	0.424
231	0.456
231	0.494
232	0.531
232	0.577
233	0.618
233	0.67
234	0.721
234	0.772
235	0.821
235	0.874
236	0.922
236	0.976
236	1.027
237	1.082
237	1.127
238	1.177
238	1.223
239	1.27
239	1.31
240	1.352
240	1.389
241	1.424
241	1.457
242	1.487
242	1.517
243	1.546
243	1.571
243	1.594
244	1.614
244	1.637
245	1.656
245	1.677
246	1.693
246	1.709
247	1.724
247	1.736
248	1.75
248	1.762
249	1.769
249	1.777
250	1.782
250	1.788
250	1.789
251	1.795
251	1.798
252	1.801
252	1.8
253	1.799
253	1.797
254	1.795
254	1.796
255	1.793
255	1.792
256	1.792
256	1.79
257	1.789
257	1.787
258	1.787
258	1.787
258	1.788
259	1.789
259	1.789
260	1.789
260	1.792
261	1.792
261	1.794
262	1.795
262	1.798
263	1.799
263	1.801
264	1.801
264	1.801
265	1.802
265	1.804
265	1.803
266	1.805
266	1.804
267	1.803
267	1.801
268	1.801
268	1.802
269	1.804
269	1.804
270	1.803
270	1.802
271	1.802
271	1.801
272	1.799
272	1.797
272	1.795
273	1.789
273	1.781
274	1.773
274	1.766
275	1.759
275	1.752
276	1.743
276	1.734
277	1.725
277	1.715
278	1.702
278	1.69
278	1.676
279	1.659
279	1.637
280	1.61
280	1.577
281	1.538
281	1.496
282	1.451
282	1.405
283	1.362
283	1.318
284	1.276
284	1.235
285	1.198
285	1.164
285	1.134
286	1.107
286	1.084
287	1.064
287	1.047
288	1.032
288	1.02
289	1.01
289	1.001
290	0.993
290	0.986
291	0.98
291	0.975
292	0.97
292	0.966
292	0.962
293	0.959
293	0.955
294	0.951
294	0.949
295	0.946
295	0.943
296	0.94
296	0.937
297	0.934
297	0.931
298	0.928
298	0.926
298	0.923
299	0.92
299	0.917
300	0.914
300	0.911
301	0.909
301	0.906
302	0.904
302	0.902
303	0.899
303	0.897
304	0.895
304	0.892
305	0.89
305	0.888
305	0.886
306	0.883
306	0.881
307	0.878
307	0.876
308	0.873
308	0.871
309	0.868
309	0.865
310	0.863
310	0.86
311	0.857
311	0.854
311	0.851
312	0.847
312	0.844
313	0.84
313	0.837
314	0.833
314	0.829
315	0.824
315	0.82
316	0.816
316	0.811
317	0.807
317	0.802
318	0.797
318	0.792
318	0.787
319	0.782
319	0.776
320	0.771
320	0.765
321	0.758
321	0.752
322	0.746
322	0.74
323	0.733
323	0.727
324	0.72
324	0.713
324	0.706
325	0.7
325	0.693
326	0.686
326	0.679
327	0.672
327	0.665
328	0.658
328	0.651
329	0.644
329	0.637
330	0.629
330	0.622
330	0.615
331	0.608
331	0.601
332	0.594
332	0.587
333	0.579
333	0.572
334	0.565
334	0.559
335	0.552
335	0.545
336	0.538
336	0.531
336	0.525
337	0.518
337	0.512
338	0.506
338	0.499
339	0.493
339	0.487
340	0.481
340	0.475
341	0.47
341	0.464
342	0.459
342	0.453
342	0.448
343	0.443
343	0.438
344	0.433
344	0.428
345	0.423
345	0.418
346	0.413
346	0.409
347	0.405
347	0.4
348	0.396
348	0.392
348	0.388
349	0.384
349	0.381
350	0.377
350	0.374
351	0.37
351	0.367
352	0.364
352	0.361
353	0.358
353	0.355
354	0.352
354	0.349
354	0.347
355	0.344
355	0.341
356	0.338
356	0.335
357	0.332
357	0.329
358	0.327
358	0.324
359	0.322
359	0.32
360	0.318
360	0.316
360	0.314
361	0.312
361	0.31
362	0.309
362	0.307
363	0.306
363	0.304
364	0.302
364	0.3
365	0.298
365	0.296
366	0.295
366	0.293
366	0.291
367	0.29
367	0.288
368	0.286
368	0.285
369	0.284
369	0.282
370	0.281
370	0.279
371	0.278
371	0.277
372	0.276
372	0.275
372	0.274
373	0.273
373	0.272
374	0.271
374	0.27
375	0.269
375	0.268
376	0.268
376	0.267
377	0.266
377	0.265
378	0.264
378	0.263
378	0.262
379	0.261
379	0.261
380	0.26
380	0.259
381	0.259
381	0.258
382	0.257
382	0.257
383	0.257
383	0.256
383	0.256
384	0.255
384	0.255
385	0.254
385	0.254
386	0.254
386	0.253
387	0.253
387	0.253
388	0.252
388	0.252
389	0.252
389	0.252
389	0.251
390	0.251
390	0.25
391	0.25
391	0.25
392	0.249
392	0.249
393	0.249
393	0.248
394	0.248
394	0.248
394	0.247
395	0.247
395	0.247
396	0.246
396	0.246
397	0.246
397	0.245
398	0.245
398	0.245
399	0.245
399	0.244
400	0.244
400	0.244
400	0.243
401	0.243
401	0.243
402	0.243
402	0.242
403	0.242
403	0.242
404	0.242
404	0.242
405	0.242
405	0.242
405	0.241
406	0.241
406	0.241
407	0.241
407	0.24
408	0.24
408	0.24
409	0.239
409	0.239
410	0.239
410	0.238
411	0.238
411	0.238
411	0.238
412	0.238
412	0.237
413	0.237
413	0.237
414	0.236
414	0.236
415	0.236
415	0.235
416	0.235
416	0.235
416	0.234
417	0.234
417	0.234
418	0.234
418	0.233
419	0.233
419	0.232
420	0.232
420	0.232
421	0.231
421	0.231
421	0.23
422	0.23
422	0.23
423	0.23
423	0.229
424	0.229
424	0.229
425	0.228
425	0.228
426	0.228
426	0.228
427	0.228
427	0.227
427	0.227
428	0.226
428	0.226
429	0.226
429	0.225
430	0.225
430	0.225
431	0.224
431	0.224
432	0.224
432	0.224
432	0.223
433	0.223
433	0.223
434	0.223
434	0.223
435	0.223
435	0.222
436	0.222
436	0.222
437	0.222
437	0.221
437	0.221
438	0.221
438	0.221
439	0.22
439	0.22
440	0.22
440	0.219
441	0.219
441	0.219
442	0.218
442	0.218
442	0.218
443	0.218
443	0.218
444	0.217
444	0.217
445	0.217
445	0.217
446	0.217
446	0.217
447	0.217
447	0.217
447	0.216
448	0.216
448	0.216
449	0.216
449	0.216
450	0.215
450	0.215
451	0.215
451	0.215
452	0.215
452	0.214
452	0.214
453	0.214
453	0.214
454	0.214
454	0.213
455	0.213
455	0.213
456	0.213
456	0.213
457	0.212
457	0.212
458	0.212
458	0.211
458	0.211
459	0.211
459	0.211
460	0.21
460	0.21
461	0.21
461	0.21
462	0.21
462	0.21
463	0.21
463	0.209
463	0.209
464	0.209
464	0.208
465	0.208
465	0.208
466	0.207
466	0.207
467	0.207
467	0.207
467	0.207
468	0.207
468	0.207
469	0.207
469	0.207
470	0.207
470	0.207
471	0.207
471	0.207
472	0.207
472	0.207
472	0.207
473	0.206
473	0.206
474	0.206
474	0.206
475	0.206
475	0.205
476	0.205
476	0.206
477	0.206
477	0.205
477	0.205
478	0.205
478	0.205
479	0.205
479	0.205
480	0.206
480	0.206
481	0.206
481	0.206
482	0.206
482	0.206
482	0.206
483	0.206
483	0.206
484	0.206
484	0.205
485	0.205
485	0.205
486	0.205
486	0.205
487	0.205
487	0.205
487	0.205
488	0.205
488	0.205
489	0.205
489	0.206
490	0.206
490	0.206
491	0.207
491	0.207
492	0.208
492	0.208
492	0.209
493	0.209
493	0.21
494	0.21
494	0.21
495	0.21
495	0.211
496	0.211
496	0.211
496	0.211
497	0.211
497	0.211
498	0.212
498	0.212
499	0.212
499	0.213
500	0.213
500	0.213
501	0.214
501	0.214
501	0.214
502	0.214
502	0.215
503	0.215
503	0.215
504	0.216
504	0.216
505	0.216
505	0.217
506	0.217
506	0.217
506	0.218
507	0.218
507	0.218
508	0.219
508	0.219
509	0.219
509	0.219
510	0.22
510	0.22
511	0.22
511	0.221
511	0.221
512	0.221
512	0.222
513	0.222
513	0.223
514	0.223
514	0.224
515	0.224
515	0.224
515	0.225
516	0.225
516	0.226
517	0.226
517	0.227
518	0.227
518	0.227
519	0.227
519	0.227
520	0.227
520	0.227
520	0.227
521	0.227
521	0.227
522	0.228
522	0.228
523	0.228
523	0.229
524	0.229
524	0.229
524	0.229
525	0.23
525	0.23
526	0.23
526	0.23
527	0.23
527	0.23
528	0.23
528	0.23
529	0.231
529	0.231
529	0.231
530	0.23
530	0.23
531	0.23
531	0.23
532	0.23
532	0.23
533	0.23
533	0.23
533	0.23
534	0.23
534	0.229
535	0.229
535	0.23
536	0.23
536	0.23
537	0.23
537	0.229
538	0.229
538	0.229
538	0.229
539	0.229
539	0.228
540	0.228
540	0.228
541	0.228
541	0.228
542	0.228
542	0.228
542	0.228
543	0.228
543	0.227
544	0.227
544	0.227
545	0.227
545	0.227
546	0.227
546	0.227
547	0.226
547	0.225
547	0.225
548	0.225
548	0.225
549	0.224
549	0.224
550	0.224
550	0.223
551	0.223
551	0.223
551	0.223
552	0.223
552	0.222
553	0.222
553	0.222
554	0.221
554	0.221
555	0.22
555	0.22
556	0.219
556	0.219
556	0.219
557	0.219
557	0.219
558	0.219
558	0.219
559	0.219
559	0.219
560	0.219
560	0.219
560	0.219
561	0.219
561	0.219
562	0.218
562	0.217
563	0.216
563	0.215
564	0.214
564	0.214
564	0.214
565	0.214
565	0.213
566	0.213
566	0.213
567	0.213
567	0.213
568	0.213
568	0.212
568	0.212
569	0.212
569	0.211
570	0.21
570	0.21
571	0.209
571	0.209
572	0.208
572	0.208
573	0.208
573	0.207
573	0.207
574	0.206
574	0.206
575	0.207
575	0.207
576	0.206
576	0.206
577	0.205
577	0.204
577	0.204
578	0.204
578	0.203
579	0.203
579	0.204
580	0.203
580	0.203
581	0.202
581	0.202
581	0.202
582	0.202
582	0.202
583	0.202
583	0.202
584	0.201
584	0.2
585	0.2
585	0.2
585	0.199
586	0.199
586	0.199
587	0.198
587	0.198
588	0.197
588	0.197
589	0.197
589	0.197
590	0.197
590	0.197
590	0.197
591	0.198
591	0.197
592	0.197
592	0.196
593	0.196
593	0.196
594	0.195
594	0.194
594	0.194
595	0.193
595	0.193
596	0.192
596	0.193
597	0.193
597	0.194
598	0.194
598	0.194
598	0.193
599	0.193
599	0.193
600	0.193
600	0.192
601	0.192
601	0.192
602	0.191
602	0.191
602	0.19
603	0.19
603	0.19
604	0.19
604	0.19
605	0.19
605	0.19
606	0.189
606	0.189
606	0.188
607	0.188
607	0.188
608	0.188
608	0.187
609	0.186
609	0.186
610	0.186
610	0.186
610	0.186
611	0.186
611	0.186
612	0.186
612	0.187
613	0.187
613	0.187
614	0.186
614	0.186
614	0.186
615	0.186
615	0.186
616	0.186
616	0.186
617	0.186
617	0.186
618	0.186
618	0.186
618	0.186
619	0.186
619	0.186
620	0.186
620	0.186
621	0.185
621	0.184
622	0.184
622	0.183
622	0.183
623	0.182
623	0.182
624	0.182
624	0.182
625	0.182
625	0.182
626	0.182
626	0.182
626	0.182
627	0.182
627	0.182
628	0.182
628	0.182
629	0.182
629	0.181
630	0.181
630	0.181
630	0.181
631	0.181
631	0.181
632	0.18
632	0.18
633	0.18
633	0.18
634	0.181
634	0.181
634	0.181
635	0.18
635	0.18
636	0.179
636	0.179
637	0.179
637	0.179
638	0.179
638	0.178
638	0.177
639	0.177
639	0.177
640	0.177
640	0.177
641	0.176
641	0.176
642	0.176
642	0.176
642	0.177
643	0.177
643	0.177
644	0.177
644	0.178
645	0.178
645	0.178
646	0.179
646	0.179
646	0.179
647	0.178
647	0.178
648	0.178
648	0.177
649	0.177
649	0.177
650	0.176
650	0.176
650	0.176
651	0.176
651	0.176
652	0.176
652	0.176
653	0.177
653	0.179
653	0.184
654	0.145
654	0.116
655	0.116
655	0.117
656	0.117
656	0.117
657	0.118
657	0.118
657	0.118
658	0.117
658	0.108
659	0.135
659	0.173
660	0.178
660	0.177
661	0.177
661	0.176
661	0.176
662	0.175
662	0.175
663	0.175
663	0.175
664	0.175
664	0.175
665	0.174
665	0.174
665	0.175
666	0.175
666	0.175
667	0.175
667	0.176
668	0.176
668	0.176
669	0.176
669	0.176
669	0.177
670	0.177
670	0.177
671	0.177
671	0.176
672	0.176
672	0.175
672	0.175
673	0.174
673	0.174
674	0.174
674	0.174
675	0.173
675	0.173
676	0.174
676	0.174
676	0.174
677	0.175
677	0.175
678	0.175
678	0.174
679	0.174
679	0.174
680	0.174
680	0.174
680	0.173
681	0.173
681	0.173
682	0.173
682	0.173
683	0.173
683	0.174
684	0.174
684	0.174
684	0.174
685	0.174
685	0.175
686	0.175
686	0.175
687	0.175
687	0.175
687	0.176
688	0.176
688	0.176
689	0.177
689	0.178
690	0.178
690	0.177
691	0.177
691	0.177
691	0.177
692	0.177
692	0.178
693	0.178
693	0.178
694	0.178
694	0.178
695	0.179
695	0.18
695	0.18
696	0.18
696	0.18
697	0.18
697	0.18
698	0.18
698	0.18
698	0.18
699	0.18
699	0.179
700	0.178
700	0.178
701	0.178
701	0.177
702	0.177
702	0.177
702	0.176
703	0.176
703	0.175
704	0.175
704	0.175
705	0.175
705	0.174
705	0.174
706	0.174
706	0.174
707	0.174
707	0.174
708	0.175
708	0.175
709	0.175
709	0.175
709	0.175
710	0.176
710	0.176
711	0.177
711	0.177
712	0.178
712	0.178
713	0.178
713	0.179
713	0.179
714	0.179
714	0.179
715	0.179
715	0.178
716	0.178
716	0.177
716	0.176
717	0.176
717	0.175
718	0.174
718	0.174
719	0.174
719	0.175
720	0.175
720	0.176
720	0.177
721	0.177
721	0.179
722	0.18
722	0.18
723	0.181
723	0.181
723	0.181
724	0.181
724	0.18
725	0.179
725	0.178
726	0.177
726	0.177
727	0.176
727	0.175
727	0.175
728	0.175
728	0.175
729	0.175
729	0.175
730	0.175
730	0.176
730	0.176
731	0.177
731	0.177
732	0.178
732	0.178
733	0.179
733	0.179
734	0.179
734	0.18
734	0.18
735	0.181
735	0.181
736	0.181
736	0.182
737	0.182
737	0.182
737	0.182
738	0.181
738	0.18
739	0.18
739	0.18
740	0.18
740	0.18
741	0.18
741	0.18
741	0.18
742	0.181
742	0.181
743	0.183
743	0.183
744	0.184
744	0.185
744	0.185
745	0.185
745	0.185
746	0.185
746	0.185
747	0.185
747	0.184
748	0.184
748	0.184
748	0.183
749	0.183
749	0.183
750	0.184
750	0.184
751	0.184
751	0.184
751	0.185
752	0.185
752	0.185
753	0.185
753	0.184
754	0.184
754	0.184
754	0.184
755	0.184
755	0.183
756	0.183
756	0.182
757	0.182
757	0.182
758	0.182
758	0.182
758	0.182
759	0.182
759	0.182
760	0.182
760	0.182
761	0.182
761	0.183
761	0.183
762	0.183
762	0.183
763	0.184
763	0.183
764	0.183
764	0.183
764	0.184
765	0.183
765	0.183
766	0.183
766	0.183
767	0.182
767	0.182
768	0.181
768	0.181
768	0.182
769	0.182
769	0.182
770	0.182
770	0.183
771	0.183
771	0.183
771	0.184
772	0.185
772	0.185
773	0.185
773	0.185
774	0.186
774	0.186
775	0.186
775	0.186
775	0.186
776	0.187
776	0.187
777	0.188
777	0.188
778	0.189
778	0.189
778	0.189
779	0.189
779	0.189
780	0.189
780	0.188
781	0.188
781	0.187
781	0.187
782	0.186
782	0.186
783	0.186
783	0.187
784	0.187
784	0.187
784	0.188
785	0.188
785	0.188
786	0.188
786	0.189
787	0.189
787	0.189
788	0.188
788	0.188
788	0.187
789	0.187
789	0.187
790	0.187
790	0.187
791	0.187
791	0.187
791	0.187
792	0.187
792	0.188
793	0.188
793	0.188
794	0.188
794	0.187
794	0.188
795	0.188
795	0.188
796	0.189
796	0.189
797	0.188
797	0.189
797	0.189
798	0.189
798	0.189
799	0.189
799	0.189
800	0.189
800	0.189
801	0.189
801	0.189
801	0.189
802	0.189
802	0.19
803	0.19
803	0.191
804	0.191
804	0.192
804	0.192
805	0.193
805	0.193
806	0.193
806	0.193
807	0.192
807	0.192
807	0.192
808	0.192
808	0.192
809	0.191
809	0.191
810	0.191
810	0.191
810	0.191
811	0.191
811	0.192
812	0.192
812	0.193
813	0.193
813	0.194
813	0.194
814	0.195
814	0.196
815	0.196
815	0.197
816	0.197
816	0.196
817	0.196
817	0.196
817	0.195
818	0.195
818	0.195
819	0.194
819	0.193
820	0.192
820	0.192
820	0.192
821	0.192
821	0.192
822	0.193
822	0.193
823	0.193
823	0.193
823	0.194
824	0.195
824	0.197
825	0.198
825	0.199
826	0.2
826	0.2
826	0.201
827	0.201
827	0.202
828	0.202
828	0.203
829	0.203
829	0.203
829	0.203
830	0.203
830	0.204
831	0.204
831	0.204
832	0.203
832	0.203
832	0.203
833	0.203
833	0.203
834	0.202
834	0.202
835	0.202
835	0.201
835	0.201
836	0.2
836	0.2
837	0.2
837	0.199
838	0.198
838	0.197
839	0.197
839	0.196
839	0.195
840	0.194
840	0.193
841	0.192
841	0.192
842	0.191
842	0.191
842	0.19
843	0.19
843	0.19
844	0.19
844	0.189
845	0.189
845	0.189
845	0.19
846	0.19
846	0.19
847	0.19
847	0.191
848	0.191
848	0.191
848	0.191
849	0.191
849	0.191
850	0.191
850	0.19
851	0.19
851	0.19
851	0.189
852	0.189
852	0.189
853	0.188
853	0.188
854	0.189
854	0.19
854	0.19
855	0.191
855	0.192
856	0.193
856	0.193
857	0.194
857	0.195
857	0.196
858	0.197
858	0.197
859	0.197
859	0.197
860	0.197
860	0.197
860	0.197
861	0.197
861	0.196
862	0.195
862	0.195
863	0.194
863	0.193
863	0.193
864	0.193
864	0.193
865	0.193
865	0.193
866	0.192
866	0.192
866	0.193
867	0.193
867	0.193
868	0.193
868	0.193
869	0.193
869	0.192
869	0.192
870	0.191
870	0.191
871	0.191
871	0.191
872	0.191
872	0.19
872	0.19
873	0.19
873	0.19
874	0.189
874	0.189
875	0.189
875	0.188
875	0.188
876	0.188
876	0.187
877	0.187
877	0.187
878	0.186
878	0.186
878	0.187
879	0.187
879	0.187
880	0.187
880	0.187
881	0.188
881	0.188
881	0.188
882	0.189
882	0.189
883	0.189
883	0.189
884	0.19
884	0.19
884	0.19
885	0.19
885	0.19
886	0.19
886	0.189
887	0.189
887	0.188
887	0.188
888	0.187
888	0.186
889	0.186
889	0.185
890	0.185
890	0.185
890	0.186
891	0.186
891	0.186
892	0.186
892	0.186
893	0.186
893	0.186
893	0.186
894	0.185
894	0.185
895	0.184
895	0.184
895	0.184
896	0.184
896	0.183
897	0.183
897	0.183
898	0.182
898	0.181
898	0.181
899	0.181
899	0.18
900	0.18
900	0.18
901	0.179
901	0.179
901	0.179
902	0.179
902	0.179
903	0.179
903	0.179
904	0.179
904	0.179
904	0.179
905	0.179
905	0.179
906	0.179
906	0.179
907	0.178
907	0.179
907	0.178
908	0.178
908	0.178
909	0.177
909	0.177
910	0.177
910	0.176
910	0.176
911	0.175
911	0.175
912	0.174
912	0.174
913	0.173
913	0.173
913	0.172
914	0.172
914	0.172
915	0.172
915	0.172
916	0.172
916	0.172
916	0.172
917	0.172
917	0.172
918	0.172
918	0.172
918	0.171
919	0.171
919	0.171
920	0.171
920	0.17
921	0.17
921	0.17
921	0.17
922	0.17
922	0.17
923	0.17
923	0.17
924	0.169
924	0.169
924	0.169
925	0.169
925	0.169
926	0.169
926	0.169
927	0.169
927	0.17
927	0.17
928	0.17
928	0.17
929	0.17
929	0.17
930	0.17
930	0.17
930	0.17
931	0.169
931	0.169
932	0.169
932	0.168
933	0.168
933	0.168
933	0.167
934	0.167
934	0.166
935	0.166
935	0.166
935	0.166
936	0.165
936	0.165
937	0.164
937	0.164
938	0.163
938	0.163
938	0.162
939	0.161
939	0.16
940	0.16
940	0.159
941	0.159
941	0.159
941	0.16
942	0.16
942	0.16
943	0.16
943	0.16
944	0.16
944	0.161
944	0.161
945	0.16
945	0.16
946	0.16
946	0.16
946	0.159
947	0.159
947	0.159
948	0.159
948	0.159
949	0.158
949	0.158
949	0.157
950	0.157
950	0.157
951	0.156
951	0.155
952	0.154
952	0.154
952	0.153
953	0.152
953	0.152
954	0.152
954	0.152
955	0.152
955	0.152
955	0.152
956	0.153
956	0.153
957	0.154
957	0.155
957	0.156
958	0.156
958	0.157
959	0.157
959	0.157
960	0.157
960	0.157
960	0.157
961	0.157
961	0.156
962	0.156
962	0.156
963	0.155
963	0.155
963	0.154
964	0.154
964	0.154
965	0.154
965	0.154
966	0.154
966	0.153
966	0.153
967	0.153
967	0.153
968	0.153
968	0.153
968	0.153
969	0.152
969	0.151
970	0.15
970	0.149
971	0.148
971	0.147
971	0.146
972	0.145
972	0.144
973	0.144
973	0.143
974	0.143
974	0.143
974	0.143
975	0.144
975	0.144
976	0.145
976	0.146
976	0.146
977	0.146
977	0.146
978	0.146
978	0.146
979	0.146
979	0.146
979	0.146
980	0.146
980	0.146
981	0.146
981	0.146
982	0.146
982	0.146
982	0.146
983	0.146
983	0.146
984	0.146
984	0.145
984	0.145
985	0.145
985	0.145
986	0.144
986	0.144
987	0.143
987	0.143
987	0.142
988	0.142
988	0.142
989	0.141
989	0.141
990	0.141
990	0.141
990	0.141
991	0.141
991	0.141
992	0.14
992	0.14
992	0.139
993	0.138
993	0.137
994	0.136
994	0.135
995	0.135
995	0.134
995	0.133
996	0.133
996	0.133
997	0.133
997	0.133
997	0.134
998	0.134
998	0.135
999	0.135
999	0.136
1000	0.137
1000	0.138
1000	0.138
1001	0.139
1001	0.139
1002	0.139
1002	0.139
1003	0.139
1003	0.139
1003	0.138
1004	0.138
1004	0.137
1005	0.136
1005	0.136
1005	0.135
1006	0.134
1006	0.134
1007	0.134
1007	0.133
1008	0.133
1008	0.133
1008	0.132
1009	0.132
1009	0.132
1010	0.132
1010	0.132
1010	0.131
1011	0.131
1011	0.13
1012	0.13
1012	0.129
1013	0.129
1013	0.128
1013	0.128
1014	0.127
1014	0.127
1015	0.126
1015	0.126
1016	0.126
1016	0.125
1016	0.125
1017	0.124
1017	0.124
1018	0.124
1018	0.124
1018	0.124
1019	0.123
1019	0.123
1020	0.123
1020	0.123
1021	0.124
1021	0.124
1021	0.124
1022	0.124
1022	0.124
1023	0.125
1023	0.125
1023	0.125
1024	0.125
1024	0.126
1025	0.126
1025	0.126
1026	0.126
1026	0.126
1026	0.126
1027	0.126
1027	0.126
1028	0.126
1028	0.126
1028	0.126
1029	0.126
1029	0.126
1030	0.126
1030	0.125
1031	0.126
1031	0.125
1031	0.125
1032	0.125
1032	0.125
1033	0.125
1033	0.125
1033	0.125
1034	0.125
1034	0.125
1035	0.125
1035	0.124
1036	0.124
1036	0.124
1036	0.124
1037	0.124
1037	0.123
1038	0.123
1038	0.123
1039	0.122
1039	0.122
1039	0.122
1040	0.122
1040	0.121
1041	0.121
1041	0.121
1041	0.121
1042	0.121
1042	0.12
1043	0.12
1043	0.12
1044	0.119
1044	0.119
1044	0.119
1045	0.119
1045	0.118
1046	0.118
1046	0.118
1046	0.117
1047	0.117
1047	0.117
1048	0.116
1048	0.116
1049	0.116
1049	0.116
1049	0.116
1050	0.115
1050	0.115
1051	0.114
1051	0.114
1051	0.114
1052	0.113
1052	0.112
1053	0.112
1053	0.111
1053	0.11
1054	0.11
1054	0.109
1055	0.109
1055	0.109
1056	0.108
1056	0.107
1056	0.107
1057	0.106
1057	0.106
1058	0.105
1058	0.104
1058	0.104
1059	0.103
1059	0.103
1060	0.102
1060	0.101
1061	0.101
1061	0.101
1061	0.101
1062	0.101
1062	0.1
1063	0.101
1063	0.1
1063	0.1
1064	0.1
1064	0.1
1065	0.099
1065	0.099
1066	0.099
1066	0.099
1066	0.099
1067	0.099
1067	0.099
1068	0.099
1068	0.099
1068	0.099
1069	0.099
1069	0.099
1070	0.098
1070	0.098
1071	0.097
1071	0.097
1071	0.097
1072	0.097
1072	0.097
1073	0.096
1073	0.096
1073	0.096
1074	0.096
1074	0.097
1075	0.097
1075	0.098
1076	0.098
1076	0.099
1076	0.099
1077	0.099
1077	0.1
1078	0.099
1078	0.099
1078	0.099
1079	0.098
1079	0.098
1080	0.097
1080	0.096
1080	0.096
1081	0.096
1081	0.095
1082	0.096
1082	0.096
1083	0.096
1083	0.096
1083	0.096
1084	0.096
1084	0.096
1085	0.097
1085	0.097
1085	0.098
1086	0.098
1086	0.097
1087	0.098
1087	0.097
1088	0.097
1088	0.097
1088	0.097
1089	0.096
1089	0.095
1090	0.095
1090	0.094
1090	0.093
1091	0.093
1091	0.093
1092	0.092
1092	0.093
1092	0.093
1093	0.092
1093	0.093
1094	0.092
1094	0.092
1095	0.091
1095	0.091
1095	0.091
1096	0.09
1096	0.09
1097	0.088
1097	0.087
1097	0.087
1098	0.086
1098	0.084
1099	0.083
1099	0.082
1100	0.082
1100	0.081
1100	0.08
1101	0.079
1101	0.078
1102	0.077
1102	0.076
1102	0.075
1103	0.075
1103	0.074
1104	0.074
1104	0.074
1104	0.072
1105	0.071
1105	0.07
1106	0.069
1106	0.068
1107	0.068
1107	0.067
1107	0.067
1108	0.067
1108	0.066
1109	0.064
1109	0.065
1109	0.064
1110	0.068
1110	0.069
1111	0.069
1111	0.067
