Data from reversibility-20sec_Absorbance__8067__000000000008067.txt Node

Date: Thu Dec 07 09:02:05 CET 2023
User: Marek
Spectrometer: MAYP115816
Trigger mode: 0
Integration Time (sec): 2.000000E-1
Scans to average: 10
Electric dark correction enabled: true
Nonlinearity correction enabled: true
Boxcar width: 5
XAxis mode: Wavelengths
Number of Pixels in Spectrum: 2068
>>>>>Begin Spectral Data<<<<<
199	-0.055
199	-0.038
200	0.016
200	0.062
201	0.086
201	0.103
202	0.111
202	0.121
203	0.128
203	0.128
204	0.139
204	0.15
205	0.159
205	0.164
205	0.163
206	0.162
206	0.161
207	0.164
207	0.161
208	0.16
208	0.163
209	0.166
209	0.162
210	0.163
210	0.164
211	0.164
211	0.169
212	0.165
212	0.167
213	0.169
213	0.169
213	0.168
214	0.167
214	0.172
215	0.172
215	0.17
216	0.17
216	0.164
217	0.168
217	0.169
218	0.17
218	0.175
219	0.179
219	0.182
220	0.184
220	0.189
221	0.189
221	0.195
221	0.205
222	0.21
222	0.216
223	0.222
223	0.226
224	0.234
224	0.24
225	0.25
225	0.257
226	0.271
226	0.28
227	0.287
227	0.299
228	0.314
228	0.33
229	0.345
229	0.368
229	0.394
230	0.418
230	0.447
231	0.477
231	0.516
232	0.555
232	0.599
233	0.64
233	0.686
234	0.738
234	0.789
235	0.842
235	0.896
236	0.949
236	1
236	1.052
237	1.103
237	1.153
238	1.199
238	1.246
239	1.289
239	1.328
240	1.365
240	1.4
241	1.432
241	1.467
242	1.497
242	1.53
243	1.555
243	1.58
243	1.603
244	1.624
244	1.645
245	1.664
245	1.683
246	1.701
246	1.717
247	1.731
247	1.742
248	1.756
248	1.769
249	1.78
249	1.787
250	1.794
250	1.8
250	1.804
251	1.808
251	1.809
252	1.811
252	1.811
253	1.811
253	1.808
254	1.806
254	1.807
255	1.806
255	1.805
256	1.806
256	1.804
257	1.804
257	1.802
258	1.801
258	1.802
258	1.801
259	1.801
259	1.8
260	1.8
260	1.8
261	1.799
261	1.8
262	1.802
262	1.805
263	1.808
263	1.809
264	1.812
264	1.813
265	1.815
265	1.814
265	1.814
266	1.815
266	1.816
267	1.814
267	1.815
268	1.814
268	1.814
269	1.813
269	1.811
270	1.811
270	1.81
271	1.809
271	1.808
272	1.804
272	1.802
272	1.798
273	1.792
273	1.786
274	1.779
274	1.773
275	1.765
275	1.757
276	1.749
276	1.741
277	1.733
277	1.723
278	1.712
278	1.699
278	1.683
279	1.667
279	1.645
280	1.619
280	1.586
281	1.547
281	1.504
282	1.459
282	1.414
283	1.369
283	1.325
284	1.284
284	1.244
285	1.206
285	1.172
285	1.142
286	1.115
286	1.092
287	1.071
287	1.054
288	1.039
288	1.027
289	1.016
289	1.007
290	0.999
290	0.992
291	0.986
291	0.98
292	0.976
292	0.971
292	0.968
293	0.964
293	0.96
294	0.957
294	0.953
295	0.95
295	0.947
296	0.944
296	0.941
297	0.938
297	0.935
298	0.932
298	0.929
298	0.926
299	0.923
299	0.921
300	0.918
300	0.915
301	0.913
301	0.91
302	0.907
302	0.904
303	0.902
303	0.9
304	0.897
304	0.895
305	0.893
305	0.891
305	0.888
306	0.886
306	0.884
307	0.882
307	0.879
308	0.877
308	0.874
309	0.871
309	0.868
310	0.865
310	0.862
311	0.859
311	0.856
311	0.853
312	0.849
312	0.846
313	0.842
313	0.838
314	0.834
314	0.83
315	0.826
315	0.822
316	0.818
316	0.813
317	0.808
317	0.803
318	0.799
318	0.793
318	0.788
319	0.782
319	0.777
320	0.771
320	0.765
321	0.759
321	0.753
322	0.747
322	0.74
323	0.733
323	0.727
324	0.72
324	0.714
324	0.706
325	0.699
325	0.692
326	0.685
326	0.678
327	0.671
327	0.664
328	0.657
328	0.649
329	0.642
329	0.635
330	0.628
330	0.62
330	0.613
331	0.606
331	0.599
332	0.591
332	0.584
333	0.577
333	0.57
334	0.563
334	0.556
335	0.549
335	0.542
336	0.535
336	0.528
336	0.521
337	0.515
337	0.508
338	0.502
338	0.496
339	0.489
339	0.483
340	0.477
340	0.471
341	0.465
341	0.46
342	0.454
342	0.449
342	0.443
343	0.438
343	0.432
344	0.427
344	0.422
345	0.417
345	0.412
346	0.408
346	0.403
347	0.399
347	0.394
348	0.39
348	0.386
348	0.382
349	0.378
349	0.374
350	0.371
350	0.367
351	0.364
351	0.36
352	0.357
352	0.354
353	0.351
353	0.348
354	0.345
354	0.342
354	0.339
355	0.337
355	0.334
356	0.331
356	0.328
357	0.325
357	0.322
358	0.32
358	0.317
359	0.315
359	0.312
360	0.311
360	0.309
360	0.307
361	0.305
361	0.303
362	0.302
362	0.3
363	0.298
363	0.296
364	0.294
364	0.293
365	0.291
365	0.289
366	0.287
366	0.286
366	0.284
367	0.283
367	0.281
368	0.279
368	0.278
369	0.277
369	0.275
370	0.274
370	0.272
371	0.271
371	0.27
372	0.269
372	0.268
372	0.267
373	0.266
373	0.265
374	0.264
374	0.263
375	0.262
375	0.261
376	0.26
376	0.26
377	0.258
377	0.257
378	0.257
378	0.256
378	0.255
379	0.254
379	0.254
380	0.253
380	0.252
381	0.252
381	0.251
382	0.251
382	0.25
383	0.249
383	0.249
383	0.248
384	0.248
384	0.248
385	0.247
385	0.247
386	0.246
386	0.246
387	0.246
387	0.245
388	0.245
388	0.245
389	0.245
389	0.244
389	0.244
390	0.244
390	0.243
391	0.243
391	0.243
392	0.243
392	0.243
393	0.242
393	0.242
394	0.241
394	0.241
394	0.241
395	0.241
395	0.24
396	0.24
396	0.24
397	0.239
397	0.239
398	0.238
398	0.238
399	0.238
399	0.238
400	0.237
400	0.237
400	0.237
401	0.237
401	0.236
402	0.236
402	0.236
403	0.236
403	0.236
404	0.235
404	0.235
405	0.235
405	0.235
405	0.235
406	0.234
406	0.234
407	0.234
407	0.234
408	0.234
408	0.233
409	0.233
409	0.233
410	0.233
410	0.232
411	0.232
411	0.232
411	0.232
412	0.231
412	0.231
413	0.231
413	0.23
414	0.23
414	0.23
415	0.229
415	0.229
416	0.229
416	0.229
416	0.228
417	0.228
417	0.228
418	0.227
418	0.227
419	0.227
419	0.226
420	0.226
420	0.225
421	0.225
421	0.225
421	0.224
422	0.224
422	0.224
423	0.223
423	0.223
424	0.222
424	0.222
425	0.222
425	0.221
426	0.221
426	0.221
427	0.221
427	0.22
427	0.22
428	0.22
428	0.219
429	0.219
429	0.219
430	0.218
430	0.218
431	0.218
431	0.218
432	0.218
432	0.217
432	0.217
433	0.217
433	0.217
434	0.216
434	0.216
435	0.216
435	0.216
436	0.216
436	0.216
437	0.215
437	0.215
437	0.215
438	0.215
438	0.214
439	0.214
439	0.214
440	0.213
440	0.213
441	0.212
441	0.212
442	0.212
442	0.211
442	0.211
443	0.211
443	0.211
444	0.211
444	0.211
445	0.211
445	0.21
446	0.21
446	0.21
447	0.21
447	0.21
447	0.209
448	0.209
448	0.209
449	0.209
449	0.209
450	0.208
450	0.208
451	0.208
451	0.208
452	0.208
452	0.208
452	0.207
453	0.207
453	0.207
454	0.207
454	0.206
455	0.206
455	0.205
456	0.205
456	0.205
457	0.205
457	0.204
458	0.204
458	0.204
458	0.203
459	0.203
459	0.203
460	0.203
460	0.203
461	0.202
461	0.202
462	0.202
462	0.202
463	0.202
463	0.202
463	0.201
464	0.201
464	0.201
465	0.2
465	0.2
466	0.2
466	0.199
467	0.199
467	0.199
467	0.199
468	0.199
468	0.199
469	0.199
469	0.199
470	0.199
470	0.199
471	0.199
471	0.199
472	0.199
472	0.199
472	0.199
473	0.199
473	0.199
474	0.198
474	0.198
475	0.198
475	0.197
476	0.197
476	0.197
477	0.197
477	0.197
477	0.197
478	0.197
478	0.197
479	0.197
479	0.197
480	0.197
480	0.197
481	0.197
481	0.197
482	0.197
482	0.197
482	0.197
483	0.196
483	0.197
484	0.197
484	0.196
485	0.196
485	0.196
486	0.196
486	0.196
487	0.196
487	0.196
487	0.196
488	0.196
488	0.196
489	0.196
489	0.196
490	0.197
490	0.197
491	0.197
491	0.198
492	0.198
492	0.198
492	0.199
493	0.199
493	0.2
494	0.2
494	0.2
495	0.2
495	0.2
496	0.201
496	0.201
496	0.201
497	0.201
497	0.201
498	0.201
498	0.201
499	0.202
499	0.202
500	0.202
500	0.203
501	0.203
501	0.203
501	0.203
502	0.203
502	0.204
503	0.204
503	0.204
504	0.204
504	0.205
505	0.205
505	0.205
506	0.205
506	0.205
506	0.206
507	0.206
507	0.206
508	0.207
508	0.207
509	0.207
509	0.208
510	0.208
510	0.208
511	0.209
511	0.209
511	0.209
512	0.21
512	0.21
513	0.21
513	0.211
514	0.211
514	0.211
515	0.212
515	0.212
515	0.212
516	0.213
516	0.213
517	0.214
517	0.214
518	0.214
518	0.215
519	0.215
519	0.215
520	0.215
520	0.215
520	0.215
521	0.215
521	0.216
522	0.216
522	0.216
523	0.216
523	0.216
524	0.217
524	0.217
524	0.217
525	0.218
525	0.218
526	0.218
526	0.218
527	0.218
527	0.218
528	0.218
528	0.219
529	0.219
529	0.219
529	0.218
530	0.218
530	0.218
531	0.218
531	0.218
532	0.217
532	0.217
533	0.217
533	0.217
533	0.217
534	0.217
534	0.218
535	0.218
535	0.218
536	0.218
536	0.218
537	0.218
537	0.218
538	0.218
538	0.218
538	0.218
539	0.218
539	0.218
540	0.218
540	0.217
541	0.217
541	0.217
542	0.217
542	0.218
542	0.218
543	0.218
543	0.217
544	0.217
544	0.217
545	0.217
545	0.217
546	0.217
546	0.217
547	0.216
547	0.216
547	0.215
548	0.215
548	0.215
549	0.215
549	0.215
550	0.215
550	0.214
551	0.214
551	0.214
551	0.214
552	0.214
552	0.214
553	0.213
553	0.213
554	0.213
554	0.212
555	0.212
555	0.211
556	0.211
556	0.211
556	0.211
557	0.211
557	0.211
558	0.211
558	0.211
559	0.211
559	0.211
560	0.211
560	0.211
560	0.211
561	0.211
561	0.211
562	0.21
562	0.209
563	0.209
563	0.208
564	0.207
564	0.207
564	0.207
565	0.207
565	0.207
566	0.207
566	0.206
567	0.207
567	0.207
568	0.207
568	0.206
568	0.206
569	0.206
569	0.205
570	0.205
570	0.204
571	0.204
571	0.203
572	0.203
572	0.202
573	0.202
573	0.202
573	0.201
574	0.201
574	0.201
575	0.201
575	0.201
576	0.201
576	0.2
577	0.199
577	0.199
577	0.198
578	0.198
578	0.198
579	0.198
579	0.199
580	0.198
580	0.198
581	0.197
581	0.197
581	0.198
582	0.198
582	0.198
583	0.198
583	0.198
584	0.197
584	0.196
585	0.195
585	0.195
585	0.195
586	0.195
586	0.195
587	0.194
587	0.194
588	0.194
588	0.193
589	0.193
589	0.193
590	0.193
590	0.193
590	0.193
591	0.193
591	0.193
592	0.192
592	0.192
593	0.192
593	0.191
594	0.191
594	0.19
594	0.19
595	0.19
595	0.189
596	0.189
596	0.189
597	0.19
597	0.19
598	0.19
598	0.19
598	0.189
599	0.189
599	0.189
600	0.188
600	0.188
601	0.188
601	0.188
602	0.187
602	0.187
602	0.186
603	0.186
603	0.186
604	0.186
604	0.186
605	0.186
605	0.186
606	0.186
606	0.185
606	0.185
607	0.185
607	0.184
608	0.184
608	0.183
609	0.183
609	0.183
610	0.182
610	0.182
610	0.182
611	0.182
611	0.182
612	0.182
612	0.183
613	0.183
613	0.183
614	0.183
614	0.183
614	0.183
615	0.183
615	0.183
616	0.183
616	0.183
617	0.183
617	0.183
618	0.183
618	0.183
618	0.183
619	0.183
619	0.183
620	0.183
620	0.183
621	0.182
621	0.182
622	0.182
622	0.181
622	0.181
623	0.18
623	0.18
624	0.18
624	0.18
625	0.18
625	0.18
626	0.18
626	0.18
626	0.18
627	0.18
627	0.18
628	0.18
628	0.179
629	0.179
629	0.179
630	0.179
630	0.179
630	0.179
631	0.179
631	0.179
632	0.179
632	0.178
633	0.178
633	0.178
634	0.178
634	0.179
634	0.178
635	0.178
635	0.178
636	0.178
636	0.178
637	0.178
637	0.177
638	0.177
638	0.177
638	0.176
639	0.176
639	0.176
640	0.176
640	0.175
641	0.175
641	0.175
642	0.175
642	0.175
642	0.175
643	0.175
643	0.175
644	0.176
644	0.176
645	0.176
645	0.176
646	0.176
646	0.176
646	0.177
647	0.177
647	0.176
648	0.176
648	0.175
649	0.175
649	0.175
650	0.175
650	0.175
650	0.175
651	0.175
651	0.175
652	0.175
652	0.175
653	0.176
653	0.178
653	0.182
654	0.144
654	0.115
655	0.115
655	0.116
656	0.116
656	0.116
657	0.116
657	0.117
657	0.117
658	0.116
658	0.106
659	0.134
659	0.171
660	0.176
660	0.176
661	0.175
661	0.175
661	0.174
662	0.174
662	0.174
663	0.173
663	0.173
664	0.173
664	0.172
665	0.172
665	0.172
665	0.172
666	0.172
666	0.172
667	0.172
667	0.173
668	0.173
668	0.173
669	0.173
669	0.173
669	0.174
670	0.174
670	0.174
671	0.174
671	0.174
672	0.174
672	0.173
672	0.173
673	0.173
673	0.172
674	0.172
674	0.172
675	0.172
675	0.172
676	0.173
676	0.173
676	0.173
677	0.173
677	0.173
678	0.173
678	0.173
679	0.173
679	0.173
680	0.172
680	0.172
680	0.171
681	0.171
681	0.172
682	0.172
682	0.172
683	0.173
683	0.173
684	0.173
684	0.173
684	0.173
685	0.174
685	0.174
686	0.174
686	0.173
687	0.173
687	0.173
687	0.173
688	0.173
688	0.173
689	0.174
689	0.175
690	0.174
690	0.174
691	0.174
691	0.174
691	0.174
692	0.174
692	0.174
693	0.175
693	0.175
694	0.175
694	0.175
695	0.176
695	0.177
695	0.178
696	0.178
696	0.178
697	0.178
697	0.178
698	0.178
698	0.178
698	0.178
699	0.178
699	0.177
700	0.177
700	0.177
701	0.176
701	0.176
702	0.175
702	0.175
702	0.175
703	0.174
703	0.174
704	0.173
704	0.173
705	0.173
705	0.173
705	0.173
706	0.173
706	0.173
707	0.173
707	0.173
708	0.173
708	0.174
709	0.174
709	0.174
709	0.173
710	0.174
710	0.174
711	0.175
711	0.175
712	0.176
712	0.176
713	0.176
713	0.176
713	0.176
714	0.177
714	0.177
715	0.177
715	0.176
716	0.176
716	0.175
716	0.174
717	0.174
717	0.173
718	0.173
718	0.173
719	0.174
719	0.174
720	0.175
720	0.175
720	0.176
721	0.177
721	0.178
722	0.179
722	0.179
723	0.179
723	0.179
723	0.179
724	0.179
724	0.178
725	0.177
725	0.176
726	0.175
726	0.175
727	0.174
727	0.174
727	0.174
728	0.174
728	0.174
729	0.174
729	0.174
730	0.175
730	0.175
730	0.176
731	0.176
731	0.177
732	0.178
732	0.178
733	0.178
733	0.179
734	0.179
734	0.179
734	0.18
735	0.18
735	0.179
736	0.179
736	0.179
737	0.178
737	0.178
737	0.178
738	0.177
738	0.176
739	0.176
739	0.176
740	0.176
740	0.176
741	0.177
741	0.177
741	0.177
742	0.178
742	0.179
743	0.18
743	0.181
744	0.182
744	0.182
744	0.183
745	0.183
745	0.182
746	0.182
746	0.182
747	0.182
747	0.182
748	0.181
748	0.181
748	0.181
749	0.181
749	0.181
750	0.181
750	0.181
751	0.182
751	0.182
751	0.183
752	0.183
752	0.182
753	0.182
753	0.182
754	0.182
754	0.182
754	0.182
755	0.182
755	0.181
756	0.181
756	0.18
757	0.18
757	0.18
758	0.18
758	0.18
758	0.18
759	0.18
759	0.179
760	0.179
760	0.179
761	0.179
761	0.18
761	0.18
762	0.18
762	0.18
763	0.181
763	0.18
764	0.18
764	0.181
764	0.181
765	0.181
765	0.181
766	0.181
766	0.181
767	0.181
767	0.181
768	0.18
768	0.18
768	0.181
769	0.181
769	0.181
770	0.182
770	0.182
771	0.182
771	0.183
771	0.183
772	0.183
772	0.183
773	0.184
773	0.184
774	0.184
774	0.184
775	0.184
775	0.185
775	0.185
776	0.185
776	0.186
777	0.187
777	0.188
778	0.188
778	0.188
778	0.188
779	0.188
779	0.187
780	0.186
780	0.186
781	0.185
781	0.184
781	0.183
782	0.183
782	0.182
783	0.183
783	0.183
784	0.183
784	0.183
784	0.184
785	0.184
785	0.185
786	0.185
786	0.186
787	0.187
787	0.187
788	0.187
788	0.187
788	0.187
789	0.187
789	0.187
790	0.188
790	0.188
791	0.188
791	0.187
791	0.187
792	0.188
792	0.188
793	0.187
793	0.187
794	0.186
794	0.186
794	0.185
795	0.185
795	0.185
796	0.185
796	0.184
797	0.184
797	0.184
797	0.184
798	0.184
798	0.185
799	0.185
799	0.186
800	0.186
800	0.186
801	0.187
801	0.188
801	0.188
802	0.189
802	0.189
803	0.19
803	0.19
804	0.191
804	0.191
804	0.191
805	0.191
805	0.191
806	0.191
806	0.191
807	0.19
807	0.19
807	0.19
808	0.189
808	0.189
809	0.189
809	0.189
810	0.189
810	0.189
810	0.189
811	0.189
811	0.19
812	0.19
812	0.191
813	0.191
813	0.192
813	0.193
814	0.193
814	0.194
815	0.194
815	0.195
816	0.195
816	0.194
817	0.194
817	0.193
817	0.193
818	0.193
818	0.192
819	0.192
819	0.191
820	0.19
820	0.19
820	0.189
821	0.189
821	0.189
822	0.189
822	0.19
823	0.19
823	0.19
823	0.19
824	0.191
824	0.192
825	0.194
825	0.195
826	0.196
826	0.196
826	0.197
827	0.198
827	0.198
828	0.199
828	0.199
829	0.2
829	0.2
829	0.2
830	0.2
830	0.2
831	0.201
831	0.2
832	0.2
832	0.2
832	0.2
833	0.199
833	0.199
834	0.199
834	0.198
835	0.197
835	0.197
835	0.196
836	0.196
836	0.196
837	0.195
837	0.195
838	0.195
838	0.194
839	0.193
839	0.192
839	0.192
840	0.191
840	0.19
841	0.189
841	0.189
842	0.188
842	0.187
842	0.186
843	0.186
843	0.185
844	0.185
844	0.185
845	0.185
845	0.185
845	0.185
846	0.186
846	0.186
847	0.186
847	0.187
848	0.187
848	0.187
848	0.187
849	0.188
849	0.187
850	0.187
850	0.187
851	0.187
851	0.187
851	0.186
852	0.186
852	0.186
853	0.186
853	0.186
854	0.186
854	0.187
854	0.188
855	0.189
855	0.189
856	0.19
856	0.191
857	0.192
857	0.193
857	0.193
858	0.194
858	0.194
859	0.194
859	0.195
860	0.195
860	0.196
860	0.196
861	0.196
861	0.196
862	0.195
862	0.195
863	0.194
863	0.194
863	0.194
864	0.194
864	0.194
865	0.194
865	0.194
866	0.194
866	0.194
866	0.194
867	0.194
867	0.194
868	0.194
868	0.193
869	0.193
869	0.193
869	0.192
870	0.191
870	0.191
871	0.19
871	0.19
872	0.19
872	0.19
872	0.19
873	0.19
873	0.189
874	0.189
874	0.189
875	0.189
875	0.189
875	0.189
876	0.188
876	0.188
877	0.188
877	0.187
878	0.187
878	0.187
878	0.187
879	0.187
879	0.187
880	0.187
880	0.187
881	0.187
881	0.188
881	0.188
882	0.188
882	0.188
883	0.188
883	0.188
884	0.189
884	0.189
884	0.189
885	0.189
885	0.189
886	0.189
886	0.189
887	0.188
887	0.188
887	0.188
888	0.187
888	0.187
889	0.187
889	0.187
890	0.187
890	0.187
890	0.187
891	0.187
891	0.187
892	0.187
892	0.187
893	0.187
893	0.186
893	0.186
894	0.185
894	0.185
895	0.184
895	0.184
895	0.184
896	0.184
896	0.184
897	0.183
897	0.183
898	0.183
898	0.183
898	0.183
899	0.183
899	0.183
900	0.182
900	0.182
901	0.182
901	0.182
901	0.181
902	0.181
902	0.181
903	0.181
903	0.181
904	0.18
904	0.18
904	0.179
905	0.179
905	0.179
906	0.179
906	0.179
907	0.179
907	0.179
907	0.179
908	0.179
908	0.179
909	0.178
909	0.178
910	0.178
910	0.178
910	0.177
911	0.176
911	0.176
912	0.175
912	0.174
913	0.174
913	0.173
913	0.173
914	0.172
914	0.172
915	0.172
915	0.171
916	0.171
916	0.171
916	0.171
917	0.17
917	0.17
918	0.17
918	0.17
918	0.169
919	0.169
919	0.169
920	0.169
920	0.169
921	0.169
921	0.169
921	0.17
922	0.17
922	0.17
923	0.171
923	0.171
924	0.171
924	0.172
924	0.172
925	0.172
925	0.172
926	0.172
926	0.172
927	0.172
927	0.171
927	0.171
928	0.171
928	0.171
929	0.171
929	0.171
930	0.171
930	0.17
930	0.17
931	0.17
931	0.17
932	0.17
932	0.17
933	0.17
933	0.17
933	0.169
934	0.169
934	0.169
935	0.168
935	0.168
935	0.167
936	0.167
936	0.166
937	0.166
937	0.165
938	0.164
938	0.164
938	0.163
939	0.162
939	0.161
940	0.161
940	0.161
941	0.161
941	0.16
941	0.161
942	0.161
942	0.161
943	0.162
943	0.162
944	0.162
944	0.163
944	0.163
945	0.163
945	0.164
946	0.164
946	0.164
946	0.164
947	0.164
947	0.164
948	0.163
948	0.163
949	0.162
949	0.162
949	0.161
950	0.16
950	0.159
951	0.158
951	0.157
952	0.156
952	0.155
952	0.154
953	0.154
953	0.153
954	0.153
954	0.153
955	0.153
955	0.152
955	0.153
956	0.153
956	0.154
957	0.155
957	0.155
957	0.156
958	0.157
958	0.157
959	0.158
959	0.158
960	0.158
960	0.159
960	0.159
961	0.158
961	0.158
962	0.158
962	0.157
963	0.157
963	0.156
963	0.156
964	0.156
964	0.156
965	0.155
965	0.155
966	0.155
966	0.155
966	0.156
967	0.156
967	0.156
968	0.156
968	0.157
968	0.156
969	0.156
969	0.155
970	0.155
970	0.154
971	0.153
971	0.152
971	0.15
972	0.149
972	0.148
973	0.147
973	0.147
974	0.146
974	0.146
974	0.146
975	0.146
975	0.146
976	0.147
976	0.147
976	0.147
977	0.148
977	0.148
978	0.148
978	0.148
979	0.148
979	0.148
979	0.148
980	0.148
980	0.148
981	0.147
981	0.147
982	0.147
982	0.147
982	0.147
983	0.147
983	0.147
984	0.147
984	0.148
984	0.148
985	0.148
985	0.148
986	0.148
986	0.148
987	0.148
987	0.148
987	0.147
988	0.147
988	0.147
989	0.146
989	0.146
990	0.145
990	0.145
990	0.144
991	0.144
991	0.143
992	0.142
992	0.141
992	0.14
993	0.139
993	0.138
994	0.137
994	0.136
995	0.136
995	0.135
995	0.135
996	0.135
996	0.135
997	0.135
997	0.136
997	0.137
998	0.138
998	0.139
999	0.14
999	0.141
1000	0.142
1000	0.143
1000	0.143
1001	0.144
1001	0.144
1002	0.144
1002	0.144
1003	0.144
1003	0.144
1003	0.144
1004	0.143
1004	0.143
1005	0.142
1005	0.142
1005	0.141
1006	0.141
1006	0.14
1007	0.14
1007	0.139
1008	0.139
1008	0.138
1008	0.138
1009	0.137
1009	0.137
1010	0.136
1010	0.136
1010	0.135
1011	0.135
1011	0.134
1012	0.134
1012	0.133
1013	0.133
1013	0.132
1013	0.132
1014	0.132
1014	0.132
1015	0.131
1015	0.131
1016	0.131
1016	0.131
1016	0.131
1017	0.131
1017	0.131
1018	0.13
1018	0.13
1018	0.13
1019	0.13
1019	0.13
1020	0.13
1020	0.13
1021	0.13
1021	0.13
1021	0.131
1022	0.131
1022	0.131
1023	0.131
1023	0.131
1023	0.132
1024	0.132
1024	0.131
1025	0.131
1025	0.131
1026	0.131
1026	0.131
1026	0.131
1027	0.131
1027	0.13
1028	0.13
1028	0.131
1028	0.13
1029	0.131
1029	0.13
1030	0.13
1030	0.131
1031	0.131
1031	0.131
1031	0.131
1032	0.131
1032	0.131
1033	0.131
1033	0.131
1033	0.131
1034	0.131
1034	0.131
1035	0.131
1035	0.13
1036	0.13
1036	0.13
1036	0.13
1037	0.129
1037	0.129
1038	0.129
1038	0.129
1039	0.128
1039	0.128
1039	0.128
1040	0.128
1040	0.128
1041	0.127
1041	0.127
1041	0.127
1042	0.127
1042	0.127
1043	0.126
1043	0.126
1044	0.125
1044	0.125
1044	0.125
1045	0.125
1045	0.125
1046	0.125
1046	0.124
1046	0.124
1047	0.124
1047	0.124
1048	0.124
1048	0.124
1049	0.123
1049	0.123
1049	0.123
1050	0.123
1050	0.122
1051	0.122
1051	0.121
1051	0.121
1052	0.12
1052	0.12
1053	0.119
1053	0.119
1053	0.118
1054	0.118
1054	0.117
1055	0.117
1055	0.116
1056	0.116
1056	0.115
1056	0.115
1057	0.114
1057	0.114
1058	0.113
1058	0.112
1058	0.111
1059	0.111
1059	0.11
1060	0.109
1060	0.109
1061	0.108
1061	0.108
1061	0.107
1062	0.107
1062	0.107
1063	0.107
1063	0.107
1063	0.107
1064	0.106
1064	0.106
1065	0.106
1065	0.106
1066	0.106
1066	0.106
1066	0.105
1067	0.105
1067	0.105
1068	0.105
1068	0.105
1068	0.105
1069	0.105
1069	0.104
1070	0.105
1070	0.104
1071	0.104
1071	0.104
1071	0.104
1072	0.104
1072	0.104
1073	0.103
1073	0.103
1073	0.104
1074	0.104
1074	0.105
1075	0.105
1075	0.106
1076	0.107
1076	0.108
1076	0.108
1077	0.108
1077	0.109
1078	0.109
1078	0.109
1078	0.109
1079	0.108
1079	0.108
1080	0.107
1080	0.106
1080	0.106
1081	0.106
1081	0.106
1082	0.106
1082	0.106
1083	0.106
1083	0.106
1083	0.106
1084	0.106
1084	0.107
1085	0.106
1085	0.107
1085	0.107
1086	0.107
1086	0.106
1087	0.106
1087	0.105
1088	0.105
1088	0.105
1088	0.105
1089	0.104
1089	0.103
1090	0.102
1090	0.101
1090	0.099
1091	0.099
1091	0.098
1092	0.099
1092	0.099
1092	0.098
1093	0.098
1093	0.098
1094	0.098
1094	0.098
1095	0.097
1095	0.097
1095	0.097
1096	0.096
1096	0.094
1097	0.093
1097	0.092
1097	0.092
1098	0.091
1098	0.089
1099	0.088
1099	0.087
1100	0.085
1100	0.085
1100	0.084
1101	0.083
1101	0.083
1102	0.083
1102	0.082
1102	0.08
1103	0.08
1103	0.08
1104	0.08
1104	0.081
1104	0.08
1105	0.08
1105	0.079
1106	0.077
1106	0.076
1107	0.075
1107	0.075
1107	0.075
1108	0.073
1108	0.072
1109	0.071
1109	0.071
1109	0.07
1110	0.07
1110	0.071
1111	0.071
1111	0.066
