Data from reversibility-20sec_Absorbance__7936__000000000007936.txt Node

Date: Thu Dec 07 08:18:26 CET 2023
User: Marek
Spectrometer: MAYP115816
Trigger mode: 0
Integration Time (sec): 2.000000E-1
Scans to average: 10
Electric dark correction enabled: true
Nonlinearity correction enabled: true
Boxcar width: 5
XAxis mode: Wavelengths
Number of Pixels in Spectrum: 2068
>>>>>Begin Spectral Data<<<<<
199	-0.131
199	-0.096
200	-0.027
200	0.016
201	0.044
201	0.059
202	0.063
202	0.071
203	0.081
203	0.084
204	0.099
204	0.111
205	0.121
205	0.124
205	0.122
206	0.121
206	0.122
207	0.125
207	0.126
208	0.124
208	0.123
209	0.125
209	0.123
210	0.124
210	0.125
211	0.127
211	0.129
212	0.128
212	0.132
213	0.133
213	0.135
213	0.135
214	0.137
214	0.138
215	0.137
215	0.139
216	0.142
216	0.138
217	0.141
217	0.142
218	0.141
218	0.147
219	0.152
219	0.153
220	0.157
220	0.156
221	0.158
221	0.16
221	0.17
222	0.176
222	0.182
223	0.186
223	0.188
224	0.192
224	0.2
225	0.211
225	0.226
226	0.238
226	0.25
227	0.258
227	0.268
228	0.28
228	0.297
229	0.314
229	0.341
229	0.365
230	0.389
230	0.418
231	0.447
231	0.483
232	0.522
232	0.567
233	0.609
233	0.654
234	0.708
234	0.76
235	0.813
235	0.867
236	0.917
236	0.968
236	1.017
237	1.067
237	1.115
238	1.163
238	1.212
239	1.254
239	1.29
240	1.327
240	1.362
241	1.395
241	1.43
242	1.464
242	1.497
243	1.527
243	1.554
243	1.58
244	1.601
244	1.623
245	1.641
245	1.662
246	1.679
246	1.696
247	1.708
247	1.72
248	1.734
248	1.745
249	1.753
249	1.761
250	1.768
250	1.779
250	1.781
251	1.786
251	1.789
252	1.796
252	1.797
253	1.796
253	1.796
254	1.798
254	1.8
255	1.799
255	1.8
256	1.801
256	1.801
257	1.801
257	1.8
258	1.799
258	1.799
258	1.8
259	1.799
259	1.798
260	1.798
260	1.797
261	1.798
261	1.798
262	1.799
262	1.798
263	1.801
263	1.803
264	1.801
264	1.801
265	1.802
265	1.801
265	1.801
266	1.8
266	1.801
267	1.799
267	1.8
268	1.8
268	1.799
269	1.799
269	1.798
270	1.797
270	1.797
271	1.796
271	1.794
272	1.792
272	1.791
272	1.788
273	1.783
273	1.778
274	1.775
274	1.772
275	1.767
275	1.761
276	1.754
276	1.746
277	1.738
277	1.727
278	1.715
278	1.702
278	1.689
279	1.676
279	1.658
280	1.638
280	1.612
281	1.582
281	1.549
282	1.514
282	1.477
283	1.44
283	1.403
284	1.366
284	1.328
285	1.293
285	1.261
285	1.232
286	1.205
286	1.182
287	1.162
287	1.144
288	1.129
288	1.115
289	1.104
289	1.093
290	1.084
290	1.076
291	1.069
291	1.063
292	1.057
292	1.052
292	1.047
293	1.042
293	1.038
294	1.033
294	1.03
295	1.026
295	1.022
296	1.018
296	1.015
297	1.011
297	1.008
298	1.005
298	1.002
298	0.999
299	0.996
299	0.992
300	0.989
300	0.986
301	0.982
301	0.98
302	0.977
302	0.974
303	0.97
303	0.967
304	0.964
304	0.961
305	0.959
305	0.957
305	0.954
306	0.951
306	0.948
307	0.946
307	0.942
308	0.94
308	0.937
309	0.934
309	0.931
310	0.927
310	0.924
311	0.921
311	0.917
311	0.914
312	0.91
312	0.906
313	0.902
313	0.898
314	0.894
314	0.89
315	0.886
315	0.881
316	0.876
316	0.872
317	0.867
317	0.862
318	0.857
318	0.851
318	0.846
319	0.84
319	0.835
320	0.829
320	0.823
321	0.817
321	0.81
322	0.804
322	0.798
323	0.791
323	0.784
324	0.778
324	0.771
324	0.764
325	0.757
325	0.75
326	0.743
326	0.736
327	0.729
327	0.722
328	0.715
328	0.708
329	0.701
329	0.694
330	0.687
330	0.68
330	0.672
331	0.665
331	0.658
332	0.651
332	0.644
333	0.637
333	0.63
334	0.623
334	0.616
335	0.609
335	0.602
336	0.595
336	0.588
336	0.582
337	0.575
337	0.569
338	0.562
338	0.556
339	0.549
339	0.543
340	0.537
340	0.531
341	0.526
341	0.52
342	0.514
342	0.509
342	0.503
343	0.498
343	0.493
344	0.487
344	0.482
345	0.477
345	0.473
346	0.468
346	0.463
347	0.459
347	0.454
348	0.45
348	0.446
348	0.442
349	0.439
349	0.435
350	0.431
350	0.427
351	0.424
351	0.42
352	0.417
352	0.414
353	0.411
353	0.408
354	0.405
354	0.402
354	0.399
355	0.396
355	0.393
356	0.39
356	0.387
357	0.383
357	0.38
358	0.378
358	0.375
359	0.373
359	0.37
360	0.368
360	0.366
360	0.364
361	0.362
361	0.36
362	0.359
362	0.357
363	0.355
363	0.353
364	0.351
364	0.349
365	0.347
365	0.345
366	0.343
366	0.341
366	0.34
367	0.338
367	0.336
368	0.334
368	0.333
369	0.331
369	0.33
370	0.328
370	0.327
371	0.325
371	0.324
372	0.322
372	0.321
372	0.32
373	0.319
373	0.318
374	0.317
374	0.316
375	0.315
375	0.314
376	0.313
376	0.312
377	0.31
377	0.309
378	0.308
378	0.307
378	0.306
379	0.305
379	0.305
380	0.304
380	0.303
381	0.302
381	0.301
382	0.301
382	0.3
383	0.299
383	0.299
383	0.298
384	0.298
384	0.297
385	0.297
385	0.296
386	0.295
386	0.295
387	0.294
387	0.294
388	0.293
388	0.293
389	0.293
389	0.292
389	0.292
390	0.291
390	0.29
391	0.29
391	0.29
392	0.289
392	0.289
393	0.288
393	0.288
394	0.287
394	0.287
394	0.286
395	0.286
395	0.286
396	0.285
396	0.285
397	0.284
397	0.284
398	0.284
398	0.283
399	0.283
399	0.282
400	0.282
400	0.281
400	0.281
401	0.281
401	0.28
402	0.28
402	0.279
403	0.279
403	0.279
404	0.278
404	0.278
405	0.278
405	0.277
405	0.277
406	0.277
406	0.277
407	0.276
407	0.276
408	0.276
408	0.275
409	0.275
409	0.275
410	0.274
410	0.274
411	0.274
411	0.273
411	0.273
412	0.273
412	0.272
413	0.272
413	0.272
414	0.271
414	0.271
415	0.271
415	0.27
416	0.27
416	0.27
416	0.269
417	0.269
417	0.269
418	0.269
418	0.268
419	0.268
419	0.267
420	0.267
420	0.266
421	0.266
421	0.265
421	0.265
422	0.264
422	0.264
423	0.263
423	0.263
424	0.263
424	0.262
425	0.262
425	0.262
426	0.262
426	0.262
427	0.261
427	0.261
427	0.261
428	0.261
428	0.26
429	0.26
429	0.259
430	0.259
430	0.259
431	0.258
431	0.258
432	0.258
432	0.258
432	0.258
433	0.257
433	0.257
434	0.257
434	0.257
435	0.257
435	0.257
436	0.257
436	0.256
437	0.256
437	0.256
437	0.256
438	0.255
438	0.255
439	0.255
439	0.255
440	0.254
440	0.254
441	0.254
441	0.254
442	0.254
442	0.253
442	0.253
443	0.253
443	0.253
444	0.253
444	0.253
445	0.253
445	0.253
446	0.252
446	0.252
447	0.252
447	0.252
447	0.251
448	0.252
448	0.251
449	0.251
449	0.251
450	0.251
450	0.251
451	0.251
451	0.251
452	0.251
452	0.251
452	0.251
453	0.251
453	0.251
454	0.251
454	0.25
455	0.25
455	0.25
456	0.25
456	0.25
457	0.25
457	0.249
458	0.249
458	0.249
458	0.249
459	0.249
459	0.249
460	0.249
460	0.249
461	0.25
461	0.25
462	0.25
462	0.25
463	0.25
463	0.249
463	0.249
464	0.249
464	0.249
465	0.249
465	0.249
466	0.249
466	0.249
467	0.249
467	0.249
467	0.249
468	0.249
468	0.25
469	0.25
469	0.25
470	0.251
470	0.251
471	0.251
471	0.251
472	0.251
472	0.251
472	0.252
473	0.252
473	0.252
474	0.252
474	0.252
475	0.252
475	0.252
476	0.253
476	0.253
477	0.253
477	0.254
477	0.254
478	0.254
478	0.255
479	0.256
479	0.256
480	0.256
480	0.257
481	0.257
481	0.257
482	0.258
482	0.258
482	0.259
483	0.259
483	0.26
484	0.26
484	0.26
485	0.26
485	0.261
486	0.261
486	0.261
487	0.262
487	0.262
487	0.263
488	0.263
488	0.264
489	0.265
489	0.266
490	0.267
490	0.268
491	0.269
491	0.27
492	0.271
492	0.272
492	0.273
493	0.274
493	0.275
494	0.276
494	0.277
495	0.278
495	0.278
496	0.279
496	0.28
496	0.281
497	0.282
497	0.283
498	0.284
498	0.285
499	0.286
499	0.287
500	0.288
500	0.289
501	0.29
501	0.291
501	0.292
502	0.293
502	0.294
503	0.294
503	0.295
504	0.296
504	0.297
505	0.298
505	0.299
506	0.3
506	0.3
506	0.301
507	0.302
507	0.303
508	0.304
508	0.305
509	0.306
509	0.306
510	0.307
510	0.308
511	0.309
511	0.31
511	0.311
512	0.312
512	0.312
513	0.313
513	0.313
514	0.314
514	0.315
515	0.315
515	0.316
515	0.316
516	0.316
516	0.317
517	0.318
517	0.318
518	0.318
518	0.319
519	0.319
519	0.319
520	0.319
520	0.319
520	0.32
521	0.32
521	0.32
522	0.32
522	0.32
523	0.32
523	0.32
524	0.32
524	0.32
524	0.32
525	0.32
525	0.319
526	0.319
526	0.319
527	0.318
527	0.318
528	0.317
528	0.317
529	0.316
529	0.315
529	0.314
530	0.313
530	0.313
531	0.312
531	0.311
532	0.31
532	0.309
533	0.307
533	0.307
533	0.306
534	0.305
534	0.304
535	0.303
535	0.302
536	0.301
536	0.3
537	0.299
537	0.298
538	0.297
538	0.295
538	0.294
539	0.293
539	0.292
540	0.291
540	0.29
541	0.288
541	0.287
542	0.286
542	0.284
542	0.283
543	0.281
543	0.28
544	0.278
544	0.277
545	0.275
545	0.274
546	0.273
546	0.271
547	0.269
547	0.268
547	0.266
548	0.265
548	0.263
549	0.262
549	0.261
550	0.259
550	0.258
551	0.256
551	0.255
551	0.253
552	0.252
552	0.25
553	0.249
553	0.248
554	0.246
554	0.245
555	0.243
555	0.241
556	0.24
556	0.239
556	0.238
557	0.237
557	0.236
558	0.234
558	0.233
559	0.232
559	0.231
560	0.23
560	0.228
560	0.227
561	0.226
561	0.225
562	0.223
562	0.221
563	0.219
563	0.218
564	0.216
564	0.215
564	0.213
565	0.212
565	0.211
566	0.21
566	0.209
567	0.208
567	0.207
568	0.206
568	0.205
568	0.204
569	0.202
569	0.201
570	0.199
570	0.197
571	0.196
571	0.195
572	0.194
572	0.192
573	0.191
573	0.19
573	0.189
574	0.188
574	0.188
575	0.187
575	0.187
576	0.186
576	0.184
577	0.183
577	0.182
577	0.182
578	0.181
578	0.18
579	0.18
579	0.179
580	0.178
580	0.177
581	0.175
581	0.175
581	0.174
582	0.174
582	0.173
583	0.173
583	0.172
584	0.17
584	0.168
585	0.168
585	0.167
585	0.166
586	0.166
586	0.165
587	0.164
587	0.164
588	0.163
588	0.162
589	0.162
589	0.162
590	0.161
590	0.161
590	0.16
591	0.16
591	0.159
592	0.158
592	0.157
593	0.156
593	0.155
594	0.154
594	0.153
594	0.153
595	0.152
595	0.151
596	0.15
596	0.15
597	0.15
597	0.15
598	0.15
598	0.149
598	0.149
599	0.149
599	0.148
600	0.147
600	0.147
601	0.146
601	0.146
602	0.145
602	0.144
602	0.144
603	0.143
603	0.143
604	0.143
604	0.143
605	0.143
605	0.142
606	0.142
606	0.141
606	0.14
607	0.14
607	0.139
608	0.139
608	0.138
609	0.137
609	0.137
610	0.136
610	0.136
610	0.136
611	0.135
611	0.135
612	0.135
612	0.135
613	0.135
613	0.134
614	0.134
614	0.134
614	0.134
615	0.134
615	0.133
616	0.133
616	0.133
617	0.133
617	0.133
618	0.132
618	0.132
618	0.132
619	0.132
619	0.132
620	0.132
620	0.131
621	0.13
621	0.13
622	0.129
622	0.129
622	0.128
623	0.128
623	0.127
624	0.127
624	0.127
625	0.126
625	0.126
626	0.126
626	0.125
626	0.125
627	0.125
627	0.125
628	0.125
628	0.125
629	0.125
629	0.125
630	0.124
630	0.124
630	0.123
631	0.123
631	0.123
632	0.122
632	0.122
633	0.122
633	0.122
634	0.122
634	0.122
634	0.121
635	0.121
635	0.121
636	0.121
636	0.121
637	0.121
637	0.12
638	0.12
638	0.12
638	0.119
639	0.119
639	0.118
640	0.118
640	0.118
641	0.118
641	0.117
642	0.117
642	0.117
642	0.116
643	0.116
643	0.116
644	0.116
644	0.116
645	0.116
645	0.117
646	0.117
646	0.117
646	0.117
647	0.117
647	0.116
648	0.116
648	0.115
649	0.115
649	0.114
650	0.114
650	0.114
650	0.114
651	0.114
651	0.113
652	0.114
652	0.114
653	0.115
653	0.116
653	0.121
654	0.097
654	0.079
655	0.077
655	0.077
656	0.077
656	0.078
657	0.078
657	0.078
657	0.078
658	0.077
658	0.07
659	0.087
659	0.11
660	0.115
660	0.115
661	0.114
661	0.113
661	0.113
662	0.112
662	0.111
663	0.111
663	0.11
664	0.11
664	0.11
665	0.109
665	0.109
665	0.109
666	0.11
666	0.11
667	0.11
667	0.11
668	0.111
668	0.111
669	0.111
669	0.111
669	0.112
670	0.112
670	0.112
671	0.111
671	0.111
672	0.111
672	0.11
672	0.11
673	0.11
673	0.11
674	0.11
674	0.109
675	0.109
675	0.109
676	0.109
676	0.109
676	0.109
677	0.109
677	0.109
678	0.109
678	0.109
679	0.108
679	0.108
680	0.108
680	0.108
680	0.108
681	0.108
681	0.109
682	0.109
682	0.109
683	0.109
683	0.11
684	0.11
684	0.109
684	0.109
685	0.109
685	0.109
686	0.109
686	0.108
687	0.108
687	0.108
687	0.108
688	0.108
688	0.108
689	0.108
689	0.109
690	0.109
690	0.108
691	0.109
691	0.109
691	0.109
692	0.109
692	0.109
693	0.11
693	0.11
694	0.11
694	0.11
695	0.11
695	0.111
695	0.111
696	0.111
696	0.111
697	0.111
697	0.111
698	0.111
698	0.11
698	0.11
699	0.11
699	0.11
700	0.109
700	0.109
701	0.109
701	0.109
702	0.108
702	0.107
702	0.107
703	0.107
703	0.106
704	0.105
704	0.105
705	0.105
705	0.105
705	0.104
706	0.105
706	0.105
707	0.105
707	0.105
708	0.105
708	0.105
709	0.105
709	0.105
709	0.105
710	0.105
710	0.106
711	0.106
711	0.106
712	0.106
712	0.106
713	0.106
713	0.106
713	0.106
714	0.105
714	0.105
715	0.105
715	0.104
716	0.104
716	0.103
716	0.103
717	0.102
717	0.102
718	0.102
718	0.102
719	0.103
719	0.103
720	0.104
720	0.104
720	0.105
721	0.106
721	0.106
722	0.107
722	0.107
723	0.108
723	0.108
723	0.107
724	0.107
724	0.107
725	0.106
725	0.105
726	0.104
726	0.104
727	0.103
727	0.103
727	0.102
728	0.102
728	0.102
729	0.102
729	0.102
730	0.102
730	0.103
730	0.103
731	0.103
731	0.104
732	0.104
732	0.104
733	0.104
733	0.104
734	0.104
734	0.104
734	0.105
735	0.105
735	0.105
736	0.104
736	0.104
737	0.104
737	0.104
737	0.104
738	0.103
738	0.103
739	0.102
739	0.103
740	0.102
740	0.103
741	0.103
741	0.104
741	0.104
742	0.104
742	0.105
743	0.106
743	0.106
744	0.106
744	0.106
744	0.106
745	0.105
745	0.105
746	0.105
746	0.105
747	0.104
747	0.104
748	0.104
748	0.104
748	0.104
749	0.104
749	0.104
750	0.105
750	0.105
751	0.105
751	0.105
751	0.105
752	0.105
752	0.104
753	0.104
753	0.103
754	0.103
754	0.102
754	0.102
755	0.101
755	0.101
756	0.1
756	0.099
757	0.098
757	0.098
758	0.098
758	0.097
758	0.098
759	0.098
759	0.097
760	0.097
760	0.097
761	0.098
761	0.098
761	0.099
762	0.099
762	0.1
763	0.1
763	0.099
764	0.099
764	0.099
764	0.099
765	0.098
765	0.098
766	0.098
766	0.098
767	0.097
767	0.096
768	0.096
768	0.096
768	0.096
769	0.096
769	0.096
770	0.096
770	0.096
771	0.096
771	0.096
771	0.097
772	0.097
772	0.098
773	0.098
773	0.098
774	0.098
774	0.099
775	0.099
775	0.1
775	0.1
776	0.1
776	0.101
777	0.102
777	0.102
778	0.102
778	0.102
778	0.101
779	0.101
779	0.1
780	0.098
780	0.097
781	0.096
781	0.095
781	0.093
782	0.093
782	0.092
783	0.092
783	0.092
784	0.092
784	0.092
784	0.092
785	0.093
785	0.093
786	0.094
786	0.094
787	0.094
787	0.094
788	0.094
788	0.093
788	0.093
789	0.093
789	0.093
790	0.093
790	0.093
791	0.092
791	0.092
791	0.091
792	0.092
792	0.091
793	0.09
793	0.09
794	0.09
794	0.089
794	0.089
795	0.088
795	0.088
796	0.088
796	0.088
797	0.087
797	0.088
797	0.088
798	0.088
798	0.088
799	0.088
799	0.088
800	0.088
800	0.088
801	0.089
801	0.089
801	0.09
802	0.09
802	0.091
803	0.091
803	0.092
804	0.093
804	0.093
804	0.093
805	0.093
805	0.093
806	0.092
806	0.092
807	0.092
807	0.091
807	0.091
808	0.091
808	0.091
809	0.09
809	0.09
810	0.09
810	0.09
810	0.09
811	0.09
811	0.09
812	0.091
812	0.09
813	0.09
813	0.09
813	0.09
814	0.091
814	0.091
815	0.091
815	0.091
816	0.09
816	0.09
817	0.089
817	0.089
817	0.089
818	0.088
818	0.088
819	0.088
819	0.087
820	0.086
820	0.086
820	0.086
821	0.086
821	0.086
822	0.086
822	0.086
823	0.086
823	0.085
823	0.086
824	0.086
824	0.087
825	0.088
825	0.089
826	0.09
826	0.09
826	0.091
827	0.092
827	0.092
828	0.092
828	0.093
829	0.093
829	0.093
829	0.093
830	0.094
830	0.094
831	0.095
831	0.095
832	0.094
832	0.094
832	0.094
833	0.094
833	0.093
834	0.092
834	0.092
835	0.091
835	0.09
835	0.089
836	0.089
836	0.088
837	0.087
837	0.087
838	0.086
838	0.086
839	0.085
839	0.084
839	0.083
840	0.083
840	0.082
841	0.081
841	0.08
842	0.079
842	0.078
842	0.077
843	0.077
843	0.076
844	0.075
844	0.075
845	0.074
845	0.074
845	0.074
846	0.074
846	0.074
847	0.075
847	0.075
848	0.076
848	0.076
848	0.076
849	0.076
849	0.076
850	0.076
850	0.076
851	0.075
851	0.075
851	0.075
852	0.074
852	0.074
853	0.074
853	0.074
854	0.075
854	0.076
854	0.077
855	0.078
855	0.079
856	0.08
856	0.081
857	0.082
857	0.083
857	0.084
858	0.084
858	0.084
859	0.083
859	0.083
860	0.082
860	0.082
860	0.081
861	0.08
861	0.08
862	0.079
862	0.078
863	0.078
863	0.078
863	0.078
864	0.078
864	0.078
865	0.079
865	0.079
866	0.079
866	0.079
866	0.079
867	0.079
867	0.079
868	0.079
868	0.079
869	0.079
869	0.079
869	0.079
870	0.079
870	0.078
871	0.078
871	0.078
872	0.078
872	0.078
872	0.078
873	0.077
873	0.077
874	0.076
874	0.076
875	0.076
875	0.076
875	0.075
876	0.075
876	0.075
877	0.075
877	0.075
878	0.075
878	0.075
878	0.075
879	0.076
879	0.076
880	0.076
880	0.076
881	0.076
881	0.076
881	0.076
882	0.076
882	0.076
883	0.076
883	0.076
884	0.076
884	0.075
884	0.075
885	0.075
885	0.075
886	0.075
886	0.074
887	0.074
887	0.074
887	0.074
888	0.073
888	0.073
889	0.073
889	0.073
890	0.074
890	0.074
890	0.075
891	0.075
891	0.075
892	0.075
892	0.075
893	0.075
893	0.075
893	0.074
894	0.074
894	0.073
895	0.073
895	0.073
895	0.073
896	0.073
896	0.073
897	0.073
897	0.073
898	0.074
898	0.074
898	0.074
899	0.074
899	0.074
900	0.073
900	0.073
901	0.073
901	0.072
901	0.072
902	0.072
902	0.071
903	0.071
903	0.071
904	0.071
904	0.071
904	0.071
905	0.07
905	0.07
906	0.07
906	0.07
907	0.07
907	0.071
907	0.07
908	0.07
908	0.069
909	0.069
909	0.069
910	0.068
910	0.068
910	0.068
911	0.067
911	0.066
912	0.066
912	0.066
913	0.065
913	0.065
913	0.064
914	0.064
914	0.063
915	0.063
915	0.063
916	0.063
916	0.062
916	0.062
917	0.061
917	0.061
918	0.061
918	0.06
918	0.06
919	0.059
919	0.059
920	0.059
920	0.059
921	0.059
921	0.059
921	0.059
922	0.059
922	0.059
923	0.059
923	0.06
924	0.061
924	0.062
924	0.062
925	0.063
925	0.063
926	0.064
926	0.064
927	0.065
927	0.065
927	0.065
928	0.065
928	0.065
929	0.065
929	0.066
930	0.066
930	0.066
930	0.066
931	0.066
931	0.065
932	0.066
932	0.066
933	0.066
933	0.065
933	0.065
934	0.064
934	0.064
935	0.064
935	0.063
935	0.063
936	0.062
936	0.061
937	0.061
937	0.06
938	0.059
938	0.058
938	0.057
939	0.057
939	0.056
940	0.056
940	0.056
941	0.056
941	0.057
941	0.057
942	0.058
942	0.058
943	0.059
943	0.06
944	0.06
944	0.061
944	0.062
945	0.062
945	0.063
946	0.063
946	0.063
946	0.064
947	0.064
947	0.064
948	0.064
948	0.063
949	0.063
949	0.062
949	0.061
950	0.061
950	0.06
951	0.059
951	0.058
952	0.058
952	0.057
952	0.056
953	0.056
953	0.056
954	0.056
954	0.056
955	0.056
955	0.056
955	0.056
956	0.057
956	0.057
957	0.058
957	0.059
957	0.059
958	0.06
958	0.06
959	0.061
959	0.061
960	0.062
960	0.062
960	0.062
961	0.062
961	0.062
962	0.062
962	0.061
963	0.061
963	0.06
963	0.06
964	0.06
964	0.059
965	0.059
965	0.059
966	0.059
966	0.059
966	0.059
967	0.06
967	0.06
968	0.06
968	0.06
968	0.06
969	0.06
969	0.06
970	0.059
970	0.058
971	0.058
971	0.057
971	0.056
972	0.056
972	0.055
973	0.054
973	0.054
974	0.054
974	0.054
974	0.054
975	0.054
975	0.055
976	0.055
976	0.056
976	0.056
977	0.057
977	0.057
978	0.057
978	0.058
979	0.058
979	0.058
979	0.058
980	0.058
980	0.058
981	0.058
981	0.058
982	0.058
982	0.058
982	0.058
983	0.057
983	0.057
984	0.057
984	0.057
984	0.056
985	0.056
985	0.056
986	0.056
986	0.055
987	0.055
987	0.055
987	0.055
988	0.054
988	0.054
989	0.054
989	0.053
990	0.053
990	0.053
990	0.052
991	0.052
991	0.052
992	0.051
992	0.051
992	0.05
993	0.049
993	0.048
994	0.048
994	0.047
995	0.046
995	0.046
995	0.046
996	0.045
996	0.045
997	0.046
997	0.046
997	0.046
998	0.046
998	0.047
999	0.047
999	0.048
1000	0.048
1000	0.049
1000	0.049
1001	0.049
1001	0.049
1002	0.049
1002	0.05
1003	0.05
1003	0.05
1003	0.05
1004	0.049
1004	0.049
1005	0.049
1005	0.049
1005	0.048
1006	0.048
1006	0.047
1007	0.047
1007	0.046
1008	0.046
1008	0.046
1008	0.046
1009	0.046
1009	0.045
1010	0.045
1010	0.045
1010	0.045
1011	0.044
1011	0.044
1012	0.044
1012	0.043
1013	0.043
1013	0.043
1013	0.043
1014	0.043
1014	0.042
1015	0.042
1015	0.043
1016	0.043
1016	0.043
1016	0.044
1017	0.044
1017	0.044
1018	0.044
1018	0.044
1018	0.044
1019	0.044
1019	0.045
1020	0.045
1020	0.045
1021	0.046
1021	0.046
1021	0.046
1022	0.047
1022	0.047
1023	0.047
1023	0.048
1023	0.048
1024	0.048
1024	0.048
1025	0.048
1025	0.048
1026	0.048
1026	0.047
1026	0.047
1027	0.047
1027	0.047
1028	0.047
1028	0.047
1028	0.047
1029	0.047
1029	0.047
1030	0.047
1030	0.048
1031	0.048
1031	0.048
1031	0.048
1032	0.048
1032	0.048
1033	0.048
1033	0.048
1033	0.048
1034	0.048
1034	0.048
1035	0.048
1035	0.048
1036	0.048
1036	0.048
1036	0.048
1037	0.048
1037	0.048
1038	0.048
1038	0.048
1039	0.048
1039	0.048
1039	0.048
1040	0.048
1040	0.048
1041	0.048
1041	0.048
1041	0.047
1042	0.047
1042	0.047
1043	0.047
1043	0.047
1044	0.046
1044	0.046
1044	0.046
1045	0.046
1045	0.045
1046	0.045
1046	0.045
1046	0.045
1047	0.045
1047	0.045
1048	0.044
1048	0.045
1049	0.044
1049	0.044
1049	0.044
1050	0.044
1050	0.044
1051	0.043
1051	0.043
1051	0.043
1052	0.042
1052	0.041
1053	0.04
1053	0.04
1053	0.039
1054	0.039
1054	0.038
1055	0.038
1055	0.038
1056	0.037
1056	0.037
1056	0.037
1057	0.036
1057	0.036
1058	0.035
1058	0.035
1058	0.034
1059	0.034
1059	0.034
1060	0.034
1060	0.033
1061	0.033
1061	0.033
1061	0.034
1062	0.034
1062	0.034
1063	0.034
1063	0.035
1063	0.035
1064	0.035
1064	0.035
1065	0.035
1065	0.036
1066	0.036
1066	0.036
1066	0.036
1067	0.036
1067	0.036
1068	0.036
1068	0.036
1068	0.035
1069	0.035
1069	0.035
1070	0.035
1070	0.035
1071	0.034
1071	0.034
1071	0.034
1072	0.034
1072	0.033
1073	0.033
1073	0.033
1073	0.033
1074	0.033
1074	0.033
1075	0.033
1075	0.033
1076	0.034
1076	0.034
1076	0.035
1077	0.035
1077	0.035
1078	0.036
1078	0.036
1078	0.036
1079	0.036
1079	0.036
1080	0.036
1080	0.036
1080	0.035
1081	0.036
1081	0.036
1082	0.036
1082	0.036
1083	0.036
1083	0.036
1083	0.036
1084	0.036
1084	0.037
1085	0.037
1085	0.037
1085	0.037
1086	0.037
1086	0.037
1087	0.037
1087	0.036
1088	0.036
1088	0.036
1088	0.036
1089	0.035
1089	0.035
1090	0.034
1090	0.033
1090	0.032
1091	0.033
1091	0.032
1092	0.033
1092	0.033
1092	0.033
1093	0.032
1093	0.033
1094	0.032
1094	0.032
1095	0.031
1095	0.031
1095	0.031
1096	0.031
1096	0.03
1097	0.029
1097	0.029
1097	0.029
1098	0.028
1098	0.028
1099	0.027
1099	0.027
1100	0.026
1100	0.025
1100	0.024
1101	0.023
1101	0.022
1102	0.022
1102	0.02
1102	0.019
1103	0.019
1103	0.018
1104	0.018
1104	0.018
1104	0.019
1105	0.017
1105	0.016
1106	0.015
1106	0.014
1107	0.013
1107	0.012
1107	0.012
1108	0.012
1108	0.01
1109	0.009
1109	0.008
1109	0.009
1110	0.01
1110	0.009
1111	0.009
1111	0.012
