Data from reversibility-20sec_Absorbance__834__000000000000834.txt Node

Date: Tue Dec 05 16:51:07 CET 2023
User: Marek
Spectrometer: MAYP115816
Trigger mode: 0
Integration Time (sec): 2.000000E-1
Scans to average: 10
Electric dark correction enabled: true
Nonlinearity correction enabled: true
Boxcar width: 5
XAxis mode: Wavelengths
Number of Pixels in Spectrum: 2068
>>>>>Begin Spectral Data<<<<<
199	-0.249
199	-0.219
200	-0.145
200	-0.095
201	-0.065
201	-0.049
202	-0.037
202	-0.027
203	-0.018
203	-0.014
204	-0.002
204	0.011
205	0.023
205	0.026
205	0.024
206	0.024
206	0.025
207	0.028
207	0.028
208	0.025
208	0.023
209	0.025
209	0.022
210	0.023
210	0.024
211	0.025
211	0.025
212	0.023
212	0.026
213	0.028
213	0.03
213	0.032
214	0.034
214	0.038
215	0.039
215	0.04
216	0.043
216	0.043
217	0.047
217	0.046
218	0.046
218	0.05
219	0.053
219	0.055
220	0.058
220	0.057
221	0.058
221	0.06
221	0.067
222	0.071
222	0.076
223	0.083
223	0.086
224	0.092
224	0.101
225	0.108
225	0.119
226	0.13
226	0.143
227	0.151
227	0.16
228	0.176
228	0.188
229	0.206
229	0.23
229	0.25
230	0.277
230	0.307
231	0.339
231	0.375
232	0.411
232	0.456
233	0.498
233	0.547
234	0.595
234	0.643
235	0.697
235	0.748
236	0.8
236	0.85
236	0.901
237	0.954
237	1.002
238	1.05
238	1.095
239	1.141
239	1.184
240	1.224
240	1.261
241	1.295
241	1.329
242	1.362
242	1.393
243	1.424
243	1.45
243	1.477
244	1.501
244	1.522
245	1.541
245	1.561
246	1.579
246	1.596
247	1.607
247	1.62
248	1.634
248	1.645
249	1.655
249	1.663
250	1.67
250	1.678
250	1.684
251	1.688
251	1.691
252	1.698
252	1.7
253	1.702
253	1.702
254	1.701
254	1.703
255	1.701
255	1.7
256	1.7
256	1.7
257	1.7
257	1.697
258	1.698
258	1.696
258	1.697
259	1.697
259	1.695
260	1.695
260	1.696
261	1.695
261	1.697
262	1.7
262	1.7
263	1.701
263	1.702
264	1.701
264	1.703
265	1.704
265	1.703
265	1.702
266	1.702
266	1.703
267	1.7
267	1.701
268	1.701
268	1.7
269	1.702
269	1.699
270	1.699
270	1.698
271	1.696
271	1.696
272	1.693
272	1.691
272	1.689
273	1.684
273	1.679
274	1.674
274	1.67
275	1.664
275	1.659
276	1.653
276	1.645
277	1.637
277	1.627
278	1.616
278	1.605
278	1.593
279	1.579
279	1.563
280	1.544
280	1.519
281	1.491
281	1.459
282	1.426
282	1.391
283	1.356
283	1.322
284	1.288
284	1.254
285	1.221
285	1.191
285	1.165
286	1.141
286	1.12
287	1.101
287	1.085
288	1.071
288	1.059
289	1.049
289	1.04
290	1.033
290	1.026
291	1.021
291	1.015
292	1.011
292	1.007
292	1.002
293	0.999
293	0.995
294	0.992
294	0.989
295	0.986
295	0.983
296	0.981
296	0.978
297	0.975
297	0.973
298	0.97
298	0.967
298	0.965
299	0.962
299	0.96
300	0.957
300	0.954
301	0.952
301	0.949
302	0.947
302	0.945
303	0.943
303	0.941
304	0.938
304	0.936
305	0.934
305	0.932
305	0.929
306	0.927
306	0.925
307	0.922
307	0.919
308	0.917
308	0.914
309	0.911
309	0.909
310	0.906
310	0.903
311	0.9
311	0.897
311	0.893
312	0.89
312	0.887
313	0.883
313	0.879
314	0.876
314	0.872
315	0.868
315	0.863
316	0.859
316	0.855
317	0.85
317	0.846
318	0.841
318	0.836
318	0.831
319	0.826
319	0.821
320	0.815
320	0.81
321	0.804
321	0.798
322	0.792
322	0.786
323	0.78
323	0.774
324	0.768
324	0.761
324	0.755
325	0.748
325	0.742
326	0.735
326	0.729
327	0.722
327	0.715
328	0.709
328	0.702
329	0.696
329	0.689
330	0.682
330	0.676
330	0.669
331	0.662
331	0.655
332	0.649
332	0.642
333	0.635
333	0.628
334	0.622
334	0.615
335	0.609
335	0.602
336	0.595
336	0.589
336	0.583
337	0.577
337	0.571
338	0.565
338	0.559
339	0.553
339	0.547
340	0.541
340	0.536
341	0.53
341	0.525
342	0.52
342	0.515
342	0.509
343	0.505
343	0.5
344	0.495
344	0.491
345	0.486
345	0.482
346	0.477
346	0.473
347	0.469
347	0.465
348	0.461
348	0.457
348	0.453
349	0.449
349	0.446
350	0.442
350	0.439
351	0.436
351	0.432
352	0.429
352	0.426
353	0.423
353	0.42
354	0.418
354	0.414
354	0.412
355	0.409
355	0.406
356	0.403
356	0.4
357	0.396
357	0.394
358	0.391
358	0.388
359	0.386
359	0.384
360	0.381
360	0.38
360	0.378
361	0.376
361	0.374
362	0.373
362	0.371
363	0.369
363	0.368
364	0.366
364	0.364
365	0.362
365	0.36
366	0.358
366	0.356
366	0.355
367	0.353
367	0.351
368	0.349
368	0.348
369	0.346
369	0.345
370	0.343
370	0.342
371	0.341
371	0.339
372	0.338
372	0.336
372	0.335
373	0.334
373	0.332
374	0.331
374	0.33
375	0.329
375	0.328
376	0.327
376	0.326
377	0.325
377	0.324
378	0.322
378	0.322
378	0.321
379	0.32
379	0.319
380	0.318
380	0.317
381	0.316
381	0.315
382	0.314
382	0.313
383	0.312
383	0.312
383	0.311
384	0.31
384	0.309
385	0.309
385	0.308
386	0.307
386	0.307
387	0.306
387	0.305
388	0.304
388	0.304
389	0.303
389	0.303
389	0.302
390	0.302
390	0.301
391	0.301
391	0.3
392	0.3
392	0.3
393	0.299
393	0.298
394	0.298
394	0.297
394	0.296
395	0.296
395	0.295
396	0.294
396	0.294
397	0.293
397	0.292
398	0.292
398	0.292
399	0.291
399	0.291
400	0.29
400	0.29
400	0.289
401	0.289
401	0.289
402	0.288
402	0.288
403	0.287
403	0.287
404	0.287
404	0.286
405	0.286
405	0.286
405	0.285
406	0.285
406	0.284
407	0.284
407	0.284
408	0.283
408	0.283
409	0.282
409	0.282
410	0.281
410	0.281
411	0.281
411	0.28
411	0.28
412	0.28
412	0.279
413	0.279
413	0.278
414	0.278
414	0.278
415	0.277
415	0.277
416	0.277
416	0.276
416	0.276
417	0.276
417	0.276
418	0.275
418	0.275
419	0.275
419	0.274
420	0.274
420	0.274
421	0.273
421	0.273
421	0.273
422	0.272
422	0.272
423	0.272
423	0.272
424	0.271
424	0.271
425	0.27
425	0.27
426	0.27
426	0.269
427	0.269
427	0.269
427	0.269
428	0.269
428	0.268
429	0.268
429	0.268
430	0.268
430	0.268
431	0.268
431	0.268
432	0.268
432	0.267
432	0.267
433	0.267
433	0.267
434	0.267
434	0.267
435	0.266
435	0.266
436	0.266
436	0.266
437	0.266
437	0.266
437	0.266
438	0.265
438	0.265
439	0.265
439	0.265
440	0.265
440	0.265
441	0.265
441	0.265
442	0.265
442	0.265
442	0.265
443	0.265
443	0.265
444	0.265
444	0.265
445	0.265
445	0.264
446	0.264
446	0.264
447	0.264
447	0.264
447	0.264
448	0.264
448	0.264
449	0.264
449	0.264
450	0.264
450	0.264
451	0.264
451	0.264
452	0.264
452	0.264
452	0.264
453	0.264
453	0.264
454	0.264
454	0.264
455	0.264
455	0.264
456	0.264
456	0.264
457	0.264
457	0.264
458	0.264
458	0.264
458	0.265
459	0.265
459	0.265
460	0.265
460	0.265
461	0.265
461	0.266
462	0.266
462	0.266
463	0.266
463	0.266
463	0.266
464	0.266
464	0.266
465	0.266
465	0.266
466	0.266
466	0.267
467	0.267
467	0.268
467	0.268
468	0.268
468	0.268
469	0.269
469	0.269
470	0.27
470	0.27
471	0.271
471	0.271
472	0.271
472	0.272
472	0.273
473	0.273
473	0.274
474	0.274
474	0.275
475	0.275
475	0.276
476	0.276
476	0.277
477	0.278
477	0.278
477	0.279
478	0.28
478	0.281
479	0.281
479	0.282
480	0.283
480	0.284
481	0.284
481	0.285
482	0.286
482	0.287
482	0.288
483	0.289
483	0.29
484	0.291
484	0.292
485	0.292
485	0.293
486	0.294
486	0.295
487	0.296
487	0.297
487	0.298
488	0.299
488	0.3
489	0.301
489	0.303
490	0.305
490	0.306
491	0.308
491	0.31
492	0.311
492	0.312
492	0.314
493	0.315
493	0.317
494	0.318
494	0.32
495	0.321
495	0.323
496	0.324
496	0.326
496	0.328
497	0.329
497	0.33
498	0.332
498	0.333
499	0.335
499	0.336
500	0.338
500	0.34
501	0.341
501	0.343
501	0.344
502	0.346
502	0.348
503	0.349
503	0.351
504	0.352
504	0.354
505	0.355
505	0.356
506	0.358
506	0.359
506	0.361
507	0.362
507	0.364
508	0.365
508	0.367
509	0.368
509	0.369
510	0.371
510	0.372
511	0.373
511	0.375
511	0.376
512	0.377
512	0.378
513	0.379
513	0.38
514	0.381
514	0.382
515	0.383
515	0.384
515	0.384
516	0.385
516	0.386
517	0.387
517	0.387
518	0.388
518	0.388
519	0.389
519	0.389
520	0.389
520	0.389
520	0.389
521	0.389
521	0.389
522	0.389
522	0.389
523	0.389
523	0.389
524	0.389
524	0.389
524	0.389
525	0.389
525	0.388
526	0.388
526	0.387
527	0.386
527	0.385
528	0.384
528	0.384
529	0.382
529	0.381
529	0.38
530	0.379
530	0.377
531	0.376
531	0.374
532	0.373
532	0.371
533	0.37
533	0.368
533	0.367
534	0.366
534	0.364
535	0.363
535	0.362
536	0.36
536	0.358
537	0.356
537	0.355
538	0.353
538	0.351
538	0.349
539	0.347
539	0.345
540	0.342
540	0.34
541	0.338
541	0.335
542	0.333
542	0.331
542	0.328
543	0.326
543	0.323
544	0.321
544	0.319
545	0.317
545	0.314
546	0.312
546	0.309
547	0.307
547	0.304
547	0.302
548	0.3
548	0.297
549	0.295
549	0.292
550	0.29
550	0.287
551	0.284
551	0.282
551	0.279
552	0.277
552	0.275
553	0.272
553	0.27
554	0.267
554	0.265
555	0.262
555	0.26
556	0.257
556	0.255
556	0.253
557	0.251
557	0.249
558	0.247
558	0.245
559	0.243
559	0.241
560	0.239
560	0.237
560	0.235
561	0.233
561	0.231
562	0.228
562	0.226
563	0.223
563	0.221
564	0.219
564	0.217
564	0.215
565	0.213
565	0.211
566	0.209
566	0.207
567	0.205
567	0.203
568	0.202
568	0.2
568	0.198
569	0.197
569	0.195
570	0.193
570	0.191
571	0.19
571	0.188
572	0.187
572	0.185
573	0.184
573	0.182
573	0.18
574	0.179
574	0.178
575	0.176
575	0.175
576	0.174
576	0.172
577	0.17
577	0.169
577	0.168
578	0.166
578	0.165
579	0.164
579	0.163
580	0.161
580	0.159
581	0.157
581	0.156
581	0.155
582	0.155
582	0.154
583	0.153
583	0.152
584	0.15
584	0.148
585	0.146
585	0.145
585	0.144
586	0.143
586	0.142
587	0.14
587	0.139
588	0.137
588	0.136
589	0.135
589	0.135
590	0.134
590	0.133
590	0.133
591	0.133
591	0.131
592	0.13
592	0.129
593	0.128
593	0.127
594	0.126
594	0.125
594	0.124
595	0.123
595	0.122
596	0.121
596	0.12
597	0.121
597	0.12
598	0.119
598	0.119
598	0.118
599	0.117
599	0.117
600	0.116
600	0.115
601	0.114
601	0.113
602	0.112
602	0.111
602	0.111
603	0.11
603	0.11
604	0.109
604	0.109
605	0.108
605	0.108
606	0.107
606	0.106
606	0.106
607	0.105
607	0.105
608	0.104
608	0.103
609	0.102
609	0.101
610	0.1
610	0.099
610	0.099
611	0.098
611	0.098
612	0.097
612	0.097
613	0.097
613	0.096
614	0.096
614	0.095
614	0.095
615	0.094
615	0.094
616	0.093
616	0.093
617	0.093
617	0.092
618	0.091
618	0.091
618	0.091
619	0.091
619	0.091
620	0.091
620	0.09
621	0.09
621	0.089
622	0.088
622	0.088
622	0.087
623	0.086
623	0.086
624	0.085
624	0.085
625	0.084
625	0.084
626	0.083
626	0.082
626	0.082
627	0.082
627	0.081
628	0.08
628	0.079
629	0.079
629	0.078
630	0.078
630	0.077
630	0.077
631	0.077
631	0.077
632	0.077
632	0.076
633	0.076
633	0.077
634	0.077
634	0.078
634	0.077
635	0.077
635	0.076
636	0.076
636	0.076
637	0.075
637	0.075
638	0.074
638	0.074
638	0.073
639	0.073
639	0.072
640	0.072
640	0.072
641	0.072
641	0.071
642	0.071
642	0.071
642	0.071
643	0.07
643	0.07
644	0.07
644	0.07
645	0.07
645	0.069
646	0.069
646	0.069
646	0.069
647	0.069
647	0.068
648	0.068
648	0.067
649	0.067
649	0.066
650	0.066
650	0.066
650	0.066
651	0.066
651	0.065
652	0.065
652	0.065
653	0.066
653	0.067
653	0.074
654	0.06
654	0.049
655	0.047
655	0.047
656	0.047
656	0.047
657	0.047
657	0.047
657	0.047
658	0.046
658	0.039
659	0.048
659	0.06
660	0.064
660	0.064
661	0.063
661	0.063
661	0.062
662	0.062
662	0.061
663	0.061
663	0.06
664	0.06
664	0.06
665	0.059
665	0.059
665	0.059
666	0.06
666	0.059
667	0.059
667	0.059
668	0.059
668	0.059
669	0.059
669	0.06
669	0.06
670	0.06
670	0.06
671	0.059
671	0.059
672	0.058
672	0.058
672	0.058
673	0.057
673	0.057
674	0.057
674	0.056
675	0.055
675	0.055
676	0.055
676	0.056
676	0.055
677	0.055
677	0.055
678	0.055
678	0.055
679	0.054
679	0.054
680	0.054
680	0.054
680	0.054
681	0.054
681	0.055
682	0.055
682	0.056
683	0.056
683	0.057
684	0.058
684	0.057
684	0.057
685	0.057
685	0.057
686	0.057
686	0.056
687	0.056
687	0.055
687	0.055
688	0.054
688	0.054
689	0.054
689	0.054
690	0.054
690	0.054
691	0.054
691	0.054
691	0.054
692	0.054
692	0.055
693	0.055
693	0.055
694	0.055
694	0.055
695	0.056
695	0.056
695	0.056
696	0.056
696	0.055
697	0.055
697	0.055
698	0.054
698	0.053
698	0.053
699	0.053
699	0.053
700	0.052
700	0.052
701	0.052
701	0.052
702	0.052
702	0.052
702	0.052
703	0.052
703	0.051
704	0.051
704	0.051
705	0.051
705	0.05
705	0.05
706	0.049
706	0.049
707	0.049
707	0.049
708	0.049
708	0.049
709	0.049
709	0.048
709	0.047
710	0.047
710	0.047
711	0.047
711	0.047
712	0.046
712	0.046
713	0.046
713	0.046
713	0.046
714	0.046
714	0.046
715	0.046
715	0.046
716	0.046
716	0.046
716	0.045
717	0.044
717	0.044
718	0.043
718	0.042
719	0.042
719	0.043
720	0.043
720	0.043
720	0.043
721	0.044
721	0.044
722	0.045
722	0.045
723	0.045
723	0.046
723	0.046
724	0.045
724	0.045
725	0.044
725	0.043
726	0.042
726	0.042
727	0.041
727	0.041
727	0.041
728	0.04
728	0.04
729	0.04
729	0.04
730	0.039
730	0.04
730	0.04
731	0.04
731	0.04
732	0.04
732	0.04
733	0.039
733	0.039
734	0.039
734	0.039
734	0.039
735	0.039
735	0.039
736	0.038
736	0.038
737	0.038
737	0.038
737	0.037
738	0.037
738	0.036
739	0.035
739	0.035
740	0.034
740	0.034
741	0.034
741	0.034
741	0.033
742	0.033
742	0.033
743	0.034
743	0.035
744	0.035
744	0.036
744	0.036
745	0.036
745	0.035
746	0.035
746	0.035
747	0.035
747	0.035
748	0.035
748	0.035
748	0.034
749	0.034
749	0.034
750	0.034
750	0.034
751	0.033
751	0.033
751	0.033
752	0.033
752	0.032
753	0.032
753	0.031
754	0.031
754	0.031
754	0.031
755	0.031
755	0.031
756	0.03
756	0.029
757	0.029
757	0.028
758	0.028
758	0.027
758	0.027
759	0.027
759	0.026
760	0.026
760	0.026
761	0.026
761	0.026
761	0.027
762	0.027
762	0.028
763	0.028
763	0.028
764	0.028
764	0.028
764	0.028
765	0.028
765	0.028
766	0.028
766	0.027
767	0.027
767	0.026
768	0.025
768	0.025
768	0.025
769	0.024
769	0.024
770	0.024
770	0.024
771	0.024
771	0.024
771	0.024
772	0.025
772	0.025
773	0.025
773	0.025
774	0.025
774	0.026
775	0.026
775	0.026
775	0.026
776	0.026
776	0.025
777	0.025
777	0.025
778	0.024
778	0.023
778	0.023
779	0.023
779	0.023
780	0.022
780	0.022
781	0.022
781	0.022
781	0.022
782	0.022
782	0.022
783	0.023
783	0.023
784	0.023
784	0.023
784	0.022
785	0.022
785	0.022
786	0.022
786	0.022
787	0.022
787	0.021
788	0.021
788	0.02
788	0.02
789	0.02
789	0.02
790	0.021
790	0.02
791	0.02
791	0.02
791	0.02
792	0.021
792	0.021
793	0.021
793	0.02
794	0.02
794	0.02
794	0.019
795	0.019
795	0.019
796	0.019
796	0.019
797	0.018
797	0.018
797	0.019
798	0.019
798	0.019
799	0.019
799	0.018
800	0.018
800	0.017
801	0.017
801	0.017
801	0.016
802	0.016
802	0.016
803	0.016
803	0.016
804	0.017
804	0.017
804	0.017
805	0.018
805	0.018
806	0.018
806	0.018
807	0.018
807	0.018
807	0.018
808	0.018
808	0.018
809	0.018
809	0.018
810	0.018
810	0.018
810	0.018
811	0.018
811	0.018
812	0.019
812	0.019
813	0.019
813	0.019
813	0.019
814	0.019
814	0.02
815	0.02
815	0.02
816	0.02
816	0.019
817	0.019
817	0.018
817	0.018
818	0.018
818	0.018
819	0.017
819	0.016
820	0.015
820	0.015
820	0.015
821	0.015
821	0.015
822	0.015
822	0.015
823	0.015
823	0.015
823	0.016
824	0.017
824	0.018
825	0.018
825	0.019
826	0.019
826	0.018
826	0.018
827	0.018
827	0.018
828	0.017
828	0.016
829	0.016
829	0.016
829	0.015
830	0.015
830	0.015
831	0.016
831	0.016
832	0.016
832	0.017
832	0.017
833	0.017
833	0.017
834	0.017
834	0.017
835	0.017
835	0.017
835	0.017
836	0.017
836	0.017
837	0.017
837	0.017
838	0.017
838	0.016
839	0.016
839	0.015
839	0.014
840	0.013
840	0.012
841	0.01
841	0.009
842	0.008
842	0.008
842	0.007
843	0.007
843	0.007
844	0.007
844	0.007
845	0.007
845	0.007
845	0.007
846	0.007
846	0.007
847	0.007
847	0.007
848	0.008
848	0.008
848	0.009
849	0.009
849	0.009
850	0.01
850	0.011
851	0.011
851	0.011
851	0.011
852	0.011
852	0.01
853	0.01
853	0.01
854	0.009
854	0.009
854	0.01
855	0.01
855	0.01
856	0.01
856	0.01
857	0.011
857	0.011
857	0.011
858	0.011
858	0.01
859	0.009
859	0.008
860	0.007
860	0.006
860	0.005
861	0.004
861	0.003
862	0.002
862	0.001
863	0.001
863	0
863	0
864	-0
864	-0
865	0
865	0
866	-0
866	-0
866	-0
867	-0
867	0
868	0
868	0
869	0
869	0
869	0
870	0
870	0.001
871	0.001
871	0.002
872	0.003
872	0.003
872	0.003
873	0.004
873	0.004
874	0.004
874	0.004
875	0.004
875	0.004
875	0.004
876	0.004
876	0.003
877	0.003
877	0.004
878	0.004
878	0.005
878	0.005
879	0.006
879	0.007
880	0.007
880	0.007
881	0.007
881	0.007
881	0.007
882	0.006
882	0.006
883	0.005
883	0.004
884	0.003
884	0.003
884	0.002
885	0.002
885	0.001
886	0.001
886	0.001
887	0
887	0
887	0
888	-0
888	-0.001
889	-0.001
889	-0
890	-0
890	-0
890	0
891	0
891	0.001
892	0.001
892	0.002
893	0.003
893	0.004
893	0.005
894	0.006
894	0.006
895	0.007
895	0.007
895	0.007
896	0.007
896	0.007
897	0.006
897	0.006
898	0.005
898	0.004
898	0.003
899	0.002
899	0.002
900	0.001
900	0.001
901	0
901	-0
901	-0
902	-0.001
902	-0.001
903	-0.001
903	-0.001
904	-0.001
904	-0.001
904	-0.001
905	-0.001
905	-0.001
906	-0.001
906	-0.001
907	-0
907	0
907	0
908	0
908	0.001
909	0.001
909	0.001
910	0.002
910	0.002
910	0.002
911	0.003
911	0.003
912	0.003
912	0.003
913	0.004
913	0.004
913	0.004
914	0.004
914	0.004
915	0.004
915	0.004
916	0.003
916	0.003
916	0.002
917	0.001
917	0
918	-0
918	-0.001
918	-0.002
919	-0.002
919	-0.002
920	-0.001
920	-0.001
921	-0
921	0
921	0.001
922	0.002
922	0.002
923	0.003
923	0.004
924	0.004
924	0.005
924	0.005
925	0.005
925	0.005
926	0.005
926	0.005
927	0.005
927	0.004
927	0.004
928	0.004
928	0.003
929	0.003
929	0.003
930	0.002
930	0.002
930	0.002
931	0.001
931	0.001
932	0.001
932	0.001
933	0
933	-0
933	-0.001
934	-0.002
934	-0.002
935	-0.003
935	-0.003
935	-0.004
936	-0.004
936	-0.004
937	-0.004
937	-0.004
938	-0.004
938	-0.003
938	-0.003
939	-0.002
939	-0.002
940	-0.002
940	-0.001
941	0
941	0.001
941	0.001
942	0.002
942	0.002
943	0.003
943	0.003
944	0.003
944	0.003
944	0.003
945	0.003
945	0.003
946	0.003
946	0.003
946	0.004
947	0.004
947	0.004
948	0.004
948	0.004
949	0.004
949	0.005
949	0.005
950	0.005
950	0.005
951	0.005
951	0.005
952	0.004
952	0.004
952	0.003
953	0.003
953	0.002
954	0.001
954	0
955	-0
955	-0.001
955	-0.002
956	-0.002
956	-0.002
957	-0.002
957	-0.002
957	-0.002
958	-0.001
958	-0.001
959	-0.001
959	-0
960	0
960	0
960	0.001
961	0.001
961	0.001
962	0
962	0
963	0
963	0
963	-0
964	-0
964	0
965	0
965	0
966	0.001
966	0.001
966	0.002
967	0.002
967	0.002
968	0.003
968	0.003
968	0.003
969	0.003
969	0.003
970	0.003
970	0.002
971	0.002
971	0.002
971	0.002
972	0.002
972	0.001
973	0.001
973	0.002
974	0.002
974	0.002
974	0.003
975	0.003
975	0.003
976	0.004
976	0.004
976	0.004
977	0.004
977	0.004
978	0.003
978	0.003
979	0.003
979	0.002
979	0.002
980	0.002
980	0.001
981	0.001
981	0
982	-0
982	-0
982	-0.001
983	-0.001
983	-0.001
984	-0.002
984	-0.002
984	-0.003
985	-0.003
985	-0.004
986	-0.005
986	-0.005
987	-0.006
987	-0.007
987	-0.007
988	-0.008
988	-0.009
989	-0.009
989	-0.009
990	-0.01
990	-0.01
990	-0.01
991	-0.01
991	-0.011
992	-0.011
992	-0.011
992	-0.011
993	-0.011
993	-0.011
994	-0.011
994	-0.01
995	-0.01
995	-0.01
995	-0.01
996	-0.009
996	-0.008
997	-0.007
997	-0.006
997	-0.006
998	-0.005
998	-0.003
999	-0.002
999	-0.001
1000	-0
1000	0.001
1000	0.001
1001	0.002
1001	0.002
1002	0.002
1002	0.002
1003	0.001
1003	0.001
1003	0
1004	0
1004	-0
1005	-0.001
1005	-0.001
1005	-0.002
1006	-0.002
1006	-0.002
1007	-0.002
1007	-0.002
1008	-0.003
1008	-0.003
1008	-0.003
1009	-0.003
1009	-0.003
1010	-0.003
1010	-0.003
1010	-0.003
1011	-0.003
1011	-0.003
1012	-0.003
1012	-0.003
1013	-0.003
1013	-0.004
1013	-0.004
1014	-0.004
1014	-0.004
1015	-0.004
1015	-0.004
1016	-0.004
1016	-0.004
1016	-0.004
1017	-0.004
1017	-0.004
1018	-0.004
1018	-0.004
1018	-0.004
1019	-0.004
1019	-0.003
1020	-0.004
1020	-0.004
1021	-0.003
1021	-0.003
1021	-0.003
1022	-0.003
1022	-0.003
1023	-0.004
1023	-0.004
1023	-0.004
1024	-0.004
1024	-0.005
1025	-0.005
1025	-0.006
1026	-0.006
1026	-0.007
1026	-0.008
1027	-0.008
1027	-0.009
1028	-0.009
1028	-0.01
1028	-0.01
1029	-0.011
1029	-0.011
1030	-0.011
1030	-0.011
1031	-0.011
1031	-0.011
1031	-0.011
1032	-0.011
1032	-0.01
1033	-0.01
1033	-0.01
1033	-0.01
1034	-0.01
1034	-0.01
1035	-0.01
1035	-0.01
1036	-0.01
1036	-0.01
1036	-0.01
1037	-0.01
1037	-0.01
1038	-0.01
1038	-0.01
1039	-0.01
1039	-0.01
1039	-0.009
1040	-0.009
1040	-0.009
1041	-0.008
1041	-0.008
1041	-0.007
1042	-0.007
1042	-0.007
1043	-0.006
1043	-0.006
1044	-0.006
1044	-0.006
1044	-0.005
1045	-0.005
1045	-0.005
1046	-0.005
1046	-0.004
1046	-0.004
1047	-0.003
1047	-0.003
1048	-0.003
1048	-0.002
1049	-0.002
1049	-0.002
1049	-0.002
1050	-0.002
1050	-0.003
1051	-0.003
1051	-0.004
1051	-0.004
1052	-0.005
1052	-0.006
1053	-0.006
1053	-0.007
1053	-0.008
1054	-0.008
1054	-0.009
1055	-0.009
1055	-0.009
1056	-0.01
1056	-0.01
1056	-0.011
1057	-0.011
1057	-0.011
1058	-0.012
1058	-0.013
1058	-0.014
1059	-0.014
1059	-0.014
1060	-0.015
1060	-0.015
1061	-0.016
1061	-0.016
1061	-0.016
1062	-0.017
1062	-0.017
1063	-0.017
1063	-0.017
1063	-0.017
1064	-0.018
1064	-0.018
1065	-0.018
1065	-0.018
1066	-0.018
1066	-0.018
1066	-0.018
1067	-0.018
1067	-0.018
1068	-0.018
1068	-0.018
1068	-0.018
1069	-0.019
1069	-0.019
1070	-0.019
1070	-0.02
1071	-0.021
1071	-0.021
1071	-0.022
1072	-0.022
1072	-0.022
1073	-0.023
1073	-0.023
1073	-0.024
1074	-0.024
1074	-0.024
1075	-0.024
1075	-0.023
1076	-0.023
1076	-0.022
1076	-0.022
1077	-0.022
1077	-0.021
1078	-0.021
1078	-0.02
1078	-0.019
1079	-0.019
1079	-0.018
1080	-0.018
1080	-0.018
1080	-0.017
1081	-0.017
1081	-0.016
1082	-0.016
1082	-0.015
1083	-0.015
1083	-0.015
1083	-0.015
1084	-0.016
1084	-0.016
1085	-0.016
1085	-0.017
1085	-0.017
1086	-0.018
1086	-0.019
1087	-0.02
1087	-0.02
1088	-0.021
1088	-0.021
1088	-0.021
1089	-0.022
1089	-0.022
1090	-0.023
1090	-0.023
1090	-0.024
1091	-0.024
1091	-0.024
1092	-0.024
1092	-0.024
1092	-0.024
1093	-0.024
1093	-0.024
1094	-0.023
1094	-0.023
1095	-0.023
1095	-0.023
1095	-0.023
1096	-0.023
1096	-0.024
1097	-0.024
1097	-0.024
1097	-0.024
1098	-0.024
1098	-0.025
1099	-0.026
1099	-0.027
1100	-0.027
1100	-0.028
1100	-0.029
1101	-0.03
1101	-0.032
1102	-0.032
1102	-0.033
1102	-0.034
1103	-0.034
1103	-0.035
1104	-0.035
1104	-0.035
1104	-0.035
1105	-0.036
1105	-0.038
1106	-0.039
1106	-0.04
1107	-0.042
1107	-0.042
1107	-0.042
1108	-0.043
1108	-0.043
1109	-0.045
1109	-0.047
1109	-0.047
1110	-0.044
1110	-0.045
1111	-0.045
1111	-0.04
