Data from reversibility-20sec_Absorbance__4228__000000000004228.txt Node

Date: Wed Dec 06 11:42:26 CET 2023
User: Marek
Spectrometer: MAYP115816
Trigger mode: 0
Integration Time (sec): 2.000000E-1
Scans to average: 10
Electric dark correction enabled: true
Nonlinearity correction enabled: true
Boxcar width: 5
XAxis mode: Wavelengths
Number of Pixels in Spectrum: 2068
>>>>>Begin Spectral Data<<<<<
199	-0.179
199	-0.144
200	-0.082
200	-0.03
201	-0.004
201	0.011
202	0.022
202	0.031
203	0.038
203	0.039
204	0.052
204	0.065
205	0.074
205	0.08
205	0.08
206	0.081
206	0.082
207	0.083
207	0.081
208	0.08
208	0.083
209	0.085
209	0.085
210	0.085
210	0.087
211	0.089
211	0.09
212	0.088
212	0.091
213	0.093
213	0.092
213	0.091
214	0.093
214	0.093
215	0.095
215	0.095
216	0.093
216	0.092
217	0.096
217	0.097
218	0.099
218	0.105
219	0.111
219	0.112
220	0.115
220	0.116
221	0.117
221	0.12
221	0.125
222	0.128
222	0.132
223	0.136
223	0.141
224	0.147
224	0.154
225	0.163
225	0.175
226	0.182
226	0.197
227	0.206
227	0.218
228	0.235
228	0.251
229	0.265
229	0.289
229	0.312
230	0.336
230	0.366
231	0.4
231	0.435
232	0.472
232	0.513
233	0.554
233	0.602
234	0.654
234	0.705
235	0.759
235	0.811
236	0.862
236	0.915
236	0.966
237	1.017
237	1.068
238	1.117
238	1.164
239	1.212
239	1.253
240	1.292
240	1.328
241	1.364
241	1.398
242	1.432
242	1.466
243	1.494
243	1.52
243	1.546
244	1.569
244	1.591
245	1.61
245	1.634
246	1.652
246	1.669
247	1.681
247	1.695
248	1.708
248	1.723
249	1.731
249	1.739
250	1.745
250	1.754
250	1.757
251	1.761
251	1.765
252	1.772
252	1.773
253	1.774
253	1.77
254	1.771
254	1.772
255	1.772
255	1.772
256	1.773
256	1.773
257	1.774
257	1.771
258	1.77
258	1.772
258	1.772
259	1.773
259	1.773
260	1.772
260	1.775
261	1.773
261	1.775
262	1.776
262	1.777
263	1.779
263	1.779
264	1.78
264	1.781
265	1.781
265	1.783
265	1.783
266	1.783
266	1.782
267	1.781
267	1.782
268	1.782
268	1.782
269	1.784
269	1.784
270	1.782
270	1.779
271	1.775
271	1.777
272	1.774
272	1.773
272	1.77
273	1.764
273	1.759
274	1.754
274	1.749
275	1.743
275	1.738
276	1.732
276	1.724
277	1.717
277	1.708
278	1.697
278	1.686
278	1.674
279	1.658
279	1.64
280	1.619
280	1.594
281	1.564
281	1.531
282	1.496
282	1.459
283	1.423
283	1.386
284	1.35
284	1.315
285	1.282
285	1.252
285	1.225
286	1.2
286	1.178
287	1.158
287	1.141
288	1.127
288	1.114
289	1.104
289	1.095
290	1.086
290	1.079
291	1.072
291	1.067
292	1.061
292	1.057
292	1.052
293	1.048
293	1.044
294	1.041
294	1.037
295	1.034
295	1.031
296	1.027
296	1.024
297	1.021
297	1.018
298	1.015
298	1.012
298	1.009
299	1.006
299	1.003
300	1
300	0.997
301	0.994
301	0.992
302	0.989
302	0.987
303	0.984
303	0.982
304	0.979
304	0.977
305	0.975
305	0.972
305	0.97
306	0.967
306	0.965
307	0.962
307	0.959
308	0.957
308	0.954
309	0.951
309	0.948
310	0.945
310	0.942
311	0.939
311	0.936
311	0.932
312	0.928
312	0.925
313	0.921
313	0.918
314	0.914
314	0.91
315	0.906
315	0.901
316	0.897
316	0.892
317	0.888
317	0.883
318	0.878
318	0.873
318	0.867
319	0.862
319	0.856
320	0.851
320	0.845
321	0.839
321	0.833
322	0.827
322	0.821
323	0.814
323	0.808
324	0.802
324	0.796
324	0.789
325	0.782
325	0.776
326	0.769
326	0.762
327	0.756
327	0.749
328	0.742
328	0.735
329	0.729
329	0.722
330	0.715
330	0.708
330	0.701
331	0.694
331	0.687
332	0.68
332	0.674
333	0.667
333	0.66
334	0.653
334	0.647
335	0.64
335	0.633
336	0.627
336	0.621
336	0.614
337	0.608
337	0.602
338	0.596
338	0.59
339	0.584
339	0.578
340	0.572
340	0.567
341	0.561
341	0.555
342	0.55
342	0.545
342	0.54
343	0.535
343	0.53
344	0.525
344	0.52
345	0.515
345	0.511
346	0.506
346	0.502
347	0.498
347	0.493
348	0.489
348	0.485
348	0.482
349	0.478
349	0.474
350	0.471
350	0.467
351	0.464
351	0.461
352	0.458
352	0.455
353	0.452
353	0.449
354	0.445
354	0.442
354	0.439
355	0.436
355	0.433
356	0.43
356	0.427
357	0.424
357	0.421
358	0.418
358	0.416
359	0.414
359	0.411
360	0.409
360	0.407
360	0.405
361	0.403
361	0.402
362	0.401
362	0.399
363	0.397
363	0.395
364	0.393
364	0.391
365	0.39
365	0.388
366	0.386
366	0.384
366	0.382
367	0.38
367	0.379
368	0.377
368	0.375
369	0.374
369	0.372
370	0.371
370	0.369
371	0.368
371	0.366
372	0.365
372	0.364
372	0.362
373	0.361
373	0.36
374	0.359
374	0.358
375	0.357
375	0.356
376	0.355
376	0.354
377	0.353
377	0.351
378	0.35
378	0.349
378	0.348
379	0.348
379	0.347
380	0.346
380	0.345
381	0.344
381	0.344
382	0.343
382	0.342
383	0.342
383	0.341
383	0.34
384	0.339
384	0.339
385	0.338
385	0.337
386	0.337
386	0.336
387	0.335
387	0.335
388	0.334
388	0.333
389	0.333
389	0.333
389	0.332
390	0.331
390	0.331
391	0.33
391	0.33
392	0.33
392	0.329
393	0.329
393	0.328
394	0.327
394	0.327
394	0.327
395	0.326
395	0.325
396	0.325
396	0.324
397	0.324
397	0.323
398	0.323
398	0.322
399	0.322
399	0.322
400	0.321
400	0.321
400	0.321
401	0.321
401	0.32
402	0.32
402	0.32
403	0.319
403	0.319
404	0.318
404	0.318
405	0.317
405	0.317
405	0.317
406	0.316
406	0.316
407	0.315
407	0.315
408	0.315
408	0.314
409	0.314
409	0.314
410	0.314
410	0.313
411	0.313
411	0.313
411	0.313
412	0.312
412	0.312
413	0.311
413	0.311
414	0.31
414	0.31
415	0.31
415	0.309
416	0.309
416	0.308
416	0.308
417	0.307
417	0.307
418	0.307
418	0.307
419	0.306
419	0.306
420	0.305
420	0.305
421	0.304
421	0.304
421	0.304
422	0.303
422	0.303
423	0.303
423	0.302
424	0.302
424	0.302
425	0.301
425	0.301
426	0.301
426	0.301
427	0.3
427	0.3
427	0.3
428	0.299
428	0.299
429	0.299
429	0.298
430	0.298
430	0.298
431	0.298
431	0.297
432	0.297
432	0.297
432	0.297
433	0.297
433	0.297
434	0.296
434	0.296
435	0.296
435	0.296
436	0.296
436	0.296
437	0.295
437	0.295
437	0.295
438	0.295
438	0.294
439	0.294
439	0.294
440	0.294
440	0.294
441	0.293
441	0.293
442	0.293
442	0.293
442	0.293
443	0.293
443	0.292
444	0.293
444	0.292
445	0.292
445	0.292
446	0.292
446	0.292
447	0.292
447	0.292
447	0.291
448	0.291
448	0.292
449	0.291
449	0.291
450	0.291
450	0.291
451	0.291
451	0.291
452	0.291
452	0.291
452	0.291
453	0.291
453	0.291
454	0.291
454	0.291
455	0.291
455	0.29
456	0.29
456	0.29
457	0.29
457	0.29
458	0.29
458	0.29
458	0.29
459	0.29
459	0.29
460	0.29
460	0.29
461	0.29
461	0.29
462	0.29
462	0.29
463	0.29
463	0.29
463	0.29
464	0.29
464	0.29
465	0.29
465	0.29
466	0.29
466	0.29
467	0.291
467	0.291
467	0.291
468	0.291
468	0.291
469	0.292
469	0.292
470	0.293
470	0.293
471	0.294
471	0.294
472	0.294
472	0.294
472	0.295
473	0.295
473	0.295
474	0.296
474	0.296
475	0.296
475	0.296
476	0.297
476	0.297
477	0.298
477	0.298
477	0.299
478	0.299
478	0.3
479	0.3
479	0.301
480	0.302
480	0.302
481	0.303
481	0.303
482	0.304
482	0.305
482	0.305
483	0.306
483	0.307
484	0.308
484	0.308
485	0.309
485	0.309
486	0.31
486	0.31
487	0.311
487	0.311
487	0.312
488	0.313
488	0.314
489	0.315
489	0.316
490	0.317
490	0.318
491	0.32
491	0.321
492	0.322
492	0.323
492	0.324
493	0.325
493	0.327
494	0.328
494	0.329
495	0.33
495	0.332
496	0.333
496	0.334
496	0.335
497	0.336
497	0.337
498	0.339
498	0.34
499	0.341
499	0.342
500	0.343
500	0.345
501	0.346
501	0.347
501	0.348
502	0.349
502	0.35
503	0.352
503	0.353
504	0.354
504	0.355
505	0.357
505	0.358
506	0.359
506	0.36
506	0.361
507	0.362
507	0.363
508	0.364
508	0.365
509	0.366
509	0.368
510	0.369
510	0.37
511	0.371
511	0.372
511	0.373
512	0.375
512	0.376
513	0.376
513	0.377
514	0.378
514	0.379
515	0.38
515	0.38
515	0.381
516	0.382
516	0.382
517	0.383
517	0.383
518	0.384
518	0.384
519	0.384
519	0.385
520	0.385
520	0.385
520	0.385
521	0.385
521	0.385
522	0.385
522	0.385
523	0.385
523	0.384
524	0.384
524	0.384
524	0.384
525	0.384
525	0.383
526	0.383
526	0.383
527	0.382
527	0.382
528	0.382
528	0.381
529	0.381
529	0.38
529	0.379
530	0.378
530	0.377
531	0.376
531	0.375
532	0.374
532	0.372
533	0.371
533	0.369
533	0.368
534	0.367
534	0.366
535	0.364
535	0.363
536	0.362
536	0.36
537	0.359
537	0.357
538	0.356
538	0.354
538	0.353
539	0.351
539	0.35
540	0.348
540	0.346
541	0.344
541	0.343
542	0.341
542	0.339
542	0.337
543	0.335
543	0.333
544	0.331
544	0.33
545	0.328
545	0.326
546	0.325
546	0.323
547	0.321
547	0.319
547	0.317
548	0.315
548	0.313
549	0.311
549	0.31
550	0.308
550	0.306
551	0.304
551	0.301
551	0.299
552	0.297
552	0.295
553	0.293
553	0.292
554	0.289
554	0.287
555	0.285
555	0.283
556	0.281
556	0.28
556	0.278
557	0.277
557	0.276
558	0.275
558	0.273
559	0.272
559	0.271
560	0.269
560	0.268
560	0.266
561	0.265
561	0.263
562	0.261
562	0.259
563	0.257
563	0.255
564	0.253
564	0.251
564	0.249
565	0.248
565	0.246
566	0.244
566	0.242
567	0.241
567	0.24
568	0.239
568	0.237
568	0.236
569	0.235
569	0.233
570	0.231
570	0.23
571	0.229
571	0.227
572	0.226
572	0.224
573	0.223
573	0.222
573	0.221
574	0.219
574	0.218
575	0.217
575	0.217
576	0.216
576	0.214
577	0.213
577	0.212
577	0.211
578	0.21
578	0.209
579	0.208
579	0.207
580	0.206
580	0.204
581	0.202
581	0.201
581	0.201
582	0.2
582	0.2
583	0.199
583	0.198
584	0.196
584	0.194
585	0.193
585	0.193
585	0.192
586	0.191
586	0.19
587	0.189
587	0.187
588	0.186
588	0.185
589	0.184
589	0.184
590	0.184
590	0.183
590	0.183
591	0.183
591	0.182
592	0.181
592	0.18
593	0.179
593	0.179
594	0.178
594	0.177
594	0.176
595	0.175
595	0.174
596	0.173
596	0.173
597	0.173
597	0.173
598	0.173
598	0.172
598	0.171
599	0.171
599	0.17
600	0.169
600	0.168
601	0.168
601	0.167
602	0.166
602	0.165
602	0.164
603	0.163
603	0.163
604	0.163
604	0.163
605	0.162
605	0.162
606	0.162
606	0.161
606	0.16
607	0.159
607	0.159
608	0.158
608	0.157
609	0.157
609	0.156
610	0.156
610	0.155
610	0.155
611	0.154
611	0.154
612	0.154
612	0.154
613	0.154
613	0.153
614	0.153
614	0.152
614	0.152
615	0.151
615	0.151
616	0.15
616	0.15
617	0.15
617	0.149
618	0.149
618	0.149
618	0.149
619	0.149
619	0.149
620	0.149
620	0.149
621	0.149
621	0.148
622	0.147
622	0.147
622	0.146
623	0.145
623	0.145
624	0.144
624	0.143
625	0.143
625	0.142
626	0.141
626	0.141
626	0.141
627	0.14
627	0.139
628	0.139
628	0.138
629	0.138
629	0.138
630	0.137
630	0.137
630	0.137
631	0.137
631	0.137
632	0.137
632	0.137
633	0.137
633	0.137
634	0.137
634	0.137
634	0.137
635	0.136
635	0.136
636	0.136
636	0.136
637	0.135
637	0.135
638	0.135
638	0.134
638	0.134
639	0.133
639	0.133
640	0.133
640	0.133
641	0.133
641	0.133
642	0.132
642	0.133
642	0.133
643	0.133
643	0.133
644	0.133
644	0.132
645	0.132
645	0.132
646	0.132
646	0.131
646	0.131
647	0.131
647	0.13
648	0.13
648	0.129
649	0.129
649	0.129
650	0.129
650	0.129
650	0.129
651	0.128
651	0.128
652	0.128
652	0.128
653	0.129
653	0.13
653	0.137
654	0.109
654	0.088
655	0.086
655	0.086
656	0.086
656	0.086
657	0.087
657	0.087
657	0.087
658	0.086
658	0.076
659	0.096
659	0.121
660	0.127
660	0.127
661	0.127
661	0.126
661	0.126
662	0.125
662	0.125
663	0.124
663	0.124
664	0.124
664	0.123
665	0.123
665	0.123
665	0.123
666	0.123
666	0.123
667	0.123
667	0.123
668	0.123
668	0.123
669	0.123
669	0.123
669	0.124
670	0.124
670	0.124
671	0.124
671	0.123
672	0.123
672	0.123
672	0.123
673	0.123
673	0.123
674	0.123
674	0.122
675	0.122
675	0.121
676	0.122
676	0.122
676	0.121
677	0.121
677	0.121
678	0.121
678	0.121
679	0.12
679	0.12
680	0.12
680	0.12
680	0.119
681	0.119
681	0.12
682	0.12
682	0.12
683	0.12
683	0.12
684	0.12
684	0.12
684	0.12
685	0.121
685	0.121
686	0.121
686	0.121
687	0.121
687	0.121
687	0.121
688	0.121
688	0.121
689	0.121
689	0.122
690	0.122
690	0.121
691	0.121
691	0.122
691	0.122
692	0.122
692	0.122
693	0.122
693	0.123
694	0.123
694	0.122
695	0.123
695	0.124
695	0.124
696	0.123
696	0.123
697	0.123
697	0.122
698	0.121
698	0.121
698	0.121
699	0.121
699	0.121
700	0.12
700	0.121
701	0.121
701	0.121
702	0.121
702	0.121
702	0.122
703	0.122
703	0.121
704	0.121
704	0.121
705	0.12
705	0.12
705	0.119
706	0.119
706	0.119
707	0.119
707	0.118
708	0.118
708	0.118
709	0.118
709	0.118
709	0.117
710	0.117
710	0.117
711	0.118
711	0.118
712	0.118
712	0.118
713	0.118
713	0.118
713	0.118
714	0.118
714	0.118
715	0.118
715	0.118
716	0.118
716	0.117
716	0.117
717	0.116
717	0.116
718	0.115
718	0.115
719	0.115
719	0.116
720	0.116
720	0.116
720	0.117
721	0.117
721	0.118
722	0.118
722	0.118
723	0.119
723	0.119
723	0.119
724	0.119
724	0.119
725	0.118
725	0.117
726	0.116
726	0.115
727	0.115
727	0.114
727	0.114
728	0.113
728	0.113
729	0.113
729	0.113
730	0.113
730	0.113
730	0.114
731	0.114
731	0.115
732	0.115
732	0.115
733	0.115
733	0.115
734	0.115
734	0.115
734	0.115
735	0.115
735	0.115
736	0.114
736	0.114
737	0.113
737	0.113
737	0.113
738	0.113
738	0.112
739	0.112
739	0.112
740	0.111
740	0.112
741	0.112
741	0.112
741	0.112
742	0.112
742	0.112
743	0.113
743	0.113
744	0.113
744	0.113
744	0.113
745	0.113
745	0.113
746	0.113
746	0.113
747	0.113
747	0.113
748	0.112
748	0.112
748	0.112
749	0.111
749	0.111
750	0.111
750	0.11
751	0.11
751	0.11
751	0.11
752	0.109
752	0.109
753	0.108
753	0.108
754	0.108
754	0.108
754	0.109
755	0.109
755	0.109
756	0.109
756	0.108
757	0.108
757	0.107
758	0.107
758	0.107
758	0.107
759	0.106
759	0.106
760	0.105
760	0.105
761	0.104
761	0.105
761	0.105
762	0.105
762	0.106
763	0.106
763	0.105
764	0.105
764	0.105
764	0.105
765	0.105
765	0.104
766	0.104
766	0.104
767	0.103
767	0.102
768	0.101
768	0.1
768	0.1
769	0.099
769	0.099
770	0.099
770	0.099
771	0.099
771	0.099
771	0.099
772	0.099
772	0.1
773	0.1
773	0.1
774	0.1
774	0.101
775	0.101
775	0.101
775	0.101
776	0.101
776	0.101
777	0.101
777	0.101
778	0.101
778	0.101
778	0.101
779	0.101
779	0.1
780	0.1
780	0.099
781	0.099
781	0.099
781	0.098
782	0.098
782	0.098
783	0.098
783	0.098
784	0.098
784	0.098
784	0.098
785	0.097
785	0.097
786	0.097
786	0.097
787	0.098
787	0.097
788	0.096
788	0.096
788	0.095
789	0.095
789	0.095
790	0.095
790	0.094
791	0.094
791	0.093
791	0.092
792	0.093
792	0.092
793	0.092
793	0.091
794	0.091
794	0.09
794	0.09
795	0.09
795	0.09
796	0.09
796	0.09
797	0.09
797	0.09
797	0.09
798	0.09
798	0.091
799	0.091
799	0.091
800	0.091
800	0.09
801	0.09
801	0.09
801	0.089
802	0.089
802	0.089
803	0.089
803	0.09
804	0.09
804	0.091
804	0.091
805	0.091
805	0.092
806	0.092
806	0.092
807	0.092
807	0.091
807	0.091
808	0.09
808	0.09
809	0.089
809	0.088
810	0.088
810	0.087
810	0.087
811	0.086
811	0.086
812	0.087
812	0.087
813	0.087
813	0.087
813	0.087
814	0.087
814	0.088
815	0.088
815	0.088
816	0.088
816	0.087
817	0.087
817	0.087
817	0.086
818	0.086
818	0.086
819	0.086
819	0.085
820	0.084
820	0.084
820	0.084
821	0.084
821	0.084
822	0.084
822	0.084
823	0.084
823	0.084
823	0.085
824	0.086
824	0.086
825	0.087
825	0.087
826	0.087
826	0.087
826	0.086
827	0.086
827	0.086
828	0.085
828	0.084
829	0.083
829	0.083
829	0.082
830	0.082
830	0.081
831	0.082
831	0.082
832	0.082
832	0.082
832	0.082
833	0.082
833	0.082
834	0.082
834	0.082
835	0.082
835	0.082
835	0.082
836	0.082
836	0.082
837	0.082
837	0.082
838	0.082
838	0.081
839	0.081
839	0.081
839	0.08
840	0.079
840	0.078
841	0.077
841	0.076
842	0.075
842	0.074
842	0.073
843	0.073
843	0.072
844	0.072
844	0.071
845	0.071
845	0.071
845	0.071
846	0.071
846	0.071
847	0.071
847	0.072
848	0.072
848	0.073
848	0.073
849	0.073
849	0.073
850	0.074
850	0.074
851	0.074
851	0.074
851	0.074
852	0.074
852	0.073
853	0.073
853	0.072
854	0.072
854	0.072
854	0.073
855	0.073
855	0.073
856	0.073
856	0.074
857	0.074
857	0.074
857	0.074
858	0.074
858	0.073
859	0.072
859	0.071
860	0.07
860	0.069
860	0.068
861	0.067
861	0.066
862	0.064
862	0.064
863	0.063
863	0.063
863	0.062
864	0.062
864	0.062
865	0.062
865	0.063
866	0.062
866	0.062
866	0.063
867	0.063
867	0.063
868	0.063
868	0.063
869	0.063
869	0.063
869	0.063
870	0.062
870	0.062
871	0.062
871	0.062
872	0.062
872	0.062
872	0.062
873	0.062
873	0.061
874	0.061
874	0.061
875	0.061
875	0.061
875	0.062
876	0.062
876	0.062
877	0.063
877	0.063
878	0.064
878	0.064
878	0.065
879	0.066
879	0.066
880	0.067
880	0.067
881	0.067
881	0.067
881	0.067
882	0.066
882	0.066
883	0.065
883	0.065
884	0.065
884	0.064
884	0.064
885	0.064
885	0.063
886	0.063
886	0.063
887	0.062
887	0.062
887	0.061
888	0.061
888	0.06
889	0.06
889	0.059
890	0.059
890	0.059
890	0.059
891	0.059
891	0.059
892	0.059
892	0.059
893	0.059
893	0.059
893	0.06
894	0.06
894	0.059
895	0.059
895	0.059
895	0.059
896	0.058
896	0.058
897	0.057
897	0.057
898	0.056
898	0.056
898	0.055
899	0.055
899	0.054
900	0.054
900	0.054
901	0.054
901	0.054
901	0.054
902	0.055
902	0.055
903	0.055
903	0.055
904	0.056
904	0.056
904	0.056
905	0.056
905	0.056
906	0.056
906	0.056
907	0.056
907	0.057
907	0.057
908	0.056
908	0.056
909	0.056
909	0.056
910	0.056
910	0.056
910	0.056
911	0.056
911	0.056
912	0.055
912	0.055
913	0.055
913	0.056
913	0.056
914	0.056
914	0.056
915	0.056
915	0.055
916	0.055
916	0.055
916	0.054
917	0.054
917	0.053
918	0.052
918	0.052
918	0.051
919	0.051
919	0.051
920	0.051
920	0.05
921	0.05
921	0.051
921	0.051
922	0.051
922	0.051
923	0.051
923	0.052
924	0.053
924	0.053
924	0.054
925	0.054
925	0.055
926	0.055
926	0.056
927	0.056
927	0.056
927	0.056
928	0.056
928	0.056
929	0.056
929	0.056
930	0.056
930	0.056
930	0.056
931	0.056
931	0.056
932	0.056
932	0.057
933	0.057
933	0.056
933	0.056
934	0.056
934	0.055
935	0.055
935	0.054
935	0.054
936	0.053
936	0.053
937	0.052
937	0.052
938	0.051
938	0.051
938	0.051
939	0.051
939	0.05
940	0.05
940	0.05
941	0.05
941	0.05
941	0.05
942	0.05
942	0.05
943	0.05
943	0.05
944	0.05
944	0.05
944	0.05
945	0.05
945	0.05
946	0.05
946	0.049
946	0.049
947	0.05
947	0.05
948	0.05
948	0.05
949	0.05
949	0.05
949	0.05
950	0.051
950	0.051
951	0.051
951	0.051
952	0.051
952	0.051
952	0.051
953	0.051
953	0.051
954	0.051
954	0.05
955	0.05
955	0.05
955	0.049
956	0.05
956	0.05
957	0.05
957	0.05
957	0.051
958	0.051
958	0.051
959	0.051
959	0.051
960	0.051
960	0.052
960	0.052
961	0.052
961	0.052
962	0.052
962	0.052
963	0.052
963	0.052
963	0.051
964	0.051
964	0.051
965	0.051
965	0.051
966	0.051
966	0.051
966	0.051
967	0.051
967	0.052
968	0.052
968	0.052
968	0.052
969	0.052
969	0.052
970	0.051
970	0.051
971	0.051
971	0.05
971	0.05
972	0.05
972	0.049
973	0.049
973	0.049
974	0.049
974	0.049
974	0.05
975	0.05
975	0.05
976	0.051
976	0.051
976	0.051
977	0.051
977	0.051
978	0.051
978	0.051
979	0.051
979	0.051
979	0.051
980	0.051
980	0.051
981	0.05
981	0.05
982	0.049
982	0.049
982	0.048
983	0.048
983	0.047
984	0.046
984	0.045
984	0.044
985	0.044
985	0.043
986	0.042
986	0.041
987	0.04
987	0.039
987	0.039
988	0.038
988	0.037
989	0.037
989	0.036
990	0.036
990	0.036
990	0.035
991	0.035
991	0.035
992	0.035
992	0.035
992	0.035
993	0.035
993	0.035
994	0.035
994	0.035
995	0.035
995	0.035
995	0.036
996	0.036
996	0.037
997	0.038
997	0.039
997	0.04
998	0.041
998	0.042
999	0.043
999	0.044
1000	0.044
1000	0.045
1000	0.046
1001	0.046
1001	0.047
1002	0.047
1002	0.047
1003	0.047
1003	0.047
1003	0.046
1004	0.046
1004	0.046
1005	0.045
1005	0.045
1005	0.045
1006	0.044
1006	0.044
1007	0.044
1007	0.044
1008	0.044
1008	0.044
1008	0.044
1009	0.044
1009	0.044
1010	0.044
1010	0.043
1010	0.043
1011	0.043
1011	0.043
1012	0.042
1012	0.042
1013	0.042
1013	0.041
1013	0.041
1014	0.041
1014	0.041
1015	0.04
1015	0.04
1016	0.04
1016	0.04
1016	0.04
1017	0.04
1017	0.039
1018	0.039
1018	0.039
1018	0.038
1019	0.038
1019	0.038
1020	0.038
1020	0.037
1021	0.037
1021	0.038
1021	0.038
1022	0.038
1022	0.038
1023	0.038
1023	0.039
1023	0.039
1024	0.039
1024	0.039
1025	0.039
1025	0.039
1026	0.038
1026	0.038
1026	0.037
1027	0.037
1027	0.036
1028	0.036
1028	0.035
1028	0.035
1029	0.034
1029	0.034
1030	0.034
1030	0.033
1031	0.033
1031	0.033
1031	0.033
1032	0.033
1032	0.033
1033	0.033
1033	0.033
1033	0.033
1034	0.033
1034	0.032
1035	0.032
1035	0.032
1036	0.032
1036	0.032
1036	0.032
1037	0.032
1037	0.032
1038	0.032
1038	0.032
1039	0.032
1039	0.033
1039	0.033
1040	0.034
1040	0.034
1041	0.035
1041	0.035
1041	0.035
1042	0.036
1042	0.037
1043	0.037
1043	0.038
1044	0.038
1044	0.039
1044	0.039
1045	0.04
1045	0.04
1046	0.041
1046	0.041
1046	0.042
1047	0.042
1047	0.043
1048	0.043
1048	0.043
1049	0.043
1049	0.044
1049	0.043
1050	0.043
1050	0.042
1051	0.042
1051	0.041
1051	0.04
1052	0.04
1052	0.039
1053	0.038
1053	0.037
1053	0.037
1054	0.036
1054	0.036
1055	0.036
1055	0.036
1056	0.035
1056	0.035
1056	0.034
1057	0.034
1057	0.033
1058	0.033
1058	0.032
1058	0.031
1059	0.031
1059	0.031
1060	0.031
1060	0.03
1061	0.03
1061	0.03
1061	0.03
1062	0.03
1062	0.03
1063	0.03
1063	0.03
1063	0.03
1064	0.029
1064	0.029
1065	0.029
1065	0.029
1066	0.028
1066	0.028
1066	0.028
1067	0.028
1067	0.028
1068	0.028
1068	0.028
1068	0.028
1069	0.028
1069	0.027
1070	0.027
1070	0.027
1071	0.026
1071	0.026
1071	0.026
1072	0.026
1072	0.025
1073	0.025
1073	0.024
1073	0.024
1074	0.025
1074	0.025
1075	0.025
1075	0.026
1076	0.026
1076	0.027
1076	0.027
1077	0.028
1077	0.028
1078	0.028
1078	0.029
1078	0.029
1079	0.029
1079	0.029
1080	0.029
1080	0.029
1080	0.029
1081	0.029
1081	0.029
1082	0.029
1082	0.03
1083	0.029
1083	0.03
1083	0.029
1084	0.029
1084	0.029
1085	0.028
1085	0.028
1085	0.028
1086	0.028
1086	0.027
1087	0.026
1087	0.026
1088	0.025
1088	0.025
1088	0.025
1089	0.024
1089	0.024
1090	0.023
1090	0.023
1090	0.022
1091	0.022
1091	0.021
1092	0.021
1092	0.021
1092	0.021
1093	0.02
1093	0.021
1094	0.021
1094	0.02
1095	0.02
1095	0.02
1095	0.02
1096	0.019
1096	0.019
1097	0.018
1097	0.018
1097	0.018
1098	0.017
1098	0.017
1099	0.017
1099	0.015
1100	0.015
1100	0.015
1100	0.014
1101	0.014
1101	0.014
1102	0.012
1102	0.011
1102	0.01
1103	0.009
1103	0.009
1104	0.009
1104	0.008
1104	0.007
1105	0.006
1105	0.004
1106	0.002
1106	0.002
1107	0.001
1107	0.001
1107	0.001
1108	0
1108	-0.001
1109	-0.003
1109	-0.004
1109	-0.003
1110	-0.002
1110	-0.002
1111	-0.001
1111	-0.001
