Data from reversibility-20sec_Absorbance__6703__000000000006703.txt Node

Date: Thu Dec 07 01:27:26 CET 2023
User: Marek
Spectrometer: MAYP115816
Trigger mode: 0
Integration Time (sec): 2.000000E-1
Scans to average: 10
Electric dark correction enabled: true
Nonlinearity correction enabled: true
Boxcar width: 5
XAxis mode: Wavelengths
Number of Pixels in Spectrum: 2068
>>>>>Begin Spectral Data<<<<<
199	-0.079
199	-0.074
200	-0.021
200	0.034
201	0.059
201	0.074
202	0.082
202	0.091
203	0.1
203	0.104
204	0.115
204	0.126
205	0.139
205	0.148
205	0.142
206	0.144
206	0.143
207	0.149
207	0.148
208	0.144
208	0.144
209	0.147
209	0.147
210	0.148
210	0.147
211	0.15
211	0.151
212	0.148
212	0.148
213	0.149
213	0.154
213	0.154
214	0.157
214	0.155
215	0.156
215	0.157
216	0.157
216	0.154
217	0.161
217	0.162
218	0.16
218	0.163
219	0.164
219	0.162
220	0.167
220	0.165
221	0.165
221	0.168
221	0.171
222	0.176
222	0.181
223	0.19
223	0.193
224	0.2
224	0.208
225	0.215
225	0.226
226	0.236
226	0.248
227	0.261
227	0.268
228	0.283
228	0.294
229	0.313
229	0.336
229	0.359
230	0.382
230	0.414
231	0.446
231	0.483
232	0.52
232	0.562
233	0.606
233	0.654
234	0.702
234	0.754
235	0.808
235	0.864
236	0.913
236	0.966
236	1.015
237	1.068
237	1.12
238	1.166
238	1.212
239	1.259
239	1.297
240	1.337
240	1.375
241	1.408
241	1.44
242	1.471
242	1.502
243	1.53
243	1.557
243	1.583
244	1.603
244	1.625
245	1.642
245	1.661
246	1.683
246	1.699
247	1.714
247	1.727
248	1.74
248	1.752
249	1.763
249	1.769
250	1.779
250	1.785
250	1.786
251	1.788
251	1.79
252	1.793
252	1.792
253	1.792
253	1.79
254	1.787
254	1.788
255	1.786
255	1.786
256	1.785
256	1.785
257	1.785
257	1.784
258	1.785
258	1.783
258	1.781
259	1.781
259	1.781
260	1.78
260	1.781
261	1.782
261	1.784
262	1.787
262	1.789
263	1.791
263	1.792
264	1.794
264	1.796
265	1.798
265	1.799
265	1.8
266	1.8
266	1.799
267	1.796
267	1.798
268	1.798
268	1.801
269	1.802
269	1.802
270	1.802
270	1.801
271	1.798
271	1.798
272	1.795
272	1.791
272	1.786
273	1.779
273	1.772
274	1.764
274	1.757
275	1.748
275	1.741
276	1.732
276	1.724
277	1.716
277	1.705
278	1.694
278	1.682
278	1.667
279	1.649
279	1.627
280	1.599
280	1.566
281	1.527
281	1.483
282	1.438
282	1.392
283	1.347
283	1.304
284	1.262
284	1.222
285	1.185
285	1.151
285	1.122
286	1.096
286	1.073
287	1.054
287	1.037
288	1.023
288	1.01
289	1.001
289	0.992
290	0.984
290	0.978
291	0.972
291	0.967
292	0.962
292	0.957
292	0.953
293	0.95
293	0.947
294	0.943
294	0.94
295	0.938
295	0.935
296	0.932
296	0.929
297	0.927
297	0.924
298	0.922
298	0.919
298	0.916
299	0.913
299	0.91
300	0.908
300	0.905
301	0.902
301	0.9
302	0.897
302	0.895
303	0.892
303	0.89
304	0.888
304	0.886
305	0.884
305	0.882
305	0.879
306	0.877
306	0.875
307	0.873
307	0.87
308	0.868
308	0.866
309	0.863
309	0.86
310	0.858
310	0.855
311	0.852
311	0.849
311	0.846
312	0.843
312	0.839
313	0.836
313	0.832
314	0.828
314	0.824
315	0.82
315	0.816
316	0.811
316	0.807
317	0.802
317	0.797
318	0.793
318	0.788
318	0.783
319	0.777
319	0.772
320	0.767
320	0.761
321	0.755
321	0.749
322	0.743
322	0.737
323	0.73
323	0.724
324	0.717
324	0.71
324	0.703
325	0.697
325	0.69
326	0.683
326	0.676
327	0.669
327	0.662
328	0.655
328	0.648
329	0.641
329	0.634
330	0.626
330	0.62
330	0.612
331	0.605
331	0.598
332	0.591
332	0.584
333	0.578
333	0.57
334	0.564
334	0.557
335	0.55
335	0.543
336	0.536
336	0.53
336	0.523
337	0.517
337	0.511
338	0.505
338	0.498
339	0.492
339	0.486
340	0.48
340	0.475
341	0.469
341	0.463
342	0.458
342	0.452
342	0.447
343	0.442
343	0.437
344	0.432
344	0.427
345	0.422
345	0.417
346	0.413
346	0.408
347	0.404
347	0.4
348	0.396
348	0.392
348	0.388
349	0.384
349	0.381
350	0.377
350	0.374
351	0.371
351	0.367
352	0.364
352	0.361
353	0.358
353	0.355
354	0.352
354	0.35
354	0.347
355	0.344
355	0.341
356	0.338
356	0.335
357	0.332
357	0.33
358	0.327
358	0.324
359	0.322
359	0.32
360	0.318
360	0.316
360	0.314
361	0.312
361	0.311
362	0.31
362	0.308
363	0.306
363	0.304
364	0.303
364	0.301
365	0.299
365	0.297
366	0.296
366	0.294
366	0.293
367	0.291
367	0.289
368	0.288
368	0.286
369	0.285
369	0.284
370	0.282
370	0.281
371	0.28
371	0.278
372	0.277
372	0.276
372	0.275
373	0.274
373	0.273
374	0.272
374	0.271
375	0.27
375	0.269
376	0.269
376	0.268
377	0.267
377	0.266
378	0.265
378	0.264
378	0.264
379	0.263
379	0.262
380	0.261
380	0.261
381	0.26
381	0.26
382	0.259
382	0.259
383	0.258
383	0.258
383	0.257
384	0.257
384	0.256
385	0.256
385	0.256
386	0.255
386	0.255
387	0.254
387	0.254
388	0.253
388	0.253
389	0.253
389	0.253
389	0.252
390	0.252
390	0.251
391	0.251
391	0.251
392	0.251
392	0.25
393	0.25
393	0.25
394	0.25
394	0.249
394	0.249
395	0.249
395	0.249
396	0.248
396	0.248
397	0.248
397	0.247
398	0.247
398	0.247
399	0.247
399	0.246
400	0.246
400	0.246
400	0.246
401	0.246
401	0.245
402	0.245
402	0.245
403	0.244
403	0.244
404	0.244
404	0.244
405	0.244
405	0.243
405	0.243
406	0.243
406	0.243
407	0.242
407	0.242
408	0.242
408	0.241
409	0.241
409	0.241
410	0.241
410	0.24
411	0.24
411	0.24
411	0.24
412	0.239
412	0.239
413	0.239
413	0.238
414	0.238
414	0.238
415	0.238
415	0.238
416	0.237
416	0.237
416	0.237
417	0.236
417	0.236
418	0.236
418	0.235
419	0.235
419	0.235
420	0.234
420	0.234
421	0.234
421	0.233
421	0.233
422	0.233
422	0.232
423	0.232
423	0.232
424	0.231
424	0.231
425	0.23
425	0.23
426	0.23
426	0.23
427	0.229
427	0.229
427	0.229
428	0.228
428	0.228
429	0.228
429	0.227
430	0.227
430	0.227
431	0.226
431	0.226
432	0.226
432	0.225
432	0.225
433	0.225
433	0.225
434	0.225
434	0.225
435	0.225
435	0.224
436	0.224
436	0.224
437	0.224
437	0.224
437	0.224
438	0.224
438	0.223
439	0.223
439	0.223
440	0.223
440	0.222
441	0.222
441	0.222
442	0.221
442	0.221
442	0.221
443	0.22
443	0.22
444	0.22
444	0.219
445	0.219
445	0.219
446	0.219
446	0.219
447	0.219
447	0.218
447	0.218
448	0.218
448	0.218
449	0.218
449	0.217
450	0.217
450	0.217
451	0.217
451	0.217
452	0.217
452	0.216
452	0.216
453	0.216
453	0.216
454	0.216
454	0.215
455	0.215
455	0.215
456	0.214
456	0.214
457	0.214
457	0.214
458	0.213
458	0.213
458	0.213
459	0.213
459	0.213
460	0.212
460	0.212
461	0.212
461	0.212
462	0.211
462	0.211
463	0.211
463	0.211
463	0.21
464	0.21
464	0.21
465	0.209
465	0.209
466	0.209
466	0.209
467	0.209
467	0.208
467	0.208
468	0.208
468	0.208
469	0.208
469	0.209
470	0.209
470	0.209
471	0.209
471	0.208
472	0.208
472	0.208
472	0.208
473	0.208
473	0.208
474	0.208
474	0.207
475	0.207
475	0.207
476	0.207
476	0.207
477	0.207
477	0.207
477	0.207
478	0.207
478	0.207
479	0.207
479	0.207
480	0.207
480	0.207
481	0.207
481	0.206
482	0.206
482	0.206
482	0.206
483	0.206
483	0.206
484	0.206
484	0.206
485	0.206
485	0.206
486	0.206
486	0.205
487	0.205
487	0.205
487	0.206
488	0.206
488	0.206
489	0.206
489	0.206
490	0.207
490	0.207
491	0.208
491	0.208
492	0.208
492	0.208
492	0.209
493	0.209
493	0.209
494	0.209
494	0.21
495	0.21
495	0.21
496	0.21
496	0.211
496	0.211
497	0.211
497	0.211
498	0.212
498	0.212
499	0.212
499	0.212
500	0.213
500	0.213
501	0.213
501	0.214
501	0.214
502	0.214
502	0.214
503	0.215
503	0.215
504	0.215
504	0.216
505	0.216
505	0.216
506	0.217
506	0.217
506	0.217
507	0.218
507	0.218
508	0.218
508	0.218
509	0.219
509	0.219
510	0.219
510	0.22
511	0.22
511	0.221
511	0.221
512	0.221
512	0.222
513	0.222
513	0.223
514	0.223
514	0.223
515	0.223
515	0.224
515	0.224
516	0.224
516	0.225
517	0.225
517	0.225
518	0.226
518	0.226
519	0.226
519	0.226
520	0.227
520	0.227
520	0.227
521	0.228
521	0.228
522	0.228
522	0.228
523	0.228
523	0.228
524	0.228
524	0.228
524	0.229
525	0.229
525	0.229
526	0.229
526	0.229
527	0.229
527	0.23
528	0.23
528	0.23
529	0.23
529	0.23
529	0.23
530	0.23
530	0.23
531	0.231
531	0.23
532	0.23
532	0.23
533	0.23
533	0.23
533	0.23
534	0.23
534	0.23
535	0.231
535	0.231
536	0.231
536	0.231
537	0.231
537	0.231
538	0.231
538	0.231
538	0.23
539	0.23
539	0.23
540	0.23
540	0.23
541	0.23
541	0.23
542	0.23
542	0.23
542	0.229
543	0.229
543	0.229
544	0.229
544	0.229
545	0.23
545	0.23
546	0.23
546	0.229
547	0.228
547	0.228
547	0.228
548	0.228
548	0.228
549	0.228
549	0.228
550	0.227
550	0.227
551	0.227
551	0.227
551	0.227
552	0.227
552	0.226
553	0.226
553	0.226
554	0.225
554	0.225
555	0.224
555	0.223
556	0.223
556	0.222
556	0.223
557	0.223
557	0.223
558	0.223
558	0.223
559	0.223
559	0.223
560	0.223
560	0.223
560	0.223
561	0.223
561	0.223
562	0.222
562	0.222
563	0.221
563	0.22
564	0.22
564	0.219
564	0.219
565	0.219
565	0.219
566	0.219
566	0.219
567	0.218
567	0.219
568	0.219
568	0.218
568	0.218
569	0.218
569	0.217
570	0.216
570	0.215
571	0.215
571	0.215
572	0.214
572	0.214
573	0.214
573	0.214
573	0.213
574	0.213
574	0.213
575	0.213
575	0.213
576	0.213
576	0.213
577	0.212
577	0.212
577	0.211
578	0.211
578	0.21
579	0.211
579	0.211
580	0.21
580	0.209
581	0.209
581	0.209
581	0.209
582	0.209
582	0.209
583	0.21
583	0.21
584	0.209
584	0.208
585	0.208
585	0.208
585	0.208
586	0.207
586	0.207
587	0.206
587	0.206
588	0.205
588	0.205
589	0.205
589	0.204
590	0.204
590	0.204
590	0.205
591	0.205
591	0.205
592	0.204
592	0.203
593	0.203
593	0.203
594	0.203
594	0.202
594	0.201
595	0.201
595	0.201
596	0.2
596	0.2
597	0.201
597	0.201
598	0.201
598	0.201
598	0.201
599	0.201
599	0.201
600	0.2
600	0.2
601	0.2
601	0.2
602	0.199
602	0.199
602	0.198
603	0.198
603	0.198
604	0.198
604	0.198
605	0.198
605	0.198
606	0.198
606	0.197
606	0.197
607	0.197
607	0.197
608	0.196
608	0.196
609	0.196
609	0.196
610	0.195
610	0.195
610	0.195
611	0.195
611	0.195
612	0.195
612	0.195
613	0.195
613	0.195
614	0.195
614	0.194
614	0.194
615	0.195
615	0.195
616	0.195
616	0.195
617	0.195
617	0.194
618	0.194
618	0.195
618	0.195
619	0.195
619	0.195
620	0.195
620	0.195
621	0.195
621	0.194
622	0.194
622	0.193
622	0.193
623	0.192
623	0.192
624	0.192
624	0.191
625	0.191
625	0.191
626	0.19
626	0.19
626	0.191
627	0.191
627	0.19
628	0.19
628	0.19
629	0.19
629	0.19
630	0.19
630	0.189
630	0.189
631	0.189
631	0.189
632	0.189
632	0.188
633	0.188
633	0.188
634	0.188
634	0.189
634	0.188
635	0.188
635	0.188
636	0.188
636	0.188
637	0.188
637	0.188
638	0.188
638	0.188
638	0.187
639	0.187
639	0.187
640	0.187
640	0.187
641	0.187
641	0.187
642	0.186
642	0.187
642	0.187
643	0.187
643	0.188
644	0.188
644	0.188
645	0.188
645	0.188
646	0.188
646	0.188
646	0.187
647	0.187
647	0.186
648	0.186
648	0.185
649	0.185
649	0.184
650	0.184
650	0.184
650	0.184
651	0.184
651	0.185
652	0.185
652	0.185
653	0.186
653	0.187
653	0.193
654	0.151
654	0.121
655	0.122
655	0.122
656	0.122
656	0.123
657	0.123
657	0.123
657	0.123
658	0.122
658	0.112
659	0.142
659	0.182
660	0.187
660	0.187
661	0.186
661	0.186
661	0.186
662	0.186
662	0.185
663	0.185
663	0.185
664	0.184
664	0.184
665	0.184
665	0.184
665	0.184
666	0.184
666	0.184
667	0.184
667	0.185
668	0.185
668	0.185
669	0.185
669	0.186
669	0.186
670	0.186
670	0.186
671	0.186
671	0.186
672	0.186
672	0.185
672	0.185
673	0.184
673	0.184
674	0.184
674	0.183
675	0.183
675	0.183
676	0.183
676	0.183
676	0.184
677	0.184
677	0.184
678	0.184
678	0.184
679	0.183
679	0.184
680	0.184
680	0.183
680	0.183
681	0.183
681	0.183
682	0.183
682	0.184
683	0.184
683	0.184
684	0.184
684	0.184
684	0.184
685	0.184
685	0.185
686	0.185
686	0.185
687	0.185
687	0.185
687	0.185
688	0.185
688	0.185
689	0.186
689	0.186
690	0.186
690	0.186
691	0.186
691	0.186
691	0.186
692	0.186
692	0.186
693	0.186
693	0.187
694	0.187
694	0.186
695	0.187
695	0.188
695	0.188
696	0.188
696	0.188
697	0.188
697	0.188
698	0.187
698	0.187
698	0.187
699	0.187
699	0.186
700	0.186
700	0.186
701	0.186
701	0.186
702	0.186
702	0.186
702	0.186
703	0.186
703	0.186
704	0.186
704	0.187
705	0.187
705	0.187
705	0.186
706	0.186
706	0.186
707	0.186
707	0.186
708	0.186
708	0.187
709	0.187
709	0.187
709	0.187
710	0.187
710	0.187
711	0.188
711	0.188
712	0.189
712	0.189
713	0.19
713	0.19
713	0.19
714	0.189
714	0.189
715	0.189
715	0.189
716	0.188
716	0.188
716	0.187
717	0.186
717	0.186
718	0.185
718	0.185
719	0.185
719	0.185
720	0.186
720	0.186
720	0.186
721	0.187
721	0.188
722	0.188
722	0.189
723	0.189
723	0.19
723	0.19
724	0.19
724	0.19
725	0.189
725	0.189
726	0.188
726	0.188
727	0.187
727	0.187
727	0.186
728	0.186
728	0.186
729	0.186
729	0.186
730	0.187
730	0.187
730	0.188
731	0.188
731	0.189
732	0.19
732	0.19
733	0.191
733	0.191
734	0.192
734	0.192
734	0.192
735	0.192
735	0.192
736	0.192
736	0.192
737	0.192
737	0.192
737	0.191
738	0.191
738	0.19
739	0.19
739	0.19
740	0.19
740	0.19
741	0.19
741	0.19
741	0.19
742	0.19
742	0.191
743	0.192
743	0.193
744	0.194
744	0.195
744	0.195
745	0.195
745	0.195
746	0.195
746	0.195
747	0.195
747	0.195
748	0.194
748	0.194
748	0.194
749	0.193
749	0.194
750	0.194
750	0.193
751	0.194
751	0.194
751	0.194
752	0.194
752	0.194
753	0.193
753	0.193
754	0.193
754	0.193
754	0.193
755	0.193
755	0.193
756	0.192
756	0.191
757	0.191
757	0.191
758	0.191
758	0.192
758	0.192
759	0.192
759	0.192
760	0.192
760	0.192
761	0.193
761	0.194
761	0.194
762	0.194
762	0.194
763	0.194
763	0.194
764	0.194
764	0.194
764	0.194
765	0.194
765	0.194
766	0.195
766	0.195
767	0.194
767	0.194
768	0.193
768	0.194
768	0.194
769	0.194
769	0.195
770	0.195
770	0.196
771	0.196
771	0.197
771	0.197
772	0.198
772	0.199
773	0.199
773	0.2
774	0.2
774	0.2
775	0.2
775	0.2
775	0.2
776	0.2
776	0.2
777	0.201
777	0.201
778	0.201
778	0.2
778	0.201
779	0.201
779	0.201
780	0.2
780	0.2
781	0.199
781	0.199
781	0.199
782	0.199
782	0.199
783	0.2
783	0.2
784	0.2
784	0.201
784	0.201
785	0.202
785	0.202
786	0.202
786	0.202
787	0.202
787	0.201
788	0.201
788	0.2
788	0.2
789	0.199
789	0.199
790	0.199
790	0.199
791	0.199
791	0.199
791	0.199
792	0.2
792	0.2
793	0.2
793	0.201
794	0.201
794	0.201
794	0.201
795	0.201
795	0.202
796	0.202
796	0.202
797	0.202
797	0.202
797	0.203
798	0.203
798	0.203
799	0.203
799	0.203
800	0.202
800	0.202
801	0.201
801	0.202
801	0.201
802	0.202
802	0.202
803	0.202
803	0.202
804	0.202
804	0.203
804	0.203
805	0.203
805	0.204
806	0.204
806	0.204
807	0.203
807	0.203
807	0.204
808	0.203
808	0.204
809	0.203
809	0.203
810	0.203
810	0.203
810	0.203
811	0.203
811	0.204
812	0.205
812	0.205
813	0.206
813	0.206
813	0.207
814	0.208
814	0.208
815	0.209
815	0.209
816	0.209
816	0.209
817	0.208
817	0.208
817	0.207
818	0.207
818	0.207
819	0.206
819	0.206
820	0.205
820	0.205
820	0.205
821	0.205
821	0.205
822	0.205
822	0.206
823	0.206
823	0.206
823	0.207
824	0.208
824	0.209
825	0.21
825	0.211
826	0.211
826	0.211
826	0.211
827	0.211
827	0.212
828	0.212
828	0.212
829	0.212
829	0.213
829	0.213
830	0.213
830	0.214
831	0.215
831	0.215
832	0.215
832	0.216
832	0.216
833	0.215
833	0.215
834	0.215
834	0.214
835	0.214
835	0.214
835	0.213
836	0.213
836	0.213
837	0.212
837	0.212
838	0.211
838	0.211
839	0.21
839	0.209
839	0.208
840	0.207
840	0.207
841	0.206
841	0.205
842	0.204
842	0.204
842	0.203
843	0.203
843	0.203
844	0.203
844	0.202
845	0.202
845	0.202
845	0.202
846	0.203
846	0.203
847	0.203
847	0.203
848	0.203
848	0.204
848	0.204
849	0.205
849	0.205
850	0.206
850	0.206
851	0.206
851	0.207
851	0.207
852	0.207
852	0.206
853	0.206
853	0.206
854	0.207
854	0.207
854	0.208
855	0.208
855	0.209
856	0.21
856	0.21
857	0.211
857	0.212
857	0.213
858	0.213
858	0.213
859	0.213
859	0.213
860	0.212
860	0.212
860	0.211
861	0.211
861	0.21
862	0.209
862	0.207
863	0.207
863	0.206
863	0.206
864	0.205
864	0.205
865	0.205
865	0.206
866	0.206
866	0.206
866	0.207
867	0.207
867	0.208
868	0.209
868	0.209
869	0.21
869	0.21
869	0.209
870	0.209
870	0.209
871	0.209
871	0.209
872	0.209
872	0.208
872	0.208
873	0.208
873	0.207
874	0.207
874	0.206
875	0.206
875	0.206
875	0.206
876	0.205
876	0.205
877	0.205
877	0.204
878	0.204
878	0.204
878	0.205
879	0.205
879	0.205
880	0.205
880	0.205
881	0.206
881	0.206
881	0.206
882	0.207
882	0.207
883	0.207
883	0.208
884	0.208
884	0.208
884	0.208
885	0.208
885	0.208
886	0.207
886	0.207
887	0.207
887	0.206
887	0.205
888	0.204
888	0.204
889	0.203
889	0.203
890	0.203
890	0.202
890	0.202
891	0.202
891	0.202
892	0.202
892	0.201
893	0.201
893	0.201
893	0.201
894	0.201
894	0.201
895	0.201
895	0.201
895	0.201
896	0.201
896	0.201
897	0.201
897	0.201
898	0.201
898	0.2
898	0.2
899	0.199
899	0.198
900	0.198
900	0.197
901	0.196
901	0.196
901	0.195
902	0.195
902	0.194
903	0.194
903	0.194
904	0.193
904	0.193
904	0.193
905	0.193
905	0.193
906	0.193
906	0.193
907	0.193
907	0.194
907	0.194
908	0.194
908	0.194
909	0.194
909	0.194
910	0.194
910	0.194
910	0.193
911	0.193
911	0.193
912	0.192
912	0.192
913	0.192
913	0.191
913	0.191
914	0.191
914	0.191
915	0.191
915	0.191
916	0.191
916	0.191
916	0.191
917	0.19
917	0.19
918	0.19
918	0.189
918	0.189
919	0.188
919	0.187
920	0.187
920	0.186
921	0.186
921	0.185
921	0.185
922	0.185
922	0.184
923	0.185
923	0.185
924	0.185
924	0.185
924	0.185
925	0.186
925	0.186
926	0.186
926	0.187
927	0.187
927	0.187
927	0.187
928	0.187
928	0.188
929	0.188
929	0.188
930	0.188
930	0.188
930	0.188
931	0.187
931	0.187
932	0.187
932	0.187
933	0.186
933	0.186
933	0.186
934	0.185
934	0.184
935	0.184
935	0.183
935	0.183
936	0.182
936	0.182
937	0.181
937	0.18
938	0.18
938	0.179
938	0.179
939	0.178
939	0.178
940	0.178
940	0.178
941	0.178
941	0.178
941	0.178
942	0.178
942	0.178
943	0.178
943	0.178
944	0.178
944	0.178
944	0.178
945	0.178
945	0.178
946	0.178
946	0.177
946	0.177
947	0.177
947	0.176
948	0.176
948	0.175
949	0.175
949	0.174
949	0.173
950	0.172
950	0.171
951	0.171
951	0.17
952	0.169
952	0.168
952	0.168
953	0.167
953	0.167
954	0.167
954	0.167
955	0.167
955	0.167
955	0.167
956	0.168
956	0.168
957	0.169
957	0.169
957	0.169
958	0.17
958	0.169
959	0.169
959	0.169
960	0.169
960	0.169
960	0.169
961	0.169
961	0.169
962	0.169
962	0.169
963	0.169
963	0.169
963	0.17
964	0.17
964	0.17
965	0.17
965	0.17
966	0.17
966	0.169
966	0.169
967	0.169
967	0.168
968	0.168
968	0.168
968	0.167
969	0.166
969	0.165
970	0.164
970	0.163
971	0.162
971	0.161
971	0.16
972	0.16
972	0.159
973	0.158
973	0.158
974	0.158
974	0.158
974	0.159
975	0.159
975	0.16
976	0.16
976	0.161
976	0.161
977	0.162
977	0.162
978	0.162
978	0.162
979	0.162
979	0.161
979	0.161
980	0.161
980	0.161
981	0.16
981	0.16
982	0.16
982	0.16
982	0.159
983	0.159
983	0.159
984	0.159
984	0.159
984	0.158
985	0.158
985	0.158
986	0.158
986	0.157
987	0.157
987	0.157
987	0.157
988	0.156
988	0.156
989	0.156
989	0.156
990	0.155
990	0.155
990	0.154
991	0.154
991	0.154
992	0.153
992	0.152
992	0.151
993	0.151
993	0.15
994	0.149
994	0.148
995	0.147
995	0.146
995	0.146
996	0.146
996	0.145
997	0.146
997	0.146
997	0.146
998	0.146
998	0.147
999	0.148
999	0.148
1000	0.149
1000	0.15
1000	0.151
1001	0.151
1001	0.152
1002	0.152
1002	0.152
1003	0.152
1003	0.151
1003	0.151
1004	0.15
1004	0.149
1005	0.148
1005	0.147
1005	0.146
1006	0.145
1006	0.145
1007	0.144
1007	0.143
1008	0.143
1008	0.142
1008	0.142
1009	0.143
1009	0.143
1010	0.143
1010	0.143
1010	0.143
1011	0.143
1011	0.142
1012	0.142
1012	0.142
1013	0.141
1013	0.141
1013	0.14
1014	0.139
1014	0.139
1015	0.138
1015	0.138
1016	0.138
1016	0.137
1016	0.137
1017	0.137
1017	0.136
1018	0.136
1018	0.136
1018	0.136
1019	0.136
1019	0.136
1020	0.135
1020	0.135
1021	0.135
1021	0.135
1021	0.136
1022	0.136
1022	0.136
1023	0.136
1023	0.136
1023	0.137
1024	0.137
1024	0.137
1025	0.137
1025	0.137
1026	0.137
1026	0.137
1026	0.137
1027	0.138
1027	0.138
1028	0.138
1028	0.138
1028	0.138
1029	0.138
1029	0.138
1030	0.138
1030	0.138
1031	0.138
1031	0.138
1031	0.138
1032	0.138
1032	0.138
1033	0.138
1033	0.138
1033	0.138
1034	0.138
1034	0.138
1035	0.137
1035	0.137
1036	0.137
1036	0.136
1036	0.136
1037	0.136
1037	0.135
1038	0.134
1038	0.134
1039	0.133
1039	0.133
1039	0.132
1040	0.132
1040	0.132
1041	0.132
1041	0.131
1041	0.131
1042	0.131
1042	0.13
1043	0.13
1043	0.13
1044	0.13
1044	0.129
1044	0.129
1045	0.129
1045	0.129
1046	0.129
1046	0.129
1046	0.128
1047	0.128
1047	0.128
1048	0.129
1048	0.129
1049	0.129
1049	0.129
1049	0.129
1050	0.129
1050	0.129
1051	0.128
1051	0.128
1051	0.128
1052	0.127
1052	0.127
1053	0.126
1053	0.125
1053	0.125
1054	0.124
1054	0.123
1055	0.123
1055	0.122
1056	0.122
1056	0.121
1056	0.12
1057	0.119
1057	0.118
1058	0.117
1058	0.116
1058	0.115
1059	0.114
1059	0.113
1060	0.112
1060	0.111
1061	0.111
1061	0.111
1061	0.11
1062	0.11
1062	0.11
1063	0.109
1063	0.109
1063	0.109
1064	0.108
1064	0.108
1065	0.108
1065	0.107
1066	0.107
1066	0.107
1066	0.107
1067	0.106
1067	0.107
1068	0.106
1068	0.106
1068	0.106
1069	0.106
1069	0.106
1070	0.106
1070	0.106
1071	0.105
1071	0.105
1071	0.105
1072	0.105
1072	0.105
1073	0.104
1073	0.104
1073	0.104
1074	0.104
1074	0.104
1075	0.105
1075	0.105
1076	0.105
1076	0.106
1076	0.105
1077	0.105
1077	0.106
1078	0.106
1078	0.106
1078	0.105
1079	0.105
1079	0.105
1080	0.104
1080	0.103
1080	0.103
1081	0.102
1081	0.102
1082	0.102
1082	0.102
1083	0.101
1083	0.101
1083	0.101
1084	0.101
1084	0.102
1085	0.102
1085	0.102
1085	0.102
1086	0.103
1086	0.102
1087	0.102
1087	0.102
1088	0.101
1088	0.101
1088	0.101
1089	0.1
1089	0.099
1090	0.098
1090	0.098
1090	0.097
1091	0.096
1091	0.096
1092	0.096
1092	0.096
1092	0.095
1093	0.095
1093	0.095
1094	0.095
1094	0.095
1095	0.094
1095	0.094
1095	0.094
1096	0.093
1096	0.092
1097	0.091
1097	0.09
1097	0.09
1098	0.088
1098	0.087
1099	0.086
1099	0.085
1100	0.084
1100	0.083
1100	0.082
1101	0.081
1101	0.079
1102	0.078
1102	0.078
1102	0.076
1103	0.076
1103	0.075
1104	0.075
1104	0.075
1104	0.074
1105	0.073
1105	0.071
1106	0.07
1106	0.068
1107	0.067
1107	0.067
1107	0.066
1108	0.065
1108	0.063
1109	0.063
1109	0.061
1109	0.062
1110	0.064
1110	0.06
1111	0.062
1111	0.065
