Data from reversibility-20sec_Absorbance__350__000000000000350.txt Node

Date: Tue Dec 05 14:09:45 CET 2023
User: Marek
Spectrometer: MAYP115816
Trigger mode: 0
Integration Time (sec): 2.000000E-1
Scans to average: 10
Electric dark correction enabled: true
Nonlinearity correction enabled: true
Boxcar width: 5
XAxis mode: Wavelengths
Number of Pixels in Spectrum: 2068
>>>>>Begin Spectral Data<<<<<
199	-0.224
199	-0.187
200	-0.112
200	-0.056
201	-0.023
201	-0.007
202	0.009
202	0.019
203	0.025
203	0.028
204	0.041
204	0.055
205	0.068
205	0.073
205	0.07
206	0.067
206	0.068
207	0.069
207	0.067
208	0.065
208	0.065
209	0.069
209	0.065
210	0.065
210	0.064
211	0.064
211	0.065
212	0.064
212	0.065
213	0.069
213	0.071
213	0.071
214	0.074
214	0.075
215	0.077
215	0.079
216	0.082
216	0.083
217	0.085
217	0.085
218	0.083
218	0.089
219	0.095
219	0.093
220	0.098
220	0.099
221	0.1
221	0.101
221	0.107
222	0.114
222	0.118
223	0.125
223	0.129
224	0.131
224	0.14
225	0.149
225	0.159
226	0.169
226	0.183
227	0.192
227	0.201
228	0.217
228	0.231
229	0.248
229	0.272
229	0.296
230	0.317
230	0.346
231	0.376
231	0.411
232	0.448
232	0.491
233	0.534
233	0.581
234	0.626
234	0.676
235	0.725
235	0.779
236	0.827
236	0.879
236	0.93
237	0.982
237	1.03
238	1.078
238	1.124
239	1.174
239	1.216
240	1.258
240	1.296
241	1.333
241	1.365
242	1.397
242	1.427
243	1.457
243	1.483
243	1.509
244	1.528
244	1.552
245	1.57
245	1.593
246	1.611
246	1.628
247	1.641
247	1.656
248	1.669
248	1.682
249	1.691
249	1.699
250	1.704
250	1.71
250	1.713
251	1.716
251	1.715
252	1.72
252	1.718
253	1.719
253	1.714
254	1.712
254	1.713
255	1.711
255	1.71
256	1.709
256	1.708
257	1.707
257	1.704
258	1.705
258	1.704
258	1.706
259	1.706
259	1.705
260	1.706
260	1.706
261	1.708
261	1.71
262	1.713
262	1.714
263	1.717
263	1.718
264	1.72
264	1.721
265	1.721
265	1.722
265	1.722
266	1.722
266	1.722
267	1.72
267	1.72
268	1.719
268	1.718
269	1.719
269	1.718
270	1.717
270	1.715
271	1.713
271	1.712
272	1.706
272	1.704
272	1.7
273	1.694
273	1.687
274	1.68
274	1.674
275	1.667
275	1.661
276	1.654
276	1.647
277	1.64
277	1.63
278	1.619
278	1.608
278	1.595
279	1.579
279	1.558
280	1.533
280	1.502
281	1.467
281	1.428
282	1.388
282	1.346
283	1.306
283	1.266
284	1.228
284	1.191
285	1.156
285	1.126
285	1.098
286	1.074
286	1.053
287	1.034
287	1.019
288	1.006
288	0.995
289	0.985
289	0.977
290	0.971
290	0.965
291	0.96
291	0.955
292	0.951
292	0.948
292	0.944
293	0.942
293	0.939
294	0.937
294	0.934
295	0.932
295	0.93
296	0.928
296	0.926
297	0.923
297	0.921
298	0.919
298	0.917
298	0.915
299	0.913
299	0.91
300	0.908
300	0.906
301	0.904
301	0.902
302	0.9
302	0.899
303	0.897
303	0.895
304	0.893
304	0.892
305	0.89
305	0.888
305	0.886
306	0.884
306	0.882
307	0.88
307	0.878
308	0.876
308	0.874
309	0.871
309	0.869
310	0.866
310	0.864
311	0.861
311	0.858
311	0.855
312	0.852
312	0.848
313	0.845
313	0.842
314	0.838
314	0.835
315	0.831
315	0.827
316	0.822
316	0.818
317	0.814
317	0.809
318	0.805
318	0.8
318	0.795
319	0.79
319	0.785
320	0.779
320	0.774
321	0.768
321	0.763
322	0.757
322	0.751
323	0.745
323	0.739
324	0.733
324	0.727
324	0.72
325	0.714
325	0.707
326	0.701
326	0.694
327	0.687
327	0.681
328	0.674
328	0.668
329	0.661
329	0.654
330	0.647
330	0.64
330	0.634
331	0.627
331	0.621
332	0.614
332	0.607
333	0.601
333	0.594
334	0.587
334	0.581
335	0.574
335	0.567
336	0.561
336	0.554
336	0.548
337	0.542
337	0.536
338	0.53
338	0.524
339	0.518
339	0.512
340	0.506
340	0.501
341	0.495
341	0.49
342	0.485
342	0.48
342	0.475
343	0.47
343	0.465
344	0.46
344	0.456
345	0.451
345	0.446
346	0.442
346	0.438
347	0.434
347	0.429
348	0.425
348	0.422
348	0.418
349	0.414
349	0.411
350	0.407
350	0.404
351	0.401
351	0.398
352	0.394
352	0.392
353	0.389
353	0.386
354	0.383
354	0.38
354	0.377
355	0.375
355	0.372
356	0.369
356	0.366
357	0.364
357	0.361
358	0.358
358	0.356
359	0.354
359	0.351
360	0.35
360	0.348
360	0.346
361	0.344
361	0.342
362	0.341
362	0.339
363	0.337
363	0.336
364	0.334
364	0.332
365	0.33
365	0.328
366	0.327
366	0.325
366	0.323
367	0.322
367	0.32
368	0.318
368	0.316
369	0.315
369	0.314
370	0.312
370	0.311
371	0.31
371	0.309
372	0.307
372	0.306
372	0.305
373	0.304
373	0.303
374	0.302
374	0.301
375	0.3
375	0.299
376	0.298
376	0.297
377	0.296
377	0.295
378	0.294
378	0.294
378	0.293
379	0.292
379	0.291
380	0.29
380	0.289
381	0.288
381	0.288
382	0.287
382	0.286
383	0.286
383	0.285
383	0.284
384	0.284
384	0.283
385	0.282
385	0.282
386	0.281
386	0.281
387	0.28
387	0.279
388	0.279
388	0.278
389	0.277
389	0.277
389	0.276
390	0.276
390	0.276
391	0.275
391	0.275
392	0.274
392	0.274
393	0.273
393	0.273
394	0.273
394	0.272
394	0.272
395	0.271
395	0.271
396	0.27
396	0.27
397	0.269
397	0.269
398	0.269
398	0.268
399	0.268
399	0.268
400	0.267
400	0.267
400	0.266
401	0.266
401	0.266
402	0.265
402	0.265
403	0.264
403	0.264
404	0.264
404	0.264
405	0.264
405	0.263
405	0.263
406	0.263
406	0.262
407	0.262
407	0.262
408	0.262
408	0.261
409	0.261
409	0.26
410	0.26
410	0.259
411	0.259
411	0.259
411	0.259
412	0.259
412	0.258
413	0.258
413	0.258
414	0.257
414	0.257
415	0.257
415	0.257
416	0.256
416	0.256
416	0.255
417	0.255
417	0.255
418	0.255
418	0.254
419	0.254
419	0.253
420	0.253
420	0.253
421	0.253
421	0.253
421	0.252
422	0.252
422	0.252
423	0.252
423	0.252
424	0.252
424	0.251
425	0.251
425	0.251
426	0.25
426	0.25
427	0.25
427	0.25
427	0.249
428	0.249
428	0.249
429	0.249
429	0.248
430	0.248
430	0.248
431	0.248
431	0.248
432	0.248
432	0.248
432	0.247
433	0.247
433	0.247
434	0.247
434	0.247
435	0.247
435	0.247
436	0.247
436	0.246
437	0.246
437	0.246
437	0.246
438	0.246
438	0.246
439	0.245
439	0.245
440	0.245
440	0.245
441	0.244
441	0.244
442	0.244
442	0.244
442	0.244
443	0.244
443	0.244
444	0.244
444	0.244
445	0.243
445	0.243
446	0.243
446	0.243
447	0.242
447	0.242
447	0.242
448	0.242
448	0.241
449	0.241
449	0.241
450	0.241
450	0.241
451	0.241
451	0.241
452	0.241
452	0.241
452	0.241
453	0.241
453	0.241
454	0.241
454	0.241
455	0.241
455	0.241
456	0.241
456	0.241
457	0.241
457	0.24
458	0.24
458	0.24
458	0.24
459	0.24
459	0.24
460	0.24
460	0.24
461	0.24
461	0.24
462	0.24
462	0.239
463	0.239
463	0.239
463	0.239
464	0.239
464	0.239
465	0.239
465	0.239
466	0.239
466	0.239
467	0.24
467	0.24
467	0.24
468	0.24
468	0.24
469	0.24
469	0.24
470	0.241
470	0.241
471	0.241
471	0.241
472	0.241
472	0.241
472	0.241
473	0.242
473	0.242
474	0.242
474	0.242
475	0.242
475	0.243
476	0.243
476	0.243
477	0.244
477	0.244
477	0.244
478	0.245
478	0.245
479	0.246
479	0.246
480	0.246
480	0.246
481	0.247
481	0.247
482	0.247
482	0.248
482	0.248
483	0.249
483	0.25
484	0.25
484	0.251
485	0.251
485	0.252
486	0.252
486	0.253
487	0.253
487	0.254
487	0.254
488	0.254
488	0.255
489	0.256
489	0.257
490	0.258
490	0.258
491	0.259
491	0.26
492	0.261
492	0.262
492	0.263
493	0.264
493	0.265
494	0.266
494	0.267
495	0.267
495	0.268
496	0.269
496	0.27
496	0.271
497	0.272
497	0.273
498	0.274
498	0.274
499	0.275
499	0.276
500	0.277
500	0.278
501	0.279
501	0.28
501	0.281
502	0.282
502	0.283
503	0.284
503	0.285
504	0.285
504	0.287
505	0.288
505	0.288
506	0.289
506	0.29
506	0.291
507	0.292
507	0.293
508	0.293
508	0.294
509	0.295
509	0.296
510	0.297
510	0.297
511	0.298
511	0.299
511	0.3
512	0.301
512	0.302
513	0.303
513	0.304
514	0.304
514	0.305
515	0.306
515	0.306
515	0.307
516	0.308
516	0.308
517	0.309
517	0.309
518	0.31
518	0.31
519	0.31
519	0.31
520	0.311
520	0.311
520	0.311
521	0.311
521	0.311
522	0.312
522	0.312
523	0.312
523	0.312
524	0.312
524	0.313
524	0.313
525	0.313
525	0.313
526	0.313
526	0.313
527	0.312
527	0.312
528	0.312
528	0.312
529	0.311
529	0.311
529	0.31
530	0.309
530	0.309
531	0.309
531	0.308
532	0.307
532	0.307
533	0.307
533	0.306
533	0.305
534	0.305
534	0.304
535	0.304
535	0.303
536	0.302
536	0.301
537	0.3
537	0.3
538	0.299
538	0.298
538	0.296
539	0.296
539	0.295
540	0.294
540	0.293
541	0.292
541	0.291
542	0.289
542	0.288
542	0.287
543	0.286
543	0.286
544	0.285
544	0.284
545	0.283
545	0.282
546	0.282
546	0.281
547	0.279
547	0.279
547	0.277
548	0.277
548	0.275
549	0.274
549	0.273
550	0.271
550	0.27
551	0.269
551	0.267
551	0.266
552	0.265
552	0.264
553	0.262
553	0.261
554	0.26
554	0.259
555	0.258
555	0.256
556	0.255
556	0.254
556	0.254
557	0.253
557	0.252
558	0.251
558	0.25
559	0.249
559	0.248
560	0.247
560	0.246
560	0.246
561	0.245
561	0.244
562	0.243
562	0.241
563	0.24
563	0.239
564	0.238
564	0.237
564	0.236
565	0.235
565	0.234
566	0.233
566	0.232
567	0.231
567	0.231
568	0.23
568	0.229
568	0.228
569	0.228
569	0.227
570	0.225
570	0.224
571	0.224
571	0.223
572	0.222
572	0.221
573	0.22
573	0.22
573	0.219
574	0.218
574	0.217
575	0.217
575	0.217
576	0.216
576	0.215
577	0.214
577	0.214
577	0.213
578	0.212
578	0.212
579	0.211
579	0.211
580	0.21
580	0.209
581	0.208
581	0.207
581	0.207
582	0.207
582	0.206
583	0.206
583	0.205
584	0.204
584	0.203
585	0.202
585	0.201
585	0.2
586	0.199
586	0.198
587	0.197
587	0.196
588	0.195
588	0.195
589	0.194
589	0.194
590	0.193
590	0.193
590	0.193
591	0.193
591	0.192
592	0.191
592	0.191
593	0.19
593	0.19
594	0.189
594	0.189
594	0.188
595	0.188
595	0.187
596	0.186
596	0.186
597	0.186
597	0.186
598	0.185
598	0.185
598	0.185
599	0.184
599	0.184
600	0.183
600	0.183
601	0.182
601	0.182
602	0.181
602	0.18
602	0.18
603	0.179
603	0.179
604	0.179
604	0.179
605	0.178
605	0.178
606	0.178
606	0.177
606	0.177
607	0.176
607	0.176
608	0.175
608	0.175
609	0.174
609	0.174
610	0.173
610	0.173
610	0.172
611	0.172
611	0.172
612	0.172
612	0.172
613	0.172
613	0.171
614	0.171
614	0.17
614	0.17
615	0.17
615	0.17
616	0.169
616	0.169
617	0.168
617	0.168
618	0.167
618	0.167
618	0.167
619	0.167
619	0.167
620	0.167
620	0.167
621	0.166
621	0.166
622	0.166
622	0.165
622	0.165
623	0.165
623	0.165
624	0.164
624	0.164
625	0.163
625	0.163
626	0.163
626	0.163
626	0.163
627	0.162
627	0.162
628	0.161
628	0.161
629	0.16
629	0.16
630	0.159
630	0.159
630	0.158
631	0.158
631	0.158
632	0.158
632	0.158
633	0.158
633	0.158
634	0.159
634	0.159
634	0.159
635	0.159
635	0.159
636	0.159
636	0.159
637	0.158
637	0.158
638	0.158
638	0.157
638	0.157
639	0.156
639	0.156
640	0.155
640	0.155
641	0.155
641	0.154
642	0.154
642	0.154
642	0.154
643	0.154
643	0.154
644	0.154
644	0.154
645	0.153
645	0.153
646	0.153
646	0.153
646	0.154
647	0.153
647	0.153
648	0.153
648	0.153
649	0.153
649	0.153
650	0.152
650	0.152
650	0.152
651	0.152
651	0.152
652	0.152
652	0.152
653	0.152
653	0.154
653	0.159
654	0.126
654	0.101
655	0.102
655	0.103
656	0.103
656	0.103
657	0.104
657	0.104
657	0.104
658	0.103
658	0.094
659	0.118
659	0.151
660	0.154
660	0.154
661	0.154
661	0.153
661	0.153
662	0.153
662	0.153
663	0.152
663	0.152
664	0.152
664	0.151
665	0.151
665	0.151
665	0.151
666	0.151
666	0.151
667	0.151
667	0.151
668	0.152
668	0.151
669	0.152
669	0.152
669	0.152
670	0.152
670	0.151
671	0.151
671	0.151
672	0.15
672	0.15
672	0.149
673	0.149
673	0.149
674	0.148
674	0.148
675	0.148
675	0.149
676	0.149
676	0.149
676	0.15
677	0.15
677	0.15
678	0.15
678	0.15
679	0.15
679	0.151
680	0.151
680	0.151
680	0.151
681	0.151
681	0.151
682	0.152
682	0.152
683	0.152
683	0.153
684	0.153
684	0.153
684	0.153
685	0.153
685	0.153
686	0.153
686	0.153
687	0.153
687	0.153
687	0.152
688	0.152
688	0.152
689	0.152
689	0.152
690	0.152
690	0.152
691	0.152
691	0.152
691	0.152
692	0.152
692	0.153
693	0.153
693	0.153
694	0.153
694	0.153
695	0.154
695	0.155
695	0.156
696	0.156
696	0.156
697	0.156
697	0.156
698	0.156
698	0.156
698	0.156
699	0.156
699	0.156
700	0.155
700	0.155
701	0.155
701	0.155
702	0.155
702	0.155
702	0.155
703	0.155
703	0.155
704	0.154
704	0.154
705	0.154
705	0.154
705	0.154
706	0.154
706	0.154
707	0.154
707	0.154
708	0.154
708	0.154
709	0.154
709	0.154
709	0.154
710	0.154
710	0.154
711	0.154
711	0.154
712	0.155
712	0.155
713	0.155
713	0.155
713	0.155
714	0.155
714	0.155
715	0.154
715	0.154
716	0.154
716	0.154
716	0.153
717	0.153
717	0.153
718	0.152
718	0.152
719	0.152
719	0.152
720	0.152
720	0.153
720	0.153
721	0.154
721	0.154
722	0.155
722	0.155
723	0.156
723	0.156
723	0.156
724	0.156
724	0.156
725	0.156
725	0.156
726	0.155
726	0.155
727	0.154
727	0.154
727	0.154
728	0.154
728	0.154
729	0.154
729	0.154
730	0.154
730	0.155
730	0.155
731	0.155
731	0.155
732	0.155
732	0.155
733	0.155
733	0.155
734	0.155
734	0.155
734	0.155
735	0.155
735	0.155
736	0.154
736	0.154
737	0.154
737	0.154
737	0.154
738	0.154
738	0.153
739	0.153
739	0.153
740	0.153
740	0.153
741	0.153
741	0.153
741	0.154
742	0.154
742	0.154
743	0.155
743	0.156
744	0.157
744	0.157
744	0.157
745	0.158
745	0.158
746	0.158
746	0.158
747	0.158
747	0.158
748	0.158
748	0.158
748	0.158
749	0.158
749	0.158
750	0.157
750	0.157
751	0.157
751	0.157
751	0.157
752	0.156
752	0.156
753	0.156
753	0.156
754	0.156
754	0.156
754	0.157
755	0.158
755	0.158
756	0.158
756	0.157
757	0.157
757	0.157
758	0.156
758	0.156
758	0.156
759	0.156
759	0.156
760	0.156
760	0.156
761	0.157
761	0.158
761	0.158
762	0.159
762	0.159
763	0.159
763	0.159
764	0.159
764	0.159
764	0.159
765	0.159
765	0.158
766	0.158
766	0.158
767	0.157
767	0.156
768	0.156
768	0.156
768	0.155
769	0.155
769	0.155
770	0.155
770	0.155
771	0.155
771	0.156
771	0.156
772	0.157
772	0.157
773	0.157
773	0.158
774	0.158
774	0.159
775	0.159
775	0.159
775	0.159
776	0.159
776	0.16
777	0.16
777	0.16
778	0.16
778	0.159
778	0.159
779	0.159
779	0.159
780	0.158
780	0.157
781	0.157
781	0.156
781	0.156
782	0.156
782	0.156
783	0.156
783	0.157
784	0.156
784	0.157
784	0.157
785	0.157
785	0.158
786	0.158
786	0.158
787	0.158
787	0.158
788	0.158
788	0.157
788	0.157
789	0.157
789	0.157
790	0.157
790	0.156
791	0.156
791	0.156
791	0.155
792	0.156
792	0.156
793	0.155
793	0.155
794	0.155
794	0.154
794	0.153
795	0.153
795	0.153
796	0.153
796	0.153
797	0.152
797	0.152
797	0.152
798	0.152
798	0.152
799	0.152
799	0.152
800	0.151
800	0.151
801	0.151
801	0.15
801	0.15
802	0.15
802	0.15
803	0.15
803	0.15
804	0.151
804	0.151
804	0.152
805	0.153
805	0.153
806	0.153
806	0.153
807	0.153
807	0.153
807	0.153
808	0.153
808	0.153
809	0.153
809	0.153
810	0.152
810	0.152
810	0.151
811	0.151
811	0.151
812	0.152
812	0.152
813	0.152
813	0.152
813	0.152
814	0.152
814	0.153
815	0.153
815	0.153
816	0.153
816	0.153
817	0.153
817	0.153
817	0.152
818	0.152
818	0.151
819	0.151
819	0.15
820	0.149
820	0.148
820	0.147
821	0.147
821	0.146
822	0.146
822	0.145
823	0.145
823	0.145
823	0.146
824	0.147
824	0.148
825	0.148
825	0.149
826	0.15
826	0.15
826	0.15
827	0.15
827	0.15
828	0.15
828	0.15
829	0.149
829	0.149
829	0.149
830	0.148
830	0.148
831	0.148
831	0.148
832	0.148
832	0.148
832	0.147
833	0.147
833	0.147
834	0.146
834	0.146
835	0.146
835	0.145
835	0.145
836	0.145
836	0.145
837	0.145
837	0.145
838	0.144
838	0.144
839	0.143
839	0.142
839	0.141
840	0.14
840	0.138
841	0.137
841	0.136
842	0.135
842	0.134
842	0.134
843	0.133
843	0.133
844	0.133
844	0.133
845	0.132
845	0.132
845	0.132
846	0.132
846	0.131
847	0.131
847	0.131
848	0.131
848	0.132
848	0.132
849	0.132
849	0.132
850	0.132
850	0.132
851	0.133
851	0.133
851	0.132
852	0.131
852	0.131
853	0.13
853	0.129
854	0.128
854	0.128
854	0.128
855	0.128
855	0.128
856	0.128
856	0.128
857	0.129
857	0.129
857	0.129
858	0.129
858	0.128
859	0.127
859	0.126
860	0.126
860	0.125
860	0.124
861	0.124
861	0.124
862	0.123
862	0.123
863	0.122
863	0.122
863	0.122
864	0.122
864	0.121
865	0.121
865	0.12
866	0.12
866	0.119
866	0.119
867	0.118
867	0.118
868	0.118
868	0.118
869	0.118
869	0.118
869	0.118
870	0.118
870	0.119
871	0.119
871	0.119
872	0.119
872	0.119
872	0.119
873	0.119
873	0.118
874	0.118
874	0.117
875	0.117
875	0.117
875	0.116
876	0.116
876	0.115
877	0.115
877	0.115
878	0.115
878	0.116
878	0.116
879	0.117
879	0.117
880	0.117
880	0.117
881	0.116
881	0.116
881	0.115
882	0.114
882	0.114
883	0.112
883	0.111
884	0.11
884	0.109
884	0.107
885	0.106
885	0.105
886	0.103
886	0.102
887	0.101
887	0.1
887	0.099
888	0.098
888	0.097
889	0.097
889	0.097
890	0.097
890	0.097
890	0.098
891	0.098
891	0.098
892	0.099
892	0.1
893	0.101
893	0.101
893	0.102
894	0.102
894	0.103
895	0.103
895	0.103
895	0.103
896	0.102
896	0.102
897	0.101
897	0.1
898	0.1
898	0.099
898	0.098
899	0.098
899	0.098
900	0.097
900	0.097
901	0.096
901	0.096
901	0.096
902	0.096
902	0.095
903	0.094
903	0.094
904	0.093
904	0.093
904	0.092
905	0.091
905	0.091
906	0.09
906	0.09
907	0.09
907	0.09
907	0.09
908	0.091
908	0.091
909	0.091
909	0.091
910	0.092
910	0.092
910	0.092
911	0.091
911	0.091
912	0.09
912	0.09
913	0.09
913	0.089
913	0.089
914	0.088
914	0.088
915	0.087
915	0.087
916	0.087
916	0.086
916	0.086
917	0.085
917	0.084
918	0.084
918	0.083
918	0.083
919	0.082
919	0.082
920	0.081
920	0.081
921	0.081
921	0.081
921	0.081
922	0.081
922	0.082
923	0.082
923	0.083
924	0.083
924	0.083
924	0.084
925	0.084
925	0.084
926	0.083
926	0.083
927	0.083
927	0.082
927	0.082
928	0.081
928	0.081
929	0.08
929	0.08
930	0.08
930	0.079
930	0.079
931	0.079
931	0.079
932	0.079
932	0.079
933	0.079
933	0.079
933	0.079
934	0.079
934	0.079
935	0.079
935	0.079
935	0.079
936	0.079
936	0.078
937	0.078
937	0.077
938	0.077
938	0.076
938	0.076
939	0.075
939	0.075
940	0.075
940	0.075
941	0.075
941	0.074
941	0.075
942	0.075
942	0.075
943	0.075
943	0.075
944	0.075
944	0.075
944	0.074
945	0.074
945	0.074
946	0.073
946	0.073
946	0.072
947	0.072
947	0.071
948	0.07
948	0.07
949	0.069
949	0.069
949	0.068
950	0.068
950	0.068
951	0.067
951	0.067
952	0.066
952	0.066
952	0.065
953	0.065
953	0.065
954	0.064
954	0.064
955	0.064
955	0.063
955	0.063
956	0.063
956	0.063
957	0.063
957	0.063
957	0.063
958	0.063
958	0.063
959	0.063
959	0.063
960	0.062
960	0.062
960	0.062
961	0.062
961	0.062
962	0.062
962	0.061
963	0.062
963	0.062
963	0.062
964	0.062
964	0.062
965	0.063
965	0.063
966	0.064
966	0.064
966	0.065
967	0.065
967	0.066
968	0.066
968	0.067
968	0.067
969	0.067
969	0.067
970	0.067
970	0.066
971	0.066
971	0.066
971	0.065
972	0.065
972	0.064
973	0.064
973	0.063
974	0.063
974	0.062
974	0.062
975	0.062
975	0.062
976	0.062
976	0.062
976	0.061
977	0.061
977	0.061
978	0.061
978	0.061
979	0.06
979	0.06
979	0.06
980	0.059
980	0.059
981	0.058
981	0.058
982	0.057
982	0.057
982	0.057
983	0.057
983	0.057
984	0.056
984	0.056
984	0.056
985	0.056
985	0.056
986	0.056
986	0.056
987	0.055
987	0.055
987	0.055
988	0.054
988	0.054
989	0.053
989	0.052
990	0.052
990	0.051
990	0.051
991	0.05
991	0.05
992	0.049
992	0.049
992	0.048
993	0.047
993	0.047
994	0.046
994	0.046
995	0.045
995	0.045
995	0.045
996	0.045
996	0.045
997	0.045
997	0.046
997	0.047
998	0.048
998	0.049
999	0.05
999	0.051
1000	0.052
1000	0.053
1000	0.053
1001	0.053
1001	0.054
1002	0.054
1002	0.054
1003	0.054
1003	0.054
1003	0.053
1004	0.053
1004	0.053
1005	0.052
1005	0.052
1005	0.052
1006	0.051
1006	0.051
1007	0.051
1007	0.05
1008	0.05
1008	0.05
1008	0.049
1009	0.049
1009	0.049
1010	0.049
1010	0.049
1010	0.049
1011	0.049
1011	0.049
1012	0.049
1012	0.048
1013	0.048
1013	0.048
1013	0.047
1014	0.047
1014	0.047
1015	0.046
1015	0.046
1016	0.046
1016	0.045
1016	0.045
1017	0.044
1017	0.044
1018	0.044
1018	0.043
1018	0.043
1019	0.043
1019	0.043
1020	0.043
1020	0.043
1021	0.044
1021	0.044
1021	0.044
1022	0.044
1022	0.044
1023	0.044
1023	0.044
1023	0.044
1024	0.043
1024	0.043
1025	0.042
1025	0.042
1026	0.041
1026	0.041
1026	0.04
1027	0.04
1027	0.04
1028	0.039
1028	0.039
1028	0.038
1029	0.038
1029	0.038
1030	0.038
1030	0.038
1031	0.038
1031	0.038
1031	0.037
1032	0.037
1032	0.037
1033	0.037
1033	0.037
1033	0.037
1034	0.038
1034	0.037
1035	0.037
1035	0.037
1036	0.037
1036	0.038
1036	0.038
1037	0.038
1037	0.038
1038	0.038
1038	0.038
1039	0.038
1039	0.038
1039	0.039
1040	0.039
1040	0.039
1041	0.038
1041	0.038
1041	0.038
1042	0.038
1042	0.038
1043	0.038
1043	0.038
1044	0.038
1044	0.038
1044	0.038
1045	0.039
1045	0.039
1046	0.04
1046	0.04
1046	0.041
1047	0.041
1047	0.042
1048	0.042
1048	0.043
1049	0.043
1049	0.043
1049	0.043
1050	0.043
1050	0.043
1051	0.042
1051	0.042
1051	0.041
1052	0.04
1052	0.039
1053	0.038
1053	0.037
1053	0.036
1054	0.035
1054	0.034
1055	0.034
1055	0.033
1056	0.032
1056	0.032
1056	0.031
1057	0.03
1057	0.03
1058	0.029
1058	0.028
1058	0.028
1059	0.027
1059	0.027
1060	0.026
1060	0.026
1061	0.025
1061	0.025
1061	0.025
1062	0.025
1062	0.025
1063	0.025
1063	0.025
1063	0.024
1064	0.024
1064	0.024
1065	0.024
1065	0.024
1066	0.024
1066	0.024
1066	0.024
1067	0.023
1067	0.023
1068	0.023
1068	0.023
1068	0.023
1069	0.023
1069	0.022
1070	0.021
1070	0.021
1071	0.02
1071	0.02
1071	0.019
1072	0.019
1072	0.019
1073	0.018
1073	0.017
1073	0.017
1074	0.018
1074	0.018
1075	0.018
1075	0.018
1076	0.019
1076	0.02
1076	0.02
1077	0.021
1077	0.021
1078	0.022
1078	0.022
1078	0.023
1079	0.023
1079	0.023
1080	0.023
1080	0.023
1080	0.023
1081	0.023
1081	0.023
1082	0.023
1082	0.023
1083	0.023
1083	0.023
1083	0.022
1084	0.022
1084	0.022
1085	0.021
1085	0.021
1085	0.021
1086	0.02
1086	0.02
1087	0.019
1087	0.019
1088	0.018
1088	0.018
1088	0.017
1089	0.017
1089	0.017
1090	0.016
1090	0.015
1090	0.015
1091	0.015
1091	0.015
1092	0.015
1092	0.015
1092	0.015
1093	0.015
1093	0.016
1094	0.015
1094	0.015
1095	0.015
1095	0.015
1095	0.015
1096	0.014
1096	0.013
1097	0.012
1097	0.011
1097	0.011
1098	0.01
1098	0.01
1099	0.009
1099	0.008
1100	0.006
1100	0.005
1100	0.004
1101	0.003
1101	0.002
1102	0.002
1102	0.001
1102	-0
1103	-0.001
1103	-0.001
1104	-0.002
1104	-0.002
1104	-0.002
1105	-0.003
1105	-0.005
1106	-0.006
1106	-0.007
1107	-0.008
1107	-0.009
1107	-0.01
1108	-0.012
1108	-0.012
1109	-0.012
1109	-0.013
1109	-0.013
1110	-0.011
1110	-0.013
1111	-0.013
1111	-0.013
