Data from reversibility-20sec_Absorbance__7921__000000000007921.txt Node

Date: Thu Dec 07 08:13:26 CET 2023
User: Marek
Spectrometer: MAYP115816
Trigger mode: 0
Integration Time (sec): 2.000000E-1
Scans to average: 10
Electric dark correction enabled: true
Nonlinearity correction enabled: true
Boxcar width: 5
XAxis mode: Wavelengths
Number of Pixels in Spectrum: 2068
>>>>>Begin Spectral Data<<<<<
199	-0.073
199	-0.039
200	0.014
200	0.061
201	0.078
201	0.092
202	0.097
202	0.106
203	0.114
203	0.117
204	0.129
204	0.143
205	0.153
205	0.158
205	0.157
206	0.16
206	0.162
207	0.166
207	0.166
208	0.164
208	0.163
209	0.164
209	0.16
210	0.159
210	0.16
211	0.165
211	0.169
212	0.164
212	0.166
213	0.17
213	0.172
213	0.17
214	0.175
214	0.176
215	0.179
215	0.18
216	0.178
216	0.174
217	0.178
217	0.178
218	0.178
218	0.18
219	0.188
219	0.189
220	0.195
220	0.195
221	0.197
221	0.198
221	0.205
222	0.209
222	0.216
223	0.223
223	0.226
224	0.23
224	0.239
225	0.247
225	0.257
226	0.267
226	0.282
227	0.293
227	0.306
228	0.319
228	0.332
229	0.35
229	0.372
229	0.394
230	0.418
230	0.447
231	0.473
231	0.507
232	0.544
232	0.587
233	0.631
233	0.678
234	0.73
234	0.784
235	0.838
235	0.89
236	0.941
236	0.998
236	1.048
237	1.098
237	1.145
238	1.187
238	1.234
239	1.277
239	1.317
240	1.354
240	1.389
241	1.426
241	1.458
242	1.491
242	1.522
243	1.553
243	1.58
243	1.605
244	1.628
244	1.648
245	1.665
245	1.686
246	1.701
246	1.718
247	1.73
247	1.744
248	1.757
248	1.77
249	1.777
249	1.785
250	1.792
250	1.802
250	1.803
251	1.807
251	1.807
252	1.811
252	1.809
253	1.808
253	1.805
254	1.805
254	1.804
255	1.803
255	1.8
256	1.801
256	1.799
257	1.8
257	1.798
258	1.798
258	1.798
258	1.799
259	1.797
259	1.796
260	1.795
260	1.797
261	1.799
261	1.801
262	1.803
262	1.804
263	1.806
263	1.806
264	1.807
264	1.808
265	1.809
265	1.81
265	1.81
266	1.808
266	1.808
267	1.805
267	1.806
268	1.807
268	1.808
269	1.81
269	1.808
270	1.806
270	1.805
271	1.803
271	1.803
272	1.799
272	1.797
272	1.792
273	1.786
273	1.779
274	1.772
274	1.767
275	1.76
275	1.753
276	1.746
276	1.738
277	1.729
277	1.719
278	1.708
278	1.695
278	1.68
279	1.663
279	1.641
280	1.615
280	1.584
281	1.547
281	1.505
282	1.461
282	1.417
283	1.373
283	1.329
284	1.288
284	1.248
285	1.211
285	1.176
285	1.145
286	1.118
286	1.095
287	1.074
287	1.057
288	1.042
288	1.03
289	1.019
289	1.01
290	1.002
290	0.995
291	0.989
291	0.983
292	0.979
292	0.974
292	0.97
293	0.966
293	0.962
294	0.959
294	0.955
295	0.952
295	0.949
296	0.945
296	0.942
297	0.939
297	0.936
298	0.933
298	0.93
298	0.927
299	0.924
299	0.922
300	0.919
300	0.916
301	0.913
301	0.911
302	0.908
302	0.906
303	0.903
303	0.901
304	0.899
304	0.897
305	0.894
305	0.892
305	0.889
306	0.887
306	0.884
307	0.882
307	0.879
308	0.876
308	0.874
309	0.871
309	0.868
310	0.865
310	0.862
311	0.86
311	0.856
311	0.853
312	0.849
312	0.846
313	0.842
313	0.839
314	0.835
314	0.831
315	0.827
315	0.823
316	0.818
316	0.814
317	0.809
317	0.804
318	0.799
318	0.794
318	0.789
319	0.783
319	0.777
320	0.772
320	0.766
321	0.759
321	0.753
322	0.747
322	0.741
323	0.734
323	0.728
324	0.721
324	0.714
324	0.707
325	0.7
325	0.694
326	0.686
326	0.68
327	0.673
327	0.666
328	0.659
328	0.651
329	0.644
329	0.637
330	0.629
330	0.622
330	0.615
331	0.608
331	0.601
332	0.593
332	0.586
333	0.579
333	0.572
334	0.565
334	0.558
335	0.551
335	0.544
336	0.537
336	0.53
336	0.523
337	0.517
337	0.511
338	0.504
338	0.498
339	0.492
339	0.486
340	0.48
340	0.474
341	0.468
341	0.463
342	0.457
342	0.451
342	0.446
343	0.44
343	0.435
344	0.43
344	0.425
345	0.42
345	0.415
346	0.41
346	0.406
347	0.401
347	0.397
348	0.393
348	0.389
348	0.385
349	0.381
349	0.377
350	0.374
350	0.37
351	0.367
351	0.364
352	0.36
352	0.358
353	0.355
353	0.352
354	0.349
354	0.346
354	0.343
355	0.34
355	0.337
356	0.334
356	0.332
357	0.328
357	0.326
358	0.323
358	0.321
359	0.318
359	0.316
360	0.314
360	0.312
360	0.31
361	0.308
361	0.306
362	0.305
362	0.303
363	0.301
363	0.299
364	0.298
364	0.296
365	0.294
365	0.292
366	0.29
366	0.289
366	0.287
367	0.285
367	0.284
368	0.282
368	0.28
369	0.279
369	0.278
370	0.276
370	0.275
371	0.274
371	0.273
372	0.272
372	0.27
372	0.269
373	0.268
373	0.267
374	0.267
374	0.266
375	0.265
375	0.264
376	0.263
376	0.262
377	0.261
377	0.26
378	0.259
378	0.259
378	0.258
379	0.257
379	0.256
380	0.256
380	0.255
381	0.254
381	0.253
382	0.253
382	0.253
383	0.252
383	0.252
383	0.251
384	0.251
384	0.25
385	0.25
385	0.25
386	0.249
386	0.249
387	0.249
387	0.248
388	0.248
388	0.248
389	0.248
389	0.247
389	0.247
390	0.247
390	0.246
391	0.246
391	0.245
392	0.245
392	0.245
393	0.244
393	0.244
394	0.244
394	0.243
394	0.243
395	0.243
395	0.243
396	0.242
396	0.242
397	0.242
397	0.241
398	0.241
398	0.241
399	0.24
399	0.24
400	0.24
400	0.239
400	0.239
401	0.239
401	0.239
402	0.238
402	0.238
403	0.238
403	0.238
404	0.238
404	0.237
405	0.237
405	0.237
405	0.237
406	0.237
406	0.237
407	0.236
407	0.236
408	0.236
408	0.235
409	0.235
409	0.235
410	0.235
410	0.235
411	0.234
411	0.234
411	0.234
412	0.234
412	0.233
413	0.233
413	0.233
414	0.233
414	0.232
415	0.232
415	0.232
416	0.231
416	0.231
416	0.231
417	0.23
417	0.23
418	0.229
418	0.229
419	0.229
419	0.228
420	0.228
420	0.227
421	0.227
421	0.227
421	0.226
422	0.226
422	0.226
423	0.225
423	0.225
424	0.224
424	0.224
425	0.224
425	0.224
426	0.224
426	0.223
427	0.223
427	0.223
427	0.222
428	0.222
428	0.222
429	0.221
429	0.221
430	0.22
430	0.22
431	0.22
431	0.22
432	0.22
432	0.22
432	0.219
433	0.219
433	0.219
434	0.219
434	0.219
435	0.219
435	0.219
436	0.218
436	0.218
437	0.218
437	0.218
437	0.217
438	0.217
438	0.217
439	0.216
439	0.216
440	0.215
440	0.215
441	0.215
441	0.215
442	0.214
442	0.214
442	0.214
443	0.214
443	0.214
444	0.214
444	0.213
445	0.213
445	0.213
446	0.213
446	0.213
447	0.213
447	0.212
447	0.212
448	0.212
448	0.212
449	0.212
449	0.212
450	0.211
450	0.211
451	0.211
451	0.21
452	0.21
452	0.21
452	0.21
453	0.21
453	0.209
454	0.209
454	0.209
455	0.208
455	0.208
456	0.208
456	0.208
457	0.208
457	0.208
458	0.207
458	0.207
458	0.207
459	0.207
459	0.207
460	0.206
460	0.206
461	0.206
461	0.206
462	0.206
462	0.205
463	0.205
463	0.205
463	0.205
464	0.204
464	0.204
465	0.204
465	0.204
466	0.203
466	0.203
467	0.203
467	0.203
467	0.203
468	0.203
468	0.203
469	0.203
469	0.203
470	0.203
470	0.203
471	0.203
471	0.202
472	0.202
472	0.203
472	0.202
473	0.203
473	0.203
474	0.202
474	0.202
475	0.202
475	0.202
476	0.202
476	0.202
477	0.202
477	0.201
477	0.201
478	0.201
478	0.201
479	0.201
479	0.201
480	0.201
480	0.201
481	0.201
481	0.201
482	0.201
482	0.201
482	0.201
483	0.201
483	0.201
484	0.201
484	0.201
485	0.2
485	0.2
486	0.2
486	0.2
487	0.2
487	0.2
487	0.2
488	0.2
488	0.2
489	0.2
489	0.2
490	0.201
490	0.201
491	0.201
491	0.202
492	0.202
492	0.203
492	0.203
493	0.204
493	0.204
494	0.204
494	0.205
495	0.205
495	0.205
496	0.205
496	0.206
496	0.206
497	0.206
497	0.206
498	0.206
498	0.207
499	0.207
499	0.207
500	0.208
500	0.208
501	0.209
501	0.209
501	0.209
502	0.209
502	0.21
503	0.21
503	0.21
504	0.21
504	0.211
505	0.211
505	0.211
506	0.212
506	0.212
506	0.212
507	0.213
507	0.213
508	0.214
508	0.214
509	0.214
509	0.214
510	0.214
510	0.215
511	0.215
511	0.215
511	0.216
512	0.216
512	0.216
513	0.217
513	0.217
514	0.217
514	0.218
515	0.218
515	0.218
515	0.219
516	0.219
516	0.219
517	0.22
517	0.22
518	0.22
518	0.221
519	0.221
519	0.221
520	0.221
520	0.221
520	0.221
521	0.222
521	0.222
522	0.222
522	0.222
523	0.223
523	0.223
524	0.223
524	0.224
524	0.224
525	0.224
525	0.224
526	0.224
526	0.224
527	0.224
527	0.224
528	0.224
528	0.224
529	0.224
529	0.224
529	0.224
530	0.224
530	0.224
531	0.224
531	0.224
532	0.224
532	0.224
533	0.223
533	0.223
533	0.223
534	0.223
534	0.223
535	0.223
535	0.223
536	0.223
536	0.223
537	0.223
537	0.223
538	0.223
538	0.222
538	0.222
539	0.222
539	0.222
540	0.222
540	0.222
541	0.222
541	0.222
542	0.222
542	0.222
542	0.222
543	0.222
543	0.222
544	0.221
544	0.221
545	0.221
545	0.221
546	0.22
546	0.22
547	0.219
547	0.219
547	0.218
548	0.218
548	0.218
549	0.218
549	0.218
550	0.217
550	0.217
551	0.217
551	0.217
551	0.217
552	0.217
552	0.216
553	0.216
553	0.216
554	0.216
554	0.215
555	0.214
555	0.214
556	0.214
556	0.213
556	0.213
557	0.213
557	0.213
558	0.214
558	0.214
559	0.214
559	0.214
560	0.214
560	0.214
560	0.213
561	0.213
561	0.213
562	0.212
562	0.211
563	0.21
563	0.21
564	0.209
564	0.209
564	0.209
565	0.209
565	0.208
566	0.208
566	0.208
567	0.208
567	0.208
568	0.208
568	0.208
568	0.208
569	0.207
569	0.207
570	0.206
570	0.205
571	0.205
571	0.204
572	0.204
572	0.203
573	0.203
573	0.203
573	0.202
574	0.201
574	0.201
575	0.201
575	0.202
576	0.201
576	0.201
577	0.2
577	0.199
577	0.199
578	0.199
578	0.199
579	0.199
579	0.199
580	0.199
580	0.198
581	0.198
581	0.197
581	0.198
582	0.198
582	0.198
583	0.197
583	0.197
584	0.196
584	0.195
585	0.195
585	0.195
585	0.195
586	0.195
586	0.194
587	0.194
587	0.194
588	0.193
588	0.193
589	0.193
589	0.193
590	0.193
590	0.193
590	0.193
591	0.193
591	0.192
592	0.192
592	0.191
593	0.191
593	0.191
594	0.19
594	0.19
594	0.189
595	0.189
595	0.188
596	0.188
596	0.188
597	0.189
597	0.189
598	0.189
598	0.189
598	0.189
599	0.189
599	0.189
600	0.189
600	0.188
601	0.188
601	0.188
602	0.187
602	0.187
602	0.186
603	0.186
603	0.186
604	0.186
604	0.186
605	0.186
605	0.186
606	0.186
606	0.185
606	0.184
607	0.184
607	0.184
608	0.183
608	0.183
609	0.182
609	0.182
610	0.181
610	0.181
610	0.181
611	0.181
611	0.181
612	0.182
612	0.182
613	0.182
613	0.182
614	0.182
614	0.182
614	0.182
615	0.182
615	0.182
616	0.183
616	0.183
617	0.183
617	0.182
618	0.182
618	0.182
618	0.182
619	0.182
619	0.182
620	0.182
620	0.182
621	0.182
621	0.181
622	0.181
622	0.18
622	0.18
623	0.179
623	0.179
624	0.179
624	0.179
625	0.178
625	0.178
626	0.178
626	0.178
626	0.178
627	0.178
627	0.178
628	0.178
628	0.178
629	0.178
629	0.178
630	0.177
630	0.177
630	0.177
631	0.177
631	0.177
632	0.176
632	0.176
633	0.176
633	0.176
634	0.176
634	0.177
634	0.176
635	0.176
635	0.176
636	0.176
636	0.176
637	0.176
637	0.176
638	0.175
638	0.175
638	0.174
639	0.174
639	0.174
640	0.173
640	0.173
641	0.173
641	0.173
642	0.173
642	0.173
642	0.173
643	0.173
643	0.173
644	0.174
644	0.174
645	0.174
645	0.175
646	0.175
646	0.175
646	0.175
647	0.175
647	0.175
648	0.174
648	0.174
649	0.173
649	0.173
650	0.173
650	0.173
650	0.173
651	0.173
651	0.172
652	0.173
652	0.173
653	0.174
653	0.175
653	0.18
654	0.142
654	0.114
655	0.114
655	0.114
656	0.115
656	0.115
657	0.115
657	0.116
657	0.116
658	0.115
658	0.106
659	0.133
659	0.17
660	0.175
660	0.176
661	0.175
661	0.174
661	0.174
662	0.174
662	0.173
663	0.173
663	0.172
664	0.172
664	0.171
665	0.171
665	0.171
665	0.171
666	0.171
666	0.171
667	0.172
667	0.172
668	0.172
668	0.172
669	0.173
669	0.173
669	0.173
670	0.174
670	0.173
671	0.173
671	0.173
672	0.173
672	0.172
672	0.172
673	0.171
673	0.171
674	0.171
674	0.171
675	0.17
675	0.171
676	0.171
676	0.171
676	0.171
677	0.171
677	0.171
678	0.171
678	0.171
679	0.171
679	0.171
680	0.171
680	0.171
680	0.171
681	0.171
681	0.172
682	0.173
682	0.173
683	0.173
683	0.174
684	0.174
684	0.173
684	0.173
685	0.173
685	0.173
686	0.173
686	0.172
687	0.172
687	0.172
687	0.172
688	0.172
688	0.172
689	0.173
689	0.174
690	0.174
690	0.173
691	0.173
691	0.174
691	0.174
692	0.174
692	0.174
693	0.175
693	0.175
694	0.175
694	0.175
695	0.176
695	0.177
695	0.177
696	0.177
696	0.177
697	0.178
697	0.177
698	0.177
698	0.177
698	0.177
699	0.177
699	0.176
700	0.176
700	0.176
701	0.175
701	0.175
702	0.174
702	0.174
702	0.174
703	0.173
703	0.173
704	0.173
704	0.173
705	0.173
705	0.173
705	0.172
706	0.173
706	0.173
707	0.173
707	0.173
708	0.174
708	0.174
709	0.174
709	0.174
709	0.173
710	0.173
710	0.174
711	0.175
711	0.175
712	0.175
712	0.175
713	0.175
713	0.175
713	0.175
714	0.175
714	0.175
715	0.174
715	0.174
716	0.173
716	0.173
716	0.172
717	0.172
717	0.171
718	0.171
718	0.171
719	0.172
719	0.173
720	0.174
720	0.175
720	0.176
721	0.176
721	0.178
722	0.178
722	0.179
723	0.179
723	0.179
723	0.179
724	0.178
724	0.178
725	0.177
725	0.176
726	0.175
726	0.175
727	0.174
727	0.174
727	0.174
728	0.174
728	0.174
729	0.174
729	0.175
730	0.175
730	0.175
730	0.176
731	0.176
731	0.177
732	0.177
732	0.177
733	0.177
733	0.178
734	0.178
734	0.178
734	0.178
735	0.178
735	0.178
736	0.177
736	0.177
737	0.177
737	0.177
737	0.176
738	0.176
738	0.176
739	0.175
739	0.176
740	0.176
740	0.176
741	0.177
741	0.177
741	0.178
742	0.178
742	0.179
743	0.18
743	0.18
744	0.181
744	0.181
744	0.182
745	0.182
745	0.182
746	0.182
746	0.182
747	0.182
747	0.182
748	0.182
748	0.182
748	0.182
749	0.182
749	0.182
750	0.183
750	0.183
751	0.183
751	0.183
751	0.183
752	0.183
752	0.183
753	0.182
753	0.182
754	0.182
754	0.181
754	0.181
755	0.18
755	0.18
756	0.18
756	0.179
757	0.178
757	0.178
758	0.178
758	0.178
758	0.179
759	0.179
759	0.179
760	0.179
760	0.179
761	0.179
761	0.18
761	0.18
762	0.18
762	0.181
763	0.181
763	0.181
764	0.181
764	0.181
764	0.181
765	0.181
765	0.181
766	0.181
766	0.181
767	0.181
767	0.18
768	0.179
768	0.179
768	0.179
769	0.179
769	0.18
770	0.18
770	0.181
771	0.181
771	0.181
771	0.181
772	0.182
772	0.182
773	0.182
773	0.183
774	0.183
774	0.183
775	0.184
775	0.184
775	0.184
776	0.185
776	0.186
777	0.187
777	0.187
778	0.188
778	0.187
778	0.187
779	0.187
779	0.186
780	0.185
780	0.184
781	0.183
781	0.182
781	0.181
782	0.18
782	0.18
783	0.18
783	0.18
784	0.18
784	0.18
784	0.181
785	0.181
785	0.182
786	0.183
786	0.184
787	0.184
787	0.185
788	0.185
788	0.185
788	0.185
789	0.186
789	0.186
790	0.187
790	0.187
791	0.187
791	0.186
791	0.186
792	0.187
792	0.186
793	0.186
793	0.185
794	0.185
794	0.184
794	0.184
795	0.184
795	0.184
796	0.183
796	0.183
797	0.183
797	0.183
797	0.184
798	0.184
798	0.184
799	0.184
799	0.185
800	0.185
800	0.185
801	0.185
801	0.186
801	0.186
802	0.187
802	0.187
803	0.188
803	0.188
804	0.189
804	0.19
804	0.19
805	0.19
805	0.19
806	0.19
806	0.19
807	0.19
807	0.189
807	0.189
808	0.189
808	0.189
809	0.188
809	0.188
810	0.188
810	0.188
810	0.188
811	0.189
811	0.189
812	0.19
812	0.19
813	0.191
813	0.191
813	0.192
814	0.192
814	0.193
815	0.193
815	0.193
816	0.193
816	0.192
817	0.192
817	0.191
817	0.19
818	0.19
818	0.189
819	0.189
819	0.188
820	0.187
820	0.187
820	0.186
821	0.186
821	0.186
822	0.187
822	0.187
823	0.187
823	0.187
823	0.188
824	0.189
824	0.19
825	0.191
825	0.192
826	0.193
826	0.193
826	0.194
827	0.195
827	0.195
828	0.195
828	0.196
829	0.196
829	0.197
829	0.197
830	0.197
830	0.198
831	0.199
831	0.199
832	0.199
832	0.199
832	0.199
833	0.199
833	0.199
834	0.198
834	0.197
835	0.196
835	0.195
835	0.195
836	0.194
836	0.194
837	0.193
837	0.192
838	0.192
838	0.191
839	0.191
839	0.19
839	0.19
840	0.189
840	0.188
841	0.188
841	0.187
842	0.186
842	0.185
842	0.185
843	0.184
843	0.183
844	0.183
844	0.182
845	0.182
845	0.182
845	0.182
846	0.183
846	0.183
847	0.183
847	0.184
848	0.184
848	0.184
848	0.185
849	0.185
849	0.184
850	0.184
850	0.184
851	0.183
851	0.183
851	0.182
852	0.182
852	0.181
853	0.182
853	0.182
854	0.183
854	0.184
854	0.185
855	0.186
855	0.187
856	0.188
856	0.189
857	0.19
857	0.191
857	0.192
858	0.192
858	0.193
859	0.192
859	0.192
860	0.192
860	0.192
860	0.191
861	0.191
861	0.19
862	0.189
862	0.188
863	0.188
863	0.187
863	0.187
864	0.187
864	0.187
865	0.187
865	0.187
866	0.187
866	0.187
866	0.188
867	0.188
867	0.188
868	0.188
868	0.188
869	0.188
869	0.188
869	0.188
870	0.187
870	0.187
871	0.187
871	0.187
872	0.187
872	0.187
872	0.187
873	0.186
873	0.186
874	0.185
874	0.185
875	0.184
875	0.184
875	0.184
876	0.184
876	0.183
877	0.183
877	0.183
878	0.183
878	0.183
878	0.183
879	0.183
879	0.183
880	0.183
880	0.183
881	0.183
881	0.183
881	0.183
882	0.184
882	0.184
883	0.184
883	0.184
884	0.184
884	0.184
884	0.184
885	0.183
885	0.183
886	0.183
886	0.183
887	0.183
887	0.182
887	0.182
888	0.182
888	0.182
889	0.182
889	0.182
890	0.182
890	0.183
890	0.183
891	0.183
891	0.183
892	0.183
892	0.183
893	0.182
893	0.182
893	0.181
894	0.18
894	0.179
895	0.179
895	0.179
895	0.178
896	0.179
896	0.179
897	0.179
897	0.179
898	0.179
898	0.179
898	0.18
899	0.179
899	0.18
900	0.179
900	0.179
901	0.179
901	0.178
901	0.178
902	0.177
902	0.177
903	0.177
903	0.176
904	0.176
904	0.176
904	0.175
905	0.175
905	0.175
906	0.175
906	0.175
907	0.175
907	0.175
907	0.175
908	0.174
908	0.174
909	0.174
909	0.173
910	0.173
910	0.173
910	0.172
911	0.171
911	0.17
912	0.17
912	0.169
913	0.169
913	0.168
913	0.168
914	0.167
914	0.167
915	0.167
915	0.166
916	0.166
916	0.166
916	0.166
917	0.165
917	0.165
918	0.165
918	0.164
918	0.164
919	0.163
919	0.163
920	0.163
920	0.162
921	0.162
921	0.162
921	0.162
922	0.162
922	0.162
923	0.163
923	0.163
924	0.163
924	0.163
924	0.164
925	0.164
925	0.164
926	0.164
926	0.164
927	0.164
927	0.165
927	0.165
928	0.165
928	0.165
929	0.165
929	0.165
930	0.165
930	0.165
930	0.165
931	0.165
931	0.165
932	0.165
932	0.165
933	0.164
933	0.164
933	0.163
934	0.163
934	0.162
935	0.162
935	0.161
935	0.16
936	0.16
936	0.159
937	0.158
937	0.158
938	0.157
938	0.157
938	0.156
939	0.156
939	0.155
940	0.154
940	0.154
941	0.154
941	0.154
941	0.155
942	0.155
942	0.155
943	0.155
943	0.155
944	0.156
944	0.156
944	0.156
945	0.157
945	0.157
946	0.157
946	0.157
946	0.158
947	0.158
947	0.158
948	0.158
948	0.158
949	0.157
949	0.157
949	0.156
950	0.155
950	0.155
951	0.154
951	0.152
952	0.151
952	0.15
952	0.149
953	0.148
953	0.147
954	0.146
954	0.146
955	0.145
955	0.145
955	0.145
956	0.145
956	0.146
957	0.147
957	0.148
957	0.149
958	0.149
958	0.15
959	0.151
959	0.152
960	0.152
960	0.153
960	0.152
961	0.152
961	0.152
962	0.152
962	0.151
963	0.151
963	0.15
963	0.15
964	0.15
964	0.15
965	0.149
965	0.149
966	0.149
966	0.149
966	0.149
967	0.149
967	0.149
968	0.149
968	0.149
968	0.149
969	0.148
969	0.148
970	0.147
970	0.146
971	0.146
971	0.145
971	0.144
972	0.143
972	0.142
973	0.142
973	0.142
974	0.141
974	0.141
974	0.141
975	0.141
975	0.142
976	0.142
976	0.143
976	0.143
977	0.144
977	0.144
978	0.144
978	0.144
979	0.144
979	0.144
979	0.145
980	0.144
980	0.144
981	0.144
981	0.144
982	0.143
982	0.143
982	0.143
983	0.143
983	0.143
984	0.143
984	0.143
984	0.143
985	0.143
985	0.143
986	0.143
986	0.142
987	0.142
987	0.142
987	0.141
988	0.141
988	0.141
989	0.14
989	0.14
990	0.139
990	0.139
990	0.138
991	0.138
991	0.137
992	0.136
992	0.135
992	0.134
993	0.133
993	0.132
994	0.131
994	0.13
995	0.129
995	0.129
995	0.129
996	0.128
996	0.128
997	0.129
997	0.129
997	0.13
998	0.13
998	0.131
999	0.131
999	0.132
1000	0.132
1000	0.133
1000	0.133
1001	0.133
1001	0.134
1002	0.134
1002	0.134
1003	0.134
1003	0.134
1003	0.134
1004	0.134
1004	0.134
1005	0.134
1005	0.134
1005	0.133
1006	0.133
1006	0.133
1007	0.133
1007	0.133
1008	0.132
1008	0.132
1008	0.132
1009	0.132
1009	0.131
1010	0.13
1010	0.13
1010	0.13
1011	0.129
1011	0.128
1012	0.128
1012	0.127
1013	0.127
1013	0.126
1013	0.126
1014	0.125
1014	0.125
1015	0.125
1015	0.125
1016	0.125
1016	0.125
1016	0.124
1017	0.124
1017	0.124
1018	0.124
1018	0.124
1018	0.124
1019	0.124
1019	0.124
1020	0.124
1020	0.124
1021	0.124
1021	0.125
1021	0.125
1022	0.125
1022	0.125
1023	0.126
1023	0.126
1023	0.126
1024	0.126
1024	0.126
1025	0.126
1025	0.126
1026	0.126
1026	0.125
1026	0.125
1027	0.125
1027	0.125
1028	0.125
1028	0.125
1028	0.125
1029	0.125
1029	0.125
1030	0.124
1030	0.124
1031	0.124
1031	0.124
1031	0.124
1032	0.124
1032	0.124
1033	0.124
1033	0.124
1033	0.124
1034	0.124
1034	0.124
1035	0.124
1035	0.123
1036	0.123
1036	0.123
1036	0.123
1037	0.123
1037	0.122
1038	0.122
1038	0.122
1039	0.122
1039	0.121
1039	0.121
1040	0.121
1040	0.121
1041	0.121
1041	0.12
1041	0.12
1042	0.12
1042	0.119
1043	0.119
1043	0.119
1044	0.118
1044	0.118
1044	0.118
1045	0.118
1045	0.117
1046	0.117
1046	0.117
1046	0.117
1047	0.117
1047	0.116
1048	0.117
1048	0.117
1049	0.116
1049	0.116
1049	0.116
1050	0.116
1050	0.115
1051	0.115
1051	0.114
1051	0.114
1052	0.113
1052	0.113
1053	0.112
1053	0.111
1053	0.11
1054	0.11
1054	0.109
1055	0.109
1055	0.108
1056	0.108
1056	0.107
1056	0.107
1057	0.106
1057	0.106
1058	0.105
1058	0.105
1058	0.104
1059	0.104
1059	0.104
1060	0.103
1060	0.103
1061	0.103
1061	0.103
1061	0.103
1062	0.103
1062	0.103
1063	0.103
1063	0.103
1063	0.103
1064	0.102
1064	0.103
1065	0.102
1065	0.102
1066	0.102
1066	0.102
1066	0.102
1067	0.102
1067	0.102
1068	0.102
1068	0.102
1068	0.102
1069	0.102
1069	0.101
1070	0.101
1070	0.101
1071	0.101
1071	0.101
1071	0.1
1072	0.101
1072	0.1
1073	0.1
1073	0.1
1073	0.1
1074	0.101
1074	0.101
1075	0.101
1075	0.101
1076	0.101
1076	0.102
1076	0.102
1077	0.102
1077	0.103
1078	0.103
1078	0.103
1078	0.103
1079	0.103
1079	0.103
1080	0.102
1080	0.102
1080	0.102
1081	0.102
1081	0.102
1082	0.102
1082	0.102
1083	0.102
1083	0.101
1083	0.101
1084	0.102
1084	0.102
1085	0.102
1085	0.102
1085	0.102
1086	0.102
1086	0.101
1087	0.101
1087	0.1
1088	0.099
1088	0.099
1088	0.099
1089	0.098
1089	0.097
1090	0.095
1090	0.095
1090	0.094
1091	0.093
1091	0.093
1092	0.094
1092	0.094
1092	0.093
1093	0.093
1093	0.093
1094	0.093
1094	0.093
1095	0.092
1095	0.092
1095	0.092
1096	0.091
1096	0.09
1097	0.09
1097	0.089
1097	0.088
1098	0.087
1098	0.087
1099	0.086
1099	0.085
1100	0.084
1100	0.084
1100	0.082
1101	0.081
1101	0.08
1102	0.08
1102	0.079
1102	0.077
1103	0.076
1103	0.076
1104	0.077
1104	0.077
1104	0.075
1105	0.075
1105	0.074
1106	0.073
1106	0.073
1107	0.073
1107	0.073
1107	0.073
1108	0.073
1108	0.071
1109	0.07
1109	0.069
1109	0.07
1110	0.072
1110	0.071
1111	0.071
1111	0.068
