Data from reversibility-20sec_Absorbance__2329__000000000002329.txt Node

Date: Wed Dec 06 01:09:26 CET 2023
User: Marek
Spectrometer: MAYP115816
Trigger mode: 0
Integration Time (sec): 2.000000E-1
Scans to average: 10
Electric dark correction enabled: true
Nonlinearity correction enabled: true
Boxcar width: 5
XAxis mode: Wavelengths
Number of Pixels in Spectrum: 2068
>>>>>Begin Spectral Data<<<<<
199	-0.141
199	-0.11
200	-0.028
200	0.02
201	0.045
201	0.064
202	0.075
202	0.084
203	0.094
203	0.097
204	0.108
204	0.123
205	0.136
205	0.136
205	0.136
206	0.137
206	0.133
207	0.136
207	0.134
208	0.129
208	0.128
209	0.132
209	0.13
210	0.131
210	0.134
211	0.134
211	0.137
212	0.137
212	0.138
213	0.143
213	0.146
213	0.145
214	0.146
214	0.149
215	0.148
215	0.146
216	0.145
216	0.145
217	0.148
217	0.15
218	0.15
218	0.155
219	0.162
219	0.161
220	0.161
220	0.159
221	0.16
221	0.165
221	0.166
222	0.171
222	0.174
223	0.177
223	0.181
224	0.184
224	0.196
225	0.204
225	0.219
226	0.229
226	0.239
227	0.25
227	0.264
228	0.281
228	0.298
229	0.314
229	0.335
229	0.355
230	0.381
230	0.407
231	0.44
231	0.478
232	0.516
232	0.555
233	0.597
233	0.643
234	0.694
234	0.75
235	0.805
235	0.858
236	0.912
236	0.966
236	1.021
237	1.075
237	1.123
238	1.171
238	1.221
239	1.269
239	1.311
240	1.353
240	1.393
241	1.43
241	1.468
242	1.501
242	1.538
243	1.576
243	1.605
243	1.634
244	1.659
244	1.685
245	1.704
245	1.728
246	1.751
246	1.769
247	1.781
247	1.799
248	1.815
248	1.834
249	1.846
249	1.858
250	1.868
250	1.882
250	1.89
251	1.896
251	1.898
252	1.91
252	1.91
253	1.912
253	1.908
254	1.91
254	1.911
255	1.91
255	1.91
256	1.911
256	1.908
257	1.912
257	1.909
258	1.911
258	1.914
258	1.915
259	1.916
259	1.916
260	1.915
260	1.918
261	1.918
261	1.926
262	1.931
262	1.936
263	1.941
263	1.941
264	1.944
264	1.948
265	1.952
265	1.957
265	1.958
266	1.96
266	1.961
267	1.958
267	1.96
268	1.961
268	1.966
269	1.97
269	1.971
270	1.972
270	1.972
271	1.969
271	1.97
272	1.967
272	1.968
272	1.962
273	1.952
273	1.941
274	1.93
274	1.921
275	1.912
275	1.904
276	1.897
276	1.886
277	1.878
277	1.866
278	1.854
278	1.841
278	1.827
279	1.809
279	1.782
280	1.749
280	1.709
281	1.664
281	1.616
282	1.565
282	1.514
283	1.465
283	1.419
284	1.375
284	1.334
285	1.295
285	1.26
285	1.229
286	1.202
286	1.179
287	1.159
287	1.142
288	1.128
288	1.116
289	1.105
289	1.096
290	1.088
290	1.081
291	1.075
291	1.071
292	1.066
292	1.062
292	1.058
293	1.054
293	1.051
294	1.048
294	1.045
295	1.043
295	1.04
296	1.037
296	1.034
297	1.031
297	1.029
298	1.026
298	1.023
298	1.021
299	1.019
299	1.016
300	1.013
300	1.011
301	1.008
301	1.006
302	1.004
302	1.001
303	0.999
303	0.997
304	0.995
304	0.993
305	0.99
305	0.988
305	0.986
306	0.984
306	0.982
307	0.98
307	0.978
308	0.976
308	0.973
309	0.97
309	0.968
310	0.965
310	0.962
311	0.959
311	0.956
311	0.953
312	0.949
312	0.946
313	0.942
313	0.938
314	0.934
314	0.93
315	0.926
315	0.922
316	0.917
316	0.913
317	0.908
317	0.903
318	0.898
318	0.893
318	0.888
319	0.883
319	0.877
320	0.872
320	0.866
321	0.86
321	0.853
322	0.847
322	0.841
323	0.834
323	0.828
324	0.821
324	0.814
324	0.807
325	0.8
325	0.794
326	0.787
326	0.78
327	0.772
327	0.765
328	0.759
328	0.751
329	0.744
329	0.737
330	0.73
330	0.722
330	0.715
331	0.708
331	0.701
332	0.694
332	0.687
333	0.68
333	0.673
334	0.666
334	0.659
335	0.653
335	0.646
336	0.639
336	0.632
336	0.625
337	0.619
337	0.612
338	0.606
338	0.6
339	0.594
339	0.588
340	0.582
340	0.576
341	0.57
341	0.565
342	0.559
342	0.554
342	0.548
343	0.543
343	0.538
344	0.533
344	0.528
345	0.523
345	0.518
346	0.513
346	0.509
347	0.504
347	0.5
348	0.496
348	0.492
348	0.488
349	0.484
349	0.48
350	0.477
350	0.473
351	0.47
351	0.466
352	0.463
352	0.46
353	0.457
353	0.454
354	0.451
354	0.448
354	0.445
355	0.442
355	0.439
356	0.437
356	0.434
357	0.431
357	0.428
358	0.425
358	0.422
359	0.42
359	0.418
360	0.415
360	0.413
360	0.411
361	0.409
361	0.407
362	0.405
362	0.404
363	0.402
363	0.4
364	0.398
364	0.396
365	0.394
365	0.392
366	0.39
366	0.389
366	0.387
367	0.386
367	0.384
368	0.382
368	0.381
369	0.379
369	0.378
370	0.376
370	0.375
371	0.373
371	0.372
372	0.37
372	0.369
372	0.368
373	0.367
373	0.366
374	0.365
374	0.364
375	0.363
375	0.362
376	0.361
376	0.36
377	0.359
377	0.357
378	0.356
378	0.355
378	0.355
379	0.354
379	0.353
380	0.352
380	0.351
381	0.35
381	0.349
382	0.348
382	0.348
383	0.347
383	0.346
383	0.346
384	0.345
384	0.344
385	0.344
385	0.343
386	0.342
386	0.342
387	0.341
387	0.341
388	0.34
388	0.34
389	0.339
389	0.339
389	0.339
390	0.338
390	0.338
391	0.337
391	0.337
392	0.337
392	0.336
393	0.336
393	0.336
394	0.335
394	0.335
394	0.334
395	0.334
395	0.333
396	0.333
396	0.332
397	0.332
397	0.331
398	0.331
398	0.331
399	0.33
399	0.329
400	0.329
400	0.329
400	0.328
401	0.328
401	0.328
402	0.327
402	0.327
403	0.327
403	0.326
404	0.326
404	0.325
405	0.325
405	0.325
405	0.325
406	0.324
406	0.324
407	0.323
407	0.323
408	0.322
408	0.322
409	0.322
409	0.321
410	0.321
410	0.321
411	0.32
411	0.32
411	0.32
412	0.32
412	0.319
413	0.319
413	0.318
414	0.318
414	0.318
415	0.317
415	0.317
416	0.317
416	0.316
416	0.316
417	0.316
417	0.315
418	0.315
418	0.315
419	0.314
419	0.313
420	0.313
420	0.312
421	0.312
421	0.312
421	0.311
422	0.311
422	0.311
423	0.31
423	0.31
424	0.309
424	0.309
425	0.309
425	0.309
426	0.308
426	0.308
427	0.307
427	0.307
427	0.307
428	0.306
428	0.306
429	0.306
429	0.305
430	0.305
430	0.305
431	0.305
431	0.305
432	0.305
432	0.304
432	0.304
433	0.304
433	0.303
434	0.303
434	0.303
435	0.303
435	0.303
436	0.303
436	0.303
437	0.302
437	0.302
437	0.302
438	0.302
438	0.301
439	0.301
439	0.301
440	0.3
440	0.3
441	0.299
441	0.299
442	0.299
442	0.299
442	0.298
443	0.298
443	0.298
444	0.298
444	0.297
445	0.297
445	0.297
446	0.297
446	0.297
447	0.296
447	0.296
447	0.296
448	0.296
448	0.296
449	0.296
449	0.295
450	0.295
450	0.295
451	0.295
451	0.295
452	0.295
452	0.295
452	0.294
453	0.294
453	0.294
454	0.294
454	0.293
455	0.293
455	0.293
456	0.293
456	0.292
457	0.292
457	0.292
458	0.292
458	0.292
458	0.292
459	0.291
459	0.291
460	0.291
460	0.291
461	0.291
461	0.291
462	0.29
462	0.29
463	0.29
463	0.29
463	0.29
464	0.289
464	0.289
465	0.288
465	0.288
466	0.288
466	0.288
467	0.288
467	0.288
467	0.288
468	0.288
468	0.288
469	0.288
469	0.288
470	0.289
470	0.289
471	0.289
471	0.289
472	0.289
472	0.289
472	0.289
473	0.289
473	0.289
474	0.289
474	0.289
475	0.289
475	0.289
476	0.289
476	0.289
477	0.289
477	0.289
477	0.289
478	0.289
478	0.289
479	0.289
479	0.289
480	0.289
480	0.289
481	0.289
481	0.289
482	0.289
482	0.29
482	0.29
483	0.29
483	0.291
484	0.291
484	0.291
485	0.291
485	0.291
486	0.291
486	0.292
487	0.292
487	0.292
487	0.293
488	0.293
488	0.293
489	0.293
489	0.294
490	0.295
490	0.296
491	0.297
491	0.297
492	0.298
492	0.299
492	0.3
493	0.3
493	0.301
494	0.302
494	0.302
495	0.302
495	0.303
496	0.303
496	0.304
496	0.304
497	0.305
497	0.305
498	0.305
498	0.306
499	0.306
499	0.307
500	0.308
500	0.309
501	0.31
501	0.31
501	0.311
502	0.311
502	0.312
503	0.313
503	0.313
504	0.314
504	0.315
505	0.316
505	0.316
506	0.316
506	0.317
506	0.317
507	0.318
507	0.319
508	0.319
508	0.32
509	0.32
509	0.321
510	0.322
510	0.322
511	0.323
511	0.324
511	0.325
512	0.326
512	0.326
513	0.327
513	0.327
514	0.328
514	0.329
515	0.329
515	0.329
515	0.329
516	0.33
516	0.33
517	0.331
517	0.331
518	0.331
518	0.332
519	0.332
519	0.332
520	0.332
520	0.333
520	0.333
521	0.333
521	0.333
522	0.333
522	0.333
523	0.333
523	0.333
524	0.333
524	0.334
524	0.334
525	0.334
525	0.334
526	0.334
526	0.334
527	0.334
527	0.334
528	0.334
528	0.334
529	0.334
529	0.334
529	0.333
530	0.333
530	0.333
531	0.332
531	0.332
532	0.332
532	0.331
533	0.331
533	0.331
533	0.33
534	0.33
534	0.329
535	0.329
535	0.329
536	0.328
536	0.328
537	0.327
537	0.327
538	0.327
538	0.326
538	0.326
539	0.326
539	0.325
540	0.325
540	0.324
541	0.324
541	0.323
542	0.323
542	0.322
542	0.321
543	0.321
543	0.32
544	0.319
544	0.319
545	0.318
545	0.318
546	0.317
546	0.316
547	0.315
547	0.314
547	0.313
548	0.313
548	0.312
549	0.311
549	0.31
550	0.31
550	0.309
551	0.309
551	0.308
551	0.307
552	0.307
552	0.306
553	0.305
553	0.305
554	0.304
554	0.303
555	0.302
555	0.301
556	0.3
556	0.3
556	0.299
557	0.298
557	0.298
558	0.297
558	0.297
559	0.296
559	0.296
560	0.295
560	0.295
560	0.294
561	0.294
561	0.293
562	0.293
562	0.291
563	0.29
563	0.29
564	0.289
564	0.288
564	0.288
565	0.287
565	0.287
566	0.286
566	0.285
567	0.285
567	0.285
568	0.284
568	0.284
568	0.283
569	0.283
569	0.282
570	0.281
570	0.28
571	0.279
571	0.279
572	0.278
572	0.277
573	0.276
573	0.276
573	0.275
574	0.274
574	0.274
575	0.274
575	0.274
576	0.273
576	0.272
577	0.272
577	0.271
577	0.271
578	0.27
578	0.27
579	0.269
579	0.269
580	0.269
580	0.268
581	0.267
581	0.266
581	0.266
582	0.266
582	0.266
583	0.266
583	0.265
584	0.264
584	0.263
585	0.262
585	0.262
585	0.261
586	0.261
586	0.26
587	0.259
587	0.258
588	0.258
588	0.257
589	0.256
589	0.256
590	0.256
590	0.256
590	0.256
591	0.256
591	0.255
592	0.255
592	0.254
593	0.254
593	0.253
594	0.253
594	0.252
594	0.251
595	0.251
595	0.25
596	0.25
596	0.25
597	0.251
597	0.251
598	0.251
598	0.251
598	0.251
599	0.25
599	0.25
600	0.249
600	0.249
601	0.248
601	0.248
602	0.247
602	0.246
602	0.245
603	0.245
603	0.245
604	0.244
604	0.244
605	0.244
605	0.244
606	0.243
606	0.243
606	0.242
607	0.242
607	0.242
608	0.241
608	0.24
609	0.24
609	0.239
610	0.239
610	0.238
610	0.238
611	0.238
611	0.238
612	0.238
612	0.238
613	0.239
613	0.239
614	0.238
614	0.238
614	0.238
615	0.238
615	0.238
616	0.238
616	0.237
617	0.237
617	0.237
618	0.236
618	0.237
618	0.237
619	0.237
619	0.237
620	0.237
620	0.237
621	0.236
621	0.236
622	0.235
622	0.234
622	0.234
623	0.233
623	0.233
624	0.232
624	0.231
625	0.231
625	0.23
626	0.23
626	0.23
626	0.23
627	0.23
627	0.229
628	0.229
628	0.229
629	0.229
629	0.229
630	0.229
630	0.229
630	0.229
631	0.229
631	0.228
632	0.228
632	0.228
633	0.228
633	0.227
634	0.227
634	0.227
634	0.227
635	0.226
635	0.226
636	0.226
636	0.226
637	0.226
637	0.225
638	0.225
638	0.225
638	0.224
639	0.224
639	0.223
640	0.223
640	0.223
641	0.223
641	0.223
642	0.222
642	0.223
642	0.223
643	0.223
643	0.223
644	0.223
644	0.223
645	0.223
645	0.223
646	0.222
646	0.222
646	0.222
647	0.222
647	0.221
648	0.221
648	0.22
649	0.22
649	0.22
650	0.22
650	0.22
650	0.22
651	0.22
651	0.22
652	0.221
652	0.221
653	0.222
653	0.224
653	0.23
654	0.179
654	0.142
655	0.144
655	0.144
656	0.145
656	0.145
657	0.145
657	0.146
657	0.146
658	0.144
658	0.133
659	0.169
659	0.219
660	0.223
660	0.222
661	0.222
661	0.221
661	0.221
662	0.22
662	0.22
663	0.219
663	0.219
664	0.218
664	0.218
665	0.218
665	0.219
665	0.219
666	0.22
666	0.22
667	0.22
667	0.221
668	0.221
668	0.221
669	0.221
669	0.221
669	0.222
670	0.222
670	0.221
671	0.221
671	0.221
672	0.221
672	0.22
672	0.22
673	0.22
673	0.22
674	0.22
674	0.219
675	0.219
675	0.219
676	0.219
676	0.219
676	0.219
677	0.219
677	0.219
678	0.219
678	0.219
679	0.219
679	0.219
680	0.22
680	0.22
680	0.22
681	0.22
681	0.221
682	0.221
682	0.221
683	0.221
683	0.221
684	0.222
684	0.222
684	0.221
685	0.221
685	0.222
686	0.221
686	0.221
687	0.221
687	0.221
687	0.221
688	0.221
688	0.221
689	0.221
689	0.222
690	0.222
690	0.221
691	0.221
691	0.222
691	0.222
692	0.222
692	0.223
693	0.223
693	0.224
694	0.224
694	0.224
695	0.225
695	0.225
695	0.225
696	0.225
696	0.224
697	0.224
697	0.224
698	0.223
698	0.223
698	0.223
699	0.223
699	0.223
700	0.222
700	0.223
701	0.223
701	0.223
702	0.223
702	0.224
702	0.224
703	0.224
703	0.224
704	0.224
704	0.224
705	0.224
705	0.224
705	0.224
706	0.224
706	0.224
707	0.224
707	0.223
708	0.224
708	0.224
709	0.224
709	0.223
709	0.223
710	0.223
710	0.223
711	0.223
711	0.223
712	0.223
712	0.223
713	0.223
713	0.224
713	0.224
714	0.224
714	0.224
715	0.224
715	0.224
716	0.224
716	0.224
716	0.223
717	0.223
717	0.222
718	0.222
718	0.222
719	0.222
719	0.222
720	0.222
720	0.222
720	0.222
721	0.223
721	0.223
722	0.223
722	0.224
723	0.224
723	0.225
723	0.225
724	0.225
724	0.225
725	0.224
725	0.224
726	0.223
726	0.223
727	0.223
727	0.223
727	0.222
728	0.222
728	0.222
729	0.222
729	0.222
730	0.223
730	0.223
730	0.224
731	0.224
731	0.225
732	0.226
732	0.226
733	0.226
733	0.227
734	0.226
734	0.226
734	0.226
735	0.225
735	0.225
736	0.224
736	0.223
737	0.222
737	0.222
737	0.221
738	0.221
738	0.22
739	0.22
739	0.22
740	0.22
740	0.22
741	0.221
741	0.221
741	0.222
742	0.222
742	0.222
743	0.223
743	0.224
744	0.224
744	0.224
744	0.224
745	0.224
745	0.224
746	0.224
746	0.224
747	0.224
747	0.224
748	0.225
748	0.225
748	0.225
749	0.226
749	0.226
750	0.227
750	0.227
751	0.227
751	0.228
751	0.228
752	0.227
752	0.227
753	0.227
753	0.226
754	0.226
754	0.226
754	0.226
755	0.226
755	0.225
756	0.225
756	0.224
757	0.223
757	0.223
758	0.223
758	0.223
758	0.223
759	0.223
759	0.223
760	0.223
760	0.223
761	0.224
761	0.225
761	0.226
762	0.227
762	0.228
763	0.228
763	0.228
764	0.228
764	0.229
764	0.229
765	0.229
765	0.229
766	0.229
766	0.228
767	0.228
767	0.227
768	0.226
768	0.225
768	0.225
769	0.225
769	0.224
770	0.224
770	0.224
771	0.224
771	0.224
771	0.225
772	0.225
772	0.225
773	0.226
773	0.226
774	0.226
774	0.226
775	0.227
775	0.227
775	0.227
776	0.227
776	0.227
777	0.228
777	0.228
778	0.227
778	0.227
778	0.227
779	0.227
779	0.227
780	0.226
780	0.226
781	0.226
781	0.225
781	0.225
782	0.225
782	0.225
783	0.225
783	0.226
784	0.225
784	0.226
784	0.226
785	0.226
785	0.226
786	0.226
786	0.226
787	0.226
787	0.226
788	0.226
788	0.226
788	0.226
789	0.226
789	0.226
790	0.227
790	0.227
791	0.227
791	0.227
791	0.227
792	0.228
792	0.229
793	0.229
793	0.229
794	0.229
794	0.229
794	0.229
795	0.23
795	0.23
796	0.23
796	0.231
797	0.23
797	0.231
797	0.231
798	0.231
798	0.231
799	0.231
799	0.23
800	0.23
800	0.229
801	0.229
801	0.228
801	0.228
802	0.227
802	0.227
803	0.227
803	0.227
804	0.227
804	0.228
804	0.228
805	0.228
805	0.228
806	0.228
806	0.228
807	0.228
807	0.228
807	0.228
808	0.228
808	0.228
809	0.228
809	0.228
810	0.228
810	0.229
810	0.229
811	0.229
811	0.23
812	0.231
812	0.231
813	0.231
813	0.232
813	0.232
814	0.232
814	0.232
815	0.232
815	0.232
816	0.231
816	0.231
817	0.23
817	0.23
817	0.229
818	0.229
818	0.229
819	0.229
819	0.229
820	0.228
820	0.228
820	0.228
821	0.228
821	0.229
822	0.229
822	0.229
823	0.229
823	0.228
823	0.229
824	0.23
824	0.23
825	0.231
825	0.231
826	0.231
826	0.231
826	0.231
827	0.231
827	0.23
828	0.23
828	0.23
829	0.23
829	0.229
829	0.229
830	0.229
830	0.229
831	0.23
831	0.23
832	0.23
832	0.23
832	0.23
833	0.23
833	0.23
834	0.23
834	0.23
835	0.23
835	0.23
835	0.23
836	0.231
836	0.231
837	0.231
837	0.231
838	0.231
838	0.231
839	0.231
839	0.23
839	0.229
840	0.228
840	0.227
841	0.226
841	0.225
842	0.224
842	0.223
842	0.222
843	0.221
843	0.221
844	0.22
844	0.22
845	0.22
845	0.22
845	0.22
846	0.22
846	0.22
847	0.221
847	0.221
848	0.221
848	0.222
848	0.222
849	0.222
849	0.222
850	0.223
850	0.223
851	0.223
851	0.223
851	0.222
852	0.222
852	0.221
853	0.221
853	0.22
854	0.22
854	0.22
854	0.22
855	0.221
855	0.221
856	0.221
856	0.222
857	0.222
857	0.223
857	0.223
858	0.223
858	0.223
859	0.222
859	0.222
860	0.221
860	0.22
860	0.219
861	0.218
861	0.217
862	0.215
862	0.214
863	0.213
863	0.213
863	0.212
864	0.211
864	0.211
865	0.211
865	0.21
866	0.21
866	0.21
866	0.21
867	0.21
867	0.21
868	0.21
868	0.209
869	0.21
869	0.209
869	0.209
870	0.209
870	0.209
871	0.209
871	0.209
872	0.209
872	0.209
872	0.209
873	0.209
873	0.208
874	0.208
874	0.207
875	0.207
875	0.206
875	0.206
876	0.205
876	0.205
877	0.204
877	0.204
878	0.204
878	0.205
878	0.206
879	0.206
879	0.207
880	0.207
880	0.208
881	0.208
881	0.208
881	0.208
882	0.208
882	0.207
883	0.206
883	0.206
884	0.205
884	0.204
884	0.203
885	0.203
885	0.202
886	0.201
886	0.201
887	0.2
887	0.199
887	0.199
888	0.198
888	0.198
889	0.197
889	0.197
890	0.197
890	0.196
890	0.196
891	0.196
891	0.196
892	0.196
892	0.196
893	0.196
893	0.196
893	0.196
894	0.196
894	0.196
895	0.195
895	0.195
895	0.195
896	0.195
896	0.194
897	0.193
897	0.192
898	0.192
898	0.191
898	0.191
899	0.19
899	0.19
900	0.189
900	0.189
901	0.189
901	0.189
901	0.188
902	0.188
902	0.188
903	0.187
903	0.187
904	0.186
904	0.186
904	0.186
905	0.185
905	0.185
906	0.185
906	0.185
907	0.186
907	0.186
907	0.187
908	0.187
908	0.187
909	0.188
909	0.188
910	0.187
910	0.187
910	0.187
911	0.186
911	0.186
912	0.185
912	0.185
913	0.184
913	0.183
913	0.183
914	0.183
914	0.182
915	0.182
915	0.181
916	0.181
916	0.18
916	0.179
917	0.179
917	0.178
918	0.177
918	0.176
918	0.175
919	0.175
919	0.174
920	0.173
920	0.173
921	0.172
921	0.171
921	0.171
922	0.17
922	0.17
923	0.169
923	0.169
924	0.169
924	0.169
924	0.169
925	0.169
925	0.169
926	0.17
926	0.17
927	0.17
927	0.17
927	0.17
928	0.17
928	0.17
929	0.169
929	0.169
930	0.169
930	0.169
930	0.168
931	0.168
931	0.168
932	0.168
932	0.168
933	0.168
933	0.167
933	0.167
934	0.167
934	0.166
935	0.166
935	0.166
935	0.166
936	0.165
936	0.165
937	0.165
937	0.164
938	0.164
938	0.164
938	0.164
939	0.163
939	0.163
940	0.162
940	0.162
941	0.162
941	0.161
941	0.161
942	0.161
942	0.16
943	0.16
943	0.16
944	0.16
944	0.16
944	0.16
945	0.16
945	0.159
946	0.16
946	0.159
946	0.159
947	0.159
947	0.159
948	0.159
948	0.158
949	0.158
949	0.157
949	0.157
950	0.156
950	0.155
951	0.154
951	0.153
952	0.152
952	0.151
952	0.15
953	0.149
953	0.148
954	0.147
954	0.146
955	0.145
955	0.144
955	0.144
956	0.144
956	0.144
957	0.144
957	0.144
957	0.144
958	0.144
958	0.144
959	0.144
959	0.144
960	0.144
960	0.144
960	0.143
961	0.143
961	0.143
962	0.142
962	0.142
963	0.142
963	0.142
963	0.142
964	0.142
964	0.142
965	0.142
965	0.143
966	0.143
966	0.143
966	0.144
967	0.144
967	0.144
968	0.145
968	0.145
968	0.145
969	0.145
969	0.145
970	0.145
970	0.145
971	0.144
971	0.144
971	0.144
972	0.144
972	0.143
973	0.143
973	0.143
974	0.143
974	0.143
974	0.143
975	0.143
975	0.143
976	0.143
976	0.144
976	0.144
977	0.144
977	0.144
978	0.143
978	0.143
979	0.143
979	0.142
979	0.142
980	0.142
980	0.141
981	0.14
981	0.139
982	0.138
982	0.138
982	0.137
983	0.136
983	0.135
984	0.134
984	0.133
984	0.132
985	0.131
985	0.13
986	0.13
986	0.129
987	0.129
987	0.128
987	0.128
988	0.128
988	0.127
989	0.127
989	0.127
990	0.127
990	0.127
990	0.126
991	0.126
991	0.125
992	0.125
992	0.124
992	0.124
993	0.123
993	0.122
994	0.122
994	0.121
995	0.121
995	0.121
995	0.121
996	0.121
996	0.121
997	0.122
997	0.122
997	0.123
998	0.123
998	0.124
999	0.125
999	0.126
1000	0.126
1000	0.127
1000	0.127
1001	0.128
1001	0.128
1002	0.127
1002	0.127
1003	0.127
1003	0.127
1003	0.126
1004	0.125
1004	0.124
1005	0.123
1005	0.123
1005	0.122
1006	0.121
1006	0.12
1007	0.12
1007	0.119
1008	0.119
1008	0.119
1008	0.119
1009	0.119
1009	0.119
1010	0.119
1010	0.119
1010	0.119
1011	0.119
1011	0.119
1012	0.119
1012	0.118
1013	0.118
1013	0.118
1013	0.118
1014	0.118
1014	0.118
1015	0.118
1015	0.118
1016	0.117
1016	0.117
1016	0.117
1017	0.116
1017	0.116
1018	0.116
1018	0.116
1018	0.115
1019	0.115
1019	0.115
1020	0.115
1020	0.115
1021	0.115
1021	0.115
1021	0.114
1022	0.114
1022	0.114
1023	0.114
1023	0.114
1023	0.114
1024	0.114
1024	0.113
1025	0.113
1025	0.112
1026	0.112
1026	0.111
1026	0.111
1027	0.11
1027	0.11
1028	0.109
1028	0.109
1028	0.108
1029	0.108
1029	0.108
1030	0.108
1030	0.108
1031	0.108
1031	0.108
1031	0.108
1032	0.108
1032	0.108
1033	0.109
1033	0.108
1033	0.108
1034	0.108
1034	0.108
1035	0.108
1035	0.108
1036	0.108
1036	0.107
1036	0.107
1037	0.107
1037	0.107
1038	0.107
1038	0.107
1039	0.107
1039	0.108
1039	0.108
1040	0.108
1040	0.109
1041	0.109
1041	0.109
1041	0.109
1042	0.109
1042	0.11
1043	0.11
1043	0.11
1044	0.11
1044	0.11
1044	0.11
1045	0.11
1045	0.111
1046	0.111
1046	0.111
1046	0.112
1047	0.112
1047	0.112
1048	0.113
1048	0.113
1049	0.113
1049	0.114
1049	0.114
1050	0.114
1050	0.114
1051	0.114
1051	0.113
1051	0.113
1052	0.112
1052	0.112
1053	0.111
1053	0.11
1053	0.109
1054	0.108
1054	0.107
1055	0.106
1055	0.105
1056	0.104
1056	0.104
1056	0.103
1057	0.102
1057	0.101
1058	0.1
1058	0.099
1058	0.098
1059	0.097
1059	0.096
1060	0.095
1060	0.095
1061	0.094
1061	0.094
1061	0.093
1062	0.093
1062	0.093
1063	0.092
1063	0.092
1063	0.092
1064	0.091
1064	0.091
1065	0.091
1065	0.09
1066	0.09
1066	0.09
1066	0.09
1067	0.09
1067	0.09
1068	0.09
1068	0.09
1068	0.089
1069	0.089
1069	0.088
1070	0.088
1070	0.087
1071	0.086
1071	0.085
1071	0.084
1072	0.084
1072	0.083
1073	0.082
1073	0.082
1073	0.081
1074	0.081
1074	0.081
1075	0.081
1075	0.081
1076	0.081
1076	0.082
1076	0.082
1077	0.082
1077	0.083
1078	0.083
1078	0.084
1078	0.084
1079	0.084
1079	0.084
1080	0.084
1080	0.085
1080	0.085
1081	0.084
1081	0.085
1082	0.085
1082	0.086
1083	0.086
1083	0.085
1083	0.085
1084	0.085
1084	0.085
1085	0.084
1085	0.084
1085	0.083
1086	0.083
1086	0.081
1087	0.081
1087	0.08
1088	0.079
1088	0.079
1088	0.079
1089	0.078
1089	0.077
1090	0.076
1090	0.075
1090	0.074
1091	0.074
1091	0.073
1092	0.073
1092	0.074
1092	0.073
1093	0.073
1093	0.073
1094	0.072
1094	0.072
1095	0.072
1095	0.072
1095	0.072
1096	0.072
1096	0.071
1097	0.07
1097	0.07
1097	0.069
1098	0.069
1098	0.068
1099	0.068
1099	0.066
1100	0.066
1100	0.064
1100	0.063
1101	0.062
1101	0.062
1102	0.061
1102	0.061
1102	0.059
1103	0.059
1103	0.058
1104	0.058
1104	0.058
1104	0.057
1105	0.056
1105	0.054
1106	0.052
1106	0.051
1107	0.049
1107	0.049
1107	0.049
1108	0.048
1108	0.047
1109	0.046
1109	0.045
1109	0.046
1110	0.048
1110	0.048
1111	0.05
1111	0.05
