Data from reversibility-20sec_Absorbance__5566__000000000005566.txt Node

Date: Wed Dec 06 19:08:25 CET 2023
User: Marek
Spectrometer: MAYP115816
Trigger mode: 0
Integration Time (sec): 2.000000E-1
Scans to average: 10
Electric dark correction enabled: true
Nonlinearity correction enabled: true
Boxcar width: 5
XAxis mode: Wavelengths
Number of Pixels in Spectrum: 2068
>>>>>Begin Spectral Data<<<<<
199	-0.149
199	-0.126
200	-0.059
200	-0.001
201	0.026
201	0.041
202	0.051
202	0.061
203	0.07
203	0.074
204	0.09
204	0.103
205	0.115
205	0.121
205	0.119
206	0.12
206	0.12
207	0.123
207	0.121
208	0.118
208	0.115
209	0.117
209	0.115
210	0.115
210	0.114
211	0.114
211	0.116
212	0.114
212	0.117
213	0.12
213	0.123
213	0.123
214	0.125
214	0.126
215	0.128
215	0.128
216	0.127
216	0.123
217	0.125
217	0.124
218	0.124
218	0.125
219	0.128
219	0.128
220	0.129
220	0.131
221	0.13
221	0.134
221	0.14
222	0.146
222	0.153
223	0.158
223	0.164
224	0.17
224	0.179
225	0.187
225	0.195
226	0.206
226	0.219
227	0.229
227	0.238
228	0.25
228	0.263
229	0.278
229	0.302
229	0.323
230	0.347
230	0.377
231	0.41
231	0.446
232	0.48
232	0.525
233	0.57
233	0.621
234	0.672
234	0.719
235	0.773
235	0.829
236	0.879
236	0.93
236	0.982
237	1.035
237	1.084
238	1.131
238	1.177
239	1.224
239	1.27
240	1.311
240	1.345
241	1.381
241	1.417
242	1.448
242	1.481
243	1.511
243	1.535
243	1.561
244	1.584
244	1.603
245	1.62
245	1.643
246	1.662
246	1.68
247	1.692
247	1.704
248	1.717
248	1.731
249	1.737
249	1.741
250	1.748
250	1.754
250	1.757
251	1.759
251	1.761
252	1.765
252	1.766
253	1.766
253	1.762
254	1.761
254	1.762
255	1.76
255	1.761
256	1.76
256	1.759
257	1.755
257	1.755
258	1.754
258	1.754
258	1.755
259	1.756
259	1.756
260	1.756
260	1.758
261	1.759
261	1.763
262	1.767
262	1.768
263	1.772
263	1.773
264	1.775
264	1.777
265	1.778
265	1.78
265	1.78
266	1.782
266	1.783
267	1.781
267	1.783
268	1.782
268	1.783
269	1.786
269	1.786
270	1.786
270	1.785
271	1.783
271	1.782
272	1.777
272	1.774
272	1.77
273	1.763
273	1.755
274	1.748
274	1.741
275	1.733
275	1.725
276	1.718
276	1.708
277	1.701
277	1.691
278	1.679
278	1.666
278	1.652
279	1.634
279	1.612
280	1.584
280	1.551
281	1.512
281	1.47
282	1.425
282	1.38
283	1.336
283	1.294
284	1.253
284	1.214
285	1.177
285	1.144
285	1.114
286	1.089
286	1.066
287	1.047
287	1.031
288	1.017
288	1.005
289	0.996
289	0.987
290	0.98
290	0.974
291	0.968
291	0.963
292	0.959
292	0.955
292	0.951
293	0.948
293	0.944
294	0.941
294	0.938
295	0.936
295	0.933
296	0.93
296	0.927
297	0.924
297	0.922
298	0.919
298	0.916
298	0.914
299	0.911
299	0.909
300	0.906
300	0.904
301	0.901
301	0.899
302	0.897
302	0.894
303	0.892
303	0.89
304	0.888
304	0.886
305	0.883
305	0.881
305	0.879
306	0.877
306	0.874
307	0.872
307	0.869
308	0.867
308	0.865
309	0.862
309	0.86
310	0.857
310	0.855
311	0.852
311	0.849
311	0.846
312	0.843
312	0.839
313	0.836
313	0.833
314	0.829
314	0.825
315	0.821
315	0.817
316	0.813
316	0.808
317	0.804
317	0.799
318	0.794
318	0.789
318	0.784
319	0.779
319	0.773
320	0.768
320	0.762
321	0.756
321	0.75
322	0.744
322	0.738
323	0.731
323	0.725
324	0.719
324	0.713
324	0.706
325	0.699
325	0.693
326	0.686
326	0.679
327	0.672
327	0.666
328	0.659
328	0.652
329	0.645
329	0.638
330	0.631
330	0.624
330	0.617
331	0.61
331	0.603
332	0.596
332	0.589
333	0.582
333	0.575
334	0.569
334	0.562
335	0.555
335	0.549
336	0.542
336	0.535
336	0.529
337	0.523
337	0.517
338	0.511
338	0.504
339	0.499
339	0.492
340	0.487
340	0.481
341	0.475
341	0.47
342	0.465
342	0.459
342	0.454
343	0.449
343	0.444
344	0.439
344	0.434
345	0.43
345	0.425
346	0.421
346	0.416
347	0.412
347	0.408
348	0.404
348	0.4
348	0.397
349	0.393
349	0.389
350	0.386
350	0.382
351	0.379
351	0.376
352	0.372
352	0.369
353	0.366
353	0.364
354	0.361
354	0.358
354	0.355
355	0.352
355	0.349
356	0.347
356	0.344
357	0.341
357	0.338
358	0.336
358	0.333
359	0.331
359	0.329
360	0.327
360	0.325
360	0.324
361	0.322
361	0.32
362	0.319
362	0.317
363	0.315
363	0.314
364	0.312
364	0.31
365	0.308
365	0.306
366	0.305
366	0.303
366	0.301
367	0.3
367	0.298
368	0.297
368	0.295
369	0.294
369	0.292
370	0.291
370	0.29
371	0.288
371	0.287
372	0.286
372	0.285
372	0.284
373	0.283
373	0.282
374	0.281
374	0.28
375	0.279
375	0.278
376	0.278
376	0.277
377	0.276
377	0.275
378	0.275
378	0.274
378	0.273
379	0.273
379	0.272
380	0.271
380	0.271
381	0.27
381	0.27
382	0.269
382	0.268
383	0.268
383	0.267
383	0.267
384	0.266
384	0.266
385	0.265
385	0.265
386	0.264
386	0.264
387	0.264
387	0.263
388	0.263
388	0.263
389	0.262
389	0.262
389	0.262
390	0.261
390	0.261
391	0.261
391	0.26
392	0.26
392	0.26
393	0.259
393	0.259
394	0.259
394	0.258
394	0.258
395	0.258
395	0.258
396	0.257
396	0.257
397	0.257
397	0.256
398	0.256
398	0.256
399	0.256
399	0.255
400	0.255
400	0.255
400	0.255
401	0.254
401	0.254
402	0.254
402	0.254
403	0.254
403	0.253
404	0.253
404	0.253
405	0.253
405	0.253
405	0.252
406	0.252
406	0.252
407	0.251
407	0.251
408	0.251
408	0.251
409	0.25
409	0.25
410	0.25
410	0.25
411	0.249
411	0.249
411	0.249
412	0.249
412	0.248
413	0.248
413	0.248
414	0.248
414	0.247
415	0.247
415	0.246
416	0.246
416	0.246
416	0.245
417	0.245
417	0.245
418	0.245
418	0.245
419	0.244
419	0.244
420	0.243
420	0.243
421	0.242
421	0.242
421	0.242
422	0.241
422	0.241
423	0.241
423	0.24
424	0.24
424	0.24
425	0.239
425	0.239
426	0.239
426	0.239
427	0.238
427	0.238
427	0.238
428	0.237
428	0.237
429	0.237
429	0.237
430	0.236
430	0.236
431	0.236
431	0.236
432	0.236
432	0.236
432	0.235
433	0.235
433	0.235
434	0.235
434	0.235
435	0.235
435	0.235
436	0.234
436	0.234
437	0.234
437	0.233
437	0.233
438	0.233
438	0.232
439	0.232
439	0.232
440	0.232
440	0.232
441	0.231
441	0.231
442	0.231
442	0.231
442	0.231
443	0.231
443	0.231
444	0.23
444	0.23
445	0.23
445	0.23
446	0.229
446	0.229
447	0.229
447	0.228
447	0.228
448	0.228
448	0.228
449	0.228
449	0.227
450	0.227
450	0.227
451	0.226
451	0.226
452	0.226
452	0.226
452	0.226
453	0.226
453	0.226
454	0.225
454	0.225
455	0.225
455	0.225
456	0.225
456	0.224
457	0.224
457	0.224
458	0.224
458	0.223
458	0.223
459	0.223
459	0.223
460	0.223
460	0.223
461	0.222
461	0.222
462	0.222
462	0.221
463	0.221
463	0.221
463	0.22
464	0.22
464	0.219
465	0.219
465	0.219
466	0.219
466	0.219
467	0.219
467	0.219
467	0.219
468	0.218
468	0.218
469	0.218
469	0.219
470	0.219
470	0.219
471	0.219
471	0.219
472	0.219
472	0.219
472	0.219
473	0.219
473	0.219
474	0.218
474	0.218
475	0.218
475	0.218
476	0.218
476	0.218
477	0.218
477	0.218
477	0.218
478	0.218
478	0.217
479	0.217
479	0.217
480	0.217
480	0.217
481	0.217
481	0.217
482	0.217
482	0.217
482	0.217
483	0.217
483	0.217
484	0.217
484	0.217
485	0.217
485	0.217
486	0.217
486	0.217
487	0.217
487	0.218
487	0.218
488	0.218
488	0.218
489	0.218
489	0.219
490	0.219
490	0.22
491	0.22
491	0.221
492	0.221
492	0.221
492	0.221
493	0.221
493	0.222
494	0.222
494	0.222
495	0.222
495	0.223
496	0.223
496	0.224
496	0.224
497	0.225
497	0.225
498	0.225
498	0.225
499	0.226
499	0.226
500	0.227
500	0.227
501	0.227
501	0.227
501	0.227
502	0.228
502	0.228
503	0.228
503	0.228
504	0.229
504	0.229
505	0.23
505	0.23
506	0.23
506	0.23
506	0.231
507	0.231
507	0.232
508	0.232
508	0.233
509	0.233
509	0.233
510	0.233
510	0.234
511	0.234
511	0.235
511	0.236
512	0.236
512	0.236
513	0.237
513	0.237
514	0.238
514	0.238
515	0.239
515	0.239
515	0.239
516	0.239
516	0.24
517	0.241
517	0.241
518	0.241
518	0.241
519	0.242
519	0.242
520	0.242
520	0.242
520	0.243
521	0.243
521	0.243
522	0.243
522	0.243
523	0.243
523	0.243
524	0.244
524	0.244
524	0.244
525	0.244
525	0.244
526	0.244
526	0.245
527	0.245
527	0.245
528	0.245
528	0.246
529	0.246
529	0.246
529	0.246
530	0.246
530	0.246
531	0.246
531	0.246
532	0.246
532	0.246
533	0.245
533	0.245
533	0.245
534	0.245
534	0.245
535	0.245
535	0.245
536	0.245
536	0.245
537	0.245
537	0.245
538	0.245
538	0.245
538	0.245
539	0.245
539	0.245
540	0.245
540	0.244
541	0.244
541	0.244
542	0.243
542	0.243
542	0.243
543	0.243
543	0.243
544	0.243
544	0.242
545	0.243
545	0.243
546	0.243
546	0.243
547	0.242
547	0.242
547	0.242
548	0.242
548	0.242
549	0.242
549	0.241
550	0.241
550	0.241
551	0.241
551	0.24
551	0.24
552	0.24
552	0.239
553	0.239
553	0.239
554	0.238
554	0.238
555	0.237
555	0.236
556	0.236
556	0.236
556	0.236
557	0.236
557	0.236
558	0.236
558	0.236
559	0.236
559	0.236
560	0.236
560	0.236
560	0.235
561	0.235
561	0.235
562	0.234
562	0.234
563	0.233
563	0.232
564	0.232
564	0.231
564	0.231
565	0.231
565	0.231
566	0.23
566	0.23
567	0.23
567	0.23
568	0.23
568	0.23
568	0.23
569	0.23
569	0.229
570	0.229
570	0.228
571	0.227
571	0.227
572	0.226
572	0.226
573	0.226
573	0.225
573	0.225
574	0.224
574	0.224
575	0.224
575	0.225
576	0.224
576	0.224
577	0.223
577	0.223
577	0.223
578	0.222
578	0.222
579	0.222
579	0.222
580	0.222
580	0.221
581	0.22
581	0.22
581	0.22
582	0.22
582	0.22
583	0.221
583	0.22
584	0.22
584	0.218
585	0.218
585	0.218
585	0.218
586	0.218
586	0.217
587	0.216
587	0.216
588	0.215
588	0.215
589	0.214
589	0.214
590	0.214
590	0.214
590	0.215
591	0.215
591	0.215
592	0.214
592	0.214
593	0.214
593	0.214
594	0.213
594	0.213
594	0.212
595	0.212
595	0.211
596	0.211
596	0.211
597	0.212
597	0.212
598	0.212
598	0.212
598	0.212
599	0.211
599	0.211
600	0.21
600	0.21
601	0.21
601	0.21
602	0.209
602	0.209
602	0.208
603	0.208
603	0.208
604	0.208
604	0.209
605	0.209
605	0.209
606	0.209
606	0.208
606	0.207
607	0.207
607	0.207
608	0.207
608	0.206
609	0.206
609	0.205
610	0.205
610	0.205
610	0.205
611	0.205
611	0.205
612	0.205
612	0.205
613	0.205
613	0.205
614	0.205
614	0.204
614	0.204
615	0.204
615	0.204
616	0.204
616	0.204
617	0.204
617	0.204
618	0.203
618	0.204
618	0.204
619	0.204
619	0.204
620	0.204
620	0.204
621	0.204
621	0.203
622	0.203
622	0.203
622	0.202
623	0.202
623	0.202
624	0.202
624	0.201
625	0.201
625	0.201
626	0.2
626	0.2
626	0.2
627	0.2
627	0.2
628	0.2
628	0.199
629	0.198
629	0.198
630	0.198
630	0.197
630	0.197
631	0.197
631	0.197
632	0.197
632	0.196
633	0.197
633	0.197
634	0.197
634	0.198
634	0.198
635	0.197
635	0.197
636	0.197
636	0.197
637	0.197
637	0.196
638	0.196
638	0.196
638	0.196
639	0.195
639	0.195
640	0.195
640	0.195
641	0.195
641	0.195
642	0.195
642	0.195
642	0.195
643	0.195
643	0.196
644	0.195
644	0.195
645	0.195
645	0.195
646	0.195
646	0.195
646	0.195
647	0.195
647	0.195
648	0.194
648	0.194
649	0.194
649	0.193
650	0.193
650	0.193
650	0.193
651	0.193
651	0.193
652	0.193
652	0.192
653	0.193
653	0.195
653	0.201
654	0.158
654	0.126
655	0.127
655	0.127
656	0.128
656	0.128
657	0.129
657	0.129
657	0.129
658	0.128
658	0.117
659	0.148
659	0.19
660	0.195
660	0.195
661	0.195
661	0.194
661	0.194
662	0.193
662	0.193
663	0.193
663	0.193
664	0.192
664	0.192
665	0.192
665	0.192
665	0.192
666	0.192
666	0.192
667	0.193
667	0.193
668	0.194
668	0.194
669	0.195
669	0.195
669	0.196
670	0.197
670	0.197
671	0.197
671	0.197
672	0.196
672	0.196
672	0.196
673	0.195
673	0.195
674	0.195
674	0.194
675	0.193
675	0.193
676	0.193
676	0.193
676	0.193
677	0.193
677	0.192
678	0.192
678	0.192
679	0.192
679	0.192
680	0.192
680	0.192
680	0.192
681	0.192
681	0.193
682	0.193
682	0.194
683	0.195
683	0.195
684	0.196
684	0.196
684	0.196
685	0.196
685	0.196
686	0.196
686	0.196
687	0.195
687	0.195
687	0.195
688	0.195
688	0.195
689	0.196
689	0.196
690	0.196
690	0.195
691	0.195
691	0.196
691	0.196
692	0.195
692	0.195
693	0.195
693	0.196
694	0.195
694	0.195
695	0.195
695	0.196
695	0.196
696	0.196
696	0.195
697	0.195
697	0.195
698	0.195
698	0.194
698	0.194
699	0.194
699	0.194
700	0.193
700	0.194
701	0.195
701	0.195
702	0.195
702	0.196
702	0.196
703	0.196
703	0.197
704	0.197
704	0.197
705	0.198
705	0.197
705	0.198
706	0.198
706	0.198
707	0.198
707	0.198
708	0.199
708	0.199
709	0.199
709	0.199
709	0.199
710	0.199
710	0.199
711	0.2
711	0.2
712	0.2
712	0.199
713	0.199
713	0.199
713	0.198
714	0.198
714	0.198
715	0.198
715	0.197
716	0.197
716	0.197
716	0.196
717	0.196
717	0.196
718	0.195
718	0.195
719	0.195
719	0.196
720	0.196
720	0.197
720	0.197
721	0.198
721	0.199
722	0.199
722	0.2
723	0.201
723	0.201
723	0.202
724	0.202
724	0.202
725	0.201
725	0.201
726	0.2
726	0.2
727	0.199
727	0.199
727	0.198
728	0.198
728	0.197
729	0.198
729	0.197
730	0.197
730	0.197
730	0.198
731	0.198
731	0.199
732	0.199
732	0.2
733	0.2
733	0.2
734	0.2
734	0.201
734	0.201
735	0.202
735	0.202
736	0.202
736	0.202
737	0.202
737	0.203
737	0.203
738	0.203
738	0.202
739	0.202
739	0.202
740	0.201
740	0.201
741	0.201
741	0.201
741	0.201
742	0.201
742	0.202
743	0.203
743	0.203
744	0.204
744	0.205
744	0.205
745	0.205
745	0.206
746	0.206
746	0.206
747	0.206
747	0.206
748	0.206
748	0.206
748	0.206
749	0.205
749	0.205
750	0.205
750	0.204
751	0.204
751	0.204
751	0.204
752	0.203
752	0.202
753	0.202
753	0.201
754	0.201
754	0.201
754	0.201
755	0.201
755	0.201
756	0.201
756	0.2
757	0.2
757	0.2
758	0.201
758	0.201
758	0.201
759	0.202
759	0.202
760	0.202
760	0.202
761	0.203
761	0.204
761	0.204
762	0.205
762	0.205
763	0.205
763	0.205
764	0.204
764	0.204
764	0.204
765	0.204
765	0.204
766	0.204
766	0.204
767	0.203
767	0.203
768	0.202
768	0.202
768	0.202
769	0.203
769	0.203
770	0.203
770	0.204
771	0.204
771	0.205
771	0.205
772	0.206
772	0.207
773	0.207
773	0.208
774	0.208
774	0.209
775	0.209
775	0.209
775	0.209
776	0.21
776	0.21
777	0.21
777	0.21
778	0.21
778	0.21
778	0.21
779	0.211
779	0.21
780	0.21
780	0.21
781	0.209
781	0.209
781	0.209
782	0.209
782	0.209
783	0.21
783	0.21
784	0.211
784	0.211
784	0.212
785	0.212
785	0.213
786	0.213
786	0.213
787	0.213
787	0.213
788	0.212
788	0.211
788	0.21
789	0.209
789	0.209
790	0.209
790	0.208
791	0.207
791	0.207
791	0.206
792	0.207
792	0.208
793	0.208
793	0.208
794	0.208
794	0.208
794	0.209
795	0.209
795	0.21
796	0.21
796	0.21
797	0.21
797	0.211
797	0.211
798	0.211
798	0.211
799	0.211
799	0.211
800	0.211
800	0.211
801	0.211
801	0.211
801	0.211
802	0.211
802	0.211
803	0.211
803	0.212
804	0.212
804	0.213
804	0.212
805	0.212
805	0.212
806	0.212
806	0.211
807	0.211
807	0.211
807	0.211
808	0.211
808	0.211
809	0.211
809	0.211
810	0.212
810	0.212
810	0.213
811	0.213
811	0.214
812	0.215
812	0.215
813	0.216
813	0.216
813	0.217
814	0.218
814	0.219
815	0.219
815	0.22
816	0.22
816	0.22
817	0.219
817	0.22
817	0.22
818	0.22
818	0.22
819	0.22
819	0.219
820	0.219
820	0.218
820	0.218
821	0.218
821	0.218
822	0.218
822	0.218
823	0.218
823	0.218
823	0.218
824	0.219
824	0.219
825	0.22
825	0.221
826	0.221
826	0.221
826	0.221
827	0.221
827	0.222
828	0.222
828	0.222
829	0.222
829	0.222
829	0.222
830	0.222
830	0.222
831	0.223
831	0.223
832	0.223
832	0.223
832	0.223
833	0.223
833	0.222
834	0.222
834	0.222
835	0.222
835	0.222
835	0.222
836	0.222
836	0.222
837	0.222
837	0.222
838	0.222
838	0.221
839	0.221
839	0.22
839	0.219
840	0.218
840	0.217
841	0.216
841	0.215
842	0.214
842	0.214
842	0.213
843	0.212
843	0.212
844	0.211
844	0.211
845	0.211
845	0.21
845	0.21
846	0.21
846	0.21
847	0.211
847	0.211
848	0.212
848	0.213
848	0.214
849	0.215
849	0.216
850	0.217
850	0.217
851	0.218
851	0.218
851	0.218
852	0.218
852	0.218
853	0.217
853	0.217
854	0.217
854	0.217
854	0.218
855	0.218
855	0.218
856	0.219
856	0.219
857	0.22
857	0.22
857	0.221
858	0.221
858	0.221
859	0.22
859	0.219
860	0.218
860	0.217
860	0.217
861	0.216
861	0.215
862	0.215
862	0.214
863	0.213
863	0.213
863	0.213
864	0.214
864	0.214
865	0.214
865	0.215
866	0.215
866	0.215
866	0.215
867	0.216
867	0.217
868	0.217
868	0.218
869	0.218
869	0.218
869	0.218
870	0.218
870	0.219
871	0.219
871	0.219
872	0.219
872	0.219
872	0.219
873	0.219
873	0.218
874	0.217
874	0.217
875	0.216
875	0.216
875	0.215
876	0.214
876	0.214
877	0.214
877	0.213
878	0.213
878	0.213
878	0.214
879	0.214
879	0.214
880	0.214
880	0.215
881	0.215
881	0.215
881	0.215
882	0.215
882	0.215
883	0.215
883	0.215
884	0.215
884	0.215
884	0.215
885	0.214
885	0.214
886	0.213
886	0.213
887	0.212
887	0.211
887	0.21
888	0.21
888	0.209
889	0.208
889	0.208
890	0.208
890	0.208
890	0.207
891	0.207
891	0.207
892	0.207
892	0.207
893	0.207
893	0.207
893	0.207
894	0.207
894	0.207
895	0.207
895	0.207
895	0.207
896	0.208
896	0.208
897	0.208
897	0.208
898	0.208
898	0.208
898	0.208
899	0.208
899	0.207
900	0.207
900	0.206
901	0.206
901	0.205
901	0.204
902	0.204
902	0.203
903	0.202
903	0.201
904	0.201
904	0.2
904	0.199
905	0.199
905	0.199
906	0.198
906	0.198
907	0.198
907	0.198
907	0.198
908	0.198
908	0.198
909	0.198
909	0.197
910	0.197
910	0.197
910	0.197
911	0.196
911	0.196
912	0.196
912	0.196
913	0.196
913	0.196
913	0.196
914	0.196
914	0.196
915	0.197
915	0.197
916	0.197
916	0.197
916	0.197
917	0.197
917	0.197
918	0.196
918	0.196
918	0.196
919	0.195
919	0.195
920	0.195
920	0.194
921	0.194
921	0.194
921	0.193
922	0.193
922	0.193
923	0.193
923	0.193
924	0.194
924	0.194
924	0.194
925	0.195
925	0.195
926	0.195
926	0.196
927	0.196
927	0.196
927	0.196
928	0.196
928	0.195
929	0.195
929	0.194
930	0.194
930	0.193
930	0.192
931	0.191
931	0.19
932	0.189
932	0.189
933	0.188
933	0.188
933	0.187
934	0.187
934	0.187
935	0.186
935	0.186
935	0.186
936	0.186
936	0.186
937	0.186
937	0.185
938	0.185
938	0.185
938	0.185
939	0.184
939	0.183
940	0.183
940	0.182
941	0.182
941	0.182
941	0.181
942	0.181
942	0.181
943	0.181
943	0.18
944	0.18
944	0.18
944	0.18
945	0.18
945	0.18
946	0.181
946	0.181
946	0.181
947	0.181
947	0.181
948	0.181
948	0.181
949	0.181
949	0.18
949	0.179
950	0.179
950	0.178
951	0.178
951	0.177
952	0.176
952	0.176
952	0.175
953	0.175
953	0.175
954	0.174
954	0.174
955	0.174
955	0.174
955	0.174
956	0.174
956	0.174
957	0.174
957	0.174
957	0.173
958	0.173
958	0.173
959	0.172
959	0.172
960	0.171
960	0.171
960	0.17
961	0.17
961	0.169
962	0.169
962	0.169
963	0.169
963	0.169
963	0.169
964	0.169
964	0.17
965	0.17
965	0.17
966	0.17
966	0.17
966	0.17
967	0.17
967	0.17
968	0.169
968	0.169
968	0.168
969	0.167
969	0.167
970	0.166
970	0.165
971	0.164
971	0.164
971	0.163
972	0.162
972	0.162
973	0.161
973	0.161
974	0.16
974	0.16
974	0.16
975	0.16
975	0.16
976	0.16
976	0.161
976	0.161
977	0.161
977	0.161
978	0.16
978	0.16
979	0.16
979	0.16
979	0.16
980	0.159
980	0.159
981	0.158
981	0.158
982	0.157
982	0.157
982	0.157
983	0.157
983	0.156
984	0.156
984	0.156
984	0.155
985	0.155
985	0.155
986	0.155
986	0.155
987	0.154
987	0.154
987	0.154
988	0.153
988	0.153
989	0.152
989	0.152
990	0.152
990	0.151
990	0.15
991	0.15
991	0.149
992	0.149
992	0.148
992	0.147
993	0.146
993	0.145
994	0.144
994	0.144
995	0.143
995	0.143
995	0.143
996	0.143
996	0.143
997	0.143
997	0.144
997	0.144
998	0.145
998	0.145
999	0.146
999	0.147
1000	0.147
1000	0.148
1000	0.148
1001	0.148
1001	0.148
1002	0.147
1002	0.147
1003	0.147
1003	0.146
1003	0.145
1004	0.144
1004	0.144
1005	0.143
1005	0.142
1005	0.141
1006	0.141
1006	0.14
1007	0.14
1007	0.14
1008	0.14
1008	0.14
1008	0.14
1009	0.14
1009	0.14
1010	0.141
1010	0.141
1010	0.141
1011	0.141
1011	0.141
1012	0.141
1012	0.141
1013	0.141
1013	0.14
1013	0.14
1014	0.139
1014	0.139
1015	0.139
1015	0.139
1016	0.139
1016	0.138
1016	0.138
1017	0.137
1017	0.137
1018	0.137
1018	0.136
1018	0.136
1019	0.135
1019	0.135
1020	0.134
1020	0.134
1021	0.134
1021	0.134
1021	0.133
1022	0.134
1022	0.134
1023	0.134
1023	0.134
1023	0.134
1024	0.135
1024	0.135
1025	0.135
1025	0.135
1026	0.135
1026	0.134
1026	0.134
1027	0.134
1027	0.133
1028	0.133
1028	0.133
1028	0.133
1029	0.133
1029	0.132
1030	0.132
1030	0.132
1031	0.133
1031	0.133
1031	0.133
1032	0.133
1032	0.133
1033	0.134
1033	0.134
1033	0.134
1034	0.134
1034	0.133
1035	0.133
1035	0.133
1036	0.133
1036	0.133
1036	0.133
1037	0.133
1037	0.132
1038	0.132
1038	0.132
1039	0.132
1039	0.132
1039	0.133
1040	0.133
1040	0.133
1041	0.133
1041	0.132
1041	0.132
1042	0.132
1042	0.132
1043	0.132
1043	0.131
1044	0.131
1044	0.131
1044	0.131
1045	0.13
1045	0.13
1046	0.13
1046	0.13
1046	0.13
1047	0.13
1047	0.13
1048	0.13
1048	0.13
1049	0.13
1049	0.13
1049	0.13
1050	0.13
1050	0.129
1051	0.129
1051	0.128
1051	0.128
1052	0.127
1052	0.126
1053	0.125
1053	0.124
1053	0.123
1054	0.122
1054	0.122
1055	0.121
1055	0.12
1056	0.119
1056	0.119
1056	0.118
1057	0.117
1057	0.116
1058	0.116
1058	0.115
1058	0.114
1059	0.113
1059	0.113
1060	0.112
1060	0.112
1061	0.111
1061	0.111
1061	0.111
1062	0.11
1062	0.11
1063	0.11
1063	0.109
1063	0.109
1064	0.109
1064	0.109
1065	0.108
1065	0.108
1066	0.108
1066	0.108
1066	0.108
1067	0.107
1067	0.107
1068	0.107
1068	0.106
1068	0.106
1069	0.106
1069	0.105
1070	0.104
1070	0.103
1071	0.102
1071	0.102
1071	0.101
1072	0.1
1072	0.099
1073	0.098
1073	0.098
1073	0.097
1074	0.097
1074	0.097
1075	0.097
1075	0.097
1076	0.097
1076	0.098
1076	0.098
1077	0.098
1077	0.098
1078	0.097
1078	0.098
1078	0.097
1079	0.097
1079	0.097
1080	0.096
1080	0.095
1080	0.095
1081	0.095
1081	0.095
1082	0.096
1082	0.096
1083	0.096
1083	0.096
1083	0.096
1084	0.096
1084	0.096
1085	0.096
1085	0.096
1085	0.096
1086	0.095
1086	0.094
1087	0.093
1087	0.093
1088	0.092
1088	0.092
1088	0.093
1089	0.092
1089	0.091
1090	0.09
1090	0.09
1090	0.089
1091	0.089
1091	0.088
1092	0.088
1092	0.088
1092	0.088
1093	0.087
1093	0.087
1094	0.087
1094	0.088
1095	0.087
1095	0.086
1095	0.086
1096	0.085
1096	0.084
1097	0.083
1097	0.082
1097	0.081
1098	0.08
1098	0.078
1099	0.077
1099	0.075
1100	0.074
1100	0.073
1100	0.071
1101	0.07
1101	0.069
1102	0.069
1102	0.067
1102	0.065
1103	0.064
1103	0.063
1104	0.064
1104	0.064
1104	0.063
1105	0.062
1105	0.06
1106	0.057
1106	0.055
1107	0.054
1107	0.054
1107	0.053
1108	0.052
1108	0.05
1109	0.048
1109	0.047
1109	0.047
1110	0.048
1110	0.049
1111	0.049
1111	0.047
