Data from reversibility-20sec_Absorbance__4997__000000000004997.txt Node

Date: Wed Dec 06 15:58:46 CET 2023
User: Marek
Spectrometer: MAYP115816
Trigger mode: 0
Integration Time (sec): 2.000000E-1
Scans to average: 10
Electric dark correction enabled: true
Nonlinearity correction enabled: true
Boxcar width: 5
XAxis mode: Wavelengths
Number of Pixels in Spectrum: 2068
>>>>>Begin Spectral Data<<<<<
199	-0.209
199	-0.173
200	-0.106
200	-0.054
201	-0.027
201	-0.012
202	0.001
202	0.012
203	0.021
203	0.022
204	0.038
204	0.051
205	0.064
205	0.07
205	0.067
206	0.067
206	0.068
207	0.068
207	0.066
208	0.065
208	0.068
209	0.069
209	0.068
210	0.069
210	0.071
211	0.075
211	0.077
212	0.075
212	0.077
213	0.08
213	0.082
213	0.08
214	0.081
214	0.082
215	0.084
215	0.081
216	0.08
216	0.079
217	0.084
217	0.085
218	0.086
218	0.091
219	0.096
219	0.099
220	0.099
220	0.099
221	0.103
221	0.106
221	0.111
222	0.115
222	0.119
223	0.122
223	0.125
224	0.128
224	0.134
225	0.146
225	0.154
226	0.16
226	0.171
227	0.181
227	0.19
228	0.206
228	0.223
229	0.238
229	0.264
229	0.285
230	0.308
230	0.34
231	0.372
231	0.408
232	0.447
232	0.493
233	0.536
233	0.584
234	0.636
234	0.686
235	0.739
235	0.793
236	0.847
236	0.899
236	0.949
237	1
237	1.048
238	1.095
238	1.143
239	1.19
239	1.229
240	1.271
240	1.307
241	1.339
241	1.374
242	1.409
242	1.442
243	1.472
243	1.497
243	1.521
244	1.542
244	1.565
245	1.584
245	1.607
246	1.626
246	1.645
247	1.657
247	1.671
248	1.685
248	1.701
249	1.711
249	1.722
250	1.73
250	1.737
250	1.742
251	1.747
251	1.751
252	1.759
252	1.761
253	1.764
253	1.762
254	1.763
254	1.764
255	1.765
255	1.766
256	1.766
256	1.767
257	1.766
257	1.763
258	1.762
258	1.761
258	1.761
259	1.761
259	1.76
260	1.759
260	1.76
261	1.76
261	1.762
262	1.764
262	1.765
263	1.771
263	1.771
264	1.772
264	1.772
265	1.773
265	1.773
265	1.774
266	1.773
266	1.774
267	1.772
267	1.773
268	1.771
268	1.772
269	1.773
269	1.774
270	1.772
270	1.771
271	1.769
271	1.769
272	1.766
272	1.764
272	1.762
273	1.758
273	1.754
274	1.75
274	1.745
275	1.741
275	1.737
276	1.73
276	1.723
277	1.716
277	1.708
278	1.697
278	1.685
278	1.673
279	1.659
279	1.643
280	1.623
280	1.599
281	1.572
281	1.54
282	1.507
282	1.472
283	1.438
283	1.402
284	1.367
284	1.333
285	1.3
285	1.269
285	1.241
286	1.216
286	1.194
287	1.174
287	1.157
288	1.142
288	1.13
289	1.118
289	1.109
290	1.1
290	1.093
291	1.086
291	1.08
292	1.074
292	1.069
292	1.064
293	1.06
293	1.055
294	1.051
294	1.047
295	1.043
295	1.039
296	1.036
296	1.032
297	1.029
297	1.026
298	1.023
298	1.02
298	1.017
299	1.014
299	1.011
300	1.008
300	1.005
301	1.002
301	0.999
302	0.996
302	0.993
303	0.991
303	0.988
304	0.985
304	0.983
305	0.98
305	0.977
305	0.974
306	0.971
306	0.969
307	0.966
307	0.963
308	0.96
308	0.957
309	0.954
309	0.951
310	0.948
310	0.945
311	0.942
311	0.938
311	0.935
312	0.931
312	0.927
313	0.923
313	0.919
314	0.916
314	0.911
315	0.907
315	0.903
316	0.898
316	0.894
317	0.889
317	0.884
318	0.879
318	0.874
318	0.869
319	0.864
319	0.859
320	0.853
320	0.847
321	0.842
321	0.835
322	0.829
322	0.823
323	0.817
323	0.81
324	0.804
324	0.798
324	0.791
325	0.784
325	0.778
326	0.771
326	0.764
327	0.757
327	0.751
328	0.744
328	0.737
329	0.73
329	0.723
330	0.716
330	0.71
330	0.703
331	0.696
331	0.689
332	0.682
332	0.675
333	0.669
333	0.662
334	0.655
334	0.648
335	0.642
335	0.635
336	0.629
336	0.622
336	0.616
337	0.61
337	0.604
338	0.597
338	0.591
339	0.585
339	0.579
340	0.574
340	0.568
341	0.563
341	0.557
342	0.552
342	0.547
342	0.542
343	0.536
343	0.531
344	0.526
344	0.522
345	0.517
345	0.512
346	0.508
346	0.503
347	0.499
347	0.495
348	0.491
348	0.487
348	0.483
349	0.479
349	0.476
350	0.472
350	0.468
351	0.465
351	0.462
352	0.458
352	0.455
353	0.452
353	0.449
354	0.446
354	0.443
354	0.44
355	0.437
355	0.434
356	0.431
356	0.428
357	0.425
357	0.422
358	0.419
358	0.417
359	0.414
359	0.412
360	0.41
360	0.408
360	0.406
361	0.404
361	0.402
362	0.401
362	0.399
363	0.397
363	0.395
364	0.393
364	0.39
365	0.388
365	0.387
366	0.385
366	0.383
366	0.381
367	0.38
367	0.378
368	0.376
368	0.374
369	0.373
369	0.372
370	0.37
370	0.368
371	0.367
371	0.365
372	0.364
372	0.363
372	0.361
373	0.36
373	0.359
374	0.358
374	0.357
375	0.356
375	0.355
376	0.354
376	0.353
377	0.351
377	0.35
378	0.349
378	0.348
378	0.347
379	0.346
379	0.345
380	0.344
380	0.343
381	0.343
381	0.342
382	0.341
382	0.34
383	0.34
383	0.339
383	0.338
384	0.337
384	0.337
385	0.336
385	0.336
386	0.335
386	0.334
387	0.334
387	0.333
388	0.332
388	0.332
389	0.331
389	0.331
389	0.33
390	0.329
390	0.329
391	0.328
391	0.328
392	0.327
392	0.327
393	0.326
393	0.326
394	0.325
394	0.325
394	0.324
395	0.324
395	0.323
396	0.323
396	0.322
397	0.321
397	0.321
398	0.32
398	0.32
399	0.319
399	0.319
400	0.319
400	0.318
400	0.318
401	0.318
401	0.317
402	0.317
402	0.317
403	0.316
403	0.316
404	0.315
404	0.315
405	0.315
405	0.314
405	0.314
406	0.313
406	0.313
407	0.313
407	0.312
408	0.312
408	0.312
409	0.311
409	0.311
410	0.31
410	0.31
411	0.31
411	0.309
411	0.309
412	0.308
412	0.308
413	0.308
413	0.307
414	0.307
414	0.307
415	0.306
415	0.306
416	0.305
416	0.305
416	0.304
417	0.304
417	0.304
418	0.304
418	0.303
419	0.303
419	0.302
420	0.302
420	0.302
421	0.301
421	0.301
421	0.301
422	0.3
422	0.3
423	0.3
423	0.299
424	0.299
424	0.298
425	0.298
425	0.298
426	0.298
426	0.297
427	0.297
427	0.296
427	0.296
428	0.296
428	0.295
429	0.295
429	0.295
430	0.295
430	0.294
431	0.294
431	0.294
432	0.294
432	0.294
432	0.294
433	0.294
433	0.293
434	0.293
434	0.293
435	0.293
435	0.293
436	0.293
436	0.293
437	0.292
437	0.292
437	0.292
438	0.292
438	0.292
439	0.291
439	0.291
440	0.291
440	0.291
441	0.291
441	0.291
442	0.291
442	0.29
442	0.29
443	0.29
443	0.29
444	0.29
444	0.29
445	0.29
445	0.289
446	0.289
446	0.289
447	0.289
447	0.289
447	0.289
448	0.289
448	0.289
449	0.289
449	0.289
450	0.289
450	0.289
451	0.289
451	0.289
452	0.289
452	0.289
452	0.289
453	0.289
453	0.289
454	0.289
454	0.289
455	0.289
455	0.289
456	0.289
456	0.289
457	0.289
457	0.288
458	0.288
458	0.288
458	0.288
459	0.288
459	0.289
460	0.288
460	0.289
461	0.289
461	0.288
462	0.288
462	0.288
463	0.288
463	0.288
463	0.289
464	0.289
464	0.289
465	0.289
465	0.289
466	0.289
466	0.289
467	0.29
467	0.29
467	0.29
468	0.29
468	0.29
469	0.291
469	0.291
470	0.292
470	0.292
471	0.293
471	0.293
472	0.294
472	0.294
472	0.295
473	0.295
473	0.296
474	0.296
474	0.296
475	0.297
475	0.297
476	0.298
476	0.298
477	0.299
477	0.299
477	0.3
478	0.301
478	0.301
479	0.302
479	0.302
480	0.303
480	0.304
481	0.304
481	0.305
482	0.305
482	0.306
482	0.307
483	0.308
483	0.309
484	0.309
484	0.31
485	0.311
485	0.312
486	0.312
486	0.313
487	0.314
487	0.315
487	0.316
488	0.317
488	0.317
489	0.318
489	0.32
490	0.321
490	0.322
491	0.323
491	0.324
492	0.326
492	0.327
492	0.328
493	0.329
493	0.33
494	0.332
494	0.333
495	0.335
495	0.336
496	0.338
496	0.339
496	0.341
497	0.342
497	0.344
498	0.345
498	0.346
499	0.348
499	0.349
500	0.351
500	0.352
501	0.353
501	0.354
501	0.356
502	0.357
502	0.358
503	0.359
503	0.361
504	0.362
504	0.363
505	0.364
505	0.365
506	0.367
506	0.368
506	0.369
507	0.37
507	0.372
508	0.372
508	0.374
509	0.375
509	0.376
510	0.377
510	0.379
511	0.38
511	0.381
511	0.382
512	0.383
512	0.384
513	0.385
513	0.386
514	0.387
514	0.388
515	0.389
515	0.389
515	0.39
516	0.39
516	0.391
517	0.392
517	0.392
518	0.393
518	0.393
519	0.394
519	0.394
520	0.394
520	0.394
520	0.394
521	0.394
521	0.394
522	0.394
522	0.394
523	0.394
523	0.394
524	0.393
524	0.393
524	0.393
525	0.393
525	0.392
526	0.392
526	0.391
527	0.39
527	0.389
528	0.389
528	0.388
529	0.387
529	0.386
529	0.384
530	0.383
530	0.382
531	0.381
531	0.38
532	0.379
532	0.378
533	0.376
533	0.375
533	0.374
534	0.372
534	0.371
535	0.37
535	0.368
536	0.367
536	0.365
537	0.363
537	0.361
538	0.359
538	0.357
538	0.355
539	0.354
539	0.352
540	0.35
540	0.348
541	0.346
541	0.344
542	0.342
542	0.34
542	0.338
543	0.335
543	0.333
544	0.331
544	0.329
545	0.327
545	0.325
546	0.323
546	0.32
547	0.318
547	0.315
547	0.313
548	0.311
548	0.309
549	0.307
549	0.305
550	0.303
550	0.301
551	0.298
551	0.296
551	0.293
552	0.291
552	0.289
553	0.287
553	0.285
554	0.283
554	0.28
555	0.278
555	0.276
556	0.274
556	0.272
556	0.27
557	0.268
557	0.266
558	0.264
558	0.262
559	0.26
559	0.258
560	0.256
560	0.255
560	0.253
561	0.251
561	0.249
562	0.247
562	0.245
563	0.242
563	0.24
564	0.238
564	0.236
564	0.234
565	0.232
565	0.231
566	0.229
566	0.227
567	0.225
567	0.224
568	0.222
568	0.22
568	0.219
569	0.218
569	0.216
570	0.214
570	0.212
571	0.211
571	0.209
572	0.208
572	0.206
573	0.205
573	0.203
573	0.202
574	0.2
574	0.199
575	0.198
575	0.197
576	0.196
576	0.194
577	0.192
577	0.19
577	0.189
578	0.188
578	0.187
579	0.186
579	0.185
580	0.184
580	0.182
581	0.18
581	0.179
581	0.179
582	0.178
582	0.177
583	0.177
583	0.175
584	0.174
584	0.172
585	0.17
585	0.169
585	0.168
586	0.167
586	0.166
587	0.164
587	0.163
588	0.162
588	0.161
589	0.16
589	0.159
590	0.159
590	0.158
590	0.158
591	0.158
591	0.157
592	0.156
592	0.155
593	0.154
593	0.153
594	0.152
594	0.151
594	0.15
595	0.149
595	0.148
596	0.147
596	0.146
597	0.146
597	0.146
598	0.145
598	0.145
598	0.144
599	0.144
599	0.143
600	0.142
600	0.141
601	0.141
601	0.14
602	0.139
602	0.139
602	0.138
603	0.137
603	0.137
604	0.136
604	0.136
605	0.135
605	0.135
606	0.134
606	0.133
606	0.132
607	0.131
607	0.13
608	0.13
608	0.129
609	0.128
609	0.128
610	0.127
610	0.126
610	0.126
611	0.126
611	0.126
612	0.126
612	0.125
613	0.125
613	0.124
614	0.124
614	0.123
614	0.123
615	0.122
615	0.121
616	0.121
616	0.12
617	0.12
617	0.119
618	0.119
618	0.118
618	0.118
619	0.118
619	0.118
620	0.118
620	0.117
621	0.117
621	0.116
622	0.115
622	0.115
622	0.114
623	0.113
623	0.113
624	0.112
624	0.111
625	0.11
625	0.11
626	0.109
626	0.109
626	0.109
627	0.108
627	0.108
628	0.108
628	0.107
629	0.107
629	0.107
630	0.106
630	0.106
630	0.106
631	0.106
631	0.106
632	0.106
632	0.105
633	0.105
633	0.105
634	0.105
634	0.105
634	0.105
635	0.104
635	0.103
636	0.103
636	0.102
637	0.102
637	0.101
638	0.101
638	0.101
638	0.1
639	0.1
639	0.099
640	0.1
640	0.1
641	0.099
641	0.099
642	0.099
642	0.1
642	0.1
643	0.1
643	0.1
644	0.1
644	0.099
645	0.099
645	0.099
646	0.098
646	0.098
646	0.098
647	0.097
647	0.096
648	0.095
648	0.095
649	0.094
649	0.094
650	0.094
650	0.094
650	0.094
651	0.093
651	0.093
652	0.092
652	0.092
653	0.093
653	0.094
653	0.101
654	0.081
654	0.066
655	0.064
655	0.063
656	0.063
656	0.064
657	0.064
657	0.064
657	0.064
658	0.063
658	0.055
659	0.069
659	0.087
660	0.093
660	0.093
661	0.093
661	0.092
661	0.092
662	0.092
662	0.092
663	0.091
663	0.091
664	0.09
664	0.09
665	0.09
665	0.089
665	0.089
666	0.089
666	0.089
667	0.089
667	0.089
668	0.09
668	0.09
669	0.09
669	0.09
669	0.09
670	0.09
670	0.09
671	0.089
671	0.089
672	0.088
672	0.087
672	0.087
673	0.086
673	0.086
674	0.086
674	0.085
675	0.085
675	0.085
676	0.085
676	0.085
676	0.085
677	0.084
677	0.084
678	0.084
678	0.083
679	0.082
679	0.082
680	0.082
680	0.081
680	0.081
681	0.08
681	0.081
682	0.081
682	0.081
683	0.082
683	0.082
684	0.082
684	0.082
684	0.082
685	0.082
685	0.082
686	0.082
686	0.082
687	0.082
687	0.082
687	0.082
688	0.082
688	0.082
689	0.082
689	0.083
690	0.082
690	0.082
691	0.081
691	0.081
691	0.081
692	0.08
692	0.08
693	0.08
693	0.08
694	0.079
694	0.079
695	0.08
695	0.081
695	0.082
696	0.082
696	0.082
697	0.082
697	0.082
698	0.082
698	0.082
698	0.082
699	0.082
699	0.081
700	0.081
700	0.08
701	0.08
701	0.079
702	0.078
702	0.078
702	0.078
703	0.077
703	0.077
704	0.077
704	0.076
705	0.077
705	0.077
705	0.077
706	0.077
706	0.078
707	0.078
707	0.078
708	0.079
708	0.079
709	0.079
709	0.079
709	0.078
710	0.078
710	0.078
711	0.078
711	0.078
712	0.078
712	0.077
713	0.077
713	0.077
713	0.076
714	0.075
714	0.075
715	0.074
715	0.074
716	0.073
716	0.073
716	0.072
717	0.071
717	0.071
718	0.07
718	0.07
719	0.07
719	0.07
720	0.071
720	0.071
720	0.071
721	0.071
721	0.072
722	0.072
722	0.072
723	0.072
723	0.073
723	0.073
724	0.072
724	0.072
725	0.072
725	0.071
726	0.071
726	0.071
727	0.07
727	0.07
727	0.07
728	0.069
728	0.069
729	0.069
729	0.069
730	0.069
730	0.069
730	0.069
731	0.07
731	0.07
732	0.071
732	0.071
733	0.071
733	0.071
734	0.072
734	0.072
734	0.073
735	0.073
735	0.073
736	0.072
736	0.072
737	0.072
737	0.072
737	0.072
738	0.071
738	0.07
739	0.069
739	0.069
740	0.068
740	0.068
741	0.068
741	0.067
741	0.067
742	0.066
742	0.067
743	0.068
743	0.068
744	0.068
744	0.069
744	0.069
745	0.069
745	0.069
746	0.069
746	0.069
747	0.069
747	0.069
748	0.068
748	0.068
748	0.067
749	0.067
749	0.066
750	0.066
750	0.065
751	0.065
751	0.064
751	0.064
752	0.064
752	0.063
753	0.063
753	0.062
754	0.062
754	0.062
754	0.062
755	0.062
755	0.062
756	0.062
756	0.061
757	0.06
757	0.061
758	0.061
758	0.061
758	0.061
759	0.061
759	0.061
760	0.061
760	0.061
761	0.061
761	0.062
761	0.062
762	0.062
762	0.062
763	0.062
763	0.062
764	0.061
764	0.061
764	0.061
765	0.06
765	0.06
766	0.06
766	0.06
767	0.059
767	0.058
768	0.057
768	0.058
768	0.058
769	0.058
769	0.058
770	0.059
770	0.059
771	0.06
771	0.06
771	0.06
772	0.061
772	0.061
773	0.061
773	0.061
774	0.061
774	0.06
775	0.06
775	0.06
775	0.059
776	0.059
776	0.059
777	0.059
777	0.059
778	0.058
778	0.058
778	0.058
779	0.058
779	0.058
780	0.057
780	0.057
781	0.057
781	0.057
781	0.057
782	0.057
782	0.057
783	0.057
783	0.057
784	0.057
784	0.057
784	0.058
785	0.058
785	0.058
786	0.059
786	0.059
787	0.059
787	0.059
788	0.058
788	0.058
788	0.057
789	0.056
789	0.056
790	0.055
790	0.054
791	0.053
791	0.052
791	0.051
792	0.051
792	0.051
793	0.05
793	0.05
794	0.049
794	0.049
794	0.049
795	0.049
795	0.05
796	0.05
796	0.051
797	0.051
797	0.052
797	0.053
798	0.053
798	0.054
799	0.054
799	0.054
800	0.054
800	0.053
801	0.052
801	0.052
801	0.051
802	0.051
802	0.051
803	0.051
803	0.05
804	0.05
804	0.051
804	0.051
805	0.051
805	0.05
806	0.05
806	0.05
807	0.05
807	0.05
807	0.05
808	0.051
808	0.051
809	0.051
809	0.051
810	0.051
810	0.052
810	0.052
811	0.052
811	0.052
812	0.053
812	0.052
813	0.052
813	0.052
813	0.052
814	0.052
814	0.052
815	0.053
815	0.053
816	0.053
816	0.052
817	0.052
817	0.051
817	0.051
818	0.051
818	0.051
819	0.051
819	0.051
820	0.05
820	0.05
820	0.05
821	0.05
821	0.05
822	0.05
822	0.05
823	0.051
823	0.05
823	0.051
824	0.052
824	0.052
825	0.053
825	0.054
826	0.054
826	0.054
826	0.054
827	0.054
827	0.055
828	0.055
828	0.054
829	0.054
829	0.054
829	0.054
830	0.054
830	0.054
831	0.055
831	0.055
832	0.054
832	0.054
832	0.054
833	0.054
833	0.053
834	0.053
834	0.053
835	0.052
835	0.051
835	0.051
836	0.05
836	0.05
837	0.05
837	0.049
838	0.049
838	0.049
839	0.048
839	0.048
839	0.047
840	0.047
840	0.046
841	0.046
841	0.045
842	0.045
842	0.044
842	0.043
843	0.043
843	0.042
844	0.041
844	0.04
845	0.039
845	0.039
845	0.038
846	0.038
846	0.037
847	0.037
847	0.037
848	0.037
848	0.037
848	0.038
849	0.039
849	0.039
850	0.04
850	0.041
851	0.041
851	0.042
851	0.042
852	0.042
852	0.043
853	0.043
853	0.043
854	0.043
854	0.044
854	0.045
855	0.046
855	0.046
856	0.047
856	0.047
857	0.048
857	0.048
857	0.048
858	0.048
858	0.048
859	0.047
859	0.046
860	0.045
860	0.045
860	0.044
861	0.044
861	0.043
862	0.042
862	0.042
863	0.041
863	0.041
863	0.041
864	0.041
864	0.041
865	0.042
865	0.042
866	0.042
866	0.042
866	0.043
867	0.043
867	0.044
868	0.044
868	0.044
869	0.044
869	0.044
869	0.043
870	0.043
870	0.042
871	0.042
871	0.042
872	0.042
872	0.041
872	0.041
873	0.041
873	0.041
874	0.04
874	0.04
875	0.041
875	0.041
875	0.041
876	0.041
876	0.042
877	0.042
877	0.042
878	0.042
878	0.043
878	0.044
879	0.044
879	0.044
880	0.044
880	0.043
881	0.043
881	0.043
881	0.042
882	0.042
882	0.041
883	0.041
883	0.041
884	0.04
884	0.04
884	0.04
885	0.04
885	0.04
886	0.04
886	0.04
887	0.04
887	0.039
887	0.038
888	0.038
888	0.037
889	0.036
889	0.036
890	0.036
890	0.035
890	0.035
891	0.035
891	0.035
892	0.035
892	0.035
893	0.034
893	0.034
893	0.034
894	0.034
894	0.034
895	0.034
895	0.034
895	0.035
896	0.035
896	0.036
897	0.036
897	0.037
898	0.038
898	0.038
898	0.039
899	0.04
899	0.041
900	0.041
900	0.041
901	0.042
901	0.042
901	0.042
902	0.042
902	0.042
903	0.041
903	0.041
904	0.041
904	0.04
904	0.04
905	0.039
905	0.039
906	0.038
906	0.038
907	0.038
907	0.038
907	0.038
908	0.038
908	0.038
909	0.038
909	0.038
910	0.038
910	0.038
910	0.038
911	0.038
911	0.037
912	0.037
912	0.037
913	0.037
913	0.037
913	0.038
914	0.038
914	0.038
915	0.038
915	0.038
916	0.038
916	0.038
916	0.038
917	0.038
917	0.039
918	0.039
918	0.039
918	0.039
919	0.039
919	0.039
920	0.039
920	0.04
921	0.04
921	0.04
921	0.04
922	0.04
922	0.04
923	0.041
923	0.041
924	0.041
924	0.042
924	0.042
925	0.043
925	0.043
926	0.043
926	0.043
927	0.043
927	0.043
927	0.043
928	0.043
928	0.042
929	0.042
929	0.041
930	0.041
930	0.04
930	0.04
931	0.039
931	0.039
932	0.039
932	0.039
933	0.039
933	0.039
933	0.039
934	0.038
934	0.038
935	0.038
935	0.037
935	0.037
936	0.036
936	0.036
937	0.036
937	0.035
938	0.035
938	0.035
938	0.035
939	0.035
939	0.035
940	0.035
940	0.036
941	0.036
941	0.036
941	0.037
942	0.037
942	0.037
943	0.038
943	0.038
944	0.038
944	0.038
944	0.039
945	0.039
945	0.039
946	0.039
946	0.039
946	0.039
947	0.039
947	0.039
948	0.039
948	0.039
949	0.039
949	0.039
949	0.038
950	0.038
950	0.039
951	0.039
951	0.039
952	0.038
952	0.038
952	0.038
953	0.038
953	0.038
954	0.038
954	0.038
955	0.038
955	0.038
955	0.038
956	0.038
956	0.038
957	0.038
957	0.038
957	0.038
958	0.038
958	0.038
959	0.038
959	0.038
960	0.038
960	0.038
960	0.038
961	0.038
961	0.038
962	0.037
962	0.037
963	0.037
963	0.037
963	0.037
964	0.038
964	0.038
965	0.038
965	0.039
966	0.039
966	0.039
966	0.04
967	0.04
967	0.04
968	0.04
968	0.041
968	0.04
969	0.04
969	0.04
970	0.039
970	0.038
971	0.038
971	0.037
971	0.036
972	0.036
972	0.035
973	0.034
973	0.034
974	0.034
974	0.033
974	0.033
975	0.033
975	0.034
976	0.034
976	0.034
976	0.034
977	0.034
977	0.034
978	0.034
978	0.033
979	0.033
979	0.033
979	0.033
980	0.032
980	0.032
981	0.031
981	0.031
982	0.03
982	0.03
982	0.03
983	0.03
983	0.03
984	0.03
984	0.03
984	0.03
985	0.03
985	0.03
986	0.031
986	0.031
987	0.031
987	0.031
987	0.032
988	0.032
988	0.032
989	0.032
989	0.032
990	0.033
990	0.033
990	0.033
991	0.033
991	0.033
992	0.033
992	0.032
992	0.031
993	0.031
993	0.03
994	0.029
994	0.028
995	0.028
995	0.027
995	0.027
996	0.026
996	0.026
997	0.026
997	0.026
997	0.027
998	0.028
998	0.028
999	0.029
999	0.03
1000	0.031
1000	0.032
1000	0.032
1001	0.032
1001	0.033
1002	0.033
1002	0.032
1003	0.032
1003	0.032
1003	0.031
1004	0.031
1004	0.03
1005	0.029
1005	0.029
1005	0.028
1006	0.028
1006	0.028
1007	0.027
1007	0.027
1008	0.027
1008	0.027
1008	0.027
1009	0.027
1009	0.027
1010	0.027
1010	0.027
1010	0.027
1011	0.026
1011	0.026
1012	0.026
1012	0.025
1013	0.025
1013	0.025
1013	0.025
1014	0.024
1014	0.024
1015	0.025
1015	0.025
1016	0.025
1016	0.025
1016	0.026
1017	0.026
1017	0.026
1018	0.027
1018	0.027
1018	0.027
1019	0.028
1019	0.028
1020	0.028
1020	0.028
1021	0.028
1021	0.029
1021	0.029
1022	0.029
1022	0.029
1023	0.029
1023	0.029
1023	0.03
1024	0.03
1024	0.03
1025	0.029
1025	0.029
1026	0.03
1026	0.029
1026	0.03
1027	0.03
1027	0.03
1028	0.03
1028	0.03
1028	0.03
1029	0.031
1029	0.031
1030	0.032
1030	0.032
1031	0.032
1031	0.033
1031	0.033
1032	0.033
1032	0.033
1033	0.033
1033	0.032
1033	0.032
1034	0.032
1034	0.031
1035	0.031
1035	0.031
1036	0.03
1036	0.03
1036	0.031
1037	0.031
1037	0.031
1038	0.031
1038	0.031
1039	0.031
1039	0.031
1039	0.032
1040	0.032
1040	0.032
1041	0.032
1041	0.032
1041	0.031
1042	0.032
1042	0.031
1043	0.031
1043	0.031
1044	0.031
1044	0.031
1044	0.031
1045	0.031
1045	0.031
1046	0.031
1046	0.031
1046	0.032
1047	0.032
1047	0.032
1048	0.032
1048	0.033
1049	0.033
1049	0.033
1049	0.032
1050	0.032
1050	0.032
1051	0.032
1051	0.031
1051	0.031
1052	0.03
1052	0.03
1053	0.029
1053	0.028
1053	0.028
1054	0.027
1054	0.027
1055	0.027
1055	0.026
1056	0.026
1056	0.025
1056	0.024
1057	0.024
1057	0.024
1058	0.023
1058	0.022
1058	0.022
1059	0.022
1059	0.022
1060	0.021
1060	0.021
1061	0.02
1061	0.02
1061	0.02
1062	0.02
1062	0.02
1063	0.02
1063	0.019
1063	0.019
1064	0.019
1064	0.019
1065	0.019
1065	0.019
1066	0.018
1066	0.018
1066	0.018
1067	0.018
1067	0.018
1068	0.018
1068	0.018
1068	0.018
1069	0.017
1069	0.017
1070	0.017
1070	0.017
1071	0.016
1071	0.016
1071	0.016
1072	0.016
1072	0.016
1073	0.016
1073	0.015
1073	0.015
1074	0.016
1074	0.016
1075	0.016
1075	0.016
1076	0.016
1076	0.017
1076	0.017
1077	0.017
1077	0.017
1078	0.017
1078	0.017
1078	0.017
1079	0.016
1079	0.016
1080	0.015
1080	0.015
1080	0.015
1081	0.015
1081	0.015
1082	0.015
1082	0.016
1083	0.016
1083	0.016
1083	0.016
1084	0.016
1084	0.017
1085	0.017
1085	0.017
1085	0.018
1086	0.018
1086	0.018
1087	0.018
1087	0.019
1088	0.018
1088	0.018
1088	0.019
1089	0.018
1089	0.018
1090	0.017
1090	0.017
1090	0.016
1091	0.016
1091	0.016
1092	0.016
1092	0.016
1092	0.016
1093	0.015
1093	0.015
1094	0.015
1094	0.015
1095	0.014
1095	0.014
1095	0.014
1096	0.013
1096	0.012
1097	0.012
1097	0.012
1097	0.011
1098	0.011
1098	0.01
1099	0.009
1099	0.008
1100	0.007
1100	0.006
1100	0.004
1101	0.003
1101	0.002
1102	0.001
1102	-0.001
1102	-0.002
1103	-0.003
1103	-0.004
1104	-0.005
1104	-0.005
1104	-0.005
1105	-0.006
1105	-0.008
1106	-0.009
1106	-0.01
1107	-0.011
1107	-0.011
1107	-0.012
1108	-0.012
1108	-0.013
1109	-0.015
1109	-0.017
1109	-0.017
1110	-0.015
1110	-0.017
1111	-0.015
1111	-0.015
