Data from reversibility-20sec_Absorbance__8110__000000000008110.txt Node

Date: Thu Dec 07 09:16:25 CET 2023
User: Marek
Spectrometer: MAYP115816
Trigger mode: 0
Integration Time (sec): 2.000000E-1
Scans to average: 10
Electric dark correction enabled: true
Nonlinearity correction enabled: true
Boxcar width: 5
XAxis mode: Wavelengths
Number of Pixels in Spectrum: 2068
>>>>>Begin Spectral Data<<<<<
199	-0.114
199	-0.093
200	-0.043
200	0.003
201	0.03
201	0.045
202	0.053
202	0.063
203	0.07
203	0.073
204	0.085
204	0.096
205	0.107
205	0.113
205	0.114
206	0.113
206	0.114
207	0.117
207	0.117
208	0.117
208	0.119
209	0.119
209	0.119
210	0.119
210	0.123
211	0.124
211	0.127
212	0.125
212	0.125
213	0.126
213	0.128
213	0.127
214	0.131
214	0.132
215	0.134
215	0.133
216	0.134
216	0.132
217	0.137
217	0.14
218	0.142
218	0.145
219	0.149
219	0.151
220	0.154
220	0.155
221	0.156
221	0.157
221	0.165
222	0.169
222	0.174
223	0.18
223	0.187
224	0.189
224	0.195
225	0.203
225	0.214
226	0.227
226	0.238
227	0.248
227	0.258
228	0.271
228	0.284
229	0.299
229	0.324
229	0.349
230	0.371
230	0.399
231	0.429
231	0.466
232	0.501
232	0.547
233	0.59
233	0.638
234	0.69
234	0.745
235	0.798
235	0.855
236	0.907
236	0.956
236	1.005
237	1.059
237	1.107
238	1.152
238	1.201
239	1.246
239	1.284
240	1.325
240	1.358
241	1.394
241	1.432
242	1.466
242	1.497
243	1.525
243	1.551
243	1.576
244	1.599
244	1.623
245	1.639
245	1.663
246	1.681
246	1.696
247	1.709
247	1.721
248	1.736
248	1.751
249	1.759
249	1.766
250	1.771
250	1.782
250	1.785
251	1.792
251	1.794
252	1.8
252	1.801
253	1.803
253	1.801
254	1.802
254	1.803
255	1.805
255	1.806
256	1.804
256	1.804
257	1.803
257	1.803
258	1.803
258	1.802
258	1.803
259	1.803
259	1.802
260	1.8
260	1.8
261	1.801
261	1.802
262	1.804
262	1.803
263	1.806
263	1.805
264	1.804
264	1.806
265	1.807
265	1.807
265	1.805
266	1.804
266	1.804
267	1.804
267	1.805
268	1.804
268	1.804
269	1.805
269	1.804
270	1.802
270	1.801
271	1.801
271	1.802
272	1.799
272	1.796
272	1.793
273	1.789
273	1.784
274	1.781
274	1.777
275	1.771
275	1.766
276	1.757
276	1.749
277	1.742
277	1.733
278	1.723
278	1.712
278	1.699
279	1.685
279	1.669
280	1.648
280	1.623
281	1.595
281	1.562
282	1.527
282	1.489
283	1.451
283	1.413
284	1.376
284	1.339
285	1.304
285	1.271
285	1.242
286	1.216
286	1.193
287	1.172
287	1.154
288	1.138
288	1.125
289	1.113
289	1.103
290	1.094
290	1.086
291	1.079
291	1.073
292	1.067
292	1.061
292	1.056
293	1.052
293	1.047
294	1.043
294	1.039
295	1.036
295	1.032
296	1.028
296	1.024
297	1.021
297	1.018
298	1.014
298	1.011
298	1.008
299	1.005
299	1.001
300	0.998
300	0.995
301	0.992
301	0.989
302	0.986
302	0.983
303	0.98
303	0.977
304	0.975
304	0.972
305	0.969
305	0.966
305	0.964
306	0.961
306	0.958
307	0.956
307	0.953
308	0.95
308	0.947
309	0.943
309	0.94
310	0.937
310	0.934
311	0.93
311	0.927
311	0.923
312	0.919
312	0.915
313	0.911
313	0.907
314	0.903
314	0.899
315	0.894
315	0.89
316	0.885
316	0.881
317	0.876
317	0.871
318	0.865
318	0.86
318	0.855
319	0.849
319	0.843
320	0.837
320	0.831
321	0.825
321	0.818
322	0.812
322	0.805
323	0.799
323	0.792
324	0.786
324	0.779
324	0.772
325	0.765
325	0.758
326	0.751
326	0.744
327	0.737
327	0.73
328	0.723
328	0.716
329	0.708
329	0.701
330	0.694
330	0.686
330	0.679
331	0.671
331	0.664
332	0.657
332	0.65
333	0.643
333	0.636
334	0.628
334	0.621
335	0.615
335	0.608
336	0.601
336	0.594
336	0.587
337	0.581
337	0.575
338	0.568
338	0.562
339	0.556
339	0.55
340	0.544
340	0.538
341	0.532
341	0.526
342	0.52
342	0.515
342	0.509
343	0.504
343	0.498
344	0.493
344	0.488
345	0.483
345	0.478
346	0.473
346	0.469
347	0.464
347	0.46
348	0.456
348	0.452
348	0.448
349	0.444
349	0.44
350	0.437
350	0.433
351	0.43
351	0.427
352	0.423
352	0.42
353	0.417
353	0.414
354	0.411
354	0.408
354	0.404
355	0.401
355	0.398
356	0.395
356	0.392
357	0.389
357	0.386
358	0.383
358	0.38
359	0.378
359	0.376
360	0.374
360	0.372
360	0.369
361	0.367
361	0.365
362	0.363
362	0.362
363	0.36
363	0.358
364	0.356
364	0.354
365	0.351
365	0.349
366	0.348
366	0.346
366	0.344
367	0.342
367	0.341
368	0.339
368	0.337
369	0.336
369	0.334
370	0.333
370	0.331
371	0.33
371	0.328
372	0.327
372	0.325
372	0.324
373	0.323
373	0.322
374	0.321
374	0.32
375	0.319
375	0.318
376	0.317
376	0.316
377	0.315
377	0.314
378	0.313
378	0.311
378	0.311
379	0.31
379	0.309
380	0.308
380	0.307
381	0.306
381	0.305
382	0.305
382	0.304
383	0.303
383	0.303
383	0.302
384	0.302
384	0.301
385	0.3
385	0.3
386	0.299
386	0.299
387	0.298
387	0.298
388	0.297
388	0.296
389	0.296
389	0.296
389	0.295
390	0.294
390	0.294
391	0.293
391	0.293
392	0.292
392	0.292
393	0.291
393	0.291
394	0.29
394	0.29
394	0.289
395	0.289
395	0.289
396	0.288
396	0.288
397	0.287
397	0.287
398	0.286
398	0.286
399	0.286
399	0.285
400	0.285
400	0.284
400	0.284
401	0.283
401	0.283
402	0.283
402	0.282
403	0.282
403	0.282
404	0.281
404	0.281
405	0.28
405	0.28
405	0.28
406	0.28
406	0.279
407	0.279
407	0.279
408	0.278
408	0.278
409	0.278
409	0.278
410	0.277
410	0.277
411	0.277
411	0.276
411	0.276
412	0.276
412	0.275
413	0.275
413	0.274
414	0.274
414	0.274
415	0.273
415	0.273
416	0.273
416	0.272
416	0.272
417	0.272
417	0.272
418	0.271
418	0.271
419	0.27
419	0.27
420	0.269
420	0.269
421	0.268
421	0.268
421	0.268
422	0.267
422	0.267
423	0.266
423	0.266
424	0.266
424	0.266
425	0.265
425	0.265
426	0.265
426	0.265
427	0.264
427	0.264
427	0.263
428	0.263
428	0.263
429	0.262
429	0.262
430	0.261
430	0.261
431	0.261
431	0.261
432	0.26
432	0.26
432	0.26
433	0.26
433	0.26
434	0.26
434	0.26
435	0.26
435	0.259
436	0.259
436	0.259
437	0.259
437	0.258
437	0.258
438	0.258
438	0.258
439	0.258
439	0.257
440	0.257
440	0.257
441	0.257
441	0.256
442	0.256
442	0.256
442	0.256
443	0.256
443	0.256
444	0.256
444	0.255
445	0.255
445	0.255
446	0.255
446	0.255
447	0.254
447	0.254
447	0.254
448	0.254
448	0.254
449	0.254
449	0.254
450	0.254
450	0.253
451	0.253
451	0.253
452	0.253
452	0.253
452	0.253
453	0.253
453	0.253
454	0.253
454	0.253
455	0.252
455	0.252
456	0.252
456	0.252
457	0.252
457	0.252
458	0.252
458	0.252
458	0.252
459	0.252
459	0.252
460	0.252
460	0.252
461	0.252
461	0.252
462	0.252
462	0.252
463	0.252
463	0.252
463	0.252
464	0.252
464	0.252
465	0.252
465	0.252
466	0.252
466	0.252
467	0.252
467	0.252
467	0.252
468	0.252
468	0.253
469	0.253
469	0.254
470	0.254
470	0.254
471	0.254
471	0.254
472	0.255
472	0.255
472	0.255
473	0.256
473	0.256
474	0.256
474	0.256
475	0.256
475	0.256
476	0.257
476	0.257
477	0.257
477	0.257
477	0.258
478	0.258
478	0.258
479	0.259
479	0.259
480	0.26
480	0.26
481	0.261
481	0.261
482	0.261
482	0.262
482	0.262
483	0.263
483	0.263
484	0.264
484	0.264
485	0.264
485	0.265
486	0.265
486	0.265
487	0.266
487	0.267
487	0.267
488	0.268
488	0.269
489	0.269
489	0.271
490	0.272
490	0.273
491	0.274
491	0.275
492	0.276
492	0.277
492	0.278
493	0.279
493	0.28
494	0.281
494	0.282
495	0.283
495	0.284
496	0.284
496	0.286
496	0.287
497	0.288
497	0.289
498	0.29
498	0.291
499	0.292
499	0.293
500	0.294
500	0.295
501	0.296
501	0.296
501	0.297
502	0.298
502	0.299
503	0.3
503	0.301
504	0.302
504	0.303
505	0.304
505	0.305
506	0.306
506	0.307
506	0.308
507	0.309
507	0.31
508	0.31
508	0.311
509	0.312
509	0.312
510	0.313
510	0.314
511	0.315
511	0.316
511	0.317
512	0.317
512	0.318
513	0.319
513	0.32
514	0.321
514	0.321
515	0.322
515	0.322
515	0.323
516	0.323
516	0.324
517	0.325
517	0.325
518	0.326
518	0.326
519	0.326
519	0.327
520	0.327
520	0.327
520	0.327
521	0.327
521	0.327
522	0.327
522	0.327
523	0.327
523	0.327
524	0.327
524	0.326
524	0.326
525	0.326
525	0.326
526	0.325
526	0.325
527	0.324
527	0.324
528	0.324
528	0.323
529	0.322
529	0.322
529	0.321
530	0.32
530	0.319
531	0.318
531	0.317
532	0.316
532	0.315
533	0.314
533	0.313
533	0.312
534	0.311
534	0.31
535	0.309
535	0.308
536	0.307
536	0.306
537	0.304
537	0.303
538	0.302
538	0.301
538	0.299
539	0.298
539	0.297
540	0.296
540	0.294
541	0.293
541	0.291
542	0.29
542	0.288
542	0.287
543	0.285
543	0.284
544	0.282
544	0.281
545	0.279
545	0.278
546	0.276
546	0.274
547	0.273
547	0.271
547	0.269
548	0.268
548	0.266
549	0.265
549	0.263
550	0.262
550	0.26
551	0.259
551	0.257
551	0.255
552	0.254
552	0.252
553	0.251
553	0.249
554	0.247
554	0.245
555	0.244
555	0.242
556	0.24
556	0.239
556	0.238
557	0.236
557	0.235
558	0.234
558	0.233
559	0.232
559	0.23
560	0.229
560	0.228
560	0.227
561	0.226
561	0.224
562	0.222
562	0.221
563	0.219
563	0.217
564	0.215
564	0.214
564	0.212
565	0.211
565	0.21
566	0.208
566	0.207
567	0.206
567	0.205
568	0.203
568	0.202
568	0.201
569	0.2
569	0.199
570	0.197
570	0.195
571	0.194
571	0.193
572	0.192
572	0.19
573	0.189
573	0.188
573	0.187
574	0.186
574	0.185
575	0.184
575	0.183
576	0.182
576	0.181
577	0.18
577	0.179
577	0.178
578	0.176
578	0.176
579	0.175
579	0.175
580	0.174
580	0.172
581	0.171
581	0.17
581	0.17
582	0.169
582	0.169
583	0.168
583	0.167
584	0.166
584	0.164
585	0.163
585	0.162
585	0.162
586	0.161
586	0.16
587	0.159
587	0.158
588	0.158
588	0.157
589	0.156
589	0.156
590	0.156
590	0.155
590	0.155
591	0.155
591	0.154
592	0.153
592	0.152
593	0.151
593	0.15
594	0.149
594	0.148
594	0.147
595	0.147
595	0.146
596	0.145
596	0.144
597	0.145
597	0.145
598	0.144
598	0.144
598	0.143
599	0.143
599	0.142
600	0.142
600	0.141
601	0.14
601	0.14
602	0.139
602	0.138
602	0.137
603	0.137
603	0.137
604	0.136
604	0.136
605	0.136
605	0.135
606	0.135
606	0.134
606	0.133
607	0.133
607	0.132
608	0.132
608	0.131
609	0.13
609	0.13
610	0.129
610	0.129
610	0.128
611	0.128
611	0.128
612	0.128
612	0.128
613	0.128
613	0.128
614	0.127
614	0.127
614	0.127
615	0.127
615	0.126
616	0.126
616	0.126
617	0.126
617	0.125
618	0.125
618	0.125
618	0.125
619	0.124
619	0.124
620	0.124
620	0.124
621	0.123
621	0.122
622	0.122
622	0.121
622	0.121
623	0.12
623	0.12
624	0.119
624	0.119
625	0.118
625	0.118
626	0.118
626	0.118
626	0.118
627	0.118
627	0.118
628	0.117
628	0.117
629	0.117
629	0.117
630	0.116
630	0.116
630	0.116
631	0.116
631	0.115
632	0.115
632	0.114
633	0.114
633	0.114
634	0.114
634	0.114
634	0.114
635	0.113
635	0.113
636	0.112
636	0.112
637	0.112
637	0.111
638	0.111
638	0.11
638	0.109
639	0.109
639	0.108
640	0.108
640	0.108
641	0.108
641	0.108
642	0.108
642	0.108
642	0.108
643	0.108
643	0.108
644	0.108
644	0.108
645	0.108
645	0.109
646	0.109
646	0.109
646	0.108
647	0.108
647	0.108
648	0.107
648	0.106
649	0.106
649	0.105
650	0.105
650	0.105
650	0.105
651	0.105
651	0.105
652	0.105
652	0.105
653	0.106
653	0.107
653	0.112
654	0.09
654	0.073
655	0.071
655	0.071
656	0.071
656	0.072
657	0.072
657	0.072
657	0.072
658	0.071
658	0.064
659	0.079
659	0.1
660	0.105
660	0.106
661	0.105
661	0.104
661	0.104
662	0.103
662	0.103
663	0.102
663	0.102
664	0.102
664	0.101
665	0.101
665	0.101
665	0.101
666	0.101
666	0.101
667	0.101
667	0.101
668	0.101
668	0.101
669	0.101
669	0.101
669	0.101
670	0.101
670	0.101
671	0.101
671	0.101
672	0.1
672	0.1
672	0.099
673	0.099
673	0.098
674	0.098
674	0.098
675	0.098
675	0.098
676	0.098
676	0.098
676	0.098
677	0.098
677	0.099
678	0.099
678	0.098
679	0.098
679	0.098
680	0.098
680	0.098
680	0.097
681	0.097
681	0.097
682	0.097
682	0.097
683	0.097
683	0.098
684	0.098
684	0.097
684	0.097
685	0.097
685	0.098
686	0.098
686	0.098
687	0.098
687	0.098
687	0.098
688	0.098
688	0.098
689	0.099
689	0.099
690	0.099
690	0.099
691	0.098
691	0.098
691	0.098
692	0.098
692	0.098
693	0.099
693	0.099
694	0.099
694	0.099
695	0.099
695	0.1
695	0.101
696	0.101
696	0.101
697	0.101
697	0.101
698	0.1
698	0.1
698	0.1
699	0.1
699	0.099
700	0.098
700	0.098
701	0.098
701	0.097
702	0.097
702	0.096
702	0.096
703	0.095
703	0.095
704	0.094
704	0.094
705	0.093
705	0.093
705	0.092
706	0.092
706	0.092
707	0.092
707	0.092
708	0.092
708	0.093
709	0.093
709	0.093
709	0.093
710	0.093
710	0.094
711	0.095
711	0.095
712	0.095
712	0.096
713	0.096
713	0.096
713	0.096
714	0.095
714	0.095
715	0.095
715	0.094
716	0.094
716	0.093
716	0.092
717	0.092
717	0.091
718	0.091
718	0.091
719	0.091
719	0.091
720	0.092
720	0.092
720	0.093
721	0.093
721	0.094
722	0.095
722	0.095
723	0.095
723	0.095
723	0.095
724	0.095
724	0.094
725	0.093
725	0.092
726	0.092
726	0.091
727	0.09
727	0.09
727	0.089
728	0.089
728	0.088
729	0.089
729	0.089
730	0.089
730	0.089
730	0.089
731	0.09
731	0.09
732	0.09
732	0.09
733	0.09
733	0.091
734	0.091
734	0.091
734	0.092
735	0.092
735	0.092
736	0.092
736	0.092
737	0.091
737	0.091
737	0.091
738	0.091
738	0.09
739	0.089
739	0.089
740	0.089
740	0.089
741	0.089
741	0.09
741	0.09
742	0.09
742	0.091
743	0.092
743	0.092
744	0.093
744	0.093
744	0.093
745	0.093
745	0.092
746	0.092
746	0.092
747	0.091
747	0.091
748	0.09
748	0.09
748	0.09
749	0.09
749	0.09
750	0.09
750	0.09
751	0.091
751	0.091
751	0.091
752	0.091
752	0.09
753	0.09
753	0.089
754	0.089
754	0.088
754	0.088
755	0.088
755	0.087
756	0.086
756	0.085
757	0.085
757	0.085
758	0.085
758	0.085
758	0.085
759	0.085
759	0.085
760	0.085
760	0.085
761	0.085
761	0.086
761	0.086
762	0.086
762	0.086
763	0.086
763	0.086
764	0.085
764	0.085
764	0.085
765	0.084
765	0.084
766	0.084
766	0.083
767	0.083
767	0.082
768	0.081
768	0.081
768	0.081
769	0.081
769	0.081
770	0.082
770	0.082
771	0.082
771	0.082
771	0.083
772	0.083
772	0.084
773	0.084
773	0.084
774	0.084
774	0.084
775	0.085
775	0.085
775	0.085
776	0.085
776	0.085
777	0.086
777	0.086
778	0.086
778	0.086
778	0.085
779	0.085
779	0.084
780	0.083
780	0.082
781	0.081
781	0.08
781	0.08
782	0.079
782	0.078
783	0.078
783	0.079
784	0.078
784	0.078
784	0.079
785	0.079
785	0.079
786	0.08
786	0.08
787	0.08
787	0.08
788	0.08
788	0.08
788	0.079
789	0.079
789	0.079
790	0.079
790	0.078
791	0.078
791	0.077
791	0.077
792	0.077
792	0.077
793	0.077
793	0.076
794	0.076
794	0.076
794	0.076
795	0.076
795	0.076
796	0.076
796	0.076
797	0.076
797	0.076
797	0.076
798	0.076
798	0.076
799	0.076
799	0.076
800	0.075
800	0.075
801	0.075
801	0.075
801	0.075
802	0.075
802	0.075
803	0.075
803	0.076
804	0.076
804	0.076
804	0.076
805	0.076
805	0.076
806	0.076
806	0.075
807	0.075
807	0.075
807	0.075
808	0.075
808	0.075
809	0.074
809	0.075
810	0.075
810	0.075
810	0.075
811	0.075
811	0.076
812	0.076
812	0.076
813	0.076
813	0.076
813	0.077
814	0.077
814	0.077
815	0.078
815	0.077
816	0.077
816	0.077
817	0.076
817	0.076
817	0.076
818	0.075
818	0.075
819	0.074
819	0.073
820	0.073
820	0.072
820	0.072
821	0.072
821	0.072
822	0.072
822	0.072
823	0.072
823	0.072
823	0.073
824	0.074
824	0.075
825	0.077
825	0.078
826	0.078
826	0.078
826	0.079
827	0.079
827	0.08
828	0.08
828	0.08
829	0.08
829	0.079
829	0.079
830	0.079
830	0.078
831	0.079
831	0.079
832	0.078
832	0.078
832	0.078
833	0.078
833	0.077
834	0.077
834	0.077
835	0.077
835	0.076
835	0.076
836	0.075
836	0.075
837	0.075
837	0.074
838	0.074
838	0.074
839	0.073
839	0.072
839	0.072
840	0.071
840	0.07
841	0.069
841	0.069
842	0.068
842	0.067
842	0.066
843	0.066
843	0.065
844	0.064
844	0.064
845	0.064
845	0.063
845	0.063
846	0.063
846	0.063
847	0.063
847	0.064
848	0.064
848	0.064
848	0.064
849	0.064
849	0.064
850	0.064
850	0.063
851	0.063
851	0.063
851	0.063
852	0.062
852	0.062
853	0.062
853	0.062
854	0.062
854	0.063
854	0.064
855	0.065
855	0.066
856	0.067
856	0.068
857	0.069
857	0.07
857	0.071
858	0.072
858	0.072
859	0.072
859	0.072
860	0.072
860	0.072
860	0.072
861	0.071
861	0.071
862	0.07
862	0.069
863	0.068
863	0.068
863	0.068
864	0.067
864	0.067
865	0.067
865	0.067
866	0.067
866	0.067
866	0.067
867	0.067
867	0.067
868	0.067
868	0.068
869	0.068
869	0.068
869	0.067
870	0.067
870	0.067
871	0.067
871	0.067
872	0.067
872	0.067
872	0.066
873	0.066
873	0.065
874	0.065
874	0.064
875	0.064
875	0.064
875	0.064
876	0.063
876	0.063
877	0.063
877	0.063
878	0.063
878	0.063
878	0.063
879	0.063
879	0.063
880	0.063
880	0.064
881	0.064
881	0.064
881	0.064
882	0.064
882	0.064
883	0.064
883	0.064
884	0.065
884	0.065
884	0.065
885	0.065
885	0.064
886	0.064
886	0.064
887	0.064
887	0.064
887	0.063
888	0.063
888	0.062
889	0.062
889	0.062
890	0.063
890	0.063
890	0.063
891	0.063
891	0.063
892	0.063
892	0.063
893	0.063
893	0.062
893	0.062
894	0.061
894	0.061
895	0.06
895	0.06
895	0.06
896	0.059
896	0.059
897	0.059
897	0.059
898	0.059
898	0.059
898	0.059
899	0.059
899	0.06
900	0.059
900	0.059
901	0.059
901	0.059
901	0.06
902	0.059
902	0.059
903	0.059
903	0.059
904	0.059
904	0.059
904	0.059
905	0.059
905	0.058
906	0.058
906	0.058
907	0.058
907	0.058
907	0.058
908	0.058
908	0.058
909	0.057
909	0.057
910	0.057
910	0.057
910	0.056
911	0.056
911	0.055
912	0.055
912	0.054
913	0.054
913	0.053
913	0.053
914	0.053
914	0.053
915	0.053
915	0.053
916	0.053
916	0.053
916	0.053
917	0.053
917	0.053
918	0.053
918	0.053
918	0.053
919	0.053
919	0.054
920	0.054
920	0.054
921	0.054
921	0.054
921	0.054
922	0.054
922	0.055
923	0.055
923	0.055
924	0.055
924	0.055
924	0.055
925	0.055
925	0.055
926	0.055
926	0.055
927	0.055
927	0.055
927	0.056
928	0.056
928	0.056
929	0.056
929	0.057
930	0.057
930	0.058
930	0.058
931	0.058
931	0.058
932	0.058
932	0.058
933	0.059
933	0.058
933	0.058
934	0.058
934	0.057
935	0.057
935	0.056
935	0.056
936	0.055
936	0.055
937	0.054
937	0.053
938	0.053
938	0.052
938	0.051
939	0.051
939	0.05
940	0.05
940	0.05
941	0.051
941	0.051
941	0.052
942	0.052
942	0.053
943	0.053
943	0.054
944	0.054
944	0.055
944	0.055
945	0.055
945	0.055
946	0.055
946	0.055
946	0.054
947	0.054
947	0.054
948	0.053
948	0.053
949	0.053
949	0.052
949	0.052
950	0.052
950	0.052
951	0.052
951	0.051
952	0.051
952	0.051
952	0.051
953	0.05
953	0.05
954	0.05
954	0.05
955	0.051
955	0.05
955	0.051
956	0.052
956	0.052
957	0.053
957	0.054
957	0.055
958	0.055
958	0.056
959	0.057
959	0.057
960	0.058
960	0.058
960	0.058
961	0.058
961	0.058
962	0.058
962	0.058
963	0.058
963	0.057
963	0.057
964	0.057
964	0.057
965	0.056
965	0.056
966	0.056
966	0.056
966	0.056
967	0.056
967	0.056
968	0.056
968	0.056
968	0.056
969	0.056
969	0.055
970	0.054
970	0.054
971	0.053
971	0.052
971	0.051
972	0.05
972	0.049
973	0.049
973	0.048
974	0.048
974	0.048
974	0.048
975	0.048
975	0.048
976	0.049
976	0.049
976	0.049
977	0.049
977	0.049
978	0.048
978	0.048
979	0.048
979	0.048
979	0.048
980	0.048
980	0.048
981	0.048
981	0.048
982	0.049
982	0.049
982	0.05
983	0.05
983	0.051
984	0.052
984	0.052
984	0.052
985	0.052
985	0.053
986	0.052
986	0.052
987	0.052
987	0.052
987	0.052
988	0.052
988	0.051
989	0.051
989	0.051
990	0.051
990	0.051
990	0.051
991	0.05
991	0.05
992	0.05
992	0.049
992	0.049
993	0.048
993	0.047
994	0.046
994	0.046
995	0.045
995	0.045
995	0.044
996	0.044
996	0.044
997	0.044
997	0.044
997	0.045
998	0.045
998	0.046
999	0.047
999	0.048
1000	0.048
1000	0.049
1000	0.05
1001	0.05
1001	0.051
1002	0.051
1002	0.051
1003	0.051
1003	0.05
1003	0.05
1004	0.049
1004	0.048
1005	0.047
1005	0.047
1005	0.046
1006	0.045
1006	0.045
1007	0.045
1007	0.044
1008	0.044
1008	0.044
1008	0.043
1009	0.043
1009	0.043
1010	0.043
1010	0.043
1010	0.043
1011	0.043
1011	0.043
1012	0.042
1012	0.042
1013	0.042
1013	0.042
1013	0.042
1014	0.041
1014	0.041
1015	0.041
1015	0.041
1016	0.04
1016	0.04
1016	0.04
1017	0.04
1017	0.04
1018	0.04
1018	0.04
1018	0.04
1019	0.04
1019	0.04
1020	0.04
1020	0.041
1021	0.041
1021	0.042
1021	0.042
1022	0.043
1022	0.043
1023	0.043
1023	0.044
1023	0.044
1024	0.044
1024	0.044
1025	0.044
1025	0.044
1026	0.044
1026	0.044
1026	0.044
1027	0.044
1027	0.044
1028	0.044
1028	0.044
1028	0.044
1029	0.045
1029	0.045
1030	0.045
1030	0.045
1031	0.045
1031	0.046
1031	0.046
1032	0.046
1032	0.046
1033	0.046
1033	0.046
1033	0.046
1034	0.047
1034	0.046
1035	0.047
1035	0.046
1036	0.046
1036	0.046
1036	0.046
1037	0.046
1037	0.046
1038	0.046
1038	0.045
1039	0.045
1039	0.045
1039	0.045
1040	0.045
1040	0.045
1041	0.045
1041	0.044
1041	0.044
1042	0.044
1042	0.044
1043	0.043
1043	0.043
1044	0.043
1044	0.042
1044	0.041
1045	0.041
1045	0.04
1046	0.04
1046	0.04
1046	0.039
1047	0.039
1047	0.039
1048	0.038
1048	0.038
1049	0.038
1049	0.038
1049	0.037
1050	0.037
1050	0.037
1051	0.037
1051	0.036
1051	0.036
1052	0.036
1052	0.036
1053	0.035
1053	0.035
1053	0.034
1054	0.034
1054	0.034
1055	0.034
1055	0.034
1056	0.034
1056	0.033
1056	0.033
1057	0.032
1057	0.032
1058	0.032
1058	0.032
1058	0.031
1059	0.031
1059	0.031
1060	0.031
1060	0.031
1061	0.031
1061	0.03
1061	0.031
1062	0.031
1062	0.031
1063	0.032
1063	0.032
1063	0.032
1064	0.031
1064	0.031
1065	0.031
1065	0.032
1066	0.032
1066	0.032
1066	0.032
1067	0.032
1067	0.032
1068	0.032
1068	0.032
1068	0.032
1069	0.032
1069	0.032
1070	0.032
1070	0.031
1071	0.031
1071	0.031
1071	0.031
1072	0.031
1072	0.031
1073	0.031
1073	0.031
1073	0.031
1074	0.031
1074	0.031
1075	0.031
1075	0.032
1076	0.032
1076	0.032
1076	0.032
1077	0.032
1077	0.033
1078	0.032
1078	0.032
1078	0.032
1079	0.032
1079	0.032
1080	0.031
1080	0.031
1080	0.03
1081	0.03
1081	0.03
1082	0.03
1082	0.031
1083	0.031
1083	0.031
1083	0.031
1084	0.031
1084	0.031
1085	0.032
1085	0.032
1085	0.033
1086	0.033
1086	0.033
1087	0.032
1087	0.033
1088	0.033
1088	0.033
1088	0.033
1089	0.033
1089	0.032
1090	0.031
1090	0.031
1090	0.03
1091	0.03
1091	0.03
1092	0.03
1092	0.03
1092	0.03
1093	0.029
1093	0.03
1094	0.03
1094	0.029
1095	0.029
1095	0.029
1095	0.029
1096	0.028
1096	0.028
1097	0.027
1097	0.026
1097	0.026
1098	0.025
1098	0.025
1099	0.025
1099	0.023
1100	0.022
1100	0.021
1100	0.02
1101	0.02
1101	0.019
1102	0.019
1102	0.017
1102	0.015
1103	0.015
1103	0.014
1104	0.015
1104	0.014
1104	0.014
1105	0.013
1105	0.011
1106	0.01
1106	0.01
1107	0.01
1107	0.01
1107	0.01
1108	0.009
1108	0.009
1109	0.008
1109	0.007
1109	0.008
1110	0.009
1110	0.009
1111	0.009
1111	0.008
