Data from reversibility-20sec_Absorbance__7403__000000000007403.txt Node

Date: Thu Dec 07 05:20:47 CET 2023
User: Marek
Spectrometer: MAYP115816
Trigger mode: 0
Integration Time (sec): 2.000000E-1
Scans to average: 10
Electric dark correction enabled: true
Nonlinearity correction enabled: true
Boxcar width: 5
XAxis mode: Wavelengths
Number of Pixels in Spectrum: 2068
>>>>>Begin Spectral Data<<<<<
199	-0.145
199	-0.112
200	-0.046
200	0.007
201	0.036
201	0.047
202	0.057
202	0.065
203	0.074
203	0.077
204	0.094
204	0.106
205	0.116
205	0.12
205	0.118
206	0.121
206	0.123
207	0.125
207	0.125
208	0.123
208	0.122
209	0.12
209	0.12
210	0.121
210	0.123
211	0.124
211	0.124
212	0.121
212	0.124
213	0.126
213	0.127
213	0.131
214	0.136
214	0.136
215	0.136
215	0.135
216	0.135
216	0.132
217	0.136
217	0.135
218	0.137
218	0.14
219	0.142
219	0.14
220	0.146
220	0.147
221	0.149
221	0.153
221	0.157
222	0.164
222	0.167
223	0.173
223	0.177
224	0.186
224	0.196
225	0.202
225	0.216
226	0.227
226	0.239
227	0.251
227	0.259
228	0.277
228	0.29
229	0.307
229	0.329
229	0.349
230	0.373
230	0.4
231	0.431
231	0.467
232	0.503
232	0.546
233	0.588
233	0.637
234	0.69
234	0.743
235	0.797
235	0.851
236	0.898
236	0.952
236	1.005
237	1.059
237	1.111
238	1.159
238	1.202
239	1.248
239	1.288
240	1.329
240	1.363
241	1.4
241	1.432
242	1.462
242	1.495
243	1.522
243	1.544
243	1.573
244	1.594
244	1.613
245	1.63
245	1.653
246	1.673
246	1.69
247	1.704
247	1.716
248	1.729
248	1.742
249	1.749
249	1.755
250	1.764
250	1.773
250	1.778
251	1.782
251	1.784
252	1.789
252	1.79
253	1.791
253	1.791
254	1.792
254	1.796
255	1.795
255	1.796
256	1.793
256	1.792
257	1.792
257	1.791
258	1.79
258	1.791
258	1.79
259	1.79
259	1.788
260	1.786
260	1.786
261	1.787
261	1.788
262	1.79
262	1.789
263	1.793
263	1.794
264	1.795
264	1.795
265	1.797
265	1.797
265	1.796
266	1.797
266	1.796
267	1.795
267	1.795
268	1.794
268	1.795
269	1.796
269	1.795
270	1.793
270	1.793
271	1.79
271	1.789
272	1.786
272	1.784
272	1.782
273	1.778
273	1.774
274	1.768
274	1.764
275	1.757
275	1.752
276	1.745
276	1.739
277	1.732
277	1.722
278	1.71
278	1.698
278	1.683
279	1.67
279	1.652
280	1.631
280	1.606
281	1.575
281	1.54
282	1.503
282	1.465
283	1.427
283	1.389
284	1.352
284	1.314
285	1.278
285	1.246
285	1.216
286	1.189
286	1.166
287	1.146
287	1.128
288	1.112
288	1.099
289	1.087
289	1.077
290	1.069
290	1.061
291	1.054
291	1.048
292	1.042
292	1.037
292	1.033
293	1.028
293	1.024
294	1.02
294	1.016
295	1.013
295	1.01
296	1.006
296	1.002
297	0.999
297	0.996
298	0.993
298	0.989
298	0.986
299	0.982
299	0.979
300	0.976
300	0.973
301	0.97
301	0.967
302	0.964
302	0.961
303	0.958
303	0.956
304	0.954
304	0.951
305	0.949
305	0.946
305	0.943
306	0.941
306	0.938
307	0.936
307	0.933
308	0.93
308	0.927
309	0.924
309	0.92
310	0.917
310	0.914
311	0.911
311	0.907
311	0.904
312	0.9
312	0.896
313	0.892
313	0.888
314	0.884
314	0.88
315	0.876
315	0.872
316	0.867
316	0.862
317	0.858
317	0.853
318	0.848
318	0.843
318	0.838
319	0.832
319	0.827
320	0.821
320	0.815
321	0.809
321	0.803
322	0.796
322	0.79
323	0.783
323	0.777
324	0.77
324	0.763
324	0.757
325	0.75
325	0.743
326	0.736
326	0.729
327	0.722
327	0.715
328	0.709
328	0.702
329	0.694
329	0.687
330	0.68
330	0.673
330	0.666
331	0.658
331	0.651
332	0.644
332	0.637
333	0.63
333	0.624
334	0.617
334	0.61
335	0.603
335	0.596
336	0.589
336	0.583
336	0.576
337	0.569
337	0.563
338	0.557
338	0.55
339	0.545
339	0.538
340	0.532
340	0.527
341	0.521
341	0.515
342	0.51
342	0.504
342	0.499
343	0.493
343	0.488
344	0.483
344	0.478
345	0.473
345	0.468
346	0.464
346	0.459
347	0.455
347	0.45
348	0.446
348	0.442
348	0.438
349	0.434
349	0.43
350	0.427
350	0.423
351	0.419
351	0.416
352	0.413
352	0.41
353	0.406
353	0.403
354	0.401
354	0.398
354	0.395
355	0.392
355	0.389
356	0.386
356	0.383
357	0.38
357	0.377
358	0.374
358	0.372
359	0.369
359	0.367
360	0.365
360	0.363
360	0.361
361	0.359
361	0.357
362	0.356
362	0.354
363	0.352
363	0.35
364	0.348
364	0.346
365	0.344
365	0.342
366	0.341
366	0.339
366	0.337
367	0.335
367	0.333
368	0.332
368	0.33
369	0.328
369	0.327
370	0.326
370	0.324
371	0.323
371	0.321
372	0.32
372	0.319
372	0.317
373	0.316
373	0.315
374	0.314
374	0.313
375	0.312
375	0.311
376	0.31
376	0.309
377	0.308
377	0.307
378	0.306
378	0.305
378	0.305
379	0.304
379	0.303
380	0.302
380	0.301
381	0.301
381	0.3
382	0.299
382	0.299
383	0.298
383	0.297
383	0.297
384	0.296
384	0.295
385	0.295
385	0.295
386	0.294
386	0.293
387	0.293
387	0.292
388	0.292
388	0.292
389	0.291
389	0.291
389	0.291
390	0.29
390	0.29
391	0.289
391	0.289
392	0.288
392	0.288
393	0.287
393	0.286
394	0.286
394	0.286
394	0.285
395	0.285
395	0.284
396	0.284
396	0.283
397	0.283
397	0.283
398	0.283
398	0.282
399	0.282
399	0.281
400	0.281
400	0.281
400	0.28
401	0.28
401	0.279
402	0.279
402	0.279
403	0.278
403	0.278
404	0.278
404	0.277
405	0.277
405	0.277
405	0.276
406	0.276
406	0.276
407	0.276
407	0.275
408	0.275
408	0.275
409	0.274
409	0.274
410	0.274
410	0.273
411	0.273
411	0.273
411	0.273
412	0.272
412	0.272
413	0.271
413	0.271
414	0.271
414	0.271
415	0.27
415	0.27
416	0.269
416	0.269
416	0.268
417	0.268
417	0.268
418	0.268
418	0.267
419	0.267
419	0.266
420	0.266
420	0.265
421	0.265
421	0.264
421	0.264
422	0.264
422	0.263
423	0.263
423	0.263
424	0.262
424	0.262
425	0.262
425	0.262
426	0.262
426	0.261
427	0.261
427	0.261
427	0.26
428	0.26
428	0.259
429	0.259
429	0.258
430	0.258
430	0.258
431	0.258
431	0.257
432	0.257
432	0.257
432	0.257
433	0.257
433	0.257
434	0.257
434	0.257
435	0.256
435	0.256
436	0.256
436	0.256
437	0.256
437	0.255
437	0.255
438	0.255
438	0.255
439	0.255
439	0.255
440	0.254
440	0.254
441	0.254
441	0.253
442	0.253
442	0.253
442	0.253
443	0.253
443	0.252
444	0.252
444	0.252
445	0.252
445	0.252
446	0.252
446	0.251
447	0.251
447	0.251
447	0.251
448	0.251
448	0.251
449	0.251
449	0.251
450	0.251
450	0.251
451	0.25
451	0.251
452	0.251
452	0.25
452	0.25
453	0.25
453	0.25
454	0.25
454	0.25
455	0.25
455	0.249
456	0.249
456	0.249
457	0.249
457	0.249
458	0.249
458	0.249
458	0.249
459	0.248
459	0.248
460	0.248
460	0.248
461	0.248
461	0.248
462	0.248
462	0.248
463	0.248
463	0.248
463	0.248
464	0.248
464	0.248
465	0.248
465	0.248
466	0.248
466	0.248
467	0.248
467	0.248
467	0.248
468	0.248
468	0.249
469	0.249
469	0.249
470	0.25
470	0.25
471	0.25
471	0.25
472	0.25
472	0.25
472	0.251
473	0.251
473	0.251
474	0.251
474	0.251
475	0.251
475	0.251
476	0.251
476	0.251
477	0.252
477	0.252
477	0.252
478	0.253
478	0.253
479	0.253
479	0.254
480	0.254
480	0.255
481	0.255
481	0.255
482	0.256
482	0.256
482	0.256
483	0.257
483	0.257
484	0.258
484	0.258
485	0.258
485	0.258
486	0.259
486	0.259
487	0.259
487	0.26
487	0.26
488	0.261
488	0.261
489	0.262
489	0.263
490	0.264
490	0.265
491	0.266
491	0.267
492	0.268
492	0.269
492	0.27
493	0.271
493	0.271
494	0.272
494	0.273
495	0.274
495	0.274
496	0.275
496	0.276
496	0.277
497	0.278
497	0.279
498	0.279
498	0.28
499	0.281
499	0.282
500	0.283
500	0.284
501	0.285
501	0.286
501	0.287
502	0.287
502	0.288
503	0.289
503	0.29
504	0.291
504	0.292
505	0.293
505	0.294
506	0.295
506	0.296
506	0.296
507	0.298
507	0.298
508	0.299
508	0.3
509	0.3
509	0.301
510	0.302
510	0.303
511	0.303
511	0.304
511	0.305
512	0.306
512	0.306
513	0.307
513	0.308
514	0.308
514	0.309
515	0.309
515	0.31
515	0.31
516	0.31
516	0.311
517	0.312
517	0.312
518	0.312
518	0.313
519	0.313
519	0.313
520	0.313
520	0.313
520	0.313
521	0.313
521	0.313
522	0.313
522	0.313
523	0.313
523	0.313
524	0.313
524	0.313
524	0.313
525	0.313
525	0.313
526	0.313
526	0.312
527	0.312
527	0.312
528	0.311
528	0.311
529	0.31
529	0.31
529	0.309
530	0.308
530	0.308
531	0.307
531	0.306
532	0.305
532	0.304
533	0.303
533	0.302
533	0.302
534	0.301
534	0.3
535	0.299
535	0.298
536	0.297
536	0.297
537	0.295
537	0.294
538	0.293
538	0.292
538	0.291
539	0.29
539	0.289
540	0.288
540	0.287
541	0.286
541	0.285
542	0.284
542	0.283
542	0.282
543	0.28
543	0.279
544	0.278
544	0.276
545	0.275
545	0.274
546	0.272
546	0.271
547	0.269
547	0.268
547	0.266
548	0.265
548	0.263
549	0.262
549	0.261
550	0.26
550	0.258
551	0.257
551	0.255
551	0.254
552	0.253
552	0.252
553	0.251
553	0.249
554	0.248
554	0.247
555	0.245
555	0.244
556	0.242
556	0.241
556	0.24
557	0.239
557	0.238
558	0.237
558	0.236
559	0.235
559	0.234
560	0.233
560	0.232
560	0.231
561	0.23
561	0.229
562	0.227
562	0.225
563	0.224
563	0.222
564	0.221
564	0.22
564	0.219
565	0.218
565	0.216
566	0.215
566	0.214
567	0.213
567	0.212
568	0.211
568	0.21
568	0.209
569	0.208
569	0.206
570	0.205
570	0.204
571	0.203
571	0.202
572	0.2
572	0.199
573	0.198
573	0.198
573	0.197
574	0.196
574	0.195
575	0.195
575	0.194
576	0.193
576	0.192
577	0.191
577	0.19
577	0.189
578	0.188
578	0.188
579	0.187
579	0.187
580	0.186
580	0.185
581	0.183
581	0.183
581	0.182
582	0.182
582	0.181
583	0.181
583	0.18
584	0.179
584	0.177
585	0.176
585	0.176
585	0.175
586	0.175
586	0.174
587	0.173
587	0.173
588	0.172
588	0.172
589	0.171
589	0.171
590	0.17
590	0.17
590	0.17
591	0.169
591	0.168
592	0.167
592	0.166
593	0.166
593	0.165
594	0.164
594	0.163
594	0.162
595	0.162
595	0.161
596	0.16
596	0.16
597	0.16
597	0.16
598	0.16
598	0.16
598	0.159
599	0.159
599	0.158
600	0.158
600	0.157
601	0.157
601	0.156
602	0.155
602	0.155
602	0.154
603	0.154
603	0.154
604	0.154
604	0.154
605	0.153
605	0.153
606	0.153
606	0.152
606	0.151
607	0.151
607	0.15
608	0.15
608	0.149
609	0.148
609	0.147
610	0.147
610	0.146
610	0.146
611	0.146
611	0.145
612	0.145
612	0.146
613	0.146
613	0.146
614	0.145
614	0.145
614	0.145
615	0.145
615	0.145
616	0.145
616	0.145
617	0.144
617	0.144
618	0.144
618	0.143
618	0.143
619	0.143
619	0.143
620	0.143
620	0.142
621	0.142
621	0.141
622	0.141
622	0.14
622	0.14
623	0.139
623	0.139
624	0.138
624	0.138
625	0.137
625	0.137
626	0.137
626	0.137
626	0.137
627	0.137
627	0.137
628	0.137
628	0.136
629	0.136
629	0.136
630	0.136
630	0.136
630	0.135
631	0.135
631	0.134
632	0.134
632	0.133
633	0.133
633	0.133
634	0.133
634	0.133
634	0.133
635	0.132
635	0.132
636	0.132
636	0.132
637	0.132
637	0.132
638	0.132
638	0.131
638	0.131
639	0.131
639	0.13
640	0.13
640	0.13
641	0.13
641	0.13
642	0.13
642	0.13
642	0.13
643	0.13
643	0.13
644	0.13
644	0.13
645	0.13
645	0.13
646	0.13
646	0.13
646	0.13
647	0.129
647	0.129
648	0.128
648	0.127
649	0.127
649	0.126
650	0.126
650	0.126
650	0.126
651	0.126
651	0.126
652	0.126
652	0.126
653	0.127
653	0.129
653	0.134
654	0.107
654	0.087
655	0.085
655	0.085
656	0.085
656	0.086
657	0.086
657	0.086
657	0.086
658	0.085
658	0.077
659	0.096
659	0.122
660	0.127
660	0.127
661	0.127
661	0.127
661	0.126
662	0.126
662	0.125
663	0.124
663	0.124
664	0.124
664	0.123
665	0.123
665	0.123
665	0.123
666	0.123
666	0.123
667	0.123
667	0.124
668	0.124
668	0.124
669	0.125
669	0.125
669	0.125
670	0.126
670	0.125
671	0.125
671	0.125
672	0.124
672	0.124
672	0.123
673	0.123
673	0.123
674	0.122
674	0.122
675	0.122
675	0.122
676	0.122
676	0.122
676	0.122
677	0.122
677	0.123
678	0.123
678	0.122
679	0.122
679	0.122
680	0.122
680	0.122
680	0.122
681	0.122
681	0.123
682	0.123
682	0.123
683	0.123
683	0.124
684	0.124
684	0.124
684	0.124
685	0.124
685	0.124
686	0.124
686	0.124
687	0.124
687	0.124
687	0.123
688	0.124
688	0.124
689	0.124
689	0.125
690	0.124
690	0.124
691	0.124
691	0.124
691	0.124
692	0.124
692	0.125
693	0.125
693	0.125
694	0.125
694	0.125
695	0.125
695	0.126
695	0.126
696	0.126
696	0.126
697	0.126
697	0.126
698	0.126
698	0.126
698	0.126
699	0.126
699	0.126
700	0.125
700	0.125
701	0.125
701	0.124
702	0.124
702	0.123
702	0.123
703	0.122
703	0.121
704	0.12
704	0.12
705	0.12
705	0.12
705	0.12
706	0.12
706	0.12
707	0.121
707	0.121
708	0.121
708	0.121
709	0.122
709	0.121
709	0.121
710	0.121
710	0.121
711	0.121
711	0.121
712	0.121
712	0.121
713	0.121
713	0.121
713	0.121
714	0.121
714	0.121
715	0.12
715	0.12
716	0.119
716	0.119
716	0.118
717	0.118
717	0.118
718	0.118
718	0.118
719	0.118
719	0.119
720	0.119
720	0.12
720	0.121
721	0.122
721	0.123
722	0.124
722	0.124
723	0.124
723	0.124
723	0.124
724	0.123
724	0.123
725	0.122
725	0.121
726	0.12
726	0.12
727	0.119
727	0.118
727	0.118
728	0.118
728	0.118
729	0.119
729	0.119
730	0.119
730	0.119
730	0.12
731	0.12
731	0.121
732	0.121
732	0.122
733	0.121
733	0.122
734	0.122
734	0.122
734	0.122
735	0.122
735	0.122
736	0.122
736	0.121
737	0.121
737	0.121
737	0.121
738	0.121
738	0.12
739	0.12
739	0.12
740	0.12
740	0.12
741	0.12
741	0.121
741	0.121
742	0.121
742	0.122
743	0.123
743	0.123
744	0.123
744	0.123
744	0.123
745	0.123
745	0.122
746	0.122
746	0.122
747	0.121
747	0.121
748	0.121
748	0.121
748	0.121
749	0.121
749	0.122
750	0.122
750	0.122
751	0.122
751	0.122
751	0.122
752	0.122
752	0.122
753	0.121
753	0.121
754	0.12
754	0.12
754	0.119
755	0.119
755	0.119
756	0.118
756	0.117
757	0.117
757	0.117
758	0.116
758	0.116
758	0.117
759	0.117
759	0.117
760	0.116
760	0.116
761	0.117
761	0.117
761	0.118
762	0.118
762	0.118
763	0.118
763	0.118
764	0.117
764	0.117
764	0.117
765	0.117
765	0.116
766	0.116
766	0.115
767	0.115
767	0.114
768	0.114
768	0.114
768	0.114
769	0.114
769	0.114
770	0.115
770	0.115
771	0.115
771	0.115
771	0.116
772	0.116
772	0.117
773	0.117
773	0.117
774	0.117
774	0.118
775	0.118
775	0.119
775	0.119
776	0.119
776	0.12
777	0.121
777	0.121
778	0.121
778	0.12
778	0.12
779	0.12
779	0.119
780	0.117
780	0.116
781	0.115
781	0.113
781	0.113
782	0.112
782	0.111
783	0.111
783	0.111
784	0.111
784	0.111
784	0.112
785	0.112
785	0.113
786	0.113
786	0.113
787	0.114
787	0.113
788	0.113
788	0.113
788	0.113
789	0.112
789	0.112
790	0.112
790	0.112
791	0.111
791	0.111
791	0.111
792	0.111
792	0.11
793	0.11
793	0.109
794	0.109
794	0.108
794	0.108
795	0.108
795	0.108
796	0.108
796	0.108
797	0.107
797	0.108
797	0.108
798	0.108
798	0.109
799	0.109
799	0.109
800	0.108
800	0.108
801	0.108
801	0.109
801	0.109
802	0.109
802	0.109
803	0.109
803	0.109
804	0.11
804	0.11
804	0.11
805	0.11
805	0.11
806	0.11
806	0.11
807	0.11
807	0.109
807	0.109
808	0.109
808	0.109
809	0.108
809	0.108
810	0.108
810	0.108
810	0.108
811	0.108
811	0.108
812	0.108
812	0.108
813	0.108
813	0.108
813	0.108
814	0.108
814	0.108
815	0.108
815	0.108
816	0.108
816	0.107
817	0.107
817	0.106
817	0.106
818	0.106
818	0.106
819	0.105
819	0.105
820	0.104
820	0.104
820	0.103
821	0.103
821	0.103
822	0.103
822	0.103
823	0.103
823	0.102
823	0.103
824	0.103
824	0.104
825	0.106
825	0.107
826	0.107
826	0.108
826	0.109
827	0.109
827	0.11
828	0.11
828	0.11
829	0.111
829	0.111
829	0.111
830	0.111
830	0.111
831	0.112
831	0.112
832	0.112
832	0.112
832	0.112
833	0.112
833	0.111
834	0.111
834	0.11
835	0.109
835	0.109
835	0.108
836	0.108
836	0.107
837	0.106
837	0.106
838	0.105
838	0.104
839	0.103
839	0.102
839	0.101
840	0.1
840	0.099
841	0.098
841	0.097
842	0.096
842	0.096
842	0.095
843	0.094
843	0.094
844	0.093
844	0.093
845	0.092
845	0.092
845	0.092
846	0.092
846	0.093
847	0.093
847	0.093
848	0.094
848	0.094
848	0.094
849	0.094
849	0.094
850	0.094
850	0.093
851	0.093
851	0.092
851	0.092
852	0.091
852	0.091
853	0.091
853	0.091
854	0.091
854	0.092
854	0.093
855	0.094
855	0.095
856	0.096
856	0.097
857	0.098
857	0.099
857	0.099
858	0.1
858	0.099
859	0.099
859	0.099
860	0.098
860	0.098
860	0.097
861	0.096
861	0.096
862	0.095
862	0.094
863	0.094
863	0.094
863	0.094
864	0.094
864	0.094
865	0.094
865	0.094
866	0.094
866	0.094
866	0.094
867	0.095
867	0.095
868	0.095
868	0.095
869	0.095
869	0.094
869	0.094
870	0.094
870	0.093
871	0.093
871	0.093
872	0.093
872	0.092
872	0.092
873	0.091
873	0.091
874	0.09
874	0.09
875	0.09
875	0.09
875	0.089
876	0.089
876	0.089
877	0.089
877	0.089
878	0.089
878	0.089
878	0.089
879	0.089
879	0.089
880	0.089
880	0.089
881	0.089
881	0.089
881	0.089
882	0.089
882	0.089
883	0.089
883	0.089
884	0.089
884	0.089
884	0.089
885	0.089
885	0.089
886	0.088
886	0.088
887	0.088
887	0.088
887	0.087
888	0.087
888	0.087
889	0.087
889	0.087
890	0.087
890	0.087
890	0.087
891	0.087
891	0.087
892	0.087
892	0.086
893	0.086
893	0.085
893	0.085
894	0.084
894	0.083
895	0.083
895	0.083
895	0.083
896	0.083
896	0.083
897	0.083
897	0.084
898	0.084
898	0.084
898	0.085
899	0.085
899	0.085
900	0.085
900	0.085
901	0.085
901	0.085
901	0.084
902	0.084
902	0.084
903	0.083
903	0.083
904	0.083
904	0.083
904	0.082
905	0.082
905	0.081
906	0.081
906	0.081
907	0.08
907	0.081
907	0.08
908	0.08
908	0.08
909	0.079
909	0.079
910	0.079
910	0.079
910	0.078
911	0.078
911	0.078
912	0.077
912	0.077
913	0.076
913	0.076
913	0.076
914	0.076
914	0.075
915	0.075
915	0.075
916	0.075
916	0.075
916	0.074
917	0.074
917	0.074
918	0.073
918	0.073
918	0.073
919	0.072
919	0.072
920	0.072
920	0.071
921	0.071
921	0.071
921	0.071
922	0.071
922	0.071
923	0.071
923	0.072
924	0.072
924	0.073
924	0.073
925	0.074
925	0.074
926	0.074
926	0.075
927	0.075
927	0.075
927	0.075
928	0.076
928	0.076
929	0.076
929	0.077
930	0.077
930	0.077
930	0.077
931	0.077
931	0.077
932	0.077
932	0.077
933	0.077
933	0.077
933	0.076
934	0.075
934	0.075
935	0.074
935	0.074
935	0.073
936	0.073
936	0.072
937	0.071
937	0.071
938	0.07
938	0.069
938	0.068
939	0.068
939	0.067
940	0.067
940	0.067
941	0.067
941	0.067
941	0.067
942	0.068
942	0.068
943	0.068
943	0.069
944	0.069
944	0.07
944	0.07
945	0.071
945	0.071
946	0.072
946	0.072
946	0.073
947	0.073
947	0.073
948	0.073
948	0.073
949	0.072
949	0.072
949	0.071
950	0.071
950	0.07
951	0.069
951	0.068
952	0.067
952	0.066
952	0.066
953	0.065
953	0.065
954	0.064
954	0.064
955	0.064
955	0.064
955	0.064
956	0.065
956	0.065
957	0.066
957	0.066
957	0.067
958	0.068
958	0.068
959	0.069
959	0.069
960	0.069
960	0.069
960	0.069
961	0.069
961	0.069
962	0.069
962	0.068
963	0.068
963	0.067
963	0.067
964	0.067
964	0.066
965	0.066
965	0.066
966	0.066
966	0.066
966	0.067
967	0.067
967	0.067
968	0.067
968	0.067
968	0.068
969	0.067
969	0.067
970	0.066
970	0.066
971	0.065
971	0.064
971	0.063
972	0.063
972	0.062
973	0.062
973	0.061
974	0.061
974	0.061
974	0.061
975	0.062
975	0.062
976	0.063
976	0.063
976	0.064
977	0.064
977	0.064
978	0.065
978	0.065
979	0.065
979	0.066
979	0.066
980	0.066
980	0.066
981	0.066
981	0.066
982	0.066
982	0.066
982	0.065
983	0.065
983	0.065
984	0.065
984	0.064
984	0.064
985	0.064
985	0.064
986	0.063
986	0.063
987	0.063
987	0.063
987	0.062
988	0.062
988	0.062
989	0.062
989	0.061
990	0.061
990	0.061
990	0.061
991	0.06
991	0.06
992	0.059
992	0.059
992	0.058
993	0.057
993	0.056
994	0.055
994	0.055
995	0.054
995	0.054
995	0.053
996	0.053
996	0.053
997	0.053
997	0.054
997	0.054
998	0.054
998	0.055
999	0.055
999	0.056
1000	0.056
1000	0.056
1000	0.057
1001	0.056
1001	0.057
1002	0.056
1002	0.056
1003	0.056
1003	0.056
1003	0.055
1004	0.055
1004	0.054
1005	0.054
1005	0.053
1005	0.053
1006	0.052
1006	0.052
1007	0.052
1007	0.051
1008	0.051
1008	0.05
1008	0.05
1009	0.05
1009	0.05
1010	0.05
1010	0.05
1010	0.05
1011	0.05
1011	0.05
1012	0.049
1012	0.049
1013	0.049
1013	0.048
1013	0.048
1014	0.048
1014	0.048
1015	0.048
1015	0.048
1016	0.048
1016	0.048
1016	0.048
1017	0.048
1017	0.049
1018	0.049
1018	0.049
1018	0.049
1019	0.049
1019	0.05
1020	0.05
1020	0.05
1021	0.051
1021	0.051
1021	0.051
1022	0.052
1022	0.052
1023	0.052
1023	0.052
1023	0.053
1024	0.053
1024	0.053
1025	0.053
1025	0.053
1026	0.053
1026	0.053
1026	0.053
1027	0.053
1027	0.053
1028	0.053
1028	0.053
1028	0.053
1029	0.053
1029	0.053
1030	0.053
1030	0.053
1031	0.054
1031	0.054
1031	0.054
1032	0.054
1032	0.055
1033	0.055
1033	0.055
1033	0.055
1034	0.056
1034	0.056
1035	0.056
1035	0.056
1036	0.056
1036	0.056
1036	0.056
1037	0.056
1037	0.056
1038	0.056
1038	0.055
1039	0.055
1039	0.055
1039	0.055
1040	0.055
1040	0.054
1041	0.054
1041	0.054
1041	0.054
1042	0.054
1042	0.053
1043	0.053
1043	0.053
1044	0.052
1044	0.052
1044	0.052
1045	0.052
1045	0.051
1046	0.051
1046	0.051
1046	0.05
1047	0.05
1047	0.05
1048	0.05
1048	0.05
1049	0.05
1049	0.05
1049	0.05
1050	0.05
1050	0.049
1051	0.049
1051	0.049
1051	0.049
1052	0.048
1052	0.048
1053	0.047
1053	0.046
1053	0.046
1054	0.045
1054	0.045
1055	0.044
1055	0.044
1056	0.043
1056	0.043
1056	0.043
1057	0.043
1057	0.042
1058	0.042
1058	0.041
1058	0.041
1059	0.041
1059	0.041
1060	0.04
1060	0.04
1061	0.04
1061	0.04
1061	0.04
1062	0.04
1062	0.04
1063	0.04
1063	0.04
1063	0.04
1064	0.04
1064	0.04
1065	0.04
1065	0.04
1066	0.04
1066	0.04
1066	0.04
1067	0.039
1067	0.039
1068	0.039
1068	0.039
1068	0.039
1069	0.039
1069	0.039
1070	0.039
1070	0.039
1071	0.038
1071	0.038
1071	0.038
1072	0.038
1072	0.038
1073	0.038
1073	0.037
1073	0.037
1074	0.038
1074	0.038
1075	0.037
1075	0.038
1076	0.038
1076	0.039
1076	0.039
1077	0.039
1077	0.04
1078	0.04
1078	0.04
1078	0.041
1079	0.041
1079	0.041
1080	0.041
1080	0.041
1080	0.041
1081	0.041
1081	0.041
1082	0.041
1082	0.041
1083	0.041
1083	0.041
1083	0.041
1084	0.041
1084	0.041
1085	0.041
1085	0.041
1085	0.042
1086	0.042
1086	0.041
1087	0.041
1087	0.04
1088	0.04
1088	0.04
1088	0.04
1089	0.039
1089	0.039
1090	0.038
1090	0.037
1090	0.036
1091	0.037
1091	0.037
1092	0.037
1092	0.037
1092	0.037
1093	0.036
1093	0.036
1094	0.036
1094	0.036
1095	0.036
1095	0.036
1095	0.035
1096	0.034
1096	0.034
1097	0.033
1097	0.032
1097	0.032
1098	0.032
1098	0.03
1099	0.029
1099	0.028
1100	0.027
1100	0.026
1100	0.025
1101	0.024
1101	0.023
1102	0.022
1102	0.021
1102	0.02
1103	0.02
1103	0.02
1104	0.019
1104	0.019
1104	0.019
1105	0.018
1105	0.017
1106	0.017
1106	0.016
1107	0.015
1107	0.015
1107	0.014
1108	0.013
1108	0.013
1109	0.012
1109	0.012
1109	0.011
1110	0.012
1110	0.009
1111	0.01
1111	0.012
