Data from reversibility-20sec_Absorbance__6809__000000000006809.txt Node

Date: Thu Dec 07 02:02:45 CET 2023
User: Marek
Spectrometer: MAYP115816
Trigger mode: 0
Integration Time (sec): 2.000000E-1
Scans to average: 10
Electric dark correction enabled: true
Nonlinearity correction enabled: true
Boxcar width: 5
XAxis mode: Wavelengths
Number of Pixels in Spectrum: 2068
>>>>>Begin Spectral Data<<<<<
199	-0.179
199	-0.154
200	-0.087
200	-0.039
201	-0.012
201	0.005
202	0.017
202	0.025
203	0.035
203	0.04
204	0.054
204	0.069
205	0.079
205	0.085
205	0.085
206	0.087
206	0.088
207	0.09
207	0.093
208	0.09
208	0.089
209	0.09
209	0.088
210	0.09
210	0.091
211	0.093
211	0.095
212	0.093
212	0.095
213	0.097
213	0.099
213	0.1
214	0.102
214	0.103
215	0.103
215	0.102
216	0.103
216	0.104
217	0.109
217	0.11
218	0.111
218	0.115
219	0.117
219	0.117
220	0.12
220	0.123
221	0.127
221	0.13
221	0.133
222	0.138
222	0.143
223	0.148
223	0.152
224	0.16
224	0.169
225	0.177
225	0.188
226	0.196
226	0.206
227	0.217
227	0.226
228	0.243
228	0.257
229	0.273
229	0.296
229	0.321
230	0.344
230	0.374
231	0.407
231	0.444
232	0.483
232	0.526
233	0.571
233	0.62
234	0.672
234	0.726
235	0.778
235	0.835
236	0.884
236	0.934
236	0.986
237	1.034
237	1.083
238	1.127
238	1.172
239	1.216
239	1.254
240	1.294
240	1.33
241	1.365
241	1.4
242	1.432
242	1.467
243	1.496
243	1.522
243	1.549
244	1.571
244	1.594
245	1.613
245	1.634
246	1.652
246	1.668
247	1.683
247	1.694
248	1.71
248	1.726
249	1.733
249	1.742
250	1.749
250	1.757
250	1.759
251	1.767
251	1.769
252	1.773
252	1.776
253	1.777
253	1.774
254	1.775
254	1.778
255	1.777
255	1.778
256	1.779
256	1.778
257	1.779
257	1.779
258	1.777
258	1.778
258	1.777
259	1.777
259	1.776
260	1.776
260	1.777
261	1.776
261	1.778
262	1.779
262	1.78
263	1.783
263	1.782
264	1.784
264	1.785
265	1.785
265	1.785
265	1.784
266	1.785
266	1.786
267	1.783
267	1.784
268	1.783
268	1.785
269	1.786
269	1.785
270	1.783
270	1.783
271	1.781
271	1.781
272	1.777
272	1.777
272	1.774
273	1.77
273	1.765
274	1.761
274	1.756
275	1.751
275	1.746
276	1.74
276	1.733
277	1.726
277	1.716
278	1.705
278	1.696
278	1.683
279	1.669
279	1.652
280	1.632
280	1.608
281	1.579
281	1.547
282	1.512
282	1.476
283	1.439
283	1.403
284	1.367
284	1.331
285	1.297
285	1.266
285	1.237
286	1.211
286	1.189
287	1.168
287	1.151
288	1.136
288	1.122
289	1.111
289	1.101
290	1.092
290	1.084
291	1.078
291	1.071
292	1.065
292	1.06
292	1.056
293	1.051
293	1.046
294	1.042
294	1.038
295	1.034
295	1.031
296	1.027
296	1.023
297	1.02
297	1.017
298	1.013
298	1.01
298	1.007
299	1.003
299	1
300	0.997
300	0.994
301	0.99
301	0.987
302	0.984
302	0.981
303	0.979
303	0.976
304	0.974
304	0.971
305	0.968
305	0.965
305	0.962
306	0.96
306	0.957
307	0.954
307	0.952
308	0.949
308	0.945
309	0.942
309	0.939
310	0.935
310	0.933
311	0.929
311	0.926
311	0.922
312	0.918
312	0.914
313	0.911
313	0.907
314	0.903
314	0.898
315	0.894
315	0.89
316	0.885
316	0.88
317	0.876
317	0.871
318	0.866
318	0.86
318	0.855
319	0.849
319	0.844
320	0.838
320	0.833
321	0.827
321	0.821
322	0.814
322	0.808
323	0.801
323	0.795
324	0.788
324	0.782
324	0.775
325	0.768
325	0.761
326	0.754
326	0.748
327	0.741
327	0.734
328	0.727
328	0.72
329	0.713
329	0.706
330	0.699
330	0.692
330	0.685
331	0.678
331	0.671
332	0.664
332	0.657
333	0.65
333	0.643
334	0.636
334	0.63
335	0.623
335	0.616
336	0.609
336	0.603
336	0.596
337	0.59
337	0.583
338	0.577
338	0.571
339	0.565
339	0.559
340	0.553
340	0.547
341	0.542
341	0.536
342	0.531
342	0.525
342	0.52
343	0.515
343	0.51
344	0.505
344	0.5
345	0.495
345	0.49
346	0.486
346	0.481
347	0.477
347	0.472
348	0.468
348	0.464
348	0.46
349	0.457
349	0.453
350	0.449
350	0.446
351	0.442
351	0.439
352	0.436
352	0.433
353	0.429
353	0.427
354	0.423
354	0.42
354	0.418
355	0.414
355	0.411
356	0.408
356	0.405
357	0.402
357	0.399
358	0.396
358	0.394
359	0.391
359	0.389
360	0.387
360	0.385
360	0.383
361	0.381
361	0.379
362	0.378
362	0.376
363	0.374
363	0.372
364	0.37
364	0.368
365	0.366
365	0.364
366	0.362
366	0.36
366	0.359
367	0.357
367	0.355
368	0.353
368	0.351
369	0.35
369	0.348
370	0.347
370	0.345
371	0.344
371	0.342
372	0.341
372	0.34
372	0.338
373	0.337
373	0.336
374	0.335
374	0.334
375	0.333
375	0.332
376	0.331
376	0.33
377	0.329
377	0.327
378	0.326
378	0.325
378	0.324
379	0.323
379	0.323
380	0.322
380	0.321
381	0.32
381	0.319
382	0.318
382	0.318
383	0.317
383	0.316
383	0.315
384	0.315
384	0.314
385	0.313
385	0.313
386	0.312
386	0.312
387	0.311
387	0.311
388	0.31
388	0.309
389	0.309
389	0.308
389	0.308
390	0.308
390	0.307
391	0.307
391	0.306
392	0.306
392	0.305
393	0.305
393	0.305
394	0.304
394	0.303
394	0.303
395	0.303
395	0.302
396	0.302
396	0.301
397	0.301
397	0.3
398	0.3
398	0.299
399	0.299
399	0.298
400	0.298
400	0.298
400	0.297
401	0.297
401	0.296
402	0.296
402	0.296
403	0.295
403	0.295
404	0.294
404	0.294
405	0.293
405	0.293
405	0.292
406	0.292
406	0.292
407	0.291
407	0.291
408	0.29
408	0.29
409	0.29
409	0.29
410	0.29
410	0.289
411	0.289
411	0.289
411	0.289
412	0.288
412	0.288
413	0.288
413	0.287
414	0.287
414	0.286
415	0.286
415	0.286
416	0.285
416	0.285
416	0.284
417	0.284
417	0.284
418	0.284
418	0.283
419	0.282
419	0.282
420	0.281
420	0.281
421	0.281
421	0.28
421	0.28
422	0.279
422	0.279
423	0.279
423	0.279
424	0.278
424	0.278
425	0.278
425	0.278
426	0.277
426	0.277
427	0.277
427	0.276
427	0.276
428	0.276
428	0.275
429	0.275
429	0.274
430	0.274
430	0.274
431	0.274
431	0.274
432	0.274
432	0.273
432	0.273
433	0.273
433	0.273
434	0.273
434	0.273
435	0.273
435	0.272
436	0.272
436	0.272
437	0.272
437	0.271
437	0.271
438	0.271
438	0.271
439	0.271
439	0.27
440	0.27
440	0.27
441	0.269
441	0.269
442	0.269
442	0.269
442	0.269
443	0.268
443	0.268
444	0.268
444	0.268
445	0.268
445	0.268
446	0.268
446	0.267
447	0.267
447	0.267
447	0.267
448	0.267
448	0.267
449	0.267
449	0.267
450	0.267
450	0.267
451	0.267
451	0.267
452	0.267
452	0.267
452	0.267
453	0.267
453	0.267
454	0.267
454	0.266
455	0.266
455	0.266
456	0.266
456	0.266
457	0.266
457	0.266
458	0.266
458	0.266
458	0.266
459	0.266
459	0.266
460	0.266
460	0.267
461	0.267
461	0.267
462	0.267
462	0.267
463	0.267
463	0.267
463	0.267
464	0.267
464	0.266
465	0.266
465	0.266
466	0.266
466	0.266
467	0.267
467	0.267
467	0.267
468	0.268
468	0.268
469	0.268
469	0.269
470	0.269
470	0.27
471	0.27
471	0.27
472	0.271
472	0.271
472	0.271
473	0.272
473	0.272
474	0.272
474	0.272
475	0.272
475	0.272
476	0.273
476	0.274
477	0.274
477	0.274
477	0.275
478	0.275
478	0.276
479	0.276
479	0.277
480	0.278
480	0.278
481	0.279
481	0.279
482	0.28
482	0.281
482	0.281
483	0.282
483	0.283
484	0.283
484	0.284
485	0.284
485	0.284
486	0.285
486	0.285
487	0.286
487	0.287
487	0.287
488	0.288
488	0.288
489	0.289
489	0.291
490	0.292
490	0.294
491	0.295
491	0.296
492	0.297
492	0.298
492	0.299
493	0.301
493	0.302
494	0.303
494	0.304
495	0.305
495	0.306
496	0.307
496	0.308
496	0.31
497	0.311
497	0.312
498	0.313
498	0.314
499	0.315
499	0.316
500	0.318
500	0.319
501	0.32
501	0.321
501	0.322
502	0.323
502	0.324
503	0.326
503	0.327
504	0.328
504	0.329
505	0.33
505	0.331
506	0.332
506	0.333
506	0.334
507	0.336
507	0.337
508	0.338
508	0.338
509	0.339
509	0.34
510	0.341
510	0.342
511	0.343
511	0.344
511	0.345
512	0.346
512	0.347
513	0.348
513	0.349
514	0.35
514	0.351
515	0.352
515	0.352
515	0.353
516	0.353
516	0.354
517	0.355
517	0.355
518	0.355
518	0.356
519	0.356
519	0.356
520	0.356
520	0.356
520	0.356
521	0.356
521	0.356
522	0.356
522	0.356
523	0.356
523	0.355
524	0.355
524	0.355
524	0.355
525	0.355
525	0.354
526	0.354
526	0.353
527	0.352
527	0.352
528	0.351
528	0.351
529	0.35
529	0.349
529	0.348
530	0.347
530	0.346
531	0.345
531	0.344
532	0.343
532	0.342
533	0.341
533	0.34
533	0.338
534	0.337
534	0.336
535	0.335
535	0.333
536	0.332
536	0.331
537	0.329
537	0.328
538	0.327
538	0.325
538	0.323
539	0.322
539	0.321
540	0.319
540	0.317
541	0.316
541	0.314
542	0.312
542	0.31
542	0.308
543	0.306
543	0.304
544	0.303
544	0.301
545	0.299
545	0.298
546	0.296
546	0.293
547	0.291
547	0.289
547	0.287
548	0.286
548	0.284
549	0.282
549	0.28
550	0.278
550	0.276
551	0.274
551	0.273
551	0.271
552	0.269
552	0.267
553	0.265
553	0.263
554	0.261
554	0.259
555	0.257
555	0.255
556	0.253
556	0.251
556	0.249
557	0.248
557	0.246
558	0.245
558	0.243
559	0.242
559	0.24
560	0.239
560	0.237
560	0.236
561	0.235
561	0.233
562	0.231
562	0.229
563	0.227
563	0.225
564	0.223
564	0.222
564	0.22
565	0.219
565	0.217
566	0.215
566	0.214
567	0.212
567	0.211
568	0.21
568	0.208
568	0.207
569	0.205
569	0.203
570	0.202
570	0.2
571	0.199
571	0.197
572	0.196
572	0.194
573	0.193
573	0.192
573	0.191
574	0.19
574	0.189
575	0.188
575	0.187
576	0.186
576	0.185
577	0.183
577	0.182
577	0.181
578	0.18
578	0.178
579	0.178
579	0.177
580	0.175
580	0.174
581	0.172
581	0.171
581	0.171
582	0.17
582	0.169
583	0.169
583	0.168
584	0.166
584	0.165
585	0.164
585	0.163
585	0.162
586	0.161
586	0.161
587	0.159
587	0.158
588	0.157
588	0.156
589	0.156
589	0.155
590	0.155
590	0.154
590	0.154
591	0.153
591	0.152
592	0.151
592	0.15
593	0.149
593	0.149
594	0.148
594	0.147
594	0.145
595	0.145
595	0.144
596	0.142
596	0.142
597	0.143
597	0.142
598	0.141
598	0.141
598	0.141
599	0.14
599	0.14
600	0.139
600	0.138
601	0.138
601	0.137
602	0.136
602	0.135
602	0.135
603	0.134
603	0.134
604	0.134
604	0.133
605	0.133
605	0.133
606	0.132
606	0.131
606	0.13
607	0.13
607	0.13
608	0.129
608	0.128
609	0.127
609	0.127
610	0.126
610	0.125
610	0.125
611	0.125
611	0.124
612	0.124
612	0.124
613	0.124
613	0.124
614	0.123
614	0.123
614	0.123
615	0.122
615	0.122
616	0.122
616	0.121
617	0.121
617	0.12
618	0.12
618	0.12
618	0.119
619	0.119
619	0.119
620	0.119
620	0.119
621	0.118
621	0.118
622	0.117
622	0.117
622	0.116
623	0.115
623	0.115
624	0.114
624	0.114
625	0.113
625	0.113
626	0.112
626	0.112
626	0.112
627	0.112
627	0.112
628	0.111
628	0.111
629	0.111
629	0.11
630	0.11
630	0.109
630	0.109
631	0.109
631	0.108
632	0.108
632	0.107
633	0.107
633	0.107
634	0.107
634	0.107
634	0.107
635	0.107
635	0.107
636	0.107
636	0.107
637	0.106
637	0.106
638	0.105
638	0.105
638	0.105
639	0.104
639	0.104
640	0.104
640	0.103
641	0.103
641	0.103
642	0.102
642	0.103
642	0.102
643	0.102
643	0.102
644	0.102
644	0.102
645	0.102
645	0.101
646	0.101
646	0.101
646	0.1
647	0.1
647	0.099
648	0.099
648	0.098
649	0.097
649	0.097
650	0.097
650	0.097
650	0.097
651	0.097
651	0.097
652	0.097
652	0.097
653	0.098
653	0.1
653	0.105
654	0.085
654	0.069
655	0.067
655	0.067
656	0.067
656	0.067
657	0.067
657	0.068
657	0.068
658	0.066
658	0.059
659	0.074
659	0.093
660	0.098
660	0.098
661	0.098
661	0.097
661	0.097
662	0.097
662	0.096
663	0.095
663	0.095
664	0.095
664	0.094
665	0.094
665	0.094
665	0.094
666	0.093
666	0.093
667	0.094
667	0.094
668	0.094
668	0.094
669	0.094
669	0.095
669	0.095
670	0.095
670	0.095
671	0.095
671	0.094
672	0.094
672	0.093
672	0.092
673	0.092
673	0.092
674	0.091
674	0.091
675	0.09
675	0.09
676	0.091
676	0.091
676	0.091
677	0.091
677	0.091
678	0.091
678	0.09
679	0.09
679	0.09
680	0.09
680	0.089
680	0.089
681	0.089
681	0.089
682	0.089
682	0.089
683	0.09
683	0.09
684	0.091
684	0.091
684	0.09
685	0.091
685	0.091
686	0.091
686	0.09
687	0.09
687	0.09
687	0.09
688	0.089
688	0.089
689	0.09
689	0.09
690	0.09
690	0.089
691	0.089
691	0.089
691	0.089
692	0.089
692	0.089
693	0.09
693	0.09
694	0.09
694	0.089
695	0.09
695	0.091
695	0.091
696	0.091
696	0.091
697	0.092
697	0.091
698	0.091
698	0.091
698	0.091
699	0.091
699	0.091
700	0.09
700	0.09
701	0.09
701	0.089
702	0.089
702	0.088
702	0.088
703	0.088
703	0.087
704	0.087
704	0.086
705	0.086
705	0.086
705	0.086
706	0.086
706	0.086
707	0.086
707	0.086
708	0.086
708	0.086
709	0.086
709	0.086
709	0.085
710	0.085
710	0.086
711	0.086
711	0.086
712	0.086
712	0.086
713	0.086
713	0.086
713	0.086
714	0.085
714	0.085
715	0.085
715	0.084
716	0.083
716	0.083
716	0.082
717	0.082
717	0.082
718	0.081
718	0.081
719	0.082
719	0.082
720	0.082
720	0.083
720	0.083
721	0.083
721	0.084
722	0.085
722	0.085
723	0.085
723	0.085
723	0.085
724	0.084
724	0.084
725	0.083
725	0.082
726	0.081
726	0.081
727	0.08
727	0.08
727	0.08
728	0.079
728	0.079
729	0.079
729	0.079
730	0.079
730	0.079
730	0.08
731	0.08
731	0.081
732	0.081
732	0.082
733	0.082
733	0.082
734	0.082
734	0.082
734	0.083
735	0.083
735	0.082
736	0.082
736	0.082
737	0.081
737	0.081
737	0.081
738	0.08
738	0.079
739	0.079
739	0.079
740	0.078
740	0.078
741	0.079
741	0.079
741	0.079
742	0.079
742	0.08
743	0.081
743	0.081
744	0.081
744	0.081
744	0.081
745	0.081
745	0.081
746	0.08
746	0.08
747	0.079
747	0.078
748	0.078
748	0.078
748	0.078
749	0.077
749	0.078
750	0.078
750	0.078
751	0.078
751	0.078
751	0.078
752	0.078
752	0.078
753	0.077
753	0.077
754	0.077
754	0.076
754	0.076
755	0.076
755	0.076
756	0.076
756	0.074
757	0.074
757	0.074
758	0.074
758	0.074
758	0.074
759	0.074
759	0.074
760	0.073
760	0.073
761	0.073
761	0.074
761	0.074
762	0.074
762	0.074
763	0.073
763	0.072
764	0.072
764	0.072
764	0.071
765	0.071
765	0.071
766	0.07
766	0.07
767	0.07
767	0.069
768	0.068
768	0.068
768	0.069
769	0.069
769	0.07
770	0.07
770	0.071
771	0.071
771	0.072
771	0.073
772	0.074
772	0.074
773	0.075
773	0.075
774	0.075
774	0.075
775	0.075
775	0.075
775	0.075
776	0.075
776	0.076
777	0.076
777	0.076
778	0.076
778	0.076
778	0.076
779	0.076
779	0.075
780	0.074
780	0.073
781	0.073
781	0.072
781	0.071
782	0.07
782	0.07
783	0.07
783	0.07
784	0.07
784	0.07
784	0.07
785	0.07
785	0.07
786	0.07
786	0.07
787	0.07
787	0.069
788	0.069
788	0.068
788	0.067
789	0.067
789	0.066
790	0.066
790	0.066
791	0.066
791	0.065
791	0.065
792	0.065
792	0.065
793	0.064
793	0.064
794	0.064
794	0.063
794	0.063
795	0.063
795	0.063
796	0.063
796	0.063
797	0.063
797	0.063
797	0.064
798	0.064
798	0.064
799	0.064
799	0.064
800	0.064
800	0.064
801	0.063
801	0.063
801	0.063
802	0.063
802	0.064
803	0.064
803	0.064
804	0.064
804	0.065
804	0.065
805	0.064
805	0.064
806	0.064
806	0.064
807	0.064
807	0.063
807	0.063
808	0.063
808	0.063
809	0.063
809	0.063
810	0.063
810	0.063
810	0.063
811	0.063
811	0.063
812	0.063
812	0.063
813	0.063
813	0.063
813	0.062
814	0.063
814	0.062
815	0.063
815	0.062
816	0.062
816	0.061
817	0.061
817	0.061
817	0.061
818	0.061
818	0.061
819	0.061
819	0.06
820	0.06
820	0.06
820	0.059
821	0.06
821	0.06
822	0.06
822	0.06
823	0.06
823	0.06
823	0.06
824	0.061
824	0.062
825	0.063
825	0.064
826	0.064
826	0.064
826	0.065
827	0.065
827	0.065
828	0.066
828	0.066
829	0.066
829	0.066
829	0.066
830	0.066
830	0.066
831	0.067
831	0.067
832	0.067
832	0.067
832	0.067
833	0.067
833	0.067
834	0.066
834	0.066
835	0.065
835	0.065
835	0.064
836	0.063
836	0.063
837	0.063
837	0.062
838	0.062
838	0.061
839	0.06
839	0.059
839	0.058
840	0.057
840	0.056
841	0.055
841	0.054
842	0.054
842	0.053
842	0.052
843	0.051
843	0.051
844	0.05
844	0.05
845	0.049
845	0.049
845	0.049
846	0.048
846	0.048
847	0.049
847	0.049
848	0.049
848	0.05
848	0.051
849	0.051
849	0.052
850	0.052
850	0.052
851	0.053
851	0.053
851	0.053
852	0.053
852	0.053
853	0.053
853	0.053
854	0.053
854	0.054
854	0.055
855	0.055
855	0.056
856	0.056
856	0.057
857	0.057
857	0.058
857	0.058
858	0.058
858	0.058
859	0.057
859	0.057
860	0.056
860	0.056
860	0.055
861	0.055
861	0.054
862	0.053
862	0.053
863	0.052
863	0.052
863	0.052
864	0.052
864	0.052
865	0.052
865	0.052
866	0.052
866	0.052
866	0.053
867	0.053
867	0.053
868	0.054
868	0.054
869	0.054
869	0.054
869	0.054
870	0.054
870	0.053
871	0.053
871	0.053
872	0.052
872	0.052
872	0.051
873	0.051
873	0.05
874	0.049
874	0.049
875	0.049
875	0.049
875	0.049
876	0.049
876	0.049
877	0.049
877	0.049
878	0.049
878	0.049
878	0.05
879	0.05
879	0.05
880	0.05
880	0.051
881	0.051
881	0.051
881	0.051
882	0.05
882	0.05
883	0.05
883	0.051
884	0.051
884	0.051
884	0.051
885	0.051
885	0.05
886	0.05
886	0.05
887	0.05
887	0.049
887	0.049
888	0.049
888	0.048
889	0.048
889	0.048
890	0.048
890	0.048
890	0.048
891	0.048
891	0.048
892	0.048
892	0.047
893	0.047
893	0.047
893	0.046
894	0.046
894	0.045
895	0.045
895	0.045
895	0.045
896	0.045
896	0.045
897	0.046
897	0.046
898	0.046
898	0.046
898	0.047
899	0.047
899	0.047
900	0.047
900	0.047
901	0.047
901	0.046
901	0.046
902	0.046
902	0.045
903	0.045
903	0.045
904	0.045
904	0.045
904	0.045
905	0.045
905	0.045
906	0.045
906	0.045
907	0.045
907	0.046
907	0.046
908	0.046
908	0.046
909	0.046
909	0.046
910	0.046
910	0.046
910	0.045
911	0.045
911	0.045
912	0.044
912	0.044
913	0.043
913	0.043
913	0.043
914	0.043
914	0.042
915	0.042
915	0.042
916	0.042
916	0.042
916	0.041
917	0.041
917	0.041
918	0.04
918	0.04
918	0.04
919	0.039
919	0.039
920	0.039
920	0.038
921	0.038
921	0.038
921	0.038
922	0.037
922	0.038
923	0.038
923	0.038
924	0.039
924	0.039
924	0.04
925	0.04
925	0.041
926	0.041
926	0.042
927	0.043
927	0.043
927	0.044
928	0.044
928	0.044
929	0.045
929	0.045
930	0.045
930	0.046
930	0.046
931	0.046
931	0.046
932	0.047
932	0.047
933	0.047
933	0.048
933	0.048
934	0.047
934	0.047
935	0.047
935	0.046
935	0.046
936	0.045
936	0.044
937	0.044
937	0.043
938	0.042
938	0.041
938	0.04
939	0.04
939	0.039
940	0.039
940	0.039
941	0.039
941	0.039
941	0.039
942	0.04
942	0.04
943	0.04
943	0.041
944	0.041
944	0.041
944	0.042
945	0.042
945	0.042
946	0.043
946	0.043
946	0.043
947	0.044
947	0.043
948	0.043
948	0.043
949	0.042
949	0.042
949	0.042
950	0.041
950	0.041
951	0.04
951	0.04
952	0.039
952	0.039
952	0.039
953	0.039
953	0.039
954	0.039
954	0.04
955	0.04
955	0.04
955	0.04
956	0.041
956	0.042
957	0.042
957	0.042
957	0.043
958	0.043
958	0.043
959	0.043
959	0.043
960	0.043
960	0.043
960	0.043
961	0.043
961	0.043
962	0.043
962	0.042
963	0.042
963	0.042
963	0.042
964	0.041
964	0.042
965	0.042
965	0.042
966	0.042
966	0.043
966	0.043
967	0.043
967	0.043
968	0.043
968	0.043
968	0.043
969	0.043
969	0.042
970	0.041
970	0.04
971	0.039
971	0.039
971	0.038
972	0.037
972	0.037
973	0.036
973	0.036
974	0.036
974	0.036
974	0.037
975	0.037
975	0.038
976	0.039
976	0.04
976	0.04
977	0.04
977	0.041
978	0.041
978	0.041
979	0.041
979	0.041
979	0.041
980	0.041
980	0.04
981	0.04
981	0.039
982	0.039
982	0.039
982	0.038
983	0.038
983	0.038
984	0.038
984	0.038
984	0.038
985	0.038
985	0.038
986	0.038
986	0.039
987	0.039
987	0.039
987	0.039
988	0.039
988	0.039
989	0.039
989	0.039
990	0.039
990	0.039
990	0.039
991	0.039
991	0.038
992	0.038
992	0.037
992	0.036
993	0.036
993	0.035
994	0.034
994	0.033
995	0.032
995	0.032
995	0.031
996	0.031
996	0.031
997	0.031
997	0.032
997	0.032
998	0.032
998	0.033
999	0.033
999	0.034
1000	0.035
1000	0.035
1000	0.035
1001	0.036
1001	0.036
1002	0.035
1002	0.035
1003	0.035
1003	0.034
1003	0.033
1004	0.032
1004	0.031
1005	0.03
1005	0.03
1005	0.029
1006	0.028
1006	0.027
1007	0.027
1007	0.026
1008	0.026
1008	0.026
1008	0.026
1009	0.026
1009	0.026
1010	0.026
1010	0.026
1010	0.026
1011	0.026
1011	0.026
1012	0.026
1012	0.026
1013	0.026
1013	0.026
1013	0.026
1014	0.025
1014	0.025
1015	0.025
1015	0.025
1016	0.026
1016	0.026
1016	0.026
1017	0.026
1017	0.026
1018	0.027
1018	0.027
1018	0.027
1019	0.028
1019	0.028
1020	0.029
1020	0.029
1021	0.03
1021	0.03
1021	0.031
1022	0.031
1022	0.031
1023	0.032
1023	0.032
1023	0.033
1024	0.032
1024	0.033
1025	0.033
1025	0.033
1026	0.032
1026	0.032
1026	0.032
1027	0.032
1027	0.032
1028	0.032
1028	0.032
1028	0.032
1029	0.032
1029	0.032
1030	0.032
1030	0.032
1031	0.032
1031	0.032
1031	0.033
1032	0.033
1032	0.033
1033	0.034
1033	0.035
1033	0.035
1034	0.035
1034	0.035
1035	0.036
1035	0.036
1036	0.036
1036	0.036
1036	0.036
1037	0.036
1037	0.036
1038	0.036
1038	0.035
1039	0.035
1039	0.035
1039	0.035
1040	0.035
1040	0.035
1041	0.035
1041	0.035
1041	0.034
1042	0.034
1042	0.034
1043	0.034
1043	0.034
1044	0.033
1044	0.033
1044	0.033
1045	0.032
1045	0.032
1046	0.032
1046	0.032
1046	0.032
1047	0.032
1047	0.032
1048	0.032
1048	0.033
1049	0.033
1049	0.034
1049	0.034
1050	0.034
1050	0.034
1051	0.034
1051	0.034
1051	0.034
1052	0.033
1052	0.033
1053	0.032
1053	0.031
1053	0.03
1054	0.03
1054	0.029
1055	0.029
1055	0.029
1056	0.028
1056	0.027
1056	0.027
1057	0.027
1057	0.026
1058	0.026
1058	0.025
1058	0.025
1059	0.024
1059	0.024
1060	0.023
1060	0.023
1061	0.023
1061	0.022
1061	0.022
1062	0.022
1062	0.022
1063	0.022
1063	0.022
1063	0.021
1064	0.021
1064	0.021
1065	0.021
1065	0.021
1066	0.021
1066	0.021
1066	0.021
1067	0.021
1067	0.021
1068	0.021
1068	0.021
1068	0.021
1069	0.021
1069	0.021
1070	0.021
1070	0.021
1071	0.02
1071	0.02
1071	0.02
1072	0.02
1072	0.02
1073	0.02
1073	0.019
1073	0.019
1074	0.02
1074	0.02
1075	0.02
1075	0.02
1076	0.021
1076	0.022
1076	0.022
1077	0.022
1077	0.023
1078	0.023
1078	0.024
1078	0.024
1079	0.024
1079	0.024
1080	0.023
1080	0.023
1080	0.023
1081	0.022
1081	0.022
1082	0.022
1082	0.022
1083	0.021
1083	0.021
1083	0.022
1084	0.021
1084	0.022
1085	0.022
1085	0.022
1085	0.022
1086	0.023
1086	0.022
1087	0.023
1087	0.022
1088	0.022
1088	0.022
1088	0.023
1089	0.022
1089	0.022
1090	0.021
1090	0.02
1090	0.02
1091	0.02
1091	0.019
1092	0.019
1092	0.019
1092	0.018
1093	0.018
1093	0.018
1094	0.018
1094	0.018
1095	0.017
1095	0.017
1095	0.017
1096	0.016
1096	0.015
1097	0.014
1097	0.014
1097	0.014
1098	0.013
1098	0.012
1099	0.011
1099	0.01
1100	0.009
1100	0.007
1100	0.006
1101	0.006
1101	0.005
1102	0.004
1102	0.004
1102	0.002
1103	0.001
1103	0.002
1104	0.001
1104	0.002
1104	0.002
1105	0.002
1105	0
1106	-0.002
1106	-0.002
1107	-0.003
1107	-0.003
1107	-0.003
1108	-0.004
1108	-0.005
1109	-0.006
1109	-0.006
1109	-0.007
1110	-0.006
1110	-0.006
1111	-0.005
1111	-0.008
