Data from reversibility-20sec_Absorbance__7287__000000000007287.txt Node

Date: Thu Dec 07 04:42:07 CET 2023
User: Marek
Spectrometer: MAYP115816
Trigger mode: 0
Integration Time (sec): 2.000000E-1
Scans to average: 10
Electric dark correction enabled: true
Nonlinearity correction enabled: true
Boxcar width: 5
XAxis mode: Wavelengths
Number of Pixels in Spectrum: 2068
>>>>>Begin Spectral Data<<<<<
199	-0.121
199	-0.092
200	-0.034
200	0.018
201	0.044
201	0.063
202	0.074
202	0.083
203	0.09
203	0.094
204	0.108
204	0.122
205	0.134
205	0.143
205	0.14
206	0.143
206	0.142
207	0.145
207	0.142
208	0.14
208	0.138
209	0.14
209	0.143
210	0.144
210	0.142
211	0.147
211	0.149
212	0.145
212	0.144
213	0.147
213	0.15
213	0.152
214	0.154
214	0.153
215	0.152
215	0.154
216	0.154
216	0.151
217	0.157
217	0.159
218	0.159
218	0.162
219	0.166
219	0.17
220	0.17
220	0.167
221	0.171
221	0.172
221	0.179
222	0.185
222	0.19
223	0.196
223	0.201
224	0.206
224	0.211
225	0.219
225	0.233
226	0.236
226	0.248
227	0.256
227	0.267
228	0.284
228	0.302
229	0.319
229	0.342
229	0.365
230	0.392
230	0.423
231	0.46
231	0.496
232	0.533
232	0.577
233	0.614
233	0.661
234	0.713
234	0.765
235	0.817
235	0.873
236	0.923
236	0.976
236	1.026
237	1.077
237	1.125
238	1.174
238	1.221
239	1.265
239	1.306
240	1.344
240	1.379
241	1.412
241	1.444
242	1.477
242	1.509
243	1.54
243	1.566
243	1.588
244	1.612
244	1.634
245	1.652
245	1.672
246	1.692
246	1.707
247	1.72
247	1.734
248	1.747
248	1.76
249	1.768
249	1.775
250	1.781
250	1.789
250	1.793
251	1.796
251	1.8
252	1.804
252	1.806
253	1.803
253	1.801
254	1.803
254	1.804
255	1.804
255	1.803
256	1.801
256	1.802
257	1.803
257	1.801
258	1.8
258	1.802
258	1.801
259	1.8
259	1.8
260	1.798
260	1.8
261	1.799
261	1.8
262	1.802
262	1.803
263	1.804
263	1.804
264	1.805
264	1.807
265	1.807
265	1.808
265	1.807
266	1.807
266	1.808
267	1.806
267	1.807
268	1.808
268	1.808
269	1.809
269	1.807
270	1.807
270	1.805
271	1.805
271	1.805
272	1.801
272	1.8
272	1.797
273	1.791
273	1.785
274	1.779
274	1.774
275	1.768
275	1.763
276	1.755
276	1.747
277	1.739
277	1.729
278	1.718
278	1.706
278	1.692
279	1.676
279	1.656
280	1.631
280	1.601
281	1.566
281	1.528
282	1.486
282	1.444
283	1.402
283	1.361
284	1.322
284	1.283
285	1.247
285	1.214
285	1.184
286	1.157
286	1.134
287	1.114
287	1.096
288	1.081
288	1.068
289	1.057
289	1.047
290	1.039
290	1.032
291	1.025
291	1.02
292	1.014
292	1.01
292	1.005
293	1.002
293	0.998
294	0.994
294	0.991
295	0.987
295	0.984
296	0.981
296	0.977
297	0.974
297	0.971
298	0.968
298	0.965
298	0.962
299	0.959
299	0.956
300	0.953
300	0.951
301	0.948
301	0.945
302	0.942
302	0.94
303	0.937
303	0.935
304	0.932
304	0.93
305	0.927
305	0.925
305	0.922
306	0.92
306	0.917
307	0.915
307	0.912
308	0.909
308	0.907
309	0.904
309	0.901
310	0.898
310	0.895
311	0.892
311	0.888
311	0.885
312	0.881
312	0.878
313	0.874
313	0.87
314	0.867
314	0.863
315	0.858
315	0.854
316	0.85
316	0.845
317	0.84
317	0.835
318	0.83
318	0.825
318	0.82
319	0.814
319	0.809
320	0.803
320	0.797
321	0.791
321	0.785
322	0.779
322	0.772
323	0.766
323	0.759
324	0.752
324	0.746
324	0.739
325	0.732
325	0.725
326	0.718
326	0.711
327	0.704
327	0.697
328	0.69
328	0.683
329	0.676
329	0.669
330	0.662
330	0.655
330	0.648
331	0.641
331	0.634
332	0.627
332	0.62
333	0.612
333	0.605
334	0.598
334	0.592
335	0.585
335	0.578
336	0.571
336	0.564
336	0.557
337	0.551
337	0.544
338	0.538
338	0.532
339	0.526
339	0.519
340	0.514
340	0.508
341	0.502
341	0.496
342	0.491
342	0.485
342	0.48
343	0.475
343	0.47
344	0.464
344	0.46
345	0.455
345	0.45
346	0.445
346	0.441
347	0.436
347	0.432
348	0.428
348	0.424
348	0.42
349	0.416
349	0.413
350	0.409
350	0.405
351	0.402
351	0.399
352	0.396
352	0.392
353	0.39
353	0.387
354	0.384
354	0.381
354	0.377
355	0.374
355	0.371
356	0.369
356	0.366
357	0.362
357	0.36
358	0.357
358	0.354
359	0.352
359	0.349
360	0.348
360	0.346
360	0.344
361	0.342
361	0.34
362	0.339
362	0.337
363	0.335
363	0.333
364	0.331
364	0.329
365	0.327
365	0.325
366	0.323
366	0.322
366	0.32
367	0.318
367	0.317
368	0.315
368	0.314
369	0.312
369	0.311
370	0.309
370	0.308
371	0.307
371	0.305
372	0.304
372	0.303
372	0.302
373	0.301
373	0.3
374	0.299
374	0.298
375	0.297
375	0.296
376	0.295
376	0.294
377	0.293
377	0.292
378	0.291
378	0.29
378	0.289
379	0.289
379	0.288
380	0.287
380	0.286
381	0.285
381	0.285
382	0.284
382	0.284
383	0.283
383	0.282
383	0.282
384	0.281
384	0.281
385	0.28
385	0.28
386	0.28
386	0.279
387	0.279
387	0.278
388	0.278
388	0.278
389	0.277
389	0.277
389	0.276
390	0.276
390	0.275
391	0.275
391	0.275
392	0.274
392	0.274
393	0.273
393	0.273
394	0.272
394	0.272
394	0.272
395	0.271
395	0.271
396	0.271
396	0.27
397	0.27
397	0.27
398	0.269
398	0.269
399	0.269
399	0.268
400	0.268
400	0.268
400	0.267
401	0.267
401	0.267
402	0.266
402	0.266
403	0.266
403	0.265
404	0.265
404	0.265
405	0.265
405	0.265
405	0.264
406	0.264
406	0.264
407	0.263
407	0.263
408	0.263
408	0.262
409	0.262
409	0.262
410	0.262
410	0.261
411	0.261
411	0.261
411	0.26
412	0.26
412	0.26
413	0.259
413	0.259
414	0.259
414	0.258
415	0.258
415	0.258
416	0.257
416	0.257
416	0.257
417	0.256
417	0.256
418	0.256
418	0.255
419	0.255
419	0.254
420	0.254
420	0.254
421	0.253
421	0.253
421	0.252
422	0.252
422	0.252
423	0.252
423	0.251
424	0.251
424	0.251
425	0.25
425	0.25
426	0.25
426	0.25
427	0.249
427	0.249
427	0.248
428	0.248
428	0.248
429	0.247
429	0.247
430	0.247
430	0.246
431	0.246
431	0.246
432	0.246
432	0.246
432	0.246
433	0.245
433	0.245
434	0.245
434	0.245
435	0.245
435	0.244
436	0.244
436	0.244
437	0.244
437	0.243
437	0.243
438	0.243
438	0.242
439	0.242
439	0.242
440	0.242
440	0.241
441	0.241
441	0.241
442	0.24
442	0.24
442	0.24
443	0.24
443	0.24
444	0.24
444	0.239
445	0.239
445	0.239
446	0.239
446	0.239
447	0.239
447	0.239
447	0.239
448	0.239
448	0.238
449	0.238
449	0.238
450	0.238
450	0.238
451	0.237
451	0.237
452	0.237
452	0.237
452	0.237
453	0.237
453	0.237
454	0.237
454	0.237
455	0.236
455	0.236
456	0.236
456	0.236
457	0.235
457	0.235
458	0.235
458	0.235
458	0.234
459	0.234
459	0.234
460	0.234
460	0.234
461	0.234
461	0.234
462	0.234
462	0.234
463	0.234
463	0.234
463	0.234
464	0.233
464	0.233
465	0.233
465	0.233
466	0.233
466	0.233
467	0.233
467	0.233
467	0.233
468	0.233
468	0.233
469	0.233
469	0.233
470	0.234
470	0.234
471	0.234
471	0.234
472	0.234
472	0.234
472	0.234
473	0.234
473	0.234
474	0.234
474	0.234
475	0.234
475	0.234
476	0.234
476	0.235
477	0.235
477	0.235
477	0.235
478	0.235
478	0.235
479	0.235
479	0.235
480	0.235
480	0.236
481	0.236
481	0.236
482	0.236
482	0.236
482	0.236
483	0.237
483	0.237
484	0.237
484	0.237
485	0.237
485	0.237
486	0.238
486	0.238
487	0.238
487	0.238
487	0.239
488	0.239
488	0.239
489	0.24
489	0.241
490	0.241
490	0.242
491	0.243
491	0.243
492	0.244
492	0.244
492	0.245
493	0.246
493	0.247
494	0.247
494	0.248
495	0.248
495	0.249
496	0.249
496	0.25
496	0.251
497	0.251
497	0.251
498	0.252
498	0.252
499	0.253
499	0.254
500	0.255
500	0.256
501	0.256
501	0.257
501	0.257
502	0.258
502	0.259
503	0.259
503	0.26
504	0.26
504	0.261
505	0.262
505	0.262
506	0.263
506	0.263
506	0.264
507	0.265
507	0.265
508	0.266
508	0.267
509	0.267
509	0.268
510	0.268
510	0.269
511	0.269
511	0.27
511	0.271
512	0.271
512	0.272
513	0.273
513	0.273
514	0.274
514	0.274
515	0.275
515	0.275
515	0.276
516	0.276
516	0.277
517	0.277
517	0.277
518	0.278
518	0.278
519	0.278
519	0.278
520	0.278
520	0.279
520	0.279
521	0.279
521	0.279
522	0.279
522	0.279
523	0.279
523	0.279
524	0.279
524	0.279
524	0.279
525	0.279
525	0.278
526	0.278
526	0.278
527	0.278
527	0.278
528	0.277
528	0.278
529	0.277
529	0.277
529	0.276
530	0.276
530	0.276
531	0.275
531	0.275
532	0.274
532	0.274
533	0.273
533	0.273
533	0.272
534	0.272
534	0.271
535	0.271
535	0.271
536	0.27
536	0.27
537	0.269
537	0.269
538	0.268
538	0.267
538	0.266
539	0.266
539	0.265
540	0.265
540	0.264
541	0.263
541	0.263
542	0.262
542	0.261
542	0.261
543	0.26
543	0.259
544	0.258
544	0.258
545	0.257
545	0.256
546	0.255
546	0.254
547	0.253
547	0.252
547	0.251
548	0.251
548	0.25
549	0.249
549	0.248
550	0.247
550	0.246
551	0.245
551	0.244
551	0.244
552	0.243
552	0.242
553	0.241
553	0.24
554	0.239
554	0.238
555	0.237
555	0.236
556	0.235
556	0.235
556	0.234
557	0.234
557	0.233
558	0.233
558	0.232
559	0.232
559	0.231
560	0.231
560	0.23
560	0.229
561	0.229
561	0.228
562	0.227
562	0.226
563	0.224
563	0.223
564	0.222
564	0.221
564	0.22
565	0.219
565	0.218
566	0.217
566	0.217
567	0.216
567	0.216
568	0.215
568	0.214
568	0.214
569	0.213
569	0.212
570	0.211
570	0.21
571	0.209
571	0.209
572	0.208
572	0.207
573	0.206
573	0.206
573	0.205
574	0.204
574	0.204
575	0.203
575	0.203
576	0.203
576	0.201
577	0.2
577	0.2
577	0.199
578	0.198
578	0.198
579	0.198
579	0.197
580	0.197
580	0.196
581	0.195
581	0.195
581	0.195
582	0.195
582	0.194
583	0.194
583	0.193
584	0.192
584	0.191
585	0.19
585	0.19
585	0.19
586	0.189
586	0.188
587	0.188
587	0.187
588	0.187
588	0.186
589	0.186
589	0.186
590	0.185
590	0.185
590	0.185
591	0.185
591	0.184
592	0.183
592	0.183
593	0.182
593	0.182
594	0.181
594	0.18
594	0.179
595	0.179
595	0.178
596	0.177
596	0.177
597	0.178
597	0.178
598	0.178
598	0.178
598	0.178
599	0.177
599	0.177
600	0.177
600	0.176
601	0.176
601	0.175
602	0.175
602	0.174
602	0.173
603	0.173
603	0.173
604	0.173
604	0.173
605	0.173
605	0.173
606	0.172
606	0.171
606	0.171
607	0.171
607	0.17
608	0.17
608	0.169
609	0.168
609	0.168
610	0.167
610	0.167
610	0.167
611	0.167
611	0.167
612	0.167
612	0.167
613	0.167
613	0.166
614	0.166
614	0.166
614	0.166
615	0.166
615	0.165
616	0.165
616	0.165
617	0.165
617	0.165
618	0.165
618	0.165
618	0.165
619	0.165
619	0.165
620	0.165
620	0.164
621	0.163
621	0.163
622	0.163
622	0.162
622	0.161
623	0.161
623	0.161
624	0.16
624	0.16
625	0.16
625	0.16
626	0.16
626	0.16
626	0.16
627	0.16
627	0.16
628	0.16
628	0.16
629	0.16
629	0.16
630	0.159
630	0.159
630	0.159
631	0.159
631	0.158
632	0.158
632	0.157
633	0.157
633	0.157
634	0.157
634	0.157
634	0.156
635	0.156
635	0.156
636	0.155
636	0.155
637	0.155
637	0.155
638	0.154
638	0.154
638	0.154
639	0.153
639	0.153
640	0.153
640	0.152
641	0.152
641	0.152
642	0.152
642	0.152
642	0.153
643	0.153
643	0.153
644	0.153
644	0.153
645	0.153
645	0.154
646	0.154
646	0.154
646	0.155
647	0.154
647	0.154
648	0.153
648	0.153
649	0.152
649	0.152
650	0.152
650	0.152
650	0.152
651	0.152
651	0.152
652	0.152
652	0.152
653	0.153
653	0.154
653	0.159
654	0.126
654	0.102
655	0.101
655	0.101
656	0.101
656	0.102
657	0.102
657	0.102
657	0.102
658	0.101
658	0.093
659	0.116
659	0.148
660	0.153
660	0.153
661	0.152
661	0.152
661	0.151
662	0.151
662	0.15
663	0.15
663	0.15
664	0.15
664	0.15
665	0.15
665	0.15
665	0.15
666	0.15
666	0.15
667	0.15
667	0.15
668	0.15
668	0.15
669	0.15
669	0.15
669	0.151
670	0.151
670	0.151
671	0.151
671	0.15
672	0.15
672	0.149
672	0.149
673	0.148
673	0.148
674	0.148
674	0.147
675	0.147
675	0.147
676	0.148
676	0.148
676	0.148
677	0.148
677	0.148
678	0.148
678	0.148
679	0.148
679	0.148
680	0.148
680	0.148
680	0.147
681	0.147
681	0.147
682	0.147
682	0.148
683	0.148
683	0.148
684	0.148
684	0.148
684	0.148
685	0.148
685	0.149
686	0.149
686	0.149
687	0.149
687	0.149
687	0.149
688	0.149
688	0.149
689	0.15
689	0.15
690	0.15
690	0.15
691	0.15
691	0.15
691	0.15
692	0.15
692	0.15
693	0.15
693	0.151
694	0.15
694	0.15
695	0.151
695	0.152
695	0.152
696	0.152
696	0.152
697	0.152
697	0.152
698	0.152
698	0.152
698	0.152
699	0.152
699	0.151
700	0.15
700	0.15
701	0.15
701	0.15
702	0.149
702	0.149
702	0.148
703	0.148
703	0.147
704	0.147
704	0.147
705	0.147
705	0.146
705	0.146
706	0.146
706	0.146
707	0.146
707	0.146
708	0.146
708	0.146
709	0.146
709	0.147
709	0.147
710	0.147
710	0.147
711	0.148
711	0.148
712	0.149
712	0.149
713	0.15
713	0.15
713	0.15
714	0.15
714	0.15
715	0.15
715	0.15
716	0.149
716	0.149
716	0.148
717	0.147
717	0.147
718	0.146
718	0.146
719	0.147
719	0.147
720	0.148
720	0.149
720	0.149
721	0.15
721	0.151
722	0.152
722	0.152
723	0.153
723	0.153
723	0.152
724	0.152
724	0.152
725	0.151
725	0.15
726	0.149
726	0.148
727	0.148
727	0.147
727	0.147
728	0.147
728	0.147
729	0.147
729	0.147
730	0.147
730	0.147
730	0.148
731	0.148
731	0.149
732	0.149
732	0.15
733	0.15
733	0.151
734	0.151
734	0.152
734	0.152
735	0.153
735	0.153
736	0.153
736	0.153
737	0.153
737	0.153
737	0.153
738	0.153
738	0.152
739	0.152
739	0.151
740	0.151
740	0.151
741	0.151
741	0.152
741	0.152
742	0.152
742	0.153
743	0.154
743	0.154
744	0.155
744	0.156
744	0.156
745	0.156
745	0.156
746	0.155
746	0.155
747	0.155
747	0.155
748	0.155
748	0.155
748	0.155
749	0.155
749	0.155
750	0.155
750	0.155
751	0.155
751	0.156
751	0.156
752	0.156
752	0.156
753	0.156
753	0.155
754	0.155
754	0.154
754	0.154
755	0.154
755	0.154
756	0.153
756	0.152
757	0.152
757	0.152
758	0.152
758	0.152
758	0.152
759	0.152
759	0.152
760	0.152
760	0.152
761	0.152
761	0.153
761	0.153
762	0.153
762	0.153
763	0.153
763	0.153
764	0.153
764	0.153
764	0.153
765	0.153
765	0.152
766	0.152
766	0.152
767	0.152
767	0.151
768	0.15
768	0.15
768	0.15
769	0.15
769	0.15
770	0.15
770	0.151
771	0.151
771	0.152
771	0.152
772	0.153
772	0.153
773	0.154
773	0.154
774	0.154
774	0.154
775	0.155
775	0.155
775	0.155
776	0.155
776	0.155
777	0.156
777	0.156
778	0.156
778	0.156
778	0.155
779	0.155
779	0.155
780	0.154
780	0.153
781	0.152
781	0.151
781	0.151
782	0.15
782	0.15
783	0.15
783	0.151
784	0.15
784	0.151
784	0.151
785	0.152
785	0.152
786	0.152
786	0.153
787	0.153
787	0.153
788	0.153
788	0.152
788	0.152
789	0.152
789	0.152
790	0.152
790	0.152
791	0.152
791	0.151
791	0.151
792	0.152
792	0.152
793	0.152
793	0.152
794	0.152
794	0.151
794	0.151
795	0.151
795	0.152
796	0.152
796	0.152
797	0.151
797	0.151
797	0.151
798	0.152
798	0.152
799	0.152
799	0.151
800	0.151
800	0.15
801	0.15
801	0.15
801	0.15
802	0.15
802	0.15
803	0.15
803	0.151
804	0.151
804	0.151
804	0.151
805	0.151
805	0.151
806	0.151
806	0.151
807	0.151
807	0.15
807	0.151
808	0.151
808	0.15
809	0.15
809	0.15
810	0.15
810	0.15
810	0.15
811	0.15
811	0.151
812	0.151
812	0.151
813	0.152
813	0.152
813	0.152
814	0.153
814	0.153
815	0.154
815	0.154
816	0.154
816	0.154
817	0.153
817	0.153
817	0.153
818	0.152
818	0.152
819	0.151
819	0.15
820	0.149
820	0.148
820	0.148
821	0.148
821	0.147
822	0.147
822	0.147
823	0.147
823	0.147
823	0.147
824	0.148
824	0.149
825	0.15
825	0.151
826	0.152
826	0.152
826	0.153
827	0.154
827	0.154
828	0.154
828	0.155
829	0.155
829	0.155
829	0.155
830	0.155
830	0.156
831	0.156
831	0.156
832	0.155
832	0.156
832	0.155
833	0.155
833	0.155
834	0.154
834	0.153
835	0.153
835	0.152
835	0.151
836	0.151
836	0.151
837	0.15
837	0.15
838	0.149
838	0.149
839	0.148
839	0.148
839	0.147
840	0.146
840	0.145
841	0.144
841	0.143
842	0.142
842	0.142
842	0.141
843	0.14
843	0.14
844	0.139
844	0.139
845	0.139
845	0.139
845	0.139
846	0.139
846	0.139
847	0.139
847	0.139
848	0.139
848	0.139
848	0.139
849	0.139
849	0.138
850	0.138
850	0.137
851	0.137
851	0.136
851	0.136
852	0.135
852	0.135
853	0.134
853	0.134
854	0.134
854	0.135
854	0.136
855	0.137
855	0.138
856	0.138
856	0.14
857	0.141
857	0.142
857	0.143
858	0.143
858	0.144
859	0.144
859	0.144
860	0.144
860	0.144
860	0.143
861	0.142
861	0.142
862	0.141
862	0.14
863	0.139
863	0.138
863	0.138
864	0.138
864	0.138
865	0.138
865	0.138
866	0.138
866	0.138
866	0.138
867	0.138
867	0.138
868	0.138
868	0.138
869	0.138
869	0.137
869	0.137
870	0.137
870	0.136
871	0.136
871	0.136
872	0.136
872	0.136
872	0.135
873	0.135
873	0.134
874	0.134
874	0.134
875	0.133
875	0.133
875	0.133
876	0.132
876	0.132
877	0.132
877	0.132
878	0.132
878	0.132
878	0.132
879	0.133
879	0.133
880	0.133
880	0.133
881	0.133
881	0.133
881	0.133
882	0.133
882	0.133
883	0.133
883	0.133
884	0.133
884	0.133
884	0.132
885	0.132
885	0.132
886	0.131
886	0.131
887	0.131
887	0.13
887	0.13
888	0.13
888	0.129
889	0.129
889	0.129
890	0.129
890	0.129
890	0.129
891	0.129
891	0.129
892	0.129
892	0.129
893	0.128
893	0.128
893	0.127
894	0.127
894	0.126
895	0.125
895	0.125
895	0.125
896	0.124
896	0.124
897	0.124
897	0.124
898	0.124
898	0.124
898	0.124
899	0.124
899	0.124
900	0.123
900	0.123
901	0.123
901	0.123
901	0.123
902	0.123
902	0.123
903	0.123
903	0.122
904	0.122
904	0.122
904	0.122
905	0.121
905	0.12
906	0.12
906	0.12
907	0.12
907	0.12
907	0.12
908	0.119
908	0.119
909	0.119
909	0.119
910	0.119
910	0.119
910	0.119
911	0.118
911	0.118
912	0.117
912	0.117
913	0.116
913	0.116
913	0.115
914	0.115
914	0.114
915	0.114
915	0.114
916	0.114
916	0.114
916	0.114
917	0.114
917	0.113
918	0.113
918	0.113
918	0.113
919	0.112
919	0.112
920	0.112
920	0.112
921	0.112
921	0.112
921	0.112
922	0.112
922	0.112
923	0.112
923	0.112
924	0.112
924	0.112
924	0.113
925	0.113
925	0.113
926	0.113
926	0.113
927	0.114
927	0.114
927	0.114
928	0.114
928	0.115
929	0.115
929	0.115
930	0.115
930	0.116
930	0.116
931	0.115
931	0.115
932	0.115
932	0.115
933	0.115
933	0.115
933	0.114
934	0.113
934	0.113
935	0.112
935	0.112
935	0.111
936	0.111
936	0.11
937	0.109
937	0.108
938	0.108
938	0.107
938	0.106
939	0.106
939	0.105
940	0.104
940	0.104
941	0.104
941	0.104
941	0.105
942	0.105
942	0.105
943	0.106
943	0.106
944	0.106
944	0.107
944	0.107
945	0.107
945	0.108
946	0.108
946	0.107
946	0.107
947	0.107
947	0.107
948	0.107
948	0.107
949	0.106
949	0.105
949	0.105
950	0.104
950	0.104
951	0.103
951	0.102
952	0.102
952	0.101
952	0.1
953	0.1
953	0.099
954	0.099
954	0.099
955	0.099
955	0.099
955	0.099
956	0.099
956	0.1
957	0.101
957	0.101
957	0.102
958	0.103
958	0.104
959	0.104
959	0.105
960	0.105
960	0.106
960	0.106
961	0.106
961	0.106
962	0.106
962	0.105
963	0.105
963	0.105
963	0.104
964	0.104
964	0.104
965	0.104
965	0.103
966	0.103
966	0.102
966	0.102
967	0.102
967	0.102
968	0.101
968	0.101
968	0.1
969	0.1
969	0.099
970	0.098
970	0.097
971	0.096
971	0.096
971	0.095
972	0.094
972	0.094
973	0.094
973	0.094
974	0.094
974	0.094
974	0.095
975	0.096
975	0.096
976	0.097
976	0.097
976	0.097
977	0.097
977	0.097
978	0.097
978	0.097
979	0.097
979	0.097
979	0.097
980	0.097
980	0.097
981	0.097
981	0.097
982	0.097
982	0.098
982	0.098
983	0.098
983	0.099
984	0.099
984	0.099
984	0.099
985	0.098
985	0.098
986	0.098
986	0.097
987	0.097
987	0.096
987	0.096
988	0.096
988	0.096
989	0.096
989	0.095
990	0.095
990	0.095
990	0.095
991	0.095
991	0.095
992	0.095
992	0.094
992	0.094
993	0.093
993	0.092
994	0.091
994	0.091
995	0.09
995	0.089
995	0.089
996	0.089
996	0.089
997	0.089
997	0.089
997	0.089
998	0.089
998	0.09
999	0.09
999	0.091
1000	0.092
1000	0.092
1000	0.093
1001	0.093
1001	0.093
1002	0.094
1002	0.093
1003	0.093
1003	0.093
1003	0.093
1004	0.092
1004	0.092
1005	0.091
1005	0.091
1005	0.09
1006	0.09
1006	0.089
1007	0.089
1007	0.088
1008	0.088
1008	0.088
1008	0.087
1009	0.087
1009	0.087
1010	0.086
1010	0.086
1010	0.086
1011	0.085
1011	0.085
1012	0.084
1012	0.084
1013	0.083
1013	0.083
1013	0.082
1014	0.082
1014	0.081
1015	0.081
1015	0.081
1016	0.08
1016	0.08
1016	0.08
1017	0.08
1017	0.08
1018	0.08
1018	0.08
1018	0.08
1019	0.08
1019	0.08
1020	0.08
1020	0.08
1021	0.08
1021	0.081
1021	0.081
1022	0.081
1022	0.081
1023	0.082
1023	0.082
1023	0.083
1024	0.083
1024	0.083
1025	0.083
1025	0.083
1026	0.083
1026	0.083
1026	0.083
1027	0.083
1027	0.083
1028	0.083
1028	0.083
1028	0.083
1029	0.083
1029	0.083
1030	0.083
1030	0.083
1031	0.084
1031	0.084
1031	0.084
1032	0.084
1032	0.084
1033	0.084
1033	0.084
1033	0.084
1034	0.084
1034	0.084
1035	0.084
1035	0.084
1036	0.084
1036	0.084
1036	0.084
1037	0.083
1037	0.083
1038	0.083
1038	0.083
1039	0.082
1039	0.082
1039	0.082
1040	0.082
1040	0.082
1041	0.082
1041	0.081
1041	0.081
1042	0.081
1042	0.081
1043	0.08
1043	0.08
1044	0.08
1044	0.079
1044	0.079
1045	0.079
1045	0.078
1046	0.078
1046	0.078
1046	0.078
1047	0.078
1047	0.077
1048	0.077
1048	0.077
1049	0.078
1049	0.078
1049	0.078
1050	0.077
1050	0.077
1051	0.077
1051	0.077
1051	0.076
1052	0.076
1052	0.076
1053	0.075
1053	0.074
1053	0.074
1054	0.073
1054	0.073
1055	0.073
1055	0.072
1056	0.072
1056	0.071
1056	0.07
1057	0.07
1057	0.069
1058	0.069
1058	0.068
1058	0.068
1059	0.067
1059	0.067
1060	0.066
1060	0.066
1061	0.066
1061	0.066
1061	0.066
1062	0.065
1062	0.066
1063	0.066
1063	0.066
1063	0.066
1064	0.065
1064	0.065
1065	0.066
1065	0.066
1066	0.066
1066	0.066
1066	0.066
1067	0.066
1067	0.066
1068	0.066
1068	0.066
1068	0.066
1069	0.066
1069	0.066
1070	0.065
1070	0.065
1071	0.065
1071	0.064
1071	0.064
1072	0.063
1072	0.063
1073	0.063
1073	0.062
1073	0.062
1074	0.062
1074	0.063
1075	0.062
1075	0.063
1076	0.063
1076	0.064
1076	0.064
1077	0.064
1077	0.065
1078	0.065
1078	0.065
1078	0.065
1079	0.065
1079	0.064
1080	0.063
1080	0.063
1080	0.063
1081	0.062
1081	0.062
1082	0.062
1082	0.062
1083	0.061
1083	0.061
1083	0.061
1084	0.061
1084	0.061
1085	0.061
1085	0.061
1085	0.062
1086	0.062
1086	0.062
1087	0.062
1087	0.062
1088	0.062
1088	0.062
1088	0.062
1089	0.062
1089	0.062
1090	0.061
1090	0.06
1090	0.06
1091	0.059
1091	0.059
1092	0.059
1092	0.059
1092	0.059
1093	0.059
1093	0.059
1094	0.059
1094	0.059
1095	0.058
1095	0.058
1095	0.057
1096	0.057
1096	0.055
1097	0.055
1097	0.054
1097	0.054
1098	0.053
1098	0.052
1099	0.051
1099	0.049
1100	0.049
1100	0.047
1100	0.046
1101	0.046
1101	0.045
1102	0.045
1102	0.044
1102	0.043
1103	0.043
1103	0.043
1104	0.043
1104	0.043
1104	0.042
1105	0.043
1105	0.04
1106	0.041
1106	0.039
1107	0.039
1107	0.04
1107	0.039
1108	0.038
1108	0.038
1109	0.037
1109	0.037
1109	0.036
1110	0.039
1110	0.037
1111	0.037
1111	0.036
