Data from reversibility-20sec_Absorbance__6058__000000000006058.txt Node

Date: Wed Dec 06 21:52:27 CET 2023
User: Marek
Spectrometer: MAYP115816
Trigger mode: 0
Integration Time (sec): 2.000000E-1
Scans to average: 10
Electric dark correction enabled: true
Nonlinearity correction enabled: true
Boxcar width: 5
XAxis mode: Wavelengths
Number of Pixels in Spectrum: 2068
>>>>>Begin Spectral Data<<<<<
199	-0.217
199	-0.183
200	-0.115
200	-0.058
201	-0.03
201	-0.012
202	-0
202	0.01
203	0.02
203	0.023
204	0.037
204	0.052
205	0.064
205	0.071
205	0.067
206	0.067
206	0.068
207	0.07
207	0.068
208	0.067
208	0.068
209	0.069
209	0.067
210	0.069
210	0.069
211	0.074
211	0.075
212	0.072
212	0.075
213	0.077
213	0.079
213	0.079
214	0.083
214	0.085
215	0.087
215	0.087
216	0.086
216	0.086
217	0.091
217	0.093
218	0.096
218	0.099
219	0.103
219	0.104
220	0.108
220	0.108
221	0.108
221	0.111
221	0.117
222	0.122
222	0.125
223	0.129
223	0.133
224	0.137
224	0.144
225	0.152
225	0.165
226	0.175
226	0.185
227	0.194
227	0.204
228	0.216
228	0.231
229	0.248
229	0.271
229	0.293
230	0.317
230	0.344
231	0.378
231	0.417
232	0.457
232	0.499
233	0.543
233	0.591
234	0.642
234	0.693
235	0.747
235	0.802
236	0.852
236	0.905
236	0.955
237	1.004
237	1.055
238	1.103
238	1.15
239	1.197
239	1.242
240	1.28
240	1.315
241	1.352
241	1.385
242	1.417
242	1.45
243	1.479
243	1.505
243	1.529
244	1.55
244	1.57
245	1.588
245	1.611
246	1.627
246	1.643
247	1.656
247	1.669
248	1.683
248	1.696
249	1.708
249	1.715
250	1.723
250	1.731
250	1.738
251	1.745
251	1.749
252	1.756
252	1.757
253	1.762
253	1.762
254	1.763
254	1.767
255	1.768
255	1.769
256	1.766
256	1.765
257	1.766
257	1.763
258	1.764
258	1.764
258	1.764
259	1.763
259	1.761
260	1.76
260	1.761
261	1.763
261	1.766
262	1.767
262	1.769
263	1.773
263	1.773
264	1.773
264	1.774
265	1.775
265	1.777
265	1.777
266	1.778
266	1.778
267	1.776
267	1.777
268	1.775
268	1.777
269	1.778
269	1.776
270	1.776
270	1.774
271	1.772
271	1.77
272	1.768
272	1.767
272	1.765
273	1.76
273	1.755
274	1.75
274	1.746
275	1.74
275	1.734
276	1.726
276	1.72
277	1.712
277	1.703
278	1.691
278	1.681
278	1.669
279	1.656
279	1.64
280	1.621
280	1.599
281	1.572
281	1.542
282	1.508
282	1.473
283	1.438
283	1.403
284	1.367
284	1.332
285	1.299
285	1.267
285	1.239
286	1.213
286	1.19
287	1.17
287	1.153
288	1.137
288	1.125
289	1.113
289	1.103
290	1.094
290	1.087
291	1.08
291	1.074
292	1.068
292	1.063
292	1.058
293	1.053
293	1.049
294	1.045
294	1.041
295	1.038
295	1.034
296	1.031
296	1.027
297	1.023
297	1.02
298	1.017
298	1.013
298	1.01
299	1.007
299	1.003
300	1
300	0.997
301	0.994
301	0.992
302	0.989
302	0.986
303	0.983
303	0.981
304	0.978
304	0.975
305	0.972
305	0.97
305	0.967
306	0.964
306	0.961
307	0.958
307	0.955
308	0.952
308	0.949
309	0.946
309	0.943
310	0.94
310	0.937
311	0.933
311	0.93
311	0.926
312	0.923
312	0.919
313	0.915
313	0.911
314	0.908
314	0.903
315	0.899
315	0.894
316	0.89
316	0.885
317	0.881
317	0.875
318	0.871
318	0.865
318	0.86
319	0.855
319	0.849
320	0.844
320	0.838
321	0.832
321	0.826
322	0.82
322	0.814
323	0.807
323	0.801
324	0.794
324	0.788
324	0.781
325	0.774
325	0.768
326	0.761
326	0.754
327	0.747
327	0.74
328	0.734
328	0.727
329	0.719
329	0.712
330	0.706
330	0.699
330	0.692
331	0.685
331	0.678
332	0.671
332	0.664
333	0.657
333	0.65
334	0.644
334	0.637
335	0.631
335	0.624
336	0.617
336	0.611
336	0.604
337	0.598
337	0.591
338	0.585
338	0.579
339	0.573
339	0.567
340	0.561
340	0.556
341	0.55
341	0.545
342	0.539
342	0.534
342	0.529
343	0.524
343	0.519
344	0.514
344	0.509
345	0.504
345	0.499
346	0.495
346	0.49
347	0.486
347	0.481
348	0.477
348	0.473
348	0.469
349	0.466
349	0.462
350	0.458
350	0.455
351	0.451
351	0.448
352	0.445
352	0.442
353	0.439
353	0.436
354	0.433
354	0.43
354	0.427
355	0.424
355	0.42
356	0.418
356	0.415
357	0.411
357	0.408
358	0.405
358	0.403
359	0.4
359	0.398
360	0.396
360	0.394
360	0.392
361	0.39
361	0.388
362	0.387
362	0.385
363	0.383
363	0.382
364	0.38
364	0.378
365	0.376
365	0.374
366	0.372
366	0.37
366	0.368
367	0.366
367	0.364
368	0.363
368	0.361
369	0.359
369	0.358
370	0.356
370	0.355
371	0.353
371	0.352
372	0.35
372	0.349
372	0.348
373	0.347
373	0.346
374	0.345
374	0.343
375	0.342
375	0.341
376	0.34
376	0.339
377	0.338
377	0.337
378	0.336
378	0.335
378	0.334
379	0.333
379	0.332
380	0.331
380	0.33
381	0.33
381	0.329
382	0.328
382	0.327
383	0.327
383	0.326
383	0.325
384	0.324
384	0.324
385	0.323
385	0.323
386	0.322
386	0.321
387	0.32
387	0.32
388	0.319
388	0.318
389	0.318
389	0.318
389	0.317
390	0.316
390	0.316
391	0.315
391	0.315
392	0.314
392	0.314
393	0.314
393	0.313
394	0.312
394	0.312
394	0.311
395	0.311
395	0.311
396	0.31
396	0.31
397	0.309
397	0.308
398	0.308
398	0.308
399	0.307
399	0.307
400	0.306
400	0.306
400	0.305
401	0.305
401	0.305
402	0.304
402	0.304
403	0.303
403	0.303
404	0.303
404	0.302
405	0.302
405	0.302
405	0.302
406	0.301
406	0.301
407	0.3
407	0.3
408	0.299
408	0.299
409	0.298
409	0.298
410	0.298
410	0.297
411	0.297
411	0.297
411	0.297
412	0.296
412	0.296
413	0.296
413	0.295
414	0.295
414	0.295
415	0.294
415	0.294
416	0.293
416	0.293
416	0.293
417	0.292
417	0.292
418	0.292
418	0.291
419	0.291
419	0.29
420	0.29
420	0.289
421	0.289
421	0.289
421	0.288
422	0.288
422	0.288
423	0.287
423	0.287
424	0.286
424	0.286
425	0.286
425	0.286
426	0.285
426	0.285
427	0.285
427	0.284
427	0.284
428	0.284
428	0.283
429	0.283
429	0.283
430	0.283
430	0.283
431	0.282
431	0.282
432	0.282
432	0.282
432	0.282
433	0.282
433	0.282
434	0.281
434	0.281
435	0.281
435	0.281
436	0.281
436	0.281
437	0.28
437	0.28
437	0.28
438	0.279
438	0.279
439	0.279
439	0.279
440	0.279
440	0.279
441	0.279
441	0.278
442	0.278
442	0.278
442	0.278
443	0.278
443	0.278
444	0.277
444	0.277
445	0.277
445	0.277
446	0.277
446	0.276
447	0.276
447	0.276
447	0.276
448	0.276
448	0.276
449	0.276
449	0.276
450	0.276
450	0.276
451	0.276
451	0.276
452	0.276
452	0.276
452	0.276
453	0.276
453	0.276
454	0.276
454	0.276
455	0.276
455	0.275
456	0.276
456	0.276
457	0.276
457	0.276
458	0.276
458	0.276
458	0.276
459	0.276
459	0.276
460	0.276
460	0.276
461	0.276
461	0.276
462	0.276
462	0.276
463	0.276
463	0.276
463	0.276
464	0.276
464	0.276
465	0.276
465	0.276
466	0.276
466	0.276
467	0.276
467	0.277
467	0.277
468	0.277
468	0.277
469	0.278
469	0.278
470	0.279
470	0.279
471	0.28
471	0.28
472	0.281
472	0.281
472	0.282
473	0.282
473	0.283
474	0.283
474	0.283
475	0.283
475	0.284
476	0.284
476	0.285
477	0.285
477	0.285
477	0.286
478	0.286
478	0.287
479	0.288
479	0.288
480	0.289
480	0.289
481	0.29
481	0.29
482	0.291
482	0.292
482	0.292
483	0.293
483	0.294
484	0.295
484	0.295
485	0.296
485	0.296
486	0.297
486	0.298
487	0.298
487	0.299
487	0.3
488	0.301
488	0.302
489	0.303
489	0.304
490	0.306
490	0.307
491	0.309
491	0.31
492	0.311
492	0.312
492	0.313
493	0.314
493	0.315
494	0.317
494	0.318
495	0.319
495	0.32
496	0.321
496	0.322
496	0.323
497	0.325
497	0.326
498	0.327
498	0.328
499	0.329
499	0.331
500	0.332
500	0.334
501	0.335
501	0.336
501	0.337
502	0.338
502	0.34
503	0.341
503	0.342
504	0.343
504	0.345
505	0.346
505	0.347
506	0.348
506	0.35
506	0.351
507	0.352
507	0.353
508	0.354
508	0.355
509	0.356
509	0.357
510	0.358
510	0.36
511	0.361
511	0.362
511	0.363
512	0.364
512	0.365
513	0.365
513	0.366
514	0.367
514	0.368
515	0.369
515	0.369
515	0.37
516	0.37
516	0.371
517	0.372
517	0.373
518	0.373
518	0.374
519	0.374
519	0.374
520	0.375
520	0.375
520	0.375
521	0.375
521	0.374
522	0.374
522	0.374
523	0.374
523	0.373
524	0.373
524	0.373
524	0.373
525	0.373
525	0.372
526	0.372
526	0.371
527	0.371
527	0.37
528	0.37
528	0.369
529	0.368
529	0.367
529	0.366
530	0.365
530	0.364
531	0.363
531	0.361
532	0.36
532	0.359
533	0.358
533	0.357
533	0.355
534	0.354
534	0.353
535	0.351
535	0.35
536	0.348
536	0.347
537	0.345
537	0.343
538	0.342
538	0.34
538	0.338
539	0.337
539	0.335
540	0.333
540	0.331
541	0.329
541	0.327
542	0.326
542	0.324
542	0.322
543	0.32
543	0.318
544	0.316
544	0.315
545	0.313
545	0.311
546	0.309
546	0.306
547	0.304
547	0.302
547	0.3
548	0.298
548	0.296
549	0.293
549	0.291
550	0.289
550	0.288
551	0.285
551	0.283
551	0.281
552	0.279
552	0.277
553	0.275
553	0.273
554	0.271
554	0.269
555	0.266
555	0.264
556	0.262
556	0.26
556	0.258
557	0.256
557	0.255
558	0.254
558	0.252
559	0.25
559	0.248
560	0.246
560	0.244
560	0.243
561	0.241
561	0.239
562	0.237
562	0.235
563	0.232
563	0.231
564	0.229
564	0.227
564	0.225
565	0.224
565	0.222
566	0.22
566	0.219
567	0.217
567	0.216
568	0.214
568	0.212
568	0.211
569	0.209
569	0.207
570	0.205
570	0.203
571	0.202
571	0.201
572	0.199
572	0.197
573	0.196
573	0.195
573	0.193
574	0.192
574	0.191
575	0.19
575	0.189
576	0.188
576	0.187
577	0.185
577	0.184
577	0.183
578	0.182
578	0.18
579	0.18
579	0.179
580	0.177
580	0.175
581	0.174
581	0.173
581	0.172
582	0.172
582	0.171
583	0.17
583	0.169
584	0.168
584	0.166
585	0.165
585	0.164
585	0.163
586	0.162
586	0.161
587	0.159
587	0.158
588	0.157
588	0.156
589	0.155
589	0.154
590	0.153
590	0.153
590	0.153
591	0.153
591	0.152
592	0.151
592	0.15
593	0.149
593	0.149
594	0.148
594	0.147
594	0.146
595	0.145
595	0.144
596	0.143
596	0.142
597	0.143
597	0.142
598	0.141
598	0.141
598	0.14
599	0.139
599	0.138
600	0.137
600	0.137
601	0.136
601	0.136
602	0.135
602	0.134
602	0.133
603	0.132
603	0.132
604	0.131
604	0.131
605	0.131
605	0.131
606	0.13
606	0.129
606	0.128
607	0.128
607	0.127
608	0.127
608	0.126
609	0.125
609	0.125
610	0.124
610	0.123
610	0.123
611	0.122
611	0.122
612	0.122
612	0.122
613	0.122
613	0.121
614	0.121
614	0.12
614	0.12
615	0.119
615	0.119
616	0.119
616	0.118
617	0.118
617	0.117
618	0.117
618	0.116
618	0.116
619	0.116
619	0.116
620	0.117
620	0.116
621	0.115
621	0.115
622	0.114
622	0.114
622	0.113
623	0.112
623	0.112
624	0.111
624	0.11
625	0.109
625	0.108
626	0.108
626	0.107
626	0.107
627	0.106
627	0.106
628	0.106
628	0.105
629	0.105
629	0.104
630	0.104
630	0.103
630	0.103
631	0.103
631	0.103
632	0.102
632	0.102
633	0.102
633	0.102
634	0.102
634	0.102
634	0.102
635	0.102
635	0.101
636	0.101
636	0.102
637	0.101
637	0.101
638	0.101
638	0.101
638	0.1
639	0.1
639	0.099
640	0.099
640	0.099
641	0.098
641	0.098
642	0.097
642	0.097
642	0.097
643	0.097
643	0.096
644	0.096
644	0.096
645	0.095
645	0.095
646	0.095
646	0.095
646	0.095
647	0.094
647	0.094
648	0.093
648	0.093
649	0.092
649	0.092
650	0.092
650	0.092
650	0.092
651	0.092
651	0.091
652	0.091
652	0.091
653	0.091
653	0.093
653	0.099
654	0.08
654	0.065
655	0.063
655	0.063
656	0.063
656	0.063
657	0.063
657	0.064
657	0.064
658	0.063
658	0.055
659	0.069
659	0.087
660	0.093
660	0.093
661	0.092
661	0.092
661	0.092
662	0.091
662	0.091
663	0.09
663	0.089
664	0.089
664	0.088
665	0.088
665	0.088
665	0.088
666	0.088
666	0.088
667	0.088
667	0.089
668	0.089
668	0.089
669	0.089
669	0.09
669	0.09
670	0.09
670	0.09
671	0.09
671	0.089
672	0.088
672	0.088
672	0.087
673	0.087
673	0.087
674	0.086
674	0.085
675	0.085
675	0.085
676	0.085
676	0.085
676	0.085
677	0.085
677	0.085
678	0.084
678	0.083
679	0.083
679	0.083
680	0.082
680	0.082
680	0.082
681	0.081
681	0.081
682	0.082
682	0.082
683	0.082
683	0.083
684	0.083
684	0.083
684	0.083
685	0.083
685	0.084
686	0.084
686	0.084
687	0.084
687	0.083
687	0.083
688	0.083
688	0.083
689	0.083
689	0.083
690	0.083
690	0.082
691	0.082
691	0.082
691	0.082
692	0.082
692	0.082
693	0.082
693	0.083
694	0.082
694	0.082
695	0.083
695	0.084
695	0.084
696	0.083
696	0.083
697	0.083
697	0.083
698	0.083
698	0.083
698	0.083
699	0.083
699	0.083
700	0.082
700	0.082
701	0.083
701	0.082
702	0.082
702	0.082
702	0.082
703	0.081
703	0.081
704	0.081
704	0.08
705	0.08
705	0.08
705	0.08
706	0.08
706	0.08
707	0.08
707	0.08
708	0.08
708	0.08
709	0.081
709	0.08
709	0.08
710	0.08
710	0.08
711	0.08
711	0.08
712	0.08
712	0.079
713	0.079
713	0.079
713	0.078
714	0.078
714	0.077
715	0.077
715	0.076
716	0.076
716	0.075
716	0.075
717	0.075
717	0.074
718	0.074
718	0.074
719	0.074
719	0.074
720	0.074
720	0.075
720	0.075
721	0.075
721	0.075
722	0.076
722	0.075
723	0.075
723	0.076
723	0.075
724	0.075
724	0.074
725	0.073
725	0.073
726	0.072
726	0.072
727	0.071
727	0.071
727	0.07
728	0.07
728	0.07
729	0.07
729	0.07
730	0.07
730	0.07
730	0.071
731	0.071
731	0.072
732	0.072
732	0.073
733	0.073
733	0.073
734	0.073
734	0.074
734	0.074
735	0.074
735	0.073
736	0.073
736	0.073
737	0.072
737	0.072
737	0.071
738	0.07
738	0.069
739	0.069
739	0.068
740	0.068
740	0.068
741	0.068
741	0.067
741	0.067
742	0.067
742	0.068
743	0.069
743	0.069
744	0.07
744	0.07
744	0.07
745	0.07
745	0.07
746	0.07
746	0.07
747	0.07
747	0.07
748	0.07
748	0.07
748	0.07
749	0.069
749	0.07
750	0.069
750	0.069
751	0.069
751	0.069
751	0.068
752	0.068
752	0.067
753	0.066
753	0.065
754	0.065
754	0.064
754	0.065
755	0.065
755	0.065
756	0.065
756	0.064
757	0.064
757	0.064
758	0.064
758	0.065
758	0.065
759	0.065
759	0.065
760	0.065
760	0.064
761	0.065
761	0.065
761	0.065
762	0.065
762	0.065
763	0.065
763	0.064
764	0.063
764	0.063
764	0.063
765	0.062
765	0.062
766	0.061
766	0.061
767	0.06
767	0.059
768	0.058
768	0.059
768	0.059
769	0.059
769	0.059
770	0.06
770	0.06
771	0.061
771	0.062
771	0.063
772	0.064
772	0.065
773	0.065
773	0.065
774	0.065
774	0.065
775	0.065
775	0.065
775	0.065
776	0.065
776	0.064
777	0.064
777	0.064
778	0.063
778	0.063
778	0.063
779	0.063
779	0.063
780	0.062
780	0.062
781	0.061
781	0.061
781	0.061
782	0.061
782	0.061
783	0.061
783	0.061
784	0.061
784	0.061
784	0.061
785	0.062
785	0.062
786	0.062
786	0.062
787	0.062
787	0.062
788	0.06
788	0.059
788	0.059
789	0.058
789	0.057
790	0.056
790	0.056
791	0.055
791	0.054
791	0.054
792	0.055
792	0.055
793	0.055
793	0.055
794	0.054
794	0.054
794	0.054
795	0.054
795	0.054
796	0.054
796	0.054
797	0.054
797	0.054
797	0.054
798	0.055
798	0.055
799	0.055
799	0.055
800	0.055
800	0.054
801	0.054
801	0.054
801	0.054
802	0.054
802	0.055
803	0.055
803	0.055
804	0.055
804	0.055
804	0.055
805	0.055
805	0.055
806	0.054
806	0.054
807	0.053
807	0.053
807	0.053
808	0.052
808	0.052
809	0.052
809	0.053
810	0.053
810	0.053
810	0.053
811	0.054
811	0.054
812	0.055
812	0.055
813	0.055
813	0.055
813	0.055
814	0.055
814	0.055
815	0.055
815	0.055
816	0.055
816	0.054
817	0.054
817	0.054
817	0.054
818	0.054
818	0.054
819	0.053
819	0.053
820	0.052
820	0.052
820	0.052
821	0.052
821	0.052
822	0.052
822	0.052
823	0.051
823	0.051
823	0.051
824	0.052
824	0.053
825	0.054
825	0.054
826	0.054
826	0.054
826	0.054
827	0.055
827	0.055
828	0.055
828	0.055
829	0.055
829	0.055
829	0.055
830	0.055
830	0.056
831	0.056
831	0.057
832	0.056
832	0.056
832	0.056
833	0.056
833	0.056
834	0.055
834	0.055
835	0.054
835	0.054
835	0.053
836	0.053
836	0.052
837	0.052
837	0.052
838	0.051
838	0.051
839	0.05
839	0.049
839	0.049
840	0.048
840	0.047
841	0.047
841	0.046
842	0.045
842	0.045
842	0.044
843	0.044
843	0.044
844	0.043
844	0.043
845	0.042
845	0.042
845	0.041
846	0.041
846	0.041
847	0.041
847	0.042
848	0.042
848	0.042
848	0.043
849	0.044
849	0.045
850	0.045
850	0.046
851	0.046
851	0.047
851	0.047
852	0.046
852	0.046
853	0.046
853	0.046
854	0.045
854	0.046
854	0.046
855	0.046
855	0.046
856	0.046
856	0.046
857	0.047
857	0.047
857	0.048
858	0.048
858	0.048
859	0.048
859	0.047
860	0.047
860	0.047
860	0.047
861	0.047
861	0.046
862	0.046
862	0.045
863	0.044
863	0.044
863	0.043
864	0.043
864	0.043
865	0.043
865	0.043
866	0.042
866	0.042
866	0.042
867	0.043
867	0.043
868	0.044
868	0.044
869	0.045
869	0.045
869	0.045
870	0.045
870	0.046
871	0.046
871	0.046
872	0.046
872	0.045
872	0.045
873	0.045
873	0.044
874	0.044
874	0.043
875	0.043
875	0.043
875	0.043
876	0.043
876	0.042
877	0.042
877	0.042
878	0.043
878	0.043
878	0.043
879	0.044
879	0.044
880	0.045
880	0.045
881	0.045
881	0.045
881	0.046
882	0.046
882	0.046
883	0.046
883	0.046
884	0.046
884	0.046
884	0.046
885	0.045
885	0.045
886	0.045
886	0.044
887	0.044
887	0.043
887	0.042
888	0.042
888	0.041
889	0.04
889	0.04
890	0.04
890	0.039
890	0.039
891	0.039
891	0.039
892	0.039
892	0.038
893	0.038
893	0.038
893	0.038
894	0.038
894	0.038
895	0.037
895	0.038
895	0.038
896	0.038
896	0.039
897	0.04
897	0.04
898	0.041
898	0.041
898	0.042
899	0.042
899	0.042
900	0.042
900	0.042
901	0.042
901	0.042
901	0.042
902	0.042
902	0.042
903	0.041
903	0.041
904	0.041
904	0.041
904	0.04
905	0.04
905	0.04
906	0.039
906	0.039
907	0.039
907	0.04
907	0.04
908	0.04
908	0.04
909	0.04
909	0.04
910	0.04
910	0.04
910	0.04
911	0.04
911	0.039
912	0.039
912	0.039
913	0.039
913	0.039
913	0.039
914	0.039
914	0.039
915	0.039
915	0.039
916	0.039
916	0.039
916	0.039
917	0.039
917	0.038
918	0.038
918	0.037
918	0.037
919	0.037
919	0.037
920	0.036
920	0.036
921	0.036
921	0.036
921	0.036
922	0.036
922	0.036
923	0.036
923	0.036
924	0.037
924	0.037
924	0.037
925	0.038
925	0.039
926	0.04
926	0.04
927	0.041
927	0.041
927	0.042
928	0.042
928	0.042
929	0.042
929	0.042
930	0.042
930	0.042
930	0.041
931	0.041
931	0.041
932	0.041
932	0.041
933	0.041
933	0.041
933	0.041
934	0.041
934	0.041
935	0.041
935	0.04
935	0.04
936	0.04
936	0.039
937	0.039
937	0.039
938	0.038
938	0.038
938	0.038
939	0.037
939	0.037
940	0.036
940	0.036
941	0.036
941	0.037
941	0.037
942	0.037
942	0.037
943	0.037
943	0.037
944	0.037
944	0.037
944	0.038
945	0.038
945	0.038
946	0.038
946	0.038
946	0.038
947	0.039
947	0.039
948	0.039
948	0.039
949	0.039
949	0.039
949	0.039
950	0.039
950	0.039
951	0.04
951	0.039
952	0.039
952	0.039
952	0.04
953	0.04
953	0.04
954	0.04
954	0.04
955	0.04
955	0.04
955	0.04
956	0.04
956	0.041
957	0.041
957	0.041
957	0.041
958	0.041
958	0.04
959	0.04
959	0.04
960	0.04
960	0.04
960	0.04
961	0.04
961	0.04
962	0.04
962	0.04
963	0.04
963	0.04
963	0.04
964	0.04
964	0.04
965	0.041
965	0.041
966	0.041
966	0.041
966	0.041
967	0.041
967	0.041
968	0.041
968	0.041
968	0.04
969	0.04
969	0.039
970	0.038
970	0.038
971	0.037
971	0.036
971	0.036
972	0.035
972	0.035
973	0.034
973	0.034
974	0.034
974	0.034
974	0.034
975	0.035
975	0.035
976	0.036
976	0.036
976	0.037
977	0.037
977	0.037
978	0.037
978	0.037
979	0.037
979	0.036
979	0.036
980	0.035
980	0.035
981	0.034
981	0.033
982	0.033
982	0.033
982	0.032
983	0.032
983	0.032
984	0.032
984	0.032
984	0.032
985	0.032
985	0.033
986	0.033
986	0.033
987	0.033
987	0.034
987	0.034
988	0.034
988	0.034
989	0.034
989	0.034
990	0.033
990	0.033
990	0.033
991	0.032
991	0.032
992	0.031
992	0.03
992	0.03
993	0.029
993	0.028
994	0.027
994	0.026
995	0.026
995	0.025
995	0.025
996	0.025
996	0.025
997	0.025
997	0.026
997	0.026
998	0.027
998	0.028
999	0.029
999	0.03
1000	0.031
1000	0.031
1000	0.031
1001	0.032
1001	0.032
1002	0.031
1002	0.031
1003	0.031
1003	0.03
1003	0.03
1004	0.029
1004	0.028
1005	0.027
1005	0.026
1005	0.026
1006	0.025
1006	0.024
1007	0.024
1007	0.023
1008	0.023
1008	0.023
1008	0.023
1009	0.024
1009	0.024
1010	0.025
1010	0.025
1010	0.025
1011	0.026
1011	0.026
1012	0.026
1012	0.026
1013	0.026
1013	0.026
1013	0.026
1014	0.025
1014	0.025
1015	0.025
1015	0.026
1016	0.026
1016	0.026
1016	0.026
1017	0.026
1017	0.026
1018	0.026
1018	0.027
1018	0.027
1019	0.027
1019	0.027
1020	0.028
1020	0.028
1021	0.028
1021	0.029
1021	0.029
1022	0.029
1022	0.03
1023	0.03
1023	0.03
1023	0.03
1024	0.03
1024	0.03
1025	0.03
1025	0.03
1026	0.03
1026	0.029
1026	0.029
1027	0.029
1027	0.029
1028	0.029
1028	0.028
1028	0.028
1029	0.028
1029	0.028
1030	0.029
1030	0.029
1031	0.029
1031	0.029
1031	0.03
1032	0.03
1032	0.031
1033	0.031
1033	0.031
1033	0.032
1034	0.032
1034	0.032
1035	0.032
1035	0.032
1036	0.033
1036	0.033
1036	0.033
1037	0.033
1037	0.032
1038	0.032
1038	0.032
1039	0.032
1039	0.032
1039	0.032
1040	0.032
1040	0.032
1041	0.032
1041	0.032
1041	0.032
1042	0.032
1042	0.032
1043	0.032
1043	0.032
1044	0.032
1044	0.032
1044	0.032
1045	0.032
1045	0.032
1046	0.032
1046	0.032
1046	0.032
1047	0.032
1047	0.032
1048	0.033
1048	0.033
1049	0.033
1049	0.033
1049	0.033
1050	0.033
1050	0.033
1051	0.033
1051	0.032
1051	0.032
1052	0.031
1052	0.031
1053	0.03
1053	0.029
1053	0.028
1054	0.028
1054	0.027
1055	0.027
1055	0.026
1056	0.026
1056	0.025
1056	0.025
1057	0.025
1057	0.024
1058	0.024
1058	0.023
1058	0.023
1059	0.022
1059	0.022
1060	0.022
1060	0.022
1061	0.021
1061	0.021
1061	0.021
1062	0.02
1062	0.02
1063	0.02
1063	0.02
1063	0.02
1064	0.02
1064	0.02
1065	0.02
1065	0.02
1066	0.02
1066	0.02
1066	0.02
1067	0.02
1067	0.02
1068	0.02
1068	0.02
1068	0.02
1069	0.02
1069	0.019
1070	0.019
1070	0.019
1071	0.018
1071	0.018
1071	0.018
1072	0.017
1072	0.017
1073	0.016
1073	0.016
1073	0.016
1074	0.016
1074	0.016
1075	0.016
1075	0.017
1076	0.017
1076	0.018
1076	0.018
1077	0.018
1077	0.019
1078	0.019
1078	0.019
1078	0.019
1079	0.019
1079	0.019
1080	0.018
1080	0.018
1080	0.018
1081	0.018
1081	0.017
1082	0.018
1082	0.018
1083	0.018
1083	0.018
1083	0.018
1084	0.018
1084	0.018
1085	0.018
1085	0.019
1085	0.019
1086	0.02
1086	0.019
1087	0.019
1087	0.019
1088	0.019
1088	0.019
1088	0.019
1089	0.019
1089	0.019
1090	0.018
1090	0.018
1090	0.017
1091	0.016
1091	0.016
1092	0.015
1092	0.015
1092	0.015
1093	0.014
1093	0.014
1094	0.013
1094	0.013
1095	0.012
1095	0.012
1095	0.012
1096	0.011
1096	0.01
1097	0.01
1097	0.009
1097	0.008
1098	0.007
1098	0.006
1099	0.005
1099	0.005
1100	0.004
1100	0.002
1100	0.001
1101	0
1101	-0.001
1102	-0.001
1102	-0.002
1102	-0.004
1103	-0.004
1103	-0.004
1104	-0.005
1104	-0.006
1104	-0.007
1105	-0.008
1105	-0.011
1106	-0.013
1106	-0.015
1107	-0.017
1107	-0.018
1107	-0.019
1108	-0.021
1108	-0.022
1109	-0.024
1109	-0.024
1109	-0.025
1110	-0.024
1110	-0.026
1111	-0.024
1111	-0.026
