Data from reversibility-20sec_Absorbance__6306__000000000006306.txt Node

Date: Wed Dec 06 23:15:06 CET 2023
User: Marek
Spectrometer: MAYP115816
Trigger mode: 0
Integration Time (sec): 2.000000E-1
Scans to average: 10
Electric dark correction enabled: true
Nonlinearity correction enabled: true
Boxcar width: 5
XAxis mode: Wavelengths
Number of Pixels in Spectrum: 2068
>>>>>Begin Spectral Data<<<<<
199	-0.145
199	-0.131
200	-0.064
200	-0.015
201	0.013
201	0.032
202	0.043
202	0.052
203	0.06
203	0.062
204	0.076
204	0.089
205	0.102
205	0.109
205	0.111
206	0.109
206	0.109
207	0.108
207	0.108
208	0.108
208	0.109
209	0.112
209	0.11
210	0.112
210	0.112
211	0.111
211	0.115
212	0.111
212	0.115
213	0.118
213	0.117
213	0.118
214	0.12
214	0.122
215	0.122
215	0.118
216	0.119
216	0.119
217	0.127
217	0.127
218	0.124
218	0.127
219	0.13
219	0.131
220	0.133
220	0.132
221	0.134
221	0.136
221	0.141
222	0.143
222	0.147
223	0.154
223	0.158
224	0.163
224	0.17
225	0.179
225	0.19
226	0.203
226	0.214
227	0.223
227	0.233
228	0.247
228	0.261
229	0.277
229	0.3
229	0.323
230	0.347
230	0.375
231	0.405
231	0.443
232	0.481
232	0.527
233	0.571
233	0.621
234	0.675
234	0.725
235	0.778
235	0.833
236	0.885
236	0.937
236	0.986
237	1.035
237	1.083
238	1.128
238	1.176
239	1.22
239	1.263
240	1.305
240	1.338
241	1.376
241	1.411
242	1.444
242	1.478
243	1.505
243	1.534
243	1.559
244	1.581
244	1.603
245	1.619
245	1.643
246	1.659
246	1.676
247	1.692
247	1.705
248	1.72
248	1.733
249	1.742
249	1.75
250	1.758
250	1.765
250	1.768
251	1.774
251	1.778
252	1.781
252	1.78
253	1.781
253	1.777
254	1.776
254	1.776
255	1.774
255	1.775
256	1.774
256	1.771
257	1.769
257	1.769
258	1.771
258	1.771
258	1.774
259	1.775
259	1.774
260	1.774
260	1.776
261	1.777
261	1.781
262	1.784
262	1.785
263	1.787
263	1.788
264	1.788
264	1.789
265	1.791
265	1.792
265	1.792
266	1.793
266	1.793
267	1.791
267	1.791
268	1.791
268	1.792
269	1.792
269	1.792
270	1.79
270	1.79
271	1.788
271	1.787
272	1.784
272	1.783
272	1.78
273	1.774
273	1.768
274	1.763
274	1.757
275	1.751
275	1.745
276	1.738
276	1.73
277	1.722
277	1.712
278	1.7
278	1.688
278	1.674
279	1.659
279	1.64
280	1.616
280	1.586
281	1.551
281	1.513
282	1.473
282	1.431
283	1.39
283	1.35
284	1.311
284	1.273
285	1.237
285	1.204
285	1.175
286	1.148
286	1.126
287	1.107
287	1.09
288	1.075
288	1.063
289	1.053
289	1.043
290	1.035
290	1.028
291	1.022
291	1.017
292	1.012
292	1.007
292	1.003
293	0.999
293	0.995
294	0.991
294	0.988
295	0.985
295	0.982
296	0.979
296	0.976
297	0.972
297	0.97
298	0.966
298	0.963
298	0.961
299	0.958
299	0.955
300	0.952
300	0.949
301	0.946
301	0.943
302	0.941
302	0.938
303	0.936
303	0.934
304	0.931
304	0.929
305	0.927
305	0.924
305	0.922
306	0.92
306	0.917
307	0.915
307	0.912
308	0.909
308	0.907
309	0.904
309	0.901
310	0.898
310	0.896
311	0.892
311	0.889
311	0.886
312	0.882
312	0.879
313	0.875
313	0.871
314	0.867
314	0.863
315	0.859
315	0.855
316	0.85
316	0.846
317	0.841
317	0.837
318	0.832
318	0.827
318	0.822
319	0.816
319	0.811
320	0.805
320	0.799
321	0.794
321	0.788
322	0.781
322	0.775
323	0.769
323	0.762
324	0.756
324	0.749
324	0.742
325	0.736
325	0.729
326	0.722
326	0.715
327	0.708
327	0.701
328	0.695
328	0.688
329	0.68
329	0.673
330	0.666
330	0.66
330	0.652
331	0.645
331	0.638
332	0.632
332	0.625
333	0.618
333	0.611
334	0.604
334	0.597
335	0.59
335	0.583
336	0.577
336	0.57
336	0.564
337	0.557
337	0.551
338	0.545
338	0.538
339	0.532
339	0.526
340	0.521
340	0.515
341	0.509
341	0.504
342	0.498
342	0.493
342	0.487
343	0.482
343	0.477
344	0.472
344	0.467
345	0.463
345	0.458
346	0.453
346	0.449
347	0.445
347	0.441
348	0.437
348	0.433
348	0.429
349	0.425
349	0.421
350	0.418
350	0.414
351	0.411
351	0.407
352	0.404
352	0.401
353	0.398
353	0.395
354	0.392
354	0.39
354	0.387
355	0.384
355	0.381
356	0.378
356	0.375
357	0.372
357	0.369
358	0.367
358	0.364
359	0.362
359	0.359
360	0.357
360	0.355
360	0.354
361	0.352
361	0.35
362	0.348
362	0.347
363	0.345
363	0.343
364	0.341
364	0.339
365	0.337
365	0.335
366	0.334
366	0.332
366	0.33
367	0.328
367	0.327
368	0.325
368	0.323
369	0.322
369	0.321
370	0.319
370	0.318
371	0.317
371	0.315
372	0.314
372	0.313
372	0.312
373	0.311
373	0.31
374	0.309
374	0.307
375	0.306
375	0.305
376	0.304
376	0.304
377	0.303
377	0.302
378	0.301
378	0.3
378	0.299
379	0.298
379	0.298
380	0.297
380	0.296
381	0.296
381	0.295
382	0.294
382	0.294
383	0.293
383	0.293
383	0.292
384	0.291
384	0.291
385	0.29
385	0.29
386	0.289
386	0.289
387	0.288
387	0.288
388	0.287
388	0.287
389	0.286
389	0.286
389	0.286
390	0.285
390	0.285
391	0.284
391	0.284
392	0.284
392	0.284
393	0.283
393	0.283
394	0.282
394	0.282
394	0.281
395	0.281
395	0.281
396	0.28
396	0.28
397	0.279
397	0.279
398	0.279
398	0.278
399	0.278
399	0.278
400	0.277
400	0.277
400	0.277
401	0.277
401	0.276
402	0.276
402	0.276
403	0.275
403	0.275
404	0.275
404	0.275
405	0.274
405	0.274
405	0.274
406	0.274
406	0.273
407	0.273
407	0.273
408	0.272
408	0.272
409	0.272
409	0.271
410	0.271
410	0.271
411	0.27
411	0.27
411	0.27
412	0.27
412	0.269
413	0.269
413	0.269
414	0.268
414	0.268
415	0.268
415	0.267
416	0.267
416	0.267
416	0.266
417	0.266
417	0.265
418	0.265
418	0.265
419	0.264
419	0.264
420	0.263
420	0.263
421	0.263
421	0.262
421	0.262
422	0.262
422	0.262
423	0.261
423	0.261
424	0.261
424	0.26
425	0.26
425	0.26
426	0.259
426	0.259
427	0.259
427	0.258
427	0.258
428	0.258
428	0.257
429	0.257
429	0.257
430	0.256
430	0.256
431	0.256
431	0.256
432	0.256
432	0.256
432	0.255
433	0.255
433	0.255
434	0.255
434	0.255
435	0.254
435	0.254
436	0.254
436	0.254
437	0.253
437	0.253
437	0.253
438	0.253
438	0.253
439	0.253
439	0.252
440	0.252
440	0.252
441	0.252
441	0.251
442	0.251
442	0.251
442	0.251
443	0.251
443	0.25
444	0.25
444	0.25
445	0.25
445	0.249
446	0.249
446	0.249
447	0.248
447	0.248
447	0.248
448	0.248
448	0.248
449	0.248
449	0.247
450	0.247
450	0.247
451	0.247
451	0.247
452	0.247
452	0.247
452	0.247
453	0.247
453	0.247
454	0.246
454	0.246
455	0.246
455	0.245
456	0.245
456	0.245
457	0.245
457	0.245
458	0.245
458	0.245
458	0.244
459	0.244
459	0.244
460	0.244
460	0.244
461	0.244
461	0.244
462	0.243
462	0.243
463	0.243
463	0.243
463	0.243
464	0.243
464	0.242
465	0.242
465	0.242
466	0.242
466	0.242
467	0.243
467	0.243
467	0.243
468	0.243
468	0.243
469	0.243
469	0.244
470	0.244
470	0.244
471	0.244
471	0.244
472	0.244
472	0.244
472	0.244
473	0.245
473	0.245
474	0.244
474	0.244
475	0.244
475	0.244
476	0.244
476	0.245
477	0.245
477	0.245
477	0.245
478	0.245
478	0.246
479	0.246
479	0.246
480	0.246
480	0.246
481	0.246
481	0.246
482	0.246
482	0.246
482	0.247
483	0.247
483	0.247
484	0.248
484	0.248
485	0.248
485	0.248
486	0.249
486	0.249
487	0.249
487	0.25
487	0.25
488	0.25
488	0.251
489	0.251
489	0.252
490	0.253
490	0.254
491	0.255
491	0.255
492	0.256
492	0.257
492	0.258
493	0.258
493	0.259
494	0.259
494	0.26
495	0.26
495	0.261
496	0.261
496	0.262
496	0.263
497	0.263
497	0.264
498	0.264
498	0.265
499	0.265
499	0.266
500	0.267
500	0.268
501	0.269
501	0.269
501	0.27
502	0.271
502	0.272
503	0.272
503	0.273
504	0.274
504	0.274
505	0.275
505	0.276
506	0.276
506	0.277
506	0.277
507	0.278
507	0.278
508	0.279
508	0.28
509	0.28
509	0.281
510	0.282
510	0.282
511	0.283
511	0.284
511	0.285
512	0.286
512	0.286
513	0.287
513	0.287
514	0.287
514	0.288
515	0.289
515	0.289
515	0.289
516	0.29
516	0.29
517	0.291
517	0.291
518	0.292
518	0.292
519	0.292
519	0.292
520	0.292
520	0.293
520	0.293
521	0.293
521	0.293
522	0.294
522	0.294
523	0.294
523	0.294
524	0.294
524	0.294
524	0.294
525	0.294
525	0.294
526	0.294
526	0.294
527	0.293
527	0.293
528	0.293
528	0.293
529	0.292
529	0.292
529	0.291
530	0.291
530	0.291
531	0.29
531	0.29
532	0.289
532	0.289
533	0.288
533	0.288
533	0.287
534	0.287
534	0.286
535	0.286
535	0.286
536	0.285
536	0.284
537	0.284
537	0.283
538	0.282
538	0.282
538	0.281
539	0.28
539	0.279
540	0.279
540	0.278
541	0.277
541	0.276
542	0.276
542	0.275
542	0.274
543	0.273
543	0.272
544	0.272
544	0.271
545	0.27
545	0.269
546	0.268
546	0.267
547	0.266
547	0.265
547	0.264
548	0.263
548	0.262
549	0.262
549	0.261
550	0.26
550	0.259
551	0.258
551	0.258
551	0.257
552	0.255
552	0.254
553	0.253
553	0.252
554	0.251
554	0.25
555	0.249
555	0.247
556	0.246
556	0.245
556	0.245
557	0.244
557	0.244
558	0.243
558	0.243
559	0.242
559	0.241
560	0.241
560	0.24
560	0.239
561	0.239
561	0.238
562	0.237
562	0.235
563	0.234
563	0.233
564	0.232
564	0.231
564	0.231
565	0.23
565	0.229
566	0.228
566	0.227
567	0.227
567	0.226
568	0.226
568	0.225
568	0.224
569	0.223
569	0.222
570	0.221
570	0.22
571	0.219
571	0.218
572	0.217
572	0.216
573	0.216
573	0.215
573	0.214
574	0.214
574	0.213
575	0.213
575	0.213
576	0.212
576	0.211
577	0.21
577	0.21
577	0.209
578	0.208
578	0.208
579	0.208
579	0.207
580	0.206
580	0.205
581	0.204
581	0.204
581	0.204
582	0.204
582	0.203
583	0.203
583	0.203
584	0.202
584	0.201
585	0.201
585	0.2
585	0.2
586	0.199
586	0.198
587	0.197
587	0.196
588	0.196
588	0.195
589	0.195
589	0.194
590	0.194
590	0.194
590	0.194
591	0.193
591	0.193
592	0.192
592	0.191
593	0.191
593	0.19
594	0.19
594	0.189
594	0.188
595	0.188
595	0.187
596	0.186
596	0.187
597	0.187
597	0.187
598	0.187
598	0.186
598	0.186
599	0.186
599	0.185
600	0.185
600	0.184
601	0.184
601	0.183
602	0.183
602	0.182
602	0.181
603	0.181
603	0.181
604	0.181
604	0.181
605	0.181
605	0.18
606	0.18
606	0.179
606	0.179
607	0.179
607	0.179
608	0.179
608	0.178
609	0.177
609	0.177
610	0.177
610	0.176
610	0.176
611	0.176
611	0.175
612	0.175
612	0.175
613	0.175
613	0.175
614	0.174
614	0.174
614	0.174
615	0.173
615	0.173
616	0.173
616	0.173
617	0.173
617	0.173
618	0.173
618	0.173
618	0.173
619	0.173
619	0.173
620	0.174
620	0.173
621	0.173
621	0.172
622	0.172
622	0.171
622	0.17
623	0.17
623	0.169
624	0.169
624	0.168
625	0.167
625	0.167
626	0.166
626	0.166
626	0.166
627	0.166
627	0.166
628	0.166
628	0.166
629	0.165
629	0.165
630	0.165
630	0.164
630	0.164
631	0.164
631	0.164
632	0.163
632	0.163
633	0.163
633	0.163
634	0.163
634	0.163
634	0.163
635	0.163
635	0.163
636	0.163
636	0.163
637	0.162
637	0.162
638	0.162
638	0.161
638	0.161
639	0.161
639	0.16
640	0.16
640	0.16
641	0.16
641	0.16
642	0.16
642	0.16
642	0.16
643	0.16
643	0.16
644	0.16
644	0.16
645	0.16
645	0.159
646	0.159
646	0.159
646	0.159
647	0.159
647	0.159
648	0.158
648	0.158
649	0.157
649	0.157
650	0.157
650	0.157
650	0.157
651	0.157
651	0.157
652	0.157
652	0.157
653	0.158
653	0.159
653	0.165
654	0.131
654	0.105
655	0.105
655	0.105
656	0.105
656	0.105
657	0.106
657	0.106
657	0.106
658	0.105
658	0.096
659	0.12
659	0.154
660	0.159
660	0.159
661	0.159
661	0.159
661	0.158
662	0.158
662	0.157
663	0.157
663	0.157
664	0.156
664	0.156
665	0.156
665	0.155
665	0.155
666	0.155
666	0.155
667	0.155
667	0.156
668	0.156
668	0.157
669	0.157
669	0.158
669	0.158
670	0.159
670	0.159
671	0.159
671	0.159
672	0.158
672	0.158
672	0.157
673	0.156
673	0.156
674	0.155
674	0.155
675	0.154
675	0.154
676	0.154
676	0.154
676	0.154
677	0.154
677	0.154
678	0.154
678	0.154
679	0.154
679	0.154
680	0.155
680	0.155
680	0.154
681	0.154
681	0.154
682	0.154
682	0.154
683	0.154
683	0.154
684	0.155
684	0.154
684	0.154
685	0.154
685	0.154
686	0.154
686	0.154
687	0.154
687	0.154
687	0.154
688	0.154
688	0.154
689	0.154
689	0.155
690	0.155
690	0.155
691	0.155
691	0.155
691	0.155
692	0.155
692	0.155
693	0.156
693	0.156
694	0.156
694	0.155
695	0.156
695	0.157
695	0.157
696	0.157
696	0.157
697	0.157
697	0.156
698	0.156
698	0.156
698	0.156
699	0.156
699	0.156
700	0.155
700	0.155
701	0.156
701	0.156
702	0.156
702	0.156
702	0.156
703	0.156
703	0.155
704	0.155
704	0.155
705	0.155
705	0.155
705	0.155
706	0.155
706	0.155
707	0.155
707	0.155
708	0.155
708	0.156
709	0.156
709	0.156
709	0.155
710	0.156
710	0.156
711	0.156
711	0.156
712	0.157
712	0.157
713	0.157
713	0.157
713	0.157
714	0.157
714	0.157
715	0.157
715	0.156
716	0.156
716	0.156
716	0.155
717	0.155
717	0.154
718	0.154
718	0.154
719	0.154
719	0.155
720	0.155
720	0.156
720	0.156
721	0.156
721	0.157
722	0.158
722	0.158
723	0.158
723	0.158
723	0.158
724	0.158
724	0.158
725	0.157
725	0.157
726	0.156
726	0.155
727	0.155
727	0.154
727	0.154
728	0.154
728	0.153
729	0.154
729	0.154
730	0.154
730	0.155
730	0.156
731	0.156
731	0.157
732	0.158
732	0.158
733	0.159
733	0.159
734	0.159
734	0.16
734	0.16
735	0.161
735	0.161
736	0.16
736	0.161
737	0.161
737	0.161
737	0.161
738	0.16
738	0.16
739	0.16
739	0.159
740	0.159
740	0.159
741	0.159
741	0.159
741	0.159
742	0.159
742	0.159
743	0.16
743	0.161
744	0.161
744	0.162
744	0.163
745	0.163
745	0.163
746	0.163
746	0.163
747	0.163
747	0.163
748	0.163
748	0.163
748	0.163
749	0.162
749	0.162
750	0.162
750	0.162
751	0.162
751	0.162
751	0.162
752	0.162
752	0.161
753	0.161
753	0.161
754	0.161
754	0.16
754	0.16
755	0.16
755	0.16
756	0.159
756	0.159
757	0.158
757	0.158
758	0.159
758	0.159
758	0.159
759	0.159
759	0.159
760	0.159
760	0.158
761	0.159
761	0.159
761	0.159
762	0.159
762	0.16
763	0.16
763	0.159
764	0.159
764	0.159
764	0.16
765	0.16
765	0.16
766	0.16
766	0.16
767	0.159
767	0.159
768	0.158
768	0.159
768	0.159
769	0.159
769	0.159
770	0.16
770	0.16
771	0.161
771	0.161
771	0.162
772	0.163
772	0.164
773	0.164
773	0.164
774	0.164
774	0.164
775	0.165
775	0.165
775	0.165
776	0.165
776	0.165
777	0.166
777	0.166
778	0.166
778	0.165
778	0.165
779	0.165
779	0.165
780	0.164
780	0.164
781	0.163
781	0.163
781	0.163
782	0.162
782	0.163
783	0.163
783	0.163
784	0.163
784	0.164
784	0.164
785	0.165
785	0.165
786	0.165
786	0.165
787	0.165
787	0.164
788	0.163
788	0.163
788	0.162
789	0.161
789	0.161
790	0.16
790	0.16
791	0.16
791	0.159
791	0.159
792	0.16
792	0.161
793	0.16
793	0.161
794	0.161
794	0.16
794	0.16
795	0.16
795	0.161
796	0.161
796	0.161
797	0.161
797	0.161
797	0.161
798	0.162
798	0.162
799	0.162
799	0.162
800	0.161
800	0.161
801	0.16
801	0.16
801	0.16
802	0.16
802	0.16
803	0.16
803	0.161
804	0.161
804	0.161
804	0.161
805	0.161
805	0.161
806	0.161
806	0.161
807	0.161
807	0.16
807	0.16
808	0.16
808	0.159
809	0.159
809	0.159
810	0.159
810	0.159
810	0.159
811	0.159
811	0.16
812	0.161
812	0.161
813	0.161
813	0.162
813	0.162
814	0.163
814	0.163
815	0.163
815	0.163
816	0.163
816	0.162
817	0.161
817	0.161
817	0.16
818	0.16
818	0.159
819	0.159
819	0.158
820	0.157
820	0.156
820	0.156
821	0.156
821	0.156
822	0.156
822	0.156
823	0.156
823	0.157
823	0.157
824	0.158
824	0.159
825	0.16
825	0.161
826	0.161
826	0.161
826	0.161
827	0.161
827	0.161
828	0.162
828	0.161
829	0.162
829	0.162
829	0.162
830	0.162
830	0.162
831	0.163
831	0.163
832	0.162
832	0.163
832	0.163
833	0.162
833	0.162
834	0.162
834	0.161
835	0.16
835	0.16
835	0.159
836	0.159
836	0.159
837	0.159
837	0.159
838	0.158
838	0.158
839	0.157
839	0.157
839	0.156
840	0.155
840	0.154
841	0.153
841	0.152
842	0.152
842	0.15
842	0.15
843	0.149
843	0.148
844	0.147
844	0.146
845	0.145
845	0.144
845	0.144
846	0.144
846	0.144
847	0.144
847	0.144
848	0.145
848	0.145
848	0.146
849	0.146
849	0.147
850	0.148
850	0.148
851	0.148
851	0.148
851	0.147
852	0.146
852	0.146
853	0.145
853	0.145
854	0.144
854	0.144
854	0.145
855	0.145
855	0.145
856	0.146
856	0.146
857	0.147
857	0.148
857	0.149
858	0.149
858	0.149
859	0.149
859	0.148
860	0.148
860	0.147
860	0.147
861	0.146
861	0.146
862	0.144
862	0.143
863	0.143
863	0.142
863	0.142
864	0.141
864	0.141
865	0.141
865	0.141
866	0.141
866	0.141
866	0.141
867	0.142
867	0.142
868	0.142
868	0.143
869	0.143
869	0.143
869	0.143
870	0.142
870	0.143
871	0.143
871	0.143
872	0.143
872	0.143
872	0.143
873	0.142
873	0.141
874	0.141
874	0.14
875	0.14
875	0.139
875	0.138
876	0.137
876	0.137
877	0.136
877	0.136
878	0.136
878	0.136
878	0.137
879	0.137
879	0.137
880	0.138
880	0.138
881	0.138
881	0.139
881	0.139
882	0.139
882	0.139
883	0.139
883	0.139
884	0.139
884	0.139
884	0.139
885	0.139
885	0.138
886	0.138
886	0.137
887	0.137
887	0.136
887	0.135
888	0.134
888	0.133
889	0.132
889	0.131
890	0.131
890	0.13
890	0.13
891	0.129
891	0.129
892	0.129
892	0.129
893	0.128
893	0.128
893	0.128
894	0.128
894	0.128
895	0.127
895	0.128
895	0.128
896	0.129
896	0.129
897	0.129
897	0.129
898	0.129
898	0.129
898	0.129
899	0.129
899	0.128
900	0.127
900	0.126
901	0.126
901	0.125
901	0.124
902	0.124
902	0.123
903	0.123
903	0.123
904	0.122
904	0.122
904	0.122
905	0.123
905	0.123
906	0.123
906	0.123
907	0.123
907	0.124
907	0.124
908	0.125
908	0.125
909	0.125
909	0.125
910	0.125
910	0.125
910	0.124
911	0.124
911	0.123
912	0.122
912	0.122
913	0.121
913	0.121
913	0.12
914	0.12
914	0.12
915	0.12
915	0.12
916	0.119
916	0.119
916	0.119
917	0.119
917	0.118
918	0.118
918	0.118
918	0.117
919	0.117
919	0.116
920	0.116
920	0.116
921	0.116
921	0.115
921	0.115
922	0.115
922	0.115
923	0.115
923	0.115
924	0.116
924	0.116
924	0.116
925	0.116
925	0.116
926	0.116
926	0.117
927	0.117
927	0.117
927	0.117
928	0.117
928	0.117
929	0.117
929	0.117
930	0.117
930	0.117
930	0.117
931	0.116
931	0.116
932	0.115
932	0.115
933	0.115
933	0.114
933	0.114
934	0.113
934	0.113
935	0.112
935	0.112
935	0.112
936	0.111
936	0.111
937	0.11
937	0.11
938	0.109
938	0.109
938	0.109
939	0.108
939	0.108
940	0.107
940	0.107
941	0.108
941	0.108
941	0.108
942	0.108
942	0.108
943	0.109
943	0.109
944	0.109
944	0.109
944	0.109
945	0.109
945	0.109
946	0.109
946	0.108
946	0.108
947	0.108
947	0.108
948	0.107
948	0.107
949	0.107
949	0.106
949	0.106
950	0.106
950	0.106
951	0.105
951	0.105
952	0.104
952	0.104
952	0.103
953	0.103
953	0.102
954	0.102
954	0.102
955	0.101
955	0.101
955	0.1
956	0.101
956	0.101
957	0.101
957	0.101
957	0.101
958	0.102
958	0.102
959	0.102
959	0.102
960	0.102
960	0.102
960	0.102
961	0.101
961	0.101
962	0.101
962	0.101
963	0.101
963	0.101
963	0.101
964	0.101
964	0.101
965	0.101
965	0.101
966	0.101
966	0.101
966	0.1
967	0.1
967	0.1
968	0.1
968	0.099
968	0.099
969	0.098
969	0.097
970	0.097
970	0.096
971	0.096
971	0.095
971	0.095
972	0.095
972	0.095
973	0.095
973	0.095
974	0.095
974	0.095
974	0.096
975	0.096
975	0.097
976	0.097
976	0.098
976	0.098
977	0.098
977	0.098
978	0.098
978	0.098
979	0.098
979	0.097
979	0.097
980	0.097
980	0.096
981	0.096
981	0.095
982	0.095
982	0.095
982	0.095
983	0.095
983	0.095
984	0.095
984	0.095
984	0.095
985	0.095
985	0.096
986	0.095
986	0.095
987	0.095
987	0.095
987	0.095
988	0.095
988	0.095
989	0.095
989	0.095
990	0.094
990	0.094
990	0.094
991	0.094
991	0.093
992	0.093
992	0.092
992	0.091
993	0.09
993	0.089
994	0.088
994	0.087
995	0.086
995	0.085
995	0.085
996	0.084
996	0.084
997	0.085
997	0.085
997	0.085
998	0.086
998	0.087
999	0.088
999	0.089
1000	0.089
1000	0.09
1000	0.091
1001	0.091
1001	0.091
1002	0.091
1002	0.091
1003	0.091
1003	0.09
1003	0.089
1004	0.089
1004	0.088
1005	0.087
1005	0.086
1005	0.085
1006	0.084
1006	0.083
1007	0.083
1007	0.082
1008	0.081
1008	0.081
1008	0.081
1009	0.081
1009	0.081
1010	0.081
1010	0.081
1010	0.081
1011	0.082
1011	0.082
1012	0.082
1012	0.082
1013	0.082
1013	0.081
1013	0.081
1014	0.08
1014	0.08
1015	0.079
1015	0.079
1016	0.079
1016	0.078
1016	0.078
1017	0.077
1017	0.077
1018	0.077
1018	0.076
1018	0.076
1019	0.076
1019	0.076
1020	0.075
1020	0.075
1021	0.075
1021	0.076
1021	0.076
1022	0.076
1022	0.076
1023	0.076
1023	0.077
1023	0.077
1024	0.078
1024	0.078
1025	0.079
1025	0.079
1026	0.079
1026	0.079
1026	0.08
1027	0.08
1027	0.08
1028	0.08
1028	0.08
1028	0.08
1029	0.079
1029	0.079
1030	0.079
1030	0.08
1031	0.08
1031	0.08
1031	0.08
1032	0.08
1032	0.081
1033	0.081
1033	0.081
1033	0.081
1034	0.082
1034	0.082
1035	0.082
1035	0.082
1036	0.082
1036	0.082
1036	0.082
1037	0.082
1037	0.082
1038	0.082
1038	0.082
1039	0.081
1039	0.081
1039	0.081
1040	0.082
1040	0.081
1041	0.081
1041	0.081
1041	0.081
1042	0.08
1042	0.08
1043	0.08
1043	0.08
1044	0.08
1044	0.079
1044	0.079
1045	0.079
1045	0.078
1046	0.078
1046	0.078
1046	0.078
1047	0.077
1047	0.077
1048	0.077
1048	0.077
1049	0.077
1049	0.077
1049	0.077
1050	0.077
1050	0.076
1051	0.076
1051	0.076
1051	0.076
1052	0.075
1052	0.075
1053	0.074
1053	0.074
1053	0.073
1054	0.073
1054	0.072
1055	0.072
1055	0.072
1056	0.072
1056	0.071
1056	0.07
1057	0.07
1057	0.069
1058	0.069
1058	0.068
1058	0.067
1059	0.067
1059	0.066
1060	0.066
1060	0.065
1061	0.065
1061	0.065
1061	0.065
1062	0.064
1062	0.064
1063	0.065
1063	0.065
1063	0.064
1064	0.064
1064	0.064
1065	0.064
1065	0.064
1066	0.064
1066	0.064
1066	0.063
1067	0.063
1067	0.063
1068	0.062
1068	0.062
1068	0.062
1069	0.062
1069	0.061
1070	0.061
1070	0.061
1071	0.06
1071	0.06
1071	0.059
1072	0.059
1072	0.059
1073	0.058
1073	0.058
1073	0.058
1074	0.058
1074	0.058
1075	0.058
1075	0.058
1076	0.058
1076	0.058
1076	0.059
1077	0.059
1077	0.059
1078	0.058
1078	0.058
1078	0.058
1079	0.058
1079	0.057
1080	0.057
1080	0.057
1080	0.056
1081	0.055
1081	0.055
1082	0.055
1082	0.056
1083	0.055
1083	0.055
1083	0.055
1084	0.054
1084	0.055
1085	0.054
1085	0.054
1085	0.055
1086	0.055
1086	0.055
1087	0.055
1087	0.055
1088	0.055
1088	0.055
1088	0.056
1089	0.055
1089	0.055
1090	0.054
1090	0.054
1090	0.053
1091	0.053
1091	0.053
1092	0.053
1092	0.054
1092	0.053
1093	0.053
1093	0.053
1094	0.054
1094	0.053
1095	0.053
1095	0.053
1095	0.052
1096	0.052
1096	0.051
1097	0.05
1097	0.049
1097	0.048
1098	0.047
1098	0.046
1099	0.045
1099	0.044
1100	0.043
1100	0.042
1100	0.041
1101	0.04
1101	0.039
1102	0.038
1102	0.037
1102	0.037
1103	0.036
1103	0.035
1104	0.035
1104	0.034
1104	0.033
1105	0.032
1105	0.031
1106	0.03
1106	0.029
1107	0.026
1107	0.025
1107	0.023
1108	0.023
1108	0.021
1109	0.02
1109	0.019
1109	0.02
1110	0.02
1110	0.018
1111	0.015
1111	0.014
