Data from reversibility-20sec_Absorbance__4833__000000000004833.txt Node

Date: Wed Dec 06 15:04:07 CET 2023
User: Marek
Spectrometer: MAYP115816
Trigger mode: 0
Integration Time (sec): 2.000000E-1
Scans to average: 10
Electric dark correction enabled: true
Nonlinearity correction enabled: true
Boxcar width: 5
XAxis mode: Wavelengths
Number of Pixels in Spectrum: 2068
>>>>>Begin Spectral Data<<<<<
199	-0.139
199	-0.107
200	-0.046
200	0.007
201	0.033
201	0.047
202	0.063
202	0.07
203	0.078
203	0.084
204	0.1
204	0.114
205	0.124
205	0.131
205	0.129
206	0.13
206	0.133
207	0.133
207	0.132
208	0.131
208	0.13
209	0.129
209	0.128
210	0.127
210	0.128
211	0.129
211	0.132
212	0.128
212	0.129
213	0.136
213	0.139
213	0.139
214	0.145
214	0.147
215	0.15
215	0.155
216	0.157
216	0.157
217	0.165
217	0.167
218	0.165
218	0.168
219	0.174
219	0.173
220	0.18
220	0.182
221	0.181
221	0.182
221	0.187
222	0.192
222	0.198
223	0.206
223	0.212
224	0.219
224	0.225
225	0.231
225	0.242
226	0.249
226	0.263
227	0.272
227	0.281
228	0.297
228	0.313
229	0.327
229	0.348
229	0.372
230	0.397
230	0.424
231	0.46
231	0.495
232	0.532
232	0.577
233	0.615
233	0.663
234	0.712
234	0.762
235	0.816
235	0.87
236	0.921
236	0.97
236	1.022
237	1.074
237	1.122
238	1.17
238	1.216
239	1.266
239	1.31
240	1.349
240	1.384
241	1.42
241	1.453
242	1.483
242	1.517
243	1.546
243	1.571
243	1.593
244	1.613
244	1.632
245	1.649
245	1.669
246	1.687
246	1.705
247	1.719
247	1.728
248	1.741
248	1.755
249	1.765
249	1.773
250	1.781
250	1.789
250	1.795
251	1.797
251	1.8
252	1.805
252	1.807
253	1.808
253	1.805
254	1.804
254	1.804
255	1.802
255	1.801
256	1.799
256	1.799
257	1.797
257	1.795
258	1.796
258	1.795
258	1.794
259	1.795
259	1.795
260	1.797
260	1.796
261	1.797
261	1.799
262	1.801
262	1.8
263	1.801
263	1.801
264	1.802
264	1.804
265	1.804
265	1.805
265	1.805
266	1.805
266	1.804
267	1.803
267	1.805
268	1.804
268	1.804
269	1.805
269	1.803
270	1.801
270	1.799
271	1.795
271	1.794
272	1.791
272	1.788
272	1.784
273	1.779
273	1.775
274	1.77
274	1.765
275	1.758
275	1.751
276	1.744
276	1.737
277	1.73
277	1.721
278	1.71
278	1.698
278	1.685
279	1.67
279	1.651
280	1.632
280	1.607
281	1.576
281	1.542
282	1.505
282	1.469
283	1.431
283	1.394
284	1.356
284	1.32
285	1.286
285	1.254
285	1.226
286	1.201
286	1.178
287	1.158
287	1.141
288	1.126
288	1.114
289	1.103
289	1.094
290	1.086
290	1.078
291	1.071
291	1.066
292	1.06
292	1.056
292	1.051
293	1.047
293	1.043
294	1.039
294	1.035
295	1.031
295	1.028
296	1.025
296	1.022
297	1.019
297	1.015
298	1.012
298	1.009
298	1.006
299	1.003
299	1
300	0.997
300	0.994
301	0.991
301	0.988
302	0.986
302	0.983
303	0.981
303	0.978
304	0.976
304	0.973
305	0.97
305	0.968
305	0.965
306	0.963
306	0.96
307	0.958
307	0.955
308	0.952
308	0.95
309	0.947
309	0.944
310	0.941
310	0.938
311	0.934
311	0.931
311	0.927
312	0.924
312	0.92
313	0.917
313	0.913
314	0.909
314	0.905
315	0.9
315	0.896
316	0.892
316	0.887
317	0.883
317	0.878
318	0.873
318	0.868
318	0.863
319	0.857
319	0.852
320	0.846
320	0.841
321	0.835
321	0.829
322	0.822
322	0.816
323	0.81
323	0.803
324	0.797
324	0.791
324	0.784
325	0.777
325	0.771
326	0.764
326	0.757
327	0.751
327	0.744
328	0.737
328	0.73
329	0.723
329	0.716
330	0.709
330	0.702
330	0.695
331	0.688
331	0.682
332	0.675
332	0.668
333	0.661
333	0.655
334	0.648
334	0.641
335	0.634
335	0.628
336	0.621
336	0.614
336	0.608
337	0.602
337	0.595
338	0.589
338	0.583
339	0.577
339	0.571
340	0.566
340	0.56
341	0.554
341	0.549
342	0.544
342	0.538
342	0.533
343	0.528
343	0.523
344	0.518
344	0.513
345	0.508
345	0.504
346	0.5
346	0.495
347	0.491
347	0.487
348	0.483
348	0.478
348	0.475
349	0.471
349	0.467
350	0.464
350	0.46
351	0.457
351	0.453
352	0.45
352	0.447
353	0.444
353	0.441
354	0.438
354	0.435
354	0.432
355	0.429
355	0.426
356	0.424
356	0.421
357	0.417
357	0.415
358	0.412
358	0.409
359	0.407
359	0.405
360	0.403
360	0.401
360	0.399
361	0.397
361	0.395
362	0.394
362	0.392
363	0.39
363	0.388
364	0.386
364	0.384
365	0.383
365	0.381
366	0.379
366	0.377
366	0.375
367	0.373
367	0.372
368	0.37
368	0.368
369	0.367
369	0.365
370	0.364
370	0.362
371	0.361
371	0.359
372	0.358
372	0.357
372	0.355
373	0.354
373	0.353
374	0.352
374	0.351
375	0.35
375	0.349
376	0.348
376	0.347
377	0.346
377	0.345
378	0.344
378	0.343
378	0.342
379	0.341
379	0.34
380	0.339
380	0.338
381	0.337
381	0.337
382	0.336
382	0.335
383	0.335
383	0.334
383	0.333
384	0.333
384	0.332
385	0.331
385	0.331
386	0.33
386	0.33
387	0.329
387	0.329
388	0.328
388	0.328
389	0.327
389	0.326
389	0.326
390	0.325
390	0.325
391	0.324
391	0.324
392	0.323
392	0.323
393	0.322
393	0.321
394	0.321
394	0.321
394	0.32
395	0.32
395	0.32
396	0.319
396	0.318
397	0.318
397	0.317
398	0.317
398	0.317
399	0.316
399	0.316
400	0.315
400	0.315
400	0.314
401	0.314
401	0.314
402	0.313
402	0.313
403	0.313
403	0.312
404	0.312
404	0.312
405	0.311
405	0.311
405	0.311
406	0.31
406	0.31
407	0.309
407	0.309
408	0.309
408	0.308
409	0.308
409	0.307
410	0.307
410	0.307
411	0.306
411	0.306
411	0.306
412	0.306
412	0.305
413	0.305
413	0.305
414	0.304
414	0.304
415	0.304
415	0.303
416	0.303
416	0.303
416	0.302
417	0.302
417	0.302
418	0.301
418	0.301
419	0.3
419	0.3
420	0.299
420	0.299
421	0.299
421	0.298
421	0.298
422	0.297
422	0.297
423	0.297
423	0.297
424	0.296
424	0.296
425	0.296
425	0.296
426	0.295
426	0.295
427	0.295
427	0.294
427	0.294
428	0.294
428	0.293
429	0.293
429	0.292
430	0.292
430	0.292
431	0.292
431	0.291
432	0.291
432	0.291
432	0.291
433	0.291
433	0.291
434	0.291
434	0.291
435	0.291
435	0.291
436	0.291
436	0.29
437	0.29
437	0.29
437	0.29
438	0.29
438	0.29
439	0.289
439	0.289
440	0.289
440	0.289
441	0.288
441	0.288
442	0.288
442	0.288
442	0.288
443	0.287
443	0.287
444	0.287
444	0.287
445	0.287
445	0.287
446	0.286
446	0.286
447	0.286
447	0.286
447	0.286
448	0.286
448	0.286
449	0.286
449	0.286
450	0.286
450	0.286
451	0.285
451	0.285
452	0.285
452	0.285
452	0.285
453	0.285
453	0.285
454	0.285
454	0.285
455	0.285
455	0.285
456	0.285
456	0.284
457	0.284
457	0.284
458	0.284
458	0.284
458	0.284
459	0.284
459	0.284
460	0.284
460	0.284
461	0.284
461	0.284
462	0.284
462	0.284
463	0.284
463	0.284
463	0.285
464	0.285
464	0.284
465	0.284
465	0.284
466	0.284
466	0.285
467	0.285
467	0.285
467	0.285
468	0.286
468	0.286
469	0.286
469	0.287
470	0.287
470	0.288
471	0.288
471	0.288
472	0.288
472	0.289
472	0.289
473	0.289
473	0.289
474	0.29
474	0.29
475	0.29
475	0.29
476	0.291
476	0.291
477	0.291
477	0.292
477	0.292
478	0.293
478	0.294
479	0.294
479	0.295
480	0.295
480	0.296
481	0.296
481	0.297
482	0.298
482	0.298
482	0.299
483	0.299
483	0.3
484	0.301
484	0.301
485	0.302
485	0.302
486	0.302
486	0.303
487	0.304
487	0.305
487	0.305
488	0.306
488	0.307
489	0.308
489	0.309
490	0.31
490	0.312
491	0.313
491	0.314
492	0.315
492	0.316
492	0.318
493	0.319
493	0.32
494	0.321
494	0.322
495	0.323
495	0.324
496	0.325
496	0.327
496	0.328
497	0.329
497	0.33
498	0.331
498	0.332
499	0.333
499	0.334
500	0.336
500	0.337
501	0.338
501	0.339
501	0.34
502	0.341
502	0.342
503	0.343
503	0.344
504	0.346
504	0.347
505	0.348
505	0.349
506	0.351
506	0.351
506	0.353
507	0.354
507	0.355
508	0.356
508	0.357
509	0.358
509	0.359
510	0.36
510	0.361
511	0.362
511	0.363
511	0.364
512	0.365
512	0.366
513	0.367
513	0.367
514	0.368
514	0.369
515	0.37
515	0.37
515	0.371
516	0.372
516	0.372
517	0.373
517	0.374
518	0.374
518	0.375
519	0.375
519	0.376
520	0.376
520	0.376
520	0.376
521	0.376
521	0.376
522	0.376
522	0.376
523	0.376
523	0.376
524	0.376
524	0.375
524	0.375
525	0.375
525	0.375
526	0.374
526	0.374
527	0.373
527	0.373
528	0.372
528	0.371
529	0.371
529	0.37
529	0.369
530	0.368
530	0.367
531	0.366
531	0.365
532	0.364
532	0.363
533	0.362
533	0.361
533	0.36
534	0.358
534	0.357
535	0.356
535	0.355
536	0.353
536	0.351
537	0.35
537	0.348
538	0.346
538	0.344
538	0.343
539	0.342
539	0.34
540	0.339
540	0.337
541	0.335
541	0.334
542	0.332
542	0.331
542	0.329
543	0.327
543	0.325
544	0.324
544	0.322
545	0.32
545	0.318
546	0.317
546	0.315
547	0.313
547	0.311
547	0.309
548	0.307
548	0.305
549	0.304
549	0.302
550	0.3
550	0.299
551	0.297
551	0.295
551	0.293
552	0.291
552	0.29
553	0.288
553	0.286
554	0.284
554	0.282
555	0.28
555	0.278
556	0.276
556	0.274
556	0.272
557	0.271
557	0.269
558	0.267
558	0.266
559	0.264
559	0.262
560	0.261
560	0.26
560	0.258
561	0.257
561	0.256
562	0.254
562	0.252
563	0.25
563	0.248
564	0.246
564	0.245
564	0.243
565	0.242
565	0.24
566	0.239
566	0.237
567	0.236
567	0.235
568	0.234
568	0.233
568	0.231
569	0.23
569	0.229
570	0.227
570	0.226
571	0.225
571	0.224
572	0.222
572	0.221
573	0.22
573	0.219
573	0.217
574	0.216
574	0.215
575	0.214
575	0.213
576	0.212
576	0.211
577	0.209
577	0.208
577	0.207
578	0.206
578	0.204
579	0.204
579	0.203
580	0.202
580	0.2
581	0.199
581	0.198
581	0.197
582	0.197
582	0.196
583	0.196
583	0.195
584	0.193
584	0.191
585	0.19
585	0.19
585	0.189
586	0.188
586	0.187
587	0.186
587	0.185
588	0.184
588	0.184
589	0.183
589	0.183
590	0.182
590	0.181
590	0.181
591	0.181
591	0.179
592	0.178
592	0.177
593	0.176
593	0.176
594	0.175
594	0.174
594	0.173
595	0.172
595	0.171
596	0.17
596	0.169
597	0.17
597	0.17
598	0.169
598	0.168
598	0.168
599	0.167
599	0.167
600	0.166
600	0.165
601	0.165
601	0.164
602	0.163
602	0.162
602	0.162
603	0.161
603	0.161
604	0.161
604	0.16
605	0.16
605	0.16
606	0.159
606	0.158
606	0.157
607	0.157
607	0.156
608	0.156
608	0.155
609	0.154
609	0.153
610	0.153
610	0.152
610	0.152
611	0.151
611	0.151
612	0.151
612	0.151
613	0.15
613	0.15
614	0.15
614	0.149
614	0.149
615	0.149
615	0.149
616	0.149
616	0.149
617	0.149
617	0.148
618	0.148
618	0.147
618	0.147
619	0.147
619	0.146
620	0.146
620	0.146
621	0.145
621	0.144
622	0.144
622	0.143
622	0.142
623	0.142
623	0.141
624	0.141
624	0.14
625	0.139
625	0.139
626	0.138
626	0.138
626	0.138
627	0.138
627	0.137
628	0.137
628	0.137
629	0.137
629	0.136
630	0.136
630	0.135
630	0.135
631	0.135
631	0.135
632	0.134
632	0.133
633	0.133
633	0.133
634	0.133
634	0.133
634	0.133
635	0.133
635	0.133
636	0.133
636	0.133
637	0.132
637	0.132
638	0.132
638	0.131
638	0.131
639	0.13
639	0.13
640	0.13
640	0.13
641	0.129
641	0.129
642	0.128
642	0.128
642	0.128
643	0.128
643	0.127
644	0.127
644	0.127
645	0.127
645	0.127
646	0.127
646	0.127
646	0.127
647	0.127
647	0.127
648	0.126
648	0.126
649	0.125
649	0.125
650	0.125
650	0.125
650	0.125
651	0.124
651	0.124
652	0.124
652	0.124
653	0.125
653	0.127
653	0.132
654	0.106
654	0.086
655	0.084
655	0.084
656	0.085
656	0.085
657	0.085
657	0.085
657	0.085
658	0.084
658	0.076
659	0.095
659	0.12
660	0.125
660	0.125
661	0.124
661	0.123
661	0.122
662	0.122
662	0.121
663	0.121
663	0.12
664	0.12
664	0.12
665	0.12
665	0.12
665	0.12
666	0.121
666	0.121
667	0.121
667	0.121
668	0.121
668	0.121
669	0.121
669	0.121
669	0.121
670	0.121
670	0.121
671	0.121
671	0.12
672	0.12
672	0.119
672	0.119
673	0.119
673	0.119
674	0.119
674	0.118
675	0.118
675	0.118
676	0.118
676	0.118
676	0.118
677	0.119
677	0.119
678	0.119
678	0.119
679	0.119
679	0.119
680	0.119
680	0.119
680	0.118
681	0.119
681	0.119
682	0.119
682	0.119
683	0.119
683	0.119
684	0.12
684	0.119
684	0.119
685	0.119
685	0.119
686	0.118
686	0.118
687	0.118
687	0.118
687	0.118
688	0.118
688	0.117
689	0.118
689	0.118
690	0.118
690	0.118
691	0.118
691	0.118
691	0.118
692	0.118
692	0.118
693	0.118
693	0.118
694	0.118
694	0.117
695	0.118
695	0.119
695	0.119
696	0.119
696	0.119
697	0.119
697	0.119
698	0.118
698	0.118
698	0.118
699	0.118
699	0.117
700	0.117
700	0.116
701	0.116
701	0.116
702	0.115
702	0.115
702	0.115
703	0.114
703	0.114
704	0.113
704	0.113
705	0.114
705	0.114
705	0.114
706	0.115
706	0.115
707	0.116
707	0.116
708	0.117
708	0.117
709	0.117
709	0.117
709	0.117
710	0.117
710	0.117
711	0.117
711	0.117
712	0.117
712	0.116
713	0.116
713	0.116
713	0.116
714	0.116
714	0.115
715	0.115
715	0.114
716	0.114
716	0.114
716	0.113
717	0.113
717	0.113
718	0.113
718	0.113
719	0.114
719	0.115
720	0.115
720	0.116
720	0.116
721	0.116
721	0.117
722	0.117
722	0.117
723	0.117
723	0.117
723	0.116
724	0.116
724	0.115
725	0.114
725	0.114
726	0.113
726	0.113
727	0.112
727	0.112
727	0.112
728	0.111
728	0.111
729	0.111
729	0.111
730	0.112
730	0.112
730	0.113
731	0.113
731	0.114
732	0.114
732	0.115
733	0.115
733	0.115
734	0.116
734	0.116
734	0.116
735	0.116
735	0.115
736	0.115
736	0.114
737	0.113
737	0.113
737	0.112
738	0.112
738	0.111
739	0.11
739	0.11
740	0.11
740	0.11
741	0.11
741	0.111
741	0.111
742	0.111
742	0.112
743	0.112
743	0.113
744	0.114
744	0.114
744	0.114
745	0.114
745	0.114
746	0.114
746	0.114
747	0.114
747	0.114
748	0.113
748	0.113
748	0.113
749	0.112
749	0.112
750	0.112
750	0.111
751	0.111
751	0.11
751	0.11
752	0.11
752	0.109
753	0.109
753	0.108
754	0.107
754	0.107
754	0.106
755	0.106
755	0.106
756	0.106
756	0.105
757	0.104
757	0.104
758	0.104
758	0.105
758	0.105
759	0.106
759	0.106
760	0.106
760	0.106
761	0.107
761	0.107
761	0.107
762	0.107
762	0.107
763	0.107
763	0.106
764	0.105
764	0.105
764	0.104
765	0.104
765	0.103
766	0.103
766	0.102
767	0.102
767	0.102
768	0.101
768	0.101
768	0.101
769	0.101
769	0.102
770	0.102
770	0.102
771	0.103
771	0.103
771	0.103
772	0.103
772	0.104
773	0.104
773	0.104
774	0.104
774	0.104
775	0.104
775	0.104
775	0.104
776	0.104
776	0.104
777	0.105
777	0.105
778	0.105
778	0.104
778	0.104
779	0.104
779	0.103
780	0.101
780	0.1
781	0.099
781	0.098
781	0.097
782	0.096
782	0.095
783	0.095
783	0.095
784	0.094
784	0.094
784	0.094
785	0.094
785	0.094
786	0.094
786	0.094
787	0.094
787	0.094
788	0.094
788	0.093
788	0.093
789	0.093
789	0.093
790	0.093
790	0.093
791	0.092
791	0.092
791	0.091
792	0.092
792	0.092
793	0.091
793	0.091
794	0.09
794	0.09
794	0.09
795	0.089
795	0.089
796	0.089
796	0.089
797	0.089
797	0.09
797	0.09
798	0.091
798	0.091
799	0.091
799	0.091
800	0.091
800	0.09
801	0.09
801	0.089
801	0.089
802	0.088
802	0.088
803	0.087
803	0.087
804	0.087
804	0.088
804	0.088
805	0.088
805	0.088
806	0.088
806	0.088
807	0.088
807	0.087
807	0.087
808	0.087
808	0.086
809	0.086
809	0.085
810	0.085
810	0.085
810	0.085
811	0.085
811	0.086
812	0.086
812	0.087
813	0.087
813	0.087
813	0.088
814	0.088
814	0.088
815	0.088
815	0.088
816	0.087
816	0.086
817	0.085
817	0.084
817	0.084
818	0.083
818	0.082
819	0.082
819	0.081
820	0.08
820	0.079
820	0.078
821	0.078
821	0.077
822	0.077
822	0.077
823	0.077
823	0.076
823	0.076
824	0.077
824	0.078
825	0.078
825	0.079
826	0.08
826	0.08
826	0.08
827	0.08
827	0.08
828	0.08
828	0.08
829	0.08
829	0.08
829	0.08
830	0.08
830	0.08
831	0.081
831	0.081
832	0.081
832	0.081
832	0.081
833	0.081
833	0.081
834	0.081
834	0.081
835	0.081
835	0.081
835	0.081
836	0.081
836	0.081
837	0.081
837	0.081
838	0.081
838	0.08
839	0.08
839	0.079
839	0.078
840	0.077
840	0.075
841	0.074
841	0.073
842	0.071
842	0.07
842	0.068
843	0.067
843	0.067
844	0.066
844	0.065
845	0.064
845	0.064
845	0.064
846	0.064
846	0.064
847	0.064
847	0.064
848	0.064
848	0.064
848	0.065
849	0.065
849	0.065
850	0.065
850	0.065
851	0.065
851	0.066
851	0.066
852	0.065
852	0.065
853	0.065
853	0.065
854	0.066
854	0.066
854	0.067
855	0.068
855	0.069
856	0.07
856	0.071
857	0.072
857	0.073
857	0.073
858	0.074
858	0.074
859	0.074
859	0.074
860	0.075
860	0.074
860	0.074
861	0.074
861	0.073
862	0.072
862	0.072
863	0.071
863	0.071
863	0.071
864	0.071
864	0.07
865	0.071
865	0.07
866	0.07
866	0.07
866	0.07
867	0.07
867	0.07
868	0.069
868	0.069
869	0.068
869	0.068
869	0.067
870	0.066
870	0.065
871	0.065
871	0.064
872	0.064
872	0.063
872	0.063
873	0.063
873	0.062
874	0.062
874	0.062
875	0.062
875	0.062
875	0.062
876	0.063
876	0.063
877	0.063
877	0.063
878	0.064
878	0.064
878	0.065
879	0.065
879	0.066
880	0.066
880	0.066
881	0.066
881	0.065
881	0.065
882	0.065
882	0.065
883	0.065
883	0.064
884	0.064
884	0.064
884	0.064
885	0.063
885	0.063
886	0.063
886	0.062
887	0.062
887	0.061
887	0.061
888	0.061
888	0.06
889	0.061
889	0.061
890	0.062
890	0.063
890	0.063
891	0.064
891	0.064
892	0.064
892	0.065
893	0.064
893	0.064
893	0.063
894	0.062
894	0.061
895	0.06
895	0.059
895	0.059
896	0.059
896	0.058
897	0.058
897	0.058
898	0.058
898	0.057
898	0.057
899	0.057
899	0.057
900	0.057
900	0.057
901	0.057
901	0.057
901	0.057
902	0.057
902	0.057
903	0.057
903	0.057
904	0.057
904	0.057
904	0.057
905	0.056
905	0.055
906	0.055
906	0.055
907	0.055
907	0.055
907	0.055
908	0.055
908	0.055
909	0.055
909	0.055
910	0.055
910	0.055
910	0.054
911	0.054
911	0.054
912	0.054
912	0.054
913	0.054
913	0.054
913	0.054
914	0.054
914	0.054
915	0.054
915	0.054
916	0.054
916	0.054
916	0.053
917	0.053
917	0.052
918	0.052
918	0.051
918	0.051
919	0.051
919	0.05
920	0.05
920	0.05
921	0.05
921	0.05
921	0.05
922	0.051
922	0.051
923	0.051
923	0.052
924	0.052
924	0.053
924	0.053
925	0.053
925	0.054
926	0.054
926	0.054
927	0.054
927	0.054
927	0.054
928	0.054
928	0.053
929	0.053
929	0.053
930	0.053
930	0.052
930	0.052
931	0.051
931	0.051
932	0.051
932	0.051
933	0.05
933	0.05
933	0.049
934	0.048
934	0.048
935	0.048
935	0.047
935	0.047
936	0.046
936	0.046
937	0.046
937	0.045
938	0.045
938	0.044
938	0.044
939	0.043
939	0.042
940	0.042
940	0.042
941	0.042
941	0.042
941	0.042
942	0.042
942	0.042
943	0.043
943	0.044
944	0.044
944	0.045
944	0.046
945	0.047
945	0.047
946	0.048
946	0.048
946	0.049
947	0.049
947	0.049
948	0.049
948	0.049
949	0.049
949	0.048
949	0.047
950	0.047
950	0.046
951	0.045
951	0.044
952	0.044
952	0.043
952	0.042
953	0.042
953	0.042
954	0.042
954	0.041
955	0.041
955	0.041
955	0.041
956	0.041
956	0.042
957	0.043
957	0.043
957	0.044
958	0.044
958	0.045
959	0.046
959	0.046
960	0.047
960	0.048
960	0.048
961	0.048
961	0.049
962	0.049
962	0.049
963	0.049
963	0.048
963	0.048
964	0.048
964	0.047
965	0.047
965	0.046
966	0.046
966	0.045
966	0.045
967	0.045
967	0.044
968	0.044
968	0.044
968	0.044
969	0.043
969	0.043
970	0.043
970	0.042
971	0.042
971	0.041
971	0.041
972	0.04
972	0.04
973	0.039
973	0.039
974	0.039
974	0.039
974	0.039
975	0.039
975	0.04
976	0.04
976	0.04
976	0.04
977	0.041
977	0.041
978	0.041
978	0.042
979	0.042
979	0.043
979	0.043
980	0.043
980	0.043
981	0.043
981	0.043
982	0.044
982	0.044
982	0.044
983	0.044
983	0.044
984	0.044
984	0.044
984	0.044
985	0.044
985	0.044
986	0.044
986	0.043
987	0.043
987	0.043
987	0.042
988	0.042
988	0.041
989	0.041
989	0.041
990	0.04
990	0.04
990	0.04
991	0.04
991	0.039
992	0.039
992	0.039
992	0.038
993	0.038
993	0.038
994	0.037
994	0.037
995	0.036
995	0.036
995	0.036
996	0.036
996	0.037
997	0.037
997	0.038
997	0.038
998	0.039
998	0.04
999	0.04
999	0.041
1000	0.042
1000	0.043
1000	0.043
1001	0.043
1001	0.043
1002	0.043
1002	0.043
1003	0.043
1003	0.043
1003	0.043
1004	0.043
1004	0.043
1005	0.042
1005	0.042
1005	0.042
1006	0.042
1006	0.042
1007	0.042
1007	0.042
1008	0.042
1008	0.042
1008	0.042
1009	0.042
1009	0.042
1010	0.042
1010	0.042
1010	0.042
1011	0.041
1011	0.041
1012	0.041
1012	0.04
1013	0.04
1013	0.039
1013	0.038
1014	0.038
1014	0.037
1015	0.037
1015	0.037
1016	0.037
1016	0.036
1016	0.036
1017	0.036
1017	0.036
1018	0.036
1018	0.035
1018	0.035
1019	0.035
1019	0.035
1020	0.035
1020	0.035
1021	0.036
1021	0.036
1021	0.036
1022	0.036
1022	0.037
1023	0.037
1023	0.037
1023	0.037
1024	0.037
1024	0.037
1025	0.036
1025	0.036
1026	0.036
1026	0.036
1026	0.036
1027	0.036
1027	0.036
1028	0.036
1028	0.037
1028	0.037
1029	0.037
1029	0.038
1030	0.038
1030	0.039
1031	0.039
1031	0.039
1031	0.039
1032	0.039
1032	0.04
1033	0.04
1033	0.04
1033	0.04
1034	0.04
1034	0.04
1035	0.04
1035	0.039
1036	0.039
1036	0.038
1036	0.038
1037	0.038
1037	0.037
1038	0.037
1038	0.036
1039	0.036
1039	0.036
1039	0.036
1040	0.036
1040	0.035
1041	0.036
1041	0.035
1041	0.035
1042	0.035
1042	0.035
1043	0.036
1043	0.036
1044	0.036
1044	0.036
1044	0.036
1045	0.037
1045	0.037
1046	0.037
1046	0.038
1046	0.038
1047	0.038
1047	0.039
1048	0.039
1048	0.039
1049	0.039
1049	0.039
1049	0.038
1050	0.038
1050	0.037
1051	0.037
1051	0.037
1051	0.036
1052	0.035
1052	0.035
1053	0.034
1053	0.033
1053	0.032
1054	0.031
1054	0.031
1055	0.031
1055	0.03
1056	0.03
1056	0.03
1056	0.029
1057	0.029
1057	0.029
1058	0.029
1058	0.028
1058	0.028
1059	0.028
1059	0.027
1060	0.027
1060	0.027
1061	0.027
1061	0.027
1061	0.027
1062	0.028
1062	0.028
1063	0.028
1063	0.029
1063	0.029
1064	0.029
1064	0.029
1065	0.029
1065	0.029
1066	0.03
1066	0.03
1066	0.029
1067	0.029
1067	0.03
1068	0.029
1068	0.029
1068	0.029
1069	0.028
1069	0.028
1070	0.027
1070	0.027
1071	0.026
1071	0.026
1071	0.025
1072	0.025
1072	0.025
1073	0.024
1073	0.024
1073	0.024
1074	0.025
1074	0.025
1075	0.025
1075	0.025
1076	0.025
1076	0.025
1076	0.025
1077	0.025
1077	0.026
1078	0.026
1078	0.026
1078	0.027
1079	0.027
1079	0.027
1080	0.027
1080	0.028
1080	0.028
1081	0.028
1081	0.029
1082	0.029
1082	0.03
1083	0.03
1083	0.029
1083	0.029
1084	0.029
1084	0.029
1085	0.028
1085	0.028
1085	0.028
1086	0.028
1086	0.026
1087	0.026
1087	0.025
1088	0.024
1088	0.024
1088	0.024
1089	0.024
1089	0.023
1090	0.022
1090	0.022
1090	0.021
1091	0.021
1091	0.022
1092	0.022
1092	0.023
1092	0.023
1093	0.023
1093	0.023
1094	0.024
1094	0.024
1095	0.024
1095	0.025
1095	0.025
1096	0.025
1096	0.024
1097	0.023
1097	0.023
1097	0.022
1098	0.022
1098	0.021
1099	0.02
1099	0.019
1100	0.017
1100	0.017
1100	0.016
1101	0.016
1101	0.016
1102	0.015
1102	0.014
1102	0.014
1103	0.014
1103	0.014
1104	0.013
1104	0.013
1104	0.012
1105	0.011
1105	0.009
1106	0.008
1106	0.007
1107	0.007
1107	0.007
1107	0.006
1108	0.005
1108	0.005
1109	0.003
1109	0.004
1109	0.005
1110	0.006
1110	0.006
1111	0.008
1111	0.004
