Data from reversibility-20sec_Absorbance__3060__000000000003060.txt Node

Date: Wed Dec 06 05:13:05 CET 2023
User: Marek
Spectrometer: MAYP115816
Trigger mode: 0
Integration Time (sec): 2.000000E-1
Scans to average: 10
Electric dark correction enabled: true
Nonlinearity correction enabled: true
Boxcar width: 5
XAxis mode: Wavelengths
Number of Pixels in Spectrum: 2068
>>>>>Begin Spectral Data<<<<<
199	-0.145
199	-0.108
200	-0.041
200	0.012
201	0.04
201	0.06
202	0.073
202	0.079
203	0.087
203	0.093
204	0.11
204	0.122
205	0.132
205	0.138
205	0.133
206	0.134
206	0.134
207	0.134
207	0.137
208	0.132
208	0.131
209	0.134
209	0.13
210	0.133
210	0.132
211	0.137
211	0.14
212	0.136
212	0.138
213	0.142
213	0.147
213	0.148
214	0.15
214	0.156
215	0.155
215	0.155
216	0.155
216	0.153
217	0.157
217	0.158
218	0.154
218	0.157
219	0.16
219	0.161
220	0.161
220	0.162
221	0.165
221	0.167
221	0.174
222	0.18
222	0.184
223	0.191
223	0.193
224	0.198
224	0.206
225	0.217
225	0.228
226	0.239
226	0.248
227	0.258
227	0.268
228	0.283
228	0.299
229	0.32
229	0.344
229	0.367
230	0.393
230	0.423
231	0.453
231	0.493
232	0.528
232	0.573
233	0.617
233	0.665
234	0.712
234	0.764
235	0.816
235	0.868
236	0.92
236	0.974
236	1.029
237	1.084
237	1.133
238	1.184
238	1.236
239	1.288
239	1.335
240	1.379
240	1.421
241	1.458
241	1.498
242	1.532
242	1.569
243	1.603
243	1.634
243	1.659
244	1.681
244	1.704
245	1.725
245	1.747
246	1.77
246	1.79
247	1.802
247	1.815
248	1.832
248	1.847
249	1.858
249	1.87
250	1.88
250	1.89
250	1.896
251	1.904
251	1.905
252	1.914
252	1.916
253	1.92
253	1.917
254	1.918
254	1.92
255	1.919
255	1.921
256	1.92
256	1.918
257	1.921
257	1.921
258	1.923
258	1.922
258	1.923
259	1.925
259	1.924
260	1.926
260	1.928
261	1.932
261	1.938
262	1.942
262	1.947
263	1.952
263	1.956
264	1.962
264	1.966
265	1.971
265	1.973
265	1.976
266	1.977
266	1.977
267	1.976
267	1.976
268	1.978
268	1.981
269	1.983
269	1.984
270	1.983
270	1.984
271	1.983
271	1.983
272	1.981
272	1.979
272	1.974
273	1.965
273	1.955
274	1.946
274	1.936
275	1.93
275	1.922
276	1.914
276	1.905
277	1.897
277	1.885
278	1.875
278	1.863
278	1.848
279	1.829
279	1.804
280	1.773
280	1.736
281	1.693
281	1.645
282	1.597
282	1.549
283	1.501
283	1.455
284	1.412
284	1.37
285	1.331
285	1.297
285	1.265
286	1.238
286	1.215
287	1.194
287	1.176
288	1.161
288	1.149
289	1.138
289	1.129
290	1.121
290	1.114
291	1.108
291	1.103
292	1.098
292	1.094
292	1.09
293	1.086
293	1.082
294	1.078
294	1.075
295	1.072
295	1.069
296	1.065
296	1.062
297	1.059
297	1.056
298	1.053
298	1.05
298	1.047
299	1.044
299	1.041
300	1.039
300	1.036
301	1.033
301	1.031
302	1.028
302	1.026
303	1.024
303	1.021
304	1.019
304	1.016
305	1.014
305	1.012
305	1.009
306	1.007
306	1.004
307	1.002
307	0.999
308	0.996
308	0.993
309	0.99
309	0.987
310	0.984
310	0.981
311	0.978
311	0.974
311	0.971
312	0.967
312	0.964
313	0.96
313	0.956
314	0.952
314	0.948
315	0.944
315	0.94
316	0.935
316	0.931
317	0.926
317	0.921
318	0.916
318	0.91
318	0.905
319	0.9
319	0.894
320	0.888
320	0.882
321	0.876
321	0.869
322	0.863
322	0.857
323	0.85
323	0.844
324	0.837
324	0.831
324	0.824
325	0.817
325	0.81
326	0.803
326	0.796
327	0.789
327	0.782
328	0.775
328	0.768
329	0.761
329	0.754
330	0.747
330	0.739
330	0.732
331	0.725
331	0.718
332	0.711
332	0.704
333	0.697
333	0.69
334	0.683
334	0.676
335	0.669
335	0.662
336	0.655
336	0.649
336	0.642
337	0.636
337	0.629
338	0.623
338	0.617
339	0.611
339	0.604
340	0.598
340	0.593
341	0.587
341	0.582
342	0.576
342	0.57
342	0.565
343	0.56
343	0.555
344	0.55
344	0.545
345	0.54
345	0.535
346	0.53
346	0.526
347	0.521
347	0.517
348	0.513
348	0.509
348	0.505
349	0.501
349	0.497
350	0.494
350	0.49
351	0.487
351	0.484
352	0.48
352	0.477
353	0.474
353	0.471
354	0.468
354	0.465
354	0.462
355	0.459
355	0.456
356	0.454
356	0.451
357	0.447
357	0.444
358	0.442
358	0.439
359	0.437
359	0.434
360	0.432
360	0.429
360	0.427
361	0.425
361	0.423
362	0.422
362	0.42
363	0.418
363	0.417
364	0.415
364	0.413
365	0.411
365	0.409
366	0.407
366	0.405
366	0.403
367	0.402
367	0.4
368	0.398
368	0.396
369	0.395
369	0.393
370	0.392
370	0.39
371	0.389
371	0.387
372	0.386
372	0.385
372	0.383
373	0.382
373	0.381
374	0.38
374	0.379
375	0.378
375	0.377
376	0.376
376	0.375
377	0.374
377	0.373
378	0.372
378	0.37
378	0.369
379	0.368
379	0.368
380	0.367
380	0.366
381	0.365
381	0.364
382	0.363
382	0.362
383	0.361
383	0.361
383	0.36
384	0.359
384	0.359
385	0.358
385	0.358
386	0.357
386	0.357
387	0.356
387	0.355
388	0.355
388	0.354
389	0.354
389	0.353
389	0.353
390	0.352
390	0.351
391	0.351
391	0.35
392	0.35
392	0.35
393	0.349
393	0.349
394	0.348
394	0.348
394	0.347
395	0.347
395	0.346
396	0.346
396	0.345
397	0.345
397	0.345
398	0.344
398	0.344
399	0.344
399	0.343
400	0.342
400	0.342
400	0.341
401	0.341
401	0.34
402	0.34
402	0.34
403	0.339
403	0.338
404	0.338
404	0.338
405	0.337
405	0.337
405	0.337
406	0.336
406	0.336
407	0.335
407	0.335
408	0.335
408	0.334
409	0.334
409	0.333
410	0.333
410	0.333
411	0.332
411	0.332
411	0.332
412	0.331
412	0.331
413	0.331
413	0.33
414	0.33
414	0.33
415	0.329
415	0.329
416	0.328
416	0.328
416	0.328
417	0.327
417	0.327
418	0.327
418	0.326
419	0.326
419	0.325
420	0.325
420	0.325
421	0.324
421	0.324
421	0.323
422	0.323
422	0.323
423	0.322
423	0.322
424	0.321
424	0.321
425	0.32
425	0.32
426	0.32
426	0.319
427	0.319
427	0.319
427	0.319
428	0.318
428	0.318
429	0.318
429	0.317
430	0.317
430	0.317
431	0.317
431	0.316
432	0.316
432	0.316
432	0.316
433	0.315
433	0.315
434	0.315
434	0.315
435	0.315
435	0.315
436	0.314
436	0.314
437	0.314
437	0.314
437	0.314
438	0.313
438	0.313
439	0.313
439	0.313
440	0.312
440	0.312
441	0.311
441	0.311
442	0.311
442	0.311
442	0.31
443	0.31
443	0.31
444	0.31
444	0.31
445	0.31
445	0.309
446	0.309
446	0.309
447	0.309
447	0.309
447	0.308
448	0.308
448	0.308
449	0.308
449	0.308
450	0.308
450	0.308
451	0.307
451	0.307
452	0.307
452	0.307
452	0.307
453	0.307
453	0.307
454	0.306
454	0.306
455	0.306
455	0.306
456	0.306
456	0.306
457	0.305
457	0.305
458	0.305
458	0.305
458	0.305
459	0.305
459	0.305
460	0.305
460	0.305
461	0.305
461	0.305
462	0.305
462	0.305
463	0.305
463	0.305
463	0.304
464	0.304
464	0.304
465	0.304
465	0.303
466	0.303
466	0.304
467	0.303
467	0.304
467	0.304
468	0.304
468	0.304
469	0.304
469	0.304
470	0.305
470	0.305
471	0.305
471	0.305
472	0.305
472	0.305
472	0.306
473	0.306
473	0.306
474	0.306
474	0.306
475	0.306
475	0.306
476	0.307
476	0.307
477	0.307
477	0.307
477	0.308
478	0.308
478	0.308
479	0.308
479	0.309
480	0.309
480	0.31
481	0.31
481	0.31
482	0.311
482	0.311
482	0.312
483	0.312
483	0.313
484	0.314
484	0.314
485	0.314
485	0.315
486	0.315
486	0.315
487	0.316
487	0.316
487	0.317
488	0.317
488	0.317
489	0.318
489	0.319
490	0.32
490	0.321
491	0.322
491	0.323
492	0.324
492	0.325
492	0.326
493	0.327
493	0.328
494	0.329
494	0.33
495	0.331
495	0.332
496	0.333
496	0.334
496	0.335
497	0.336
497	0.337
498	0.337
498	0.338
499	0.339
499	0.34
500	0.341
500	0.343
501	0.344
501	0.344
501	0.345
502	0.346
502	0.347
503	0.348
503	0.349
504	0.35
504	0.351
505	0.352
505	0.353
506	0.353
506	0.354
506	0.355
507	0.356
507	0.357
508	0.358
508	0.359
509	0.36
509	0.36
510	0.361
510	0.362
511	0.363
511	0.364
511	0.365
512	0.366
512	0.366
513	0.367
513	0.368
514	0.368
514	0.369
515	0.37
515	0.371
515	0.371
516	0.372
516	0.372
517	0.373
517	0.373
518	0.374
518	0.374
519	0.375
519	0.375
520	0.375
520	0.375
520	0.376
521	0.376
521	0.376
522	0.377
522	0.377
523	0.377
523	0.377
524	0.377
524	0.377
524	0.377
525	0.377
525	0.377
526	0.376
526	0.376
527	0.375
527	0.375
528	0.375
528	0.374
529	0.374
529	0.373
529	0.372
530	0.372
530	0.372
531	0.371
531	0.37
532	0.37
532	0.369
533	0.368
533	0.367
533	0.366
534	0.365
534	0.364
535	0.363
535	0.363
536	0.362
536	0.36
537	0.359
537	0.358
538	0.357
538	0.355
538	0.354
539	0.353
539	0.352
540	0.351
540	0.35
541	0.349
541	0.348
542	0.347
542	0.346
542	0.344
543	0.343
543	0.342
544	0.341
544	0.339
545	0.338
545	0.337
546	0.336
546	0.335
547	0.333
547	0.332
547	0.33
548	0.329
548	0.328
549	0.327
549	0.326
550	0.324
550	0.323
551	0.321
551	0.32
551	0.318
552	0.317
552	0.316
553	0.315
553	0.314
554	0.312
554	0.311
555	0.309
555	0.308
556	0.307
556	0.305
556	0.304
557	0.303
557	0.302
558	0.301
558	0.3
559	0.299
559	0.298
560	0.297
560	0.296
560	0.295
561	0.294
561	0.293
562	0.291
562	0.289
563	0.287
563	0.286
564	0.284
564	0.283
564	0.282
565	0.281
565	0.279
566	0.278
566	0.277
567	0.276
567	0.276
568	0.275
568	0.274
568	0.273
569	0.272
569	0.271
570	0.269
570	0.268
571	0.267
571	0.266
572	0.265
572	0.264
573	0.263
573	0.262
573	0.261
574	0.26
574	0.26
575	0.259
575	0.259
576	0.258
576	0.257
577	0.256
577	0.255
577	0.254
578	0.253
578	0.252
579	0.251
579	0.251
580	0.25
580	0.248
581	0.247
581	0.247
581	0.246
582	0.246
582	0.245
583	0.245
583	0.244
584	0.243
584	0.242
585	0.241
585	0.24
585	0.239
586	0.238
586	0.238
587	0.237
587	0.236
588	0.235
588	0.234
589	0.233
589	0.233
590	0.232
590	0.232
590	0.232
591	0.231
591	0.23
592	0.229
592	0.228
593	0.227
593	0.226
594	0.226
594	0.225
594	0.224
595	0.223
595	0.222
596	0.221
596	0.222
597	0.222
597	0.222
598	0.222
598	0.222
598	0.222
599	0.221
599	0.221
600	0.22
600	0.22
601	0.219
601	0.219
602	0.217
602	0.217
602	0.216
603	0.215
603	0.215
604	0.215
604	0.214
605	0.214
605	0.214
606	0.213
606	0.213
606	0.212
607	0.212
607	0.211
608	0.21
608	0.209
609	0.208
609	0.208
610	0.207
610	0.206
610	0.206
611	0.206
611	0.205
612	0.205
612	0.205
613	0.205
613	0.205
614	0.205
614	0.204
614	0.204
615	0.204
615	0.204
616	0.204
616	0.203
617	0.203
617	0.203
618	0.202
618	0.202
618	0.202
619	0.202
619	0.202
620	0.202
620	0.202
621	0.201
621	0.201
622	0.2
622	0.2
622	0.199
623	0.198
623	0.198
624	0.198
624	0.197
625	0.196
625	0.196
626	0.196
626	0.195
626	0.195
627	0.195
627	0.195
628	0.195
628	0.195
629	0.194
629	0.194
630	0.194
630	0.193
630	0.193
631	0.193
631	0.193
632	0.192
632	0.192
633	0.192
633	0.192
634	0.192
634	0.192
634	0.192
635	0.191
635	0.191
636	0.191
636	0.191
637	0.19
637	0.19
638	0.19
638	0.189
638	0.189
639	0.188
639	0.188
640	0.188
640	0.187
641	0.187
641	0.187
642	0.187
642	0.187
642	0.187
643	0.187
643	0.187
644	0.188
644	0.188
645	0.188
645	0.188
646	0.188
646	0.188
646	0.188
647	0.188
647	0.187
648	0.187
648	0.186
649	0.186
649	0.186
650	0.186
650	0.185
650	0.185
651	0.185
651	0.185
652	0.184
652	0.184
653	0.185
653	0.186
653	0.192
654	0.151
654	0.12
655	0.121
655	0.122
656	0.122
656	0.122
657	0.123
657	0.123
657	0.123
658	0.122
658	0.112
659	0.142
659	0.182
660	0.186
660	0.186
661	0.185
661	0.185
661	0.184
662	0.183
662	0.182
663	0.182
663	0.181
664	0.181
664	0.18
665	0.18
665	0.18
665	0.18
666	0.18
666	0.181
667	0.181
667	0.181
668	0.182
668	0.182
669	0.182
669	0.182
669	0.182
670	0.182
670	0.182
671	0.182
671	0.181
672	0.181
672	0.18
672	0.18
673	0.179
673	0.179
674	0.179
674	0.178
675	0.178
675	0.178
676	0.178
676	0.178
676	0.178
677	0.179
677	0.178
678	0.178
678	0.178
679	0.178
679	0.178
680	0.178
680	0.177
680	0.177
681	0.177
681	0.177
682	0.177
682	0.178
683	0.178
683	0.179
684	0.179
684	0.179
684	0.178
685	0.178
685	0.179
686	0.179
686	0.178
687	0.178
687	0.178
687	0.178
688	0.178
688	0.178
689	0.179
689	0.18
690	0.18
690	0.18
691	0.18
691	0.18
691	0.18
692	0.18
692	0.18
693	0.181
693	0.181
694	0.18
694	0.18
695	0.18
695	0.181
695	0.181
696	0.181
696	0.181
697	0.181
697	0.181
698	0.18
698	0.18
698	0.18
699	0.18
699	0.18
700	0.179
700	0.179
701	0.179
701	0.178
702	0.178
702	0.178
702	0.178
703	0.177
703	0.177
704	0.177
704	0.177
705	0.177
705	0.176
705	0.176
706	0.176
706	0.176
707	0.176
707	0.176
708	0.176
708	0.176
709	0.176
709	0.176
709	0.176
710	0.176
710	0.176
711	0.176
711	0.176
712	0.176
712	0.176
713	0.176
713	0.177
713	0.176
714	0.176
714	0.176
715	0.176
715	0.176
716	0.176
716	0.175
716	0.175
717	0.174
717	0.173
718	0.173
718	0.172
719	0.172
719	0.172
720	0.173
720	0.173
720	0.174
721	0.174
721	0.175
722	0.176
722	0.177
723	0.177
723	0.178
723	0.178
724	0.178
724	0.178
725	0.177
725	0.176
726	0.176
726	0.175
727	0.174
727	0.174
727	0.173
728	0.173
728	0.173
729	0.173
729	0.173
730	0.174
730	0.174
730	0.175
731	0.175
731	0.176
732	0.177
732	0.177
733	0.178
733	0.178
734	0.178
734	0.178
734	0.179
735	0.179
735	0.179
736	0.178
736	0.178
737	0.177
737	0.177
737	0.177
738	0.176
738	0.176
739	0.175
739	0.175
740	0.175
740	0.175
741	0.175
741	0.176
741	0.176
742	0.175
742	0.176
743	0.177
743	0.177
744	0.178
744	0.178
744	0.178
745	0.178
745	0.178
746	0.178
746	0.178
747	0.178
747	0.179
748	0.179
748	0.179
748	0.18
749	0.18
749	0.181
750	0.181
750	0.181
751	0.181
751	0.181
751	0.181
752	0.181
752	0.18
753	0.18
753	0.179
754	0.178
754	0.177
754	0.177
755	0.176
755	0.176
756	0.175
756	0.174
757	0.174
757	0.174
758	0.174
758	0.174
758	0.174
759	0.174
759	0.174
760	0.174
760	0.174
761	0.175
761	0.175
761	0.176
762	0.176
762	0.176
763	0.176
763	0.176
764	0.176
764	0.176
764	0.176
765	0.176
765	0.175
766	0.175
766	0.175
767	0.174
767	0.174
768	0.173
768	0.173
768	0.173
769	0.173
769	0.173
770	0.173
770	0.174
771	0.174
771	0.175
771	0.175
772	0.176
772	0.177
773	0.177
773	0.177
774	0.178
774	0.178
775	0.179
775	0.179
775	0.179
776	0.179
776	0.179
777	0.179
777	0.178
778	0.178
778	0.177
778	0.177
779	0.176
779	0.175
780	0.174
780	0.174
781	0.173
781	0.173
781	0.173
782	0.172
782	0.172
783	0.173
783	0.173
784	0.173
784	0.173
784	0.173
785	0.174
785	0.174
786	0.174
786	0.174
787	0.174
787	0.174
788	0.174
788	0.173
788	0.173
789	0.172
789	0.172
790	0.171
790	0.171
791	0.17
791	0.17
791	0.169
792	0.17
792	0.17
793	0.17
793	0.17
794	0.17
794	0.17
794	0.17
795	0.17
795	0.17
796	0.17
796	0.171
797	0.17
797	0.17
797	0.17
798	0.17
798	0.17
799	0.17
799	0.17
800	0.169
800	0.168
801	0.168
801	0.167
801	0.167
802	0.167
802	0.167
803	0.166
803	0.166
804	0.167
804	0.167
804	0.167
805	0.167
805	0.167
806	0.167
806	0.167
807	0.167
807	0.167
807	0.167
808	0.167
808	0.167
809	0.167
809	0.167
810	0.167
810	0.167
810	0.167
811	0.167
811	0.167
812	0.167
812	0.166
813	0.166
813	0.166
813	0.166
814	0.166
814	0.166
815	0.166
815	0.165
816	0.165
816	0.164
817	0.164
817	0.163
817	0.162
818	0.162
818	0.161
819	0.161
819	0.16
820	0.159
820	0.158
820	0.158
821	0.158
821	0.158
822	0.159
822	0.159
823	0.159
823	0.159
823	0.16
824	0.161
824	0.162
825	0.163
825	0.164
826	0.164
826	0.164
826	0.164
827	0.164
827	0.164
828	0.164
828	0.164
829	0.164
829	0.163
829	0.163
830	0.163
830	0.163
831	0.163
831	0.163
832	0.163
832	0.163
832	0.163
833	0.163
833	0.163
834	0.162
834	0.162
835	0.161
835	0.16
835	0.16
836	0.159
836	0.159
837	0.158
837	0.157
838	0.156
838	0.155
839	0.155
839	0.154
839	0.153
840	0.152
840	0.151
841	0.15
841	0.149
842	0.148
842	0.147
842	0.147
843	0.146
843	0.146
844	0.146
844	0.146
845	0.146
845	0.146
845	0.146
846	0.146
846	0.146
847	0.147
847	0.147
848	0.147
848	0.147
848	0.147
849	0.147
849	0.146
850	0.146
850	0.145
851	0.145
851	0.144
851	0.143
852	0.142
852	0.142
853	0.141
853	0.141
854	0.141
854	0.141
854	0.141
855	0.142
855	0.142
856	0.143
856	0.144
857	0.145
857	0.145
857	0.145
858	0.145
858	0.145
859	0.144
859	0.143
860	0.142
860	0.141
860	0.14
861	0.138
861	0.137
862	0.136
862	0.135
863	0.135
863	0.135
863	0.135
864	0.135
864	0.135
865	0.135
865	0.135
866	0.135
866	0.134
866	0.134
867	0.134
867	0.133
868	0.133
868	0.133
869	0.132
869	0.132
869	0.131
870	0.13
870	0.13
871	0.129
871	0.129
872	0.129
872	0.129
872	0.129
873	0.129
873	0.129
874	0.129
874	0.129
875	0.128
875	0.128
875	0.128
876	0.127
876	0.127
877	0.126
877	0.126
878	0.126
878	0.127
878	0.127
879	0.128
879	0.129
880	0.129
880	0.13
881	0.13
881	0.13
881	0.13
882	0.13
882	0.13
883	0.129
883	0.129
884	0.128
884	0.127
884	0.127
885	0.126
885	0.125
886	0.125
886	0.124
887	0.123
887	0.122
887	0.121
888	0.12
888	0.12
889	0.119
889	0.118
890	0.118
890	0.117
890	0.117
891	0.116
891	0.116
892	0.115
892	0.115
893	0.114
893	0.114
893	0.113
894	0.113
894	0.112
895	0.112
895	0.112
895	0.112
896	0.112
896	0.112
897	0.112
897	0.112
898	0.112
898	0.112
898	0.112
899	0.112
899	0.112
900	0.112
900	0.112
901	0.112
901	0.112
901	0.112
902	0.112
902	0.112
903	0.112
903	0.112
904	0.111
904	0.111
904	0.111
905	0.111
905	0.111
906	0.112
906	0.112
907	0.113
907	0.114
907	0.115
908	0.115
908	0.116
909	0.116
909	0.116
910	0.116
910	0.116
910	0.115
911	0.115
911	0.114
912	0.113
912	0.112
913	0.111
913	0.11
913	0.109
914	0.109
914	0.108
915	0.107
915	0.107
916	0.106
916	0.106
916	0.105
917	0.105
917	0.104
918	0.104
918	0.103
918	0.102
919	0.102
919	0.101
920	0.101
920	0.1
921	0.1
921	0.099
921	0.099
922	0.098
922	0.098
923	0.098
923	0.098
924	0.099
924	0.099
924	0.099
925	0.099
925	0.099
926	0.1
926	0.1
927	0.1
927	0.1
927	0.101
928	0.101
928	0.101
929	0.102
929	0.102
930	0.102
930	0.102
930	0.102
931	0.102
931	0.102
932	0.103
932	0.103
933	0.103
933	0.103
933	0.103
934	0.103
934	0.103
935	0.103
935	0.104
935	0.104
936	0.104
936	0.103
937	0.103
937	0.103
938	0.103
938	0.102
938	0.102
939	0.101
939	0.1
940	0.099
940	0.098
941	0.098
941	0.098
941	0.097
942	0.097
942	0.096
943	0.096
943	0.096
944	0.095
944	0.095
944	0.095
945	0.095
945	0.094
946	0.094
946	0.094
946	0.094
947	0.094
947	0.094
948	0.094
948	0.094
949	0.094
949	0.094
949	0.094
950	0.093
950	0.093
951	0.092
951	0.091
952	0.09
952	0.09
952	0.089
953	0.088
953	0.087
954	0.086
954	0.086
955	0.085
955	0.085
955	0.085
956	0.085
956	0.085
957	0.086
957	0.086
957	0.087
958	0.088
958	0.088
959	0.089
959	0.089
960	0.09
960	0.09
960	0.091
961	0.091
961	0.091
962	0.091
962	0.091
963	0.091
963	0.091
963	0.091
964	0.091
964	0.092
965	0.092
965	0.092
966	0.093
966	0.093
966	0.094
967	0.094
967	0.094
968	0.094
968	0.094
968	0.094
969	0.094
969	0.093
970	0.093
970	0.092
971	0.091
971	0.09
971	0.09
972	0.089
972	0.088
973	0.088
973	0.087
974	0.087
974	0.087
974	0.087
975	0.087
975	0.087
976	0.087
976	0.087
976	0.087
977	0.087
977	0.086
978	0.086
978	0.085
979	0.084
979	0.084
979	0.083
980	0.082
980	0.082
981	0.081
981	0.08
982	0.08
982	0.08
982	0.08
983	0.079
983	0.079
984	0.079
984	0.079
984	0.079
985	0.079
985	0.078
986	0.078
986	0.078
987	0.077
987	0.077
987	0.077
988	0.077
988	0.076
989	0.076
989	0.076
990	0.076
990	0.076
990	0.076
991	0.076
991	0.076
992	0.076
992	0.076
992	0.076
993	0.076
993	0.076
994	0.076
994	0.075
995	0.075
995	0.075
995	0.075
996	0.075
996	0.075
997	0.075
997	0.075
997	0.075
998	0.075
998	0.075
999	0.075
999	0.075
1000	0.076
1000	0.076
1000	0.076
1001	0.076
1001	0.075
1002	0.075
1002	0.075
1003	0.075
1003	0.074
1003	0.074
1004	0.073
1004	0.073
1005	0.072
1005	0.072
1005	0.071
1006	0.071
1006	0.071
1007	0.071
1007	0.071
1008	0.071
1008	0.071
1008	0.071
1009	0.071
1009	0.072
1010	0.072
1010	0.072
1010	0.072
1011	0.073
1011	0.073
1012	0.073
1012	0.073
1013	0.074
1013	0.073
1013	0.073
1014	0.073
1014	0.073
1015	0.073
1015	0.072
1016	0.072
1016	0.071
1016	0.071
1017	0.07
1017	0.07
1018	0.07
1018	0.07
1018	0.069
1019	0.069
1019	0.069
1020	0.069
1020	0.069
1021	0.07
1021	0.07
1021	0.07
1022	0.07
1022	0.071
1023	0.071
1023	0.071
1023	0.072
1024	0.072
1024	0.072
1025	0.072
1025	0.072
1026	0.072
1026	0.072
1026	0.072
1027	0.072
1027	0.071
1028	0.071
1028	0.071
1028	0.071
1029	0.071
1029	0.071
1030	0.071
1030	0.071
1031	0.071
1031	0.071
1031	0.071
1032	0.071
1032	0.071
1033	0.071
1033	0.071
1033	0.07
1034	0.07
1034	0.07
1035	0.07
1035	0.069
1036	0.069
1036	0.068
1036	0.068
1037	0.068
1037	0.068
1038	0.068
1038	0.067
1039	0.067
1039	0.068
1039	0.068
1040	0.068
1040	0.068
1041	0.069
1041	0.069
1041	0.069
1042	0.069
1042	0.07
1043	0.07
1043	0.07
1044	0.07
1044	0.07
1044	0.07
1045	0.07
1045	0.07
1046	0.071
1046	0.071
1046	0.071
1047	0.072
1047	0.072
1048	0.073
1048	0.073
1049	0.074
1049	0.074
1049	0.075
1050	0.075
1050	0.075
1051	0.075
1051	0.075
1051	0.075
1052	0.074
1052	0.074
1053	0.073
1053	0.073
1053	0.072
1054	0.072
1054	0.071
1055	0.071
1055	0.07
1056	0.07
1056	0.069
1056	0.068
1057	0.068
1057	0.067
1058	0.067
1058	0.066
1058	0.066
1059	0.065
1059	0.065
1060	0.064
1060	0.064
1061	0.064
1061	0.064
1061	0.064
1062	0.064
1062	0.064
1063	0.064
1063	0.064
1063	0.064
1064	0.064
1064	0.063
1065	0.063
1065	0.063
1066	0.062
1066	0.062
1066	0.061
1067	0.06
1067	0.06
1068	0.059
1068	0.059
1068	0.059
1069	0.058
1069	0.057
1070	0.057
1070	0.056
1071	0.055
1071	0.055
1071	0.054
1072	0.054
1072	0.053
1073	0.052
1073	0.052
1073	0.052
1074	0.052
1074	0.052
1075	0.051
1075	0.052
1076	0.052
1076	0.052
1076	0.053
1077	0.053
1077	0.053
1078	0.053
1078	0.053
1078	0.053
1079	0.053
1079	0.053
1080	0.053
1080	0.053
1080	0.052
1081	0.052
1081	0.053
1082	0.053
1082	0.054
1083	0.054
1083	0.054
1083	0.054
1084	0.054
1084	0.054
1085	0.054
1085	0.054
1085	0.055
1086	0.055
1086	0.055
1087	0.055
1087	0.055
1088	0.055
1088	0.056
1088	0.056
1089	0.055
1089	0.055
1090	0.054
1090	0.053
1090	0.053
1091	0.052
1091	0.052
1092	0.052
1092	0.052
1092	0.052
1093	0.051
1093	0.051
1094	0.051
1094	0.051
1095	0.051
1095	0.051
1095	0.05
1096	0.05
1096	0.049
1097	0.048
1097	0.048
1097	0.048
1098	0.047
1098	0.047
1099	0.046
1099	0.046
1100	0.045
1100	0.044
1100	0.043
1101	0.043
1101	0.043
1102	0.043
1102	0.041
1102	0.04
1103	0.04
1103	0.04
1104	0.041
1104	0.041
1104	0.041
1105	0.04
1105	0.038
1106	0.037
1106	0.036
1107	0.035
1107	0.035
1107	0.034
1108	0.033
1108	0.031
1109	0.03
1109	0.03
1109	0.029
1110	0.033
1110	0.032
1111	0.03
1111	0.031
