Data from reversibility-20sec_Absorbance__1909__000000000001909.txt Node

Date: Tue Dec 05 22:49:25 CET 2023
User: Marek
Spectrometer: MAYP115816
Trigger mode: 0
Integration Time (sec): 2.000000E-1
Scans to average: 10
Electric dark correction enabled: true
Nonlinearity correction enabled: true
Boxcar width: 5
XAxis mode: Wavelengths
Number of Pixels in Spectrum: 2068
>>>>>Begin Spectral Data<<<<<
199	-0.251
199	-0.217
200	-0.138
200	-0.085
201	-0.049
201	-0.03
202	-0.019
202	-0.01
203	-0.002
203	0.002
204	0.017
204	0.032
205	0.046
205	0.051
205	0.051
206	0.05
206	0.049
207	0.054
207	0.053
208	0.054
208	0.052
209	0.052
209	0.05
210	0.05
210	0.05
211	0.049
211	0.048
212	0.048
212	0.049
213	0.052
213	0.05
213	0.051
214	0.058
214	0.059
215	0.062
215	0.062
216	0.066
216	0.065
217	0.067
217	0.069
218	0.068
218	0.076
219	0.082
219	0.082
220	0.086
220	0.085
221	0.085
221	0.087
221	0.092
222	0.098
222	0.1
223	0.107
223	0.108
224	0.109
224	0.116
225	0.124
225	0.136
226	0.144
226	0.153
227	0.163
227	0.173
228	0.187
228	0.201
229	0.216
229	0.24
229	0.266
230	0.291
230	0.32
231	0.353
231	0.394
232	0.432
232	0.475
233	0.522
233	0.572
234	0.625
234	0.677
235	0.729
235	0.782
236	0.833
236	0.888
236	0.94
237	0.994
237	1.046
238	1.095
238	1.143
239	1.194
239	1.242
240	1.284
240	1.323
241	1.363
241	1.4
242	1.434
242	1.471
243	1.506
243	1.535
243	1.564
244	1.588
244	1.612
245	1.633
245	1.659
246	1.682
246	1.702
247	1.719
247	1.736
248	1.753
248	1.771
249	1.785
249	1.796
250	1.811
250	1.826
250	1.837
251	1.844
251	1.852
252	1.862
252	1.867
253	1.875
253	1.876
254	1.879
254	1.885
255	1.883
255	1.886
256	1.885
256	1.885
257	1.889
257	1.89
258	1.891
258	1.89
258	1.892
259	1.895
259	1.894
260	1.896
260	1.897
261	1.899
261	1.905
262	1.907
262	1.909
263	1.914
263	1.917
264	1.92
264	1.921
265	1.925
265	1.928
265	1.929
266	1.932
266	1.934
267	1.933
267	1.936
268	1.937
268	1.939
269	1.942
269	1.943
270	1.943
270	1.942
271	1.941
271	1.942
272	1.939
272	1.94
272	1.937
273	1.931
273	1.926
274	1.92
274	1.915
275	1.909
275	1.904
276	1.898
276	1.892
277	1.884
277	1.873
278	1.862
278	1.852
278	1.839
279	1.826
279	1.807
280	1.784
280	1.755
281	1.722
281	1.684
282	1.646
282	1.607
283	1.566
283	1.525
284	1.486
284	1.448
285	1.412
285	1.378
285	1.349
286	1.321
286	1.298
287	1.276
287	1.258
288	1.242
288	1.228
289	1.216
289	1.205
290	1.196
290	1.188
291	1.181
291	1.175
292	1.169
292	1.164
292	1.159
293	1.155
293	1.15
294	1.146
294	1.143
295	1.139
295	1.136
296	1.132
296	1.128
297	1.125
297	1.122
298	1.119
298	1.116
298	1.113
299	1.11
299	1.107
300	1.105
300	1.101
301	1.098
301	1.096
302	1.092
302	1.089
303	1.086
303	1.083
304	1.081
304	1.078
305	1.075
305	1.072
305	1.069
306	1.066
306	1.063
307	1.061
307	1.058
308	1.055
308	1.052
309	1.049
309	1.046
310	1.042
310	1.039
311	1.036
311	1.032
311	1.029
312	1.025
312	1.021
313	1.017
313	1.013
314	1.008
314	1.004
315	1
315	0.995
316	0.991
316	0.986
317	0.981
317	0.976
318	0.97
318	0.965
318	0.959
319	0.954
319	0.948
320	0.942
320	0.935
321	0.929
321	0.923
322	0.917
322	0.91
323	0.904
323	0.897
324	0.891
324	0.884
324	0.877
325	0.871
325	0.864
326	0.857
326	0.85
327	0.843
327	0.836
328	0.829
328	0.822
329	0.815
329	0.808
330	0.801
330	0.794
330	0.786
331	0.779
331	0.772
332	0.765
332	0.758
333	0.751
333	0.744
334	0.737
334	0.73
335	0.723
335	0.716
336	0.709
336	0.703
336	0.696
337	0.689
337	0.683
338	0.677
338	0.67
339	0.664
339	0.658
340	0.652
340	0.646
341	0.64
341	0.634
342	0.629
342	0.623
342	0.618
343	0.613
343	0.607
344	0.602
344	0.597
345	0.592
345	0.588
346	0.583
346	0.578
347	0.574
347	0.569
348	0.565
348	0.561
348	0.557
349	0.553
349	0.549
350	0.546
350	0.542
351	0.539
351	0.535
352	0.532
352	0.529
353	0.525
353	0.522
354	0.519
354	0.516
354	0.513
355	0.51
355	0.507
356	0.504
356	0.501
357	0.497
357	0.495
358	0.491
358	0.489
359	0.486
359	0.484
360	0.481
360	0.479
360	0.477
361	0.474
361	0.472
362	0.471
362	0.469
363	0.467
363	0.465
364	0.463
364	0.461
365	0.459
365	0.456
366	0.455
366	0.452
366	0.451
367	0.449
367	0.447
368	0.445
368	0.443
369	0.441
369	0.439
370	0.438
370	0.436
371	0.434
371	0.433
372	0.431
372	0.43
372	0.428
373	0.427
373	0.425
374	0.424
374	0.423
375	0.422
375	0.42
376	0.419
376	0.418
377	0.417
377	0.415
378	0.414
378	0.413
378	0.412
379	0.411
379	0.41
380	0.409
380	0.408
381	0.407
381	0.406
382	0.405
382	0.404
383	0.403
383	0.402
383	0.401
384	0.4
384	0.399
385	0.398
385	0.398
386	0.397
386	0.396
387	0.395
387	0.395
388	0.394
388	0.393
389	0.392
389	0.392
389	0.391
390	0.391
390	0.39
391	0.389
391	0.389
392	0.388
392	0.387
393	0.387
393	0.386
394	0.385
394	0.385
394	0.384
395	0.383
395	0.383
396	0.382
396	0.381
397	0.38
397	0.38
398	0.379
398	0.378
399	0.378
399	0.377
400	0.377
400	0.376
400	0.376
401	0.375
401	0.375
402	0.374
402	0.374
403	0.373
403	0.373
404	0.372
404	0.372
405	0.371
405	0.371
405	0.37
406	0.37
406	0.369
407	0.369
407	0.368
408	0.368
408	0.367
409	0.367
409	0.366
410	0.366
410	0.365
411	0.365
411	0.365
411	0.364
412	0.364
412	0.363
413	0.363
413	0.362
414	0.362
414	0.362
415	0.361
415	0.361
416	0.36
416	0.36
416	0.359
417	0.359
417	0.358
418	0.358
418	0.357
419	0.357
419	0.356
420	0.356
420	0.356
421	0.355
421	0.355
421	0.354
422	0.354
422	0.354
423	0.353
423	0.353
424	0.353
424	0.352
425	0.352
425	0.352
426	0.352
426	0.351
427	0.351
427	0.351
427	0.35
428	0.35
428	0.35
429	0.349
429	0.349
430	0.349
430	0.348
431	0.348
431	0.348
432	0.348
432	0.347
432	0.347
433	0.347
433	0.346
434	0.346
434	0.346
435	0.346
435	0.346
436	0.345
436	0.345
437	0.345
437	0.345
437	0.345
438	0.344
438	0.344
439	0.344
439	0.344
440	0.344
440	0.344
441	0.344
441	0.344
442	0.343
442	0.343
442	0.343
443	0.343
443	0.342
444	0.342
444	0.342
445	0.342
445	0.342
446	0.342
446	0.342
447	0.342
447	0.342
447	0.342
448	0.341
448	0.341
449	0.341
449	0.341
450	0.341
450	0.341
451	0.341
451	0.341
452	0.341
452	0.341
452	0.341
453	0.341
453	0.341
454	0.342
454	0.341
455	0.341
455	0.341
456	0.341
456	0.341
457	0.341
457	0.341
458	0.341
458	0.341
458	0.341
459	0.341
459	0.342
460	0.342
460	0.342
461	0.342
461	0.342
462	0.342
462	0.342
463	0.342
463	0.342
463	0.343
464	0.343
464	0.343
465	0.342
465	0.343
466	0.343
466	0.343
467	0.344
467	0.344
467	0.344
468	0.344
468	0.344
469	0.345
469	0.345
470	0.346
470	0.346
471	0.346
471	0.346
472	0.347
472	0.348
472	0.348
473	0.349
473	0.349
474	0.35
474	0.35
475	0.35
475	0.351
476	0.352
476	0.352
477	0.353
477	0.353
477	0.354
478	0.355
478	0.356
479	0.356
479	0.357
480	0.358
480	0.359
481	0.359
481	0.36
482	0.361
482	0.362
482	0.363
483	0.364
483	0.365
484	0.366
484	0.367
485	0.368
485	0.369
486	0.369
486	0.37
487	0.371
487	0.372
487	0.373
488	0.374
488	0.375
489	0.376
489	0.378
490	0.379
490	0.381
491	0.383
491	0.384
492	0.385
492	0.387
492	0.388
493	0.39
493	0.391
494	0.393
494	0.394
495	0.396
495	0.397
496	0.399
496	0.401
496	0.402
497	0.404
497	0.405
498	0.406
498	0.408
499	0.409
499	0.411
500	0.413
500	0.415
501	0.416
501	0.417
501	0.419
502	0.42
502	0.422
503	0.423
503	0.425
504	0.426
504	0.427
505	0.429
505	0.43
506	0.431
506	0.433
506	0.434
507	0.436
507	0.438
508	0.439
508	0.44
509	0.442
509	0.443
510	0.445
510	0.446
511	0.448
511	0.449
511	0.45
512	0.451
512	0.453
513	0.454
513	0.455
514	0.456
514	0.457
515	0.458
515	0.458
515	0.459
516	0.46
516	0.461
517	0.461
517	0.462
518	0.462
518	0.462
519	0.463
519	0.463
520	0.463
520	0.463
520	0.463
521	0.463
521	0.463
522	0.462
522	0.462
523	0.462
523	0.462
524	0.462
524	0.461
524	0.461
525	0.461
525	0.46
526	0.46
526	0.459
527	0.459
527	0.458
528	0.457
528	0.456
529	0.455
529	0.454
529	0.452
530	0.451
530	0.449
531	0.448
531	0.446
532	0.445
532	0.443
533	0.442
533	0.44
533	0.438
534	0.436
534	0.435
535	0.433
535	0.431
536	0.429
536	0.427
537	0.425
537	0.422
538	0.42
538	0.418
538	0.416
539	0.414
539	0.412
540	0.41
540	0.407
541	0.405
541	0.402
542	0.4
542	0.397
542	0.395
543	0.392
543	0.389
544	0.387
544	0.384
545	0.382
545	0.379
546	0.377
546	0.374
547	0.371
547	0.368
547	0.366
548	0.364
548	0.361
549	0.358
549	0.356
550	0.353
550	0.35
551	0.347
551	0.345
551	0.342
552	0.34
552	0.337
553	0.334
553	0.332
554	0.329
554	0.326
555	0.323
555	0.32
556	0.318
556	0.315
556	0.313
557	0.31
557	0.308
558	0.306
558	0.303
559	0.301
559	0.298
560	0.296
560	0.293
560	0.291
561	0.289
561	0.287
562	0.284
562	0.282
563	0.279
563	0.277
564	0.274
564	0.272
564	0.27
565	0.268
565	0.266
566	0.264
566	0.261
567	0.26
567	0.258
568	0.256
568	0.254
568	0.253
569	0.251
569	0.249
570	0.247
570	0.245
571	0.244
571	0.242
572	0.24
572	0.238
573	0.236
573	0.234
573	0.232
574	0.23
574	0.228
575	0.226
575	0.225
576	0.224
576	0.221
577	0.22
577	0.218
577	0.217
578	0.215
578	0.214
579	0.213
579	0.212
580	0.21
580	0.208
581	0.206
581	0.205
581	0.204
582	0.203
582	0.202
583	0.201
583	0.2
584	0.198
584	0.195
585	0.194
585	0.193
585	0.191
586	0.19
586	0.188
587	0.187
587	0.185
588	0.184
588	0.182
589	0.181
589	0.181
590	0.18
590	0.179
590	0.179
591	0.178
591	0.177
592	0.176
592	0.174
593	0.173
593	0.172
594	0.171
594	0.17
594	0.169
595	0.168
595	0.167
596	0.165
596	0.164
597	0.164
597	0.163
598	0.162
598	0.162
598	0.161
599	0.16
599	0.159
600	0.158
600	0.157
601	0.157
601	0.156
602	0.155
602	0.154
602	0.153
603	0.152
603	0.152
604	0.151
604	0.151
605	0.15
605	0.15
606	0.149
606	0.147
606	0.147
607	0.146
607	0.145
608	0.145
608	0.144
609	0.143
609	0.142
610	0.141
610	0.141
610	0.14
611	0.14
611	0.139
612	0.139
612	0.139
613	0.138
613	0.138
614	0.137
614	0.136
614	0.135
615	0.135
615	0.134
616	0.134
616	0.133
617	0.133
617	0.132
618	0.131
618	0.131
618	0.131
619	0.131
619	0.131
620	0.131
620	0.13
621	0.129
621	0.129
622	0.128
622	0.127
622	0.126
623	0.125
623	0.125
624	0.124
624	0.123
625	0.123
625	0.122
626	0.122
626	0.121
626	0.121
627	0.121
627	0.12
628	0.12
628	0.119
629	0.119
629	0.118
630	0.118
630	0.117
630	0.117
631	0.116
631	0.116
632	0.115
632	0.115
633	0.114
633	0.114
634	0.114
634	0.114
634	0.114
635	0.113
635	0.112
636	0.112
636	0.112
637	0.111
637	0.111
638	0.111
638	0.11
638	0.11
639	0.109
639	0.109
640	0.109
640	0.108
641	0.108
641	0.107
642	0.107
642	0.106
642	0.106
643	0.106
643	0.105
644	0.105
644	0.105
645	0.104
645	0.104
646	0.104
646	0.104
646	0.104
647	0.103
647	0.103
648	0.102
648	0.102
649	0.102
649	0.101
650	0.101
650	0.1
650	0.1
651	0.1
651	0.099
652	0.099
652	0.099
653	0.099
653	0.101
653	0.108
654	0.087
654	0.071
655	0.068
655	0.068
656	0.068
656	0.068
657	0.069
657	0.069
657	0.069
658	0.067
658	0.059
659	0.073
659	0.092
660	0.098
660	0.098
661	0.097
661	0.096
661	0.096
662	0.095
662	0.094
663	0.094
663	0.093
664	0.092
664	0.091
665	0.091
665	0.09
665	0.09
666	0.09
666	0.09
667	0.09
667	0.09
668	0.09
668	0.09
669	0.09
669	0.091
669	0.091
670	0.091
670	0.091
671	0.091
671	0.091
672	0.09
672	0.09
672	0.089
673	0.089
673	0.088
674	0.088
674	0.087
675	0.087
675	0.087
676	0.087
676	0.087
676	0.086
677	0.086
677	0.086
678	0.085
678	0.085
679	0.084
679	0.084
680	0.084
680	0.084
680	0.084
681	0.084
681	0.084
682	0.084
682	0.085
683	0.085
683	0.086
684	0.086
684	0.086
684	0.086
685	0.086
685	0.086
686	0.086
686	0.085
687	0.084
687	0.084
687	0.083
688	0.083
688	0.082
689	0.082
689	0.083
690	0.082
690	0.082
691	0.082
691	0.082
691	0.082
692	0.083
692	0.083
693	0.083
693	0.083
694	0.083
694	0.083
695	0.083
695	0.084
695	0.084
696	0.084
696	0.083
697	0.083
697	0.083
698	0.082
698	0.082
698	0.081
699	0.082
699	0.081
700	0.08
700	0.081
701	0.081
701	0.081
702	0.081
702	0.081
702	0.081
703	0.081
703	0.08
704	0.08
704	0.079
705	0.079
705	0.078
705	0.078
706	0.077
706	0.077
707	0.077
707	0.076
708	0.076
708	0.077
709	0.076
709	0.076
709	0.075
710	0.075
710	0.075
711	0.075
711	0.075
712	0.074
712	0.074
713	0.074
713	0.074
713	0.074
714	0.074
714	0.074
715	0.074
715	0.073
716	0.073
716	0.073
716	0.072
717	0.072
717	0.071
718	0.071
718	0.07
719	0.07
719	0.071
720	0.071
720	0.072
720	0.072
721	0.072
721	0.072
722	0.073
722	0.073
723	0.073
723	0.073
723	0.073
724	0.073
724	0.072
725	0.072
725	0.071
726	0.07
726	0.07
727	0.069
727	0.068
727	0.068
728	0.067
728	0.067
729	0.067
729	0.066
730	0.066
730	0.066
730	0.067
731	0.067
731	0.067
732	0.068
732	0.068
733	0.068
733	0.068
734	0.068
734	0.069
734	0.069
735	0.069
735	0.068
736	0.068
736	0.067
737	0.067
737	0.067
737	0.067
738	0.066
738	0.065
739	0.064
739	0.064
740	0.063
740	0.063
741	0.063
741	0.063
741	0.062
742	0.062
742	0.062
743	0.063
743	0.063
744	0.063
744	0.064
744	0.064
745	0.064
745	0.064
746	0.064
746	0.065
747	0.065
747	0.065
748	0.065
748	0.066
748	0.066
749	0.066
749	0.066
750	0.066
750	0.066
751	0.066
751	0.066
751	0.066
752	0.065
752	0.065
753	0.064
753	0.064
754	0.064
754	0.063
754	0.063
755	0.063
755	0.063
756	0.062
756	0.06
757	0.059
757	0.059
758	0.058
758	0.058
758	0.058
759	0.057
759	0.057
760	0.056
760	0.056
761	0.057
761	0.058
761	0.058
762	0.059
762	0.059
763	0.06
763	0.06
764	0.06
764	0.06
764	0.06
765	0.059
765	0.059
766	0.058
766	0.058
767	0.057
767	0.056
768	0.055
768	0.055
768	0.055
769	0.055
769	0.055
770	0.055
770	0.055
771	0.055
771	0.055
771	0.055
772	0.055
772	0.055
773	0.056
773	0.056
774	0.056
774	0.056
775	0.056
775	0.056
775	0.056
776	0.056
776	0.057
777	0.057
777	0.057
778	0.056
778	0.056
778	0.056
779	0.056
779	0.055
780	0.055
780	0.054
781	0.054
781	0.054
781	0.054
782	0.054
782	0.054
783	0.054
783	0.055
784	0.055
784	0.055
784	0.055
785	0.055
785	0.055
786	0.055
786	0.055
787	0.055
787	0.055
788	0.054
788	0.054
788	0.054
789	0.054
789	0.054
790	0.055
790	0.055
791	0.055
791	0.055
791	0.055
792	0.056
792	0.056
793	0.056
793	0.056
794	0.056
794	0.055
794	0.055
795	0.055
795	0.055
796	0.055
796	0.054
797	0.054
797	0.053
797	0.053
798	0.053
798	0.053
799	0.052
799	0.052
800	0.051
800	0.05
801	0.05
801	0.05
801	0.049
802	0.049
802	0.05
803	0.05
803	0.05
804	0.051
804	0.051
804	0.052
805	0.051
805	0.051
806	0.051
806	0.051
807	0.051
807	0.05
807	0.05
808	0.05
808	0.05
809	0.049
809	0.049
810	0.049
810	0.049
810	0.049
811	0.049
811	0.05
812	0.05
812	0.05
813	0.05
813	0.05
813	0.05
814	0.051
814	0.051
815	0.052
815	0.053
816	0.053
816	0.053
817	0.053
817	0.053
817	0.053
818	0.053
818	0.053
819	0.052
819	0.051
820	0.05
820	0.05
820	0.049
821	0.049
821	0.049
822	0.048
822	0.048
823	0.048
823	0.048
823	0.048
824	0.049
824	0.049
825	0.05
825	0.05
826	0.05
826	0.05
826	0.05
827	0.05
827	0.05
828	0.05
828	0.05
829	0.05
829	0.05
829	0.05
830	0.05
830	0.05
831	0.051
831	0.051
832	0.051
832	0.051
832	0.051
833	0.051
833	0.051
834	0.051
834	0.051
835	0.052
835	0.052
835	0.052
836	0.052
836	0.053
837	0.053
837	0.053
838	0.053
838	0.053
839	0.052
839	0.052
839	0.051
840	0.05
840	0.05
841	0.049
841	0.048
842	0.047
842	0.047
842	0.047
843	0.046
843	0.046
844	0.046
844	0.046
845	0.045
845	0.045
845	0.045
846	0.045
846	0.045
847	0.045
847	0.045
848	0.045
848	0.046
848	0.046
849	0.046
849	0.047
850	0.047
850	0.047
851	0.047
851	0.048
851	0.047
852	0.047
852	0.046
853	0.045
853	0.045
854	0.044
854	0.044
854	0.044
855	0.044
855	0.044
856	0.044
856	0.044
857	0.045
857	0.045
857	0.046
858	0.046
858	0.046
859	0.046
859	0.045
860	0.045
860	0.045
860	0.044
861	0.044
861	0.043
862	0.043
862	0.042
863	0.042
863	0.041
863	0.041
864	0.041
864	0.041
865	0.041
865	0.04
866	0.04
866	0.04
866	0.04
867	0.04
867	0.04
868	0.04
868	0.04
869	0.041
869	0.041
869	0.041
870	0.042
870	0.042
871	0.043
871	0.043
872	0.043
872	0.044
872	0.044
873	0.044
873	0.043
874	0.043
874	0.043
875	0.043
875	0.042
875	0.042
876	0.042
876	0.042
877	0.042
877	0.042
878	0.042
878	0.043
878	0.044
879	0.045
879	0.045
880	0.046
880	0.046
881	0.046
881	0.046
881	0.045
882	0.045
882	0.044
883	0.043
883	0.042
884	0.041
884	0.04
884	0.04
885	0.039
885	0.039
886	0.038
886	0.038
887	0.038
887	0.038
887	0.037
888	0.037
888	0.037
889	0.037
889	0.037
890	0.038
890	0.038
890	0.038
891	0.039
891	0.039
892	0.04
892	0.041
893	0.041
893	0.042
893	0.042
894	0.043
894	0.043
895	0.043
895	0.043
895	0.043
896	0.043
896	0.043
897	0.042
897	0.042
898	0.041
898	0.041
898	0.041
899	0.041
899	0.041
900	0.041
900	0.041
901	0.041
901	0.041
901	0.041
902	0.041
902	0.041
903	0.041
903	0.041
904	0.041
904	0.041
904	0.041
905	0.04
905	0.04
906	0.041
906	0.041
907	0.041
907	0.042
907	0.042
908	0.042
908	0.043
909	0.043
909	0.043
910	0.044
910	0.044
910	0.043
911	0.043
911	0.043
912	0.043
912	0.043
913	0.043
913	0.043
913	0.043
914	0.043
914	0.042
915	0.042
915	0.042
916	0.042
916	0.042
916	0.041
917	0.041
917	0.04
918	0.039
918	0.038
918	0.037
919	0.037
919	0.037
920	0.036
920	0.036
921	0.036
921	0.036
921	0.036
922	0.037
922	0.037
923	0.038
923	0.038
924	0.039
924	0.039
924	0.039
925	0.04
925	0.04
926	0.04
926	0.041
927	0.041
927	0.041
927	0.041
928	0.041
928	0.041
929	0.041
929	0.04
930	0.04
930	0.04
930	0.039
931	0.039
931	0.039
932	0.039
932	0.039
933	0.038
933	0.038
933	0.038
934	0.038
934	0.038
935	0.038
935	0.038
935	0.038
936	0.038
936	0.038
937	0.039
937	0.039
938	0.039
938	0.04
938	0.04
939	0.04
939	0.04
940	0.041
940	0.041
941	0.041
941	0.042
941	0.042
942	0.042
942	0.042
943	0.043
943	0.043
944	0.043
944	0.043
944	0.043
945	0.043
945	0.043
946	0.043
946	0.043
946	0.043
947	0.043
947	0.044
948	0.044
948	0.044
949	0.044
949	0.044
949	0.044
950	0.044
950	0.044
951	0.044
951	0.044
952	0.044
952	0.044
952	0.044
953	0.043
953	0.043
954	0.043
954	0.042
955	0.042
955	0.042
955	0.042
956	0.042
956	0.043
957	0.043
957	0.043
957	0.044
958	0.044
958	0.045
959	0.045
959	0.045
960	0.045
960	0.045
960	0.045
961	0.045
961	0.045
962	0.045
962	0.045
963	0.045
963	0.045
963	0.045
964	0.045
964	0.045
965	0.045
965	0.045
966	0.045
966	0.045
966	0.046
967	0.046
967	0.046
968	0.046
968	0.046
968	0.046
969	0.046
969	0.046
970	0.046
970	0.046
971	0.046
971	0.046
971	0.045
972	0.045
972	0.045
973	0.045
973	0.045
974	0.045
974	0.046
974	0.046
975	0.047
975	0.047
976	0.047
976	0.048
976	0.048
977	0.048
977	0.048
978	0.048
978	0.048
979	0.048
979	0.047
979	0.047
980	0.046
980	0.046
981	0.045
981	0.044
982	0.043
982	0.042
982	0.042
983	0.041
983	0.04
984	0.039
984	0.038
984	0.037
985	0.037
985	0.036
986	0.036
986	0.035
987	0.035
987	0.034
987	0.034
988	0.034
988	0.033
989	0.033
989	0.033
990	0.033
990	0.032
990	0.032
991	0.031
991	0.031
992	0.031
992	0.031
992	0.03
993	0.03
993	0.03
994	0.03
994	0.03
995	0.031
995	0.031
995	0.031
996	0.032
996	0.032
997	0.033
997	0.034
997	0.034
998	0.035
998	0.036
999	0.037
999	0.038
1000	0.039
1000	0.04
1000	0.041
1001	0.041
1001	0.042
1002	0.042
1002	0.043
1003	0.043
1003	0.043
1003	0.042
1004	0.042
1004	0.041
1005	0.041
1005	0.04
1005	0.04
1006	0.039
1006	0.038
1007	0.038
1007	0.038
1008	0.038
1008	0.038
1008	0.038
1009	0.038
1009	0.037
1010	0.037
1010	0.037
1010	0.037
1011	0.037
1011	0.036
1012	0.036
1012	0.036
1013	0.036
1013	0.035
1013	0.035
1014	0.035
1014	0.035
1015	0.035
1015	0.036
1016	0.036
1016	0.036
1016	0.036
1017	0.036
1017	0.036
1018	0.036
1018	0.035
1018	0.035
1019	0.035
1019	0.035
1020	0.034
1020	0.034
1021	0.034
1021	0.034
1021	0.034
1022	0.034
1022	0.034
1023	0.034
1023	0.034
1023	0.034
1024	0.034
1024	0.034
1025	0.034
1025	0.034
1026	0.034
1026	0.034
1026	0.033
1027	0.033
1027	0.033
1028	0.033
1028	0.033
1028	0.032
1029	0.032
1029	0.032
1030	0.032
1030	0.033
1031	0.033
1031	0.033
1031	0.033
1032	0.033
1032	0.034
1033	0.034
1033	0.034
1033	0.034
1034	0.034
1034	0.034
1035	0.034
1035	0.034
1036	0.034
1036	0.034
1036	0.035
1037	0.035
1037	0.035
1038	0.035
1038	0.035
1039	0.035
1039	0.035
1039	0.036
1040	0.036
1040	0.036
1041	0.036
1041	0.036
1041	0.036
1042	0.036
1042	0.036
1043	0.036
1043	0.036
1044	0.036
1044	0.036
1044	0.036
1045	0.036
1045	0.036
1046	0.036
1046	0.036
1046	0.037
1047	0.037
1047	0.037
1048	0.037
1048	0.038
1049	0.038
1049	0.038
1049	0.038
1050	0.037
1050	0.037
1051	0.036
1051	0.036
1051	0.035
1052	0.035
1052	0.034
1053	0.033
1053	0.032
1053	0.032
1054	0.031
1054	0.031
1055	0.031
1055	0.031
1056	0.03
1056	0.03
1056	0.03
1057	0.03
1057	0.029
1058	0.029
1058	0.028
1058	0.028
1059	0.027
1059	0.027
1060	0.026
1060	0.025
1061	0.025
1061	0.024
1061	0.024
1062	0.024
1062	0.024
1063	0.025
1063	0.025
1063	0.025
1064	0.025
1064	0.025
1065	0.025
1065	0.025
1066	0.026
1066	0.026
1066	0.025
1067	0.025
1067	0.025
1068	0.025
1068	0.025
1068	0.025
1069	0.024
1069	0.024
1070	0.023
1070	0.023
1071	0.022
1071	0.022
1071	0.022
1072	0.021
1072	0.021
1073	0.02
1073	0.02
1073	0.02
1074	0.019
1074	0.02
1075	0.019
1075	0.019
1076	0.019
1076	0.02
1076	0.02
1077	0.02
1077	0.02
1078	0.02
1078	0.02
1078	0.021
1079	0.021
1079	0.021
1080	0.021
1080	0.022
1080	0.022
1081	0.022
1081	0.023
1082	0.023
1082	0.024
1083	0.024
1083	0.024
1083	0.024
1084	0.023
1084	0.023
1085	0.022
1085	0.022
1085	0.022
1086	0.022
1086	0.021
1087	0.02
1087	0.02
1088	0.019
1088	0.019
1088	0.019
1089	0.018
1089	0.018
1090	0.017
1090	0.016
1090	0.015
1091	0.015
1091	0.014
1092	0.015
1092	0.014
1092	0.014
1093	0.013
1093	0.014
1094	0.014
1094	0.014
1095	0.014
1095	0.014
1095	0.014
1096	0.013
1096	0.013
1097	0.012
1097	0.012
1097	0.011
1098	0.011
1098	0.01
1099	0.009
1099	0.008
1100	0.007
1100	0.005
1100	0.004
1101	0.003
1101	0.003
1102	0.002
1102	0.001
1102	-0
1103	-0.001
1103	-0.001
1104	-0.001
1104	-0.001
1104	-0.001
1105	-0.002
1105	-0.004
1106	-0.005
1106	-0.007
1107	-0.007
1107	-0.008
1107	-0.009
1108	-0.011
1108	-0.012
1109	-0.014
1109	-0.016
1109	-0.016
1110	-0.015
1110	-0.016
1111	-0.014
1111	-0.018
