Data from reversibility-20sec_Absorbance__5135__000000000005135.txt Node

Date: Wed Dec 06 16:44:46 CET 2023
User: Marek
Spectrometer: MAYP115816
Trigger mode: 0
Integration Time (sec): 2.000000E-1
Scans to average: 10
Electric dark correction enabled: true
Nonlinearity correction enabled: true
Boxcar width: 5
XAxis mode: Wavelengths
Number of Pixels in Spectrum: 2068
>>>>>Begin Spectral Data<<<<<
199	-0.231
199	-0.197
200	-0.12
200	-0.066
201	-0.033
201	-0.014
202	-0.003
202	0.007
203	0.013
203	0.018
204	0.035
204	0.049
205	0.063
205	0.067
205	0.067
206	0.068
206	0.067
207	0.071
207	0.071
208	0.069
208	0.067
209	0.068
209	0.064
210	0.064
210	0.066
211	0.065
211	0.066
212	0.063
212	0.063
213	0.066
213	0.068
213	0.07
214	0.071
214	0.075
215	0.077
215	0.077
216	0.08
216	0.079
217	0.084
217	0.089
218	0.088
218	0.093
219	0.095
219	0.098
220	0.103
220	0.102
221	0.102
221	0.103
221	0.109
222	0.113
222	0.117
223	0.121
223	0.124
224	0.13
224	0.138
225	0.146
225	0.158
226	0.167
226	0.177
227	0.187
227	0.194
228	0.209
228	0.228
229	0.243
229	0.268
229	0.29
230	0.312
230	0.341
231	0.373
231	0.412
232	0.45
232	0.498
233	0.541
233	0.587
234	0.639
234	0.688
235	0.742
235	0.798
236	0.847
236	0.899
236	0.952
237	1.004
237	1.052
238	1.098
238	1.143
239	1.191
239	1.236
240	1.275
240	1.311
241	1.35
241	1.385
242	1.415
242	1.448
243	1.476
243	1.504
243	1.53
244	1.551
244	1.57
245	1.59
245	1.611
246	1.627
246	1.644
247	1.655
247	1.668
248	1.683
248	1.695
249	1.707
249	1.717
250	1.726
250	1.733
250	1.739
251	1.745
251	1.749
252	1.756
252	1.76
253	1.763
253	1.763
254	1.761
254	1.762
255	1.761
255	1.762
256	1.76
256	1.758
257	1.759
257	1.759
258	1.757
258	1.757
258	1.757
259	1.757
259	1.756
260	1.756
260	1.757
261	1.759
261	1.762
262	1.764
262	1.766
263	1.768
263	1.767
264	1.769
264	1.771
265	1.772
265	1.774
265	1.773
266	1.774
266	1.774
267	1.771
267	1.771
268	1.771
268	1.773
269	1.774
269	1.772
270	1.771
270	1.77
271	1.769
271	1.767
272	1.764
272	1.764
272	1.761
273	1.756
273	1.752
274	1.747
274	1.742
275	1.737
275	1.732
276	1.725
276	1.718
277	1.712
277	1.701
278	1.691
278	1.68
278	1.666
279	1.653
279	1.636
280	1.614
280	1.589
281	1.56
281	1.526
282	1.49
282	1.454
283	1.417
283	1.38
284	1.344
284	1.308
285	1.274
285	1.243
285	1.215
286	1.189
286	1.167
287	1.148
287	1.131
288	1.117
288	1.104
289	1.094
289	1.084
290	1.076
290	1.069
291	1.062
291	1.057
292	1.051
292	1.046
292	1.041
293	1.037
293	1.033
294	1.029
294	1.025
295	1.022
295	1.019
296	1.016
296	1.013
297	1.01
297	1.007
298	1.004
298	1.001
298	0.998
299	0.995
299	0.992
300	0.989
300	0.986
301	0.983
301	0.98
302	0.977
302	0.975
303	0.973
303	0.97
304	0.968
304	0.965
305	0.962
305	0.96
305	0.957
306	0.955
306	0.952
307	0.95
307	0.947
308	0.944
308	0.941
309	0.938
309	0.935
310	0.932
310	0.929
311	0.926
311	0.922
311	0.919
312	0.915
312	0.912
313	0.908
313	0.904
314	0.9
314	0.896
315	0.892
315	0.888
316	0.884
316	0.879
317	0.875
317	0.87
318	0.865
318	0.86
318	0.855
319	0.85
319	0.844
320	0.838
320	0.833
321	0.827
321	0.821
322	0.815
322	0.808
323	0.802
323	0.796
324	0.789
324	0.783
324	0.776
325	0.77
325	0.763
326	0.756
326	0.75
327	0.743
327	0.736
328	0.729
328	0.722
329	0.715
329	0.708
330	0.701
330	0.694
330	0.687
331	0.68
331	0.674
332	0.667
332	0.66
333	0.653
333	0.646
334	0.64
334	0.633
335	0.626
335	0.619
336	0.613
336	0.606
336	0.6
337	0.594
337	0.588
338	0.581
338	0.575
339	0.569
339	0.563
340	0.558
340	0.552
341	0.546
341	0.541
342	0.536
342	0.53
342	0.525
343	0.52
343	0.515
344	0.51
344	0.506
345	0.501
345	0.497
346	0.492
346	0.488
347	0.483
347	0.479
348	0.475
348	0.471
348	0.467
349	0.463
349	0.46
350	0.456
350	0.453
351	0.449
351	0.446
352	0.443
352	0.44
353	0.437
353	0.434
354	0.431
354	0.428
354	0.425
355	0.422
355	0.419
356	0.416
356	0.413
357	0.41
357	0.408
358	0.405
358	0.403
359	0.4
359	0.398
360	0.396
360	0.394
360	0.392
361	0.39
361	0.388
362	0.386
362	0.384
363	0.382
363	0.38
364	0.378
364	0.376
365	0.374
365	0.372
366	0.371
366	0.369
366	0.367
367	0.365
367	0.364
368	0.362
368	0.36
369	0.359
369	0.358
370	0.356
370	0.355
371	0.353
371	0.352
372	0.35
372	0.349
372	0.348
373	0.347
373	0.346
374	0.345
374	0.344
375	0.342
375	0.341
376	0.34
376	0.34
377	0.339
377	0.338
378	0.337
378	0.336
378	0.335
379	0.334
379	0.333
380	0.332
380	0.332
381	0.331
381	0.33
382	0.329
382	0.328
383	0.328
383	0.327
383	0.326
384	0.325
384	0.325
385	0.324
385	0.323
386	0.323
386	0.322
387	0.322
387	0.321
388	0.321
388	0.32
389	0.32
389	0.319
389	0.318
390	0.318
390	0.317
391	0.317
391	0.316
392	0.316
392	0.316
393	0.315
393	0.315
394	0.314
394	0.314
394	0.314
395	0.313
395	0.313
396	0.312
396	0.312
397	0.311
397	0.311
398	0.31
398	0.31
399	0.309
399	0.309
400	0.309
400	0.308
400	0.308
401	0.308
401	0.307
402	0.307
402	0.307
403	0.306
403	0.306
404	0.305
404	0.305
405	0.305
405	0.304
405	0.304
406	0.303
406	0.303
407	0.303
407	0.302
408	0.302
408	0.302
409	0.301
409	0.301
410	0.301
410	0.3
411	0.3
411	0.3
411	0.299
412	0.299
412	0.298
413	0.298
413	0.298
414	0.298
414	0.298
415	0.297
415	0.297
416	0.296
416	0.296
416	0.296
417	0.295
417	0.295
418	0.295
418	0.294
419	0.294
419	0.293
420	0.293
420	0.293
421	0.292
421	0.292
421	0.292
422	0.291
422	0.291
423	0.29
423	0.29
424	0.29
424	0.289
425	0.289
425	0.289
426	0.289
426	0.288
427	0.288
427	0.288
427	0.287
428	0.287
428	0.287
429	0.287
429	0.286
430	0.286
430	0.285
431	0.285
431	0.285
432	0.285
432	0.285
432	0.285
433	0.285
433	0.284
434	0.284
434	0.284
435	0.284
435	0.284
436	0.284
436	0.284
437	0.283
437	0.283
437	0.283
438	0.283
438	0.282
439	0.282
439	0.282
440	0.281
440	0.281
441	0.281
441	0.281
442	0.281
442	0.281
442	0.28
443	0.28
443	0.28
444	0.28
444	0.28
445	0.28
445	0.28
446	0.28
446	0.28
447	0.279
447	0.279
447	0.279
448	0.279
448	0.279
449	0.279
449	0.279
450	0.279
450	0.279
451	0.279
451	0.279
452	0.279
452	0.279
452	0.279
453	0.279
453	0.279
454	0.279
454	0.279
455	0.279
455	0.278
456	0.278
456	0.278
457	0.278
457	0.278
458	0.278
458	0.278
458	0.278
459	0.277
459	0.277
460	0.277
460	0.277
461	0.277
461	0.277
462	0.277
462	0.277
463	0.277
463	0.277
463	0.277
464	0.277
464	0.277
465	0.277
465	0.277
466	0.277
466	0.277
467	0.277
467	0.278
467	0.278
468	0.278
468	0.278
469	0.278
469	0.279
470	0.279
470	0.279
471	0.28
471	0.28
472	0.28
472	0.28
472	0.281
473	0.281
473	0.282
474	0.282
474	0.282
475	0.282
475	0.283
476	0.283
476	0.284
477	0.284
477	0.285
477	0.285
478	0.285
478	0.286
479	0.286
479	0.287
480	0.287
480	0.288
481	0.288
481	0.288
482	0.289
482	0.289
482	0.29
483	0.291
483	0.291
484	0.292
484	0.292
485	0.293
485	0.293
486	0.294
486	0.295
487	0.295
487	0.296
487	0.297
488	0.297
488	0.298
489	0.299
489	0.3
490	0.301
490	0.302
491	0.304
491	0.305
492	0.306
492	0.307
492	0.308
493	0.309
493	0.31
494	0.311
494	0.312
495	0.313
495	0.314
496	0.316
496	0.317
496	0.318
497	0.319
497	0.32
498	0.322
498	0.323
499	0.324
499	0.325
500	0.327
500	0.328
501	0.329
501	0.33
501	0.331
502	0.332
502	0.332
503	0.334
503	0.335
504	0.336
504	0.336
505	0.338
505	0.339
506	0.34
506	0.341
506	0.342
507	0.343
507	0.344
508	0.345
508	0.346
509	0.347
509	0.348
510	0.35
510	0.351
511	0.352
511	0.353
511	0.354
512	0.354
512	0.355
513	0.356
513	0.357
514	0.358
514	0.359
515	0.359
515	0.36
515	0.36
516	0.361
516	0.362
517	0.363
517	0.363
518	0.363
518	0.364
519	0.364
519	0.364
520	0.364
520	0.364
520	0.364
521	0.364
521	0.364
522	0.364
522	0.364
523	0.364
523	0.364
524	0.364
524	0.364
524	0.363
525	0.363
525	0.363
526	0.362
526	0.362
527	0.362
527	0.361
528	0.36
528	0.359
529	0.359
529	0.358
529	0.357
530	0.356
530	0.355
531	0.355
531	0.354
532	0.353
532	0.352
533	0.351
533	0.35
533	0.349
534	0.348
534	0.347
535	0.346
535	0.345
536	0.343
536	0.342
537	0.341
537	0.339
538	0.338
538	0.337
538	0.335
539	0.334
539	0.332
540	0.331
540	0.329
541	0.328
541	0.326
542	0.325
542	0.323
542	0.321
543	0.319
543	0.318
544	0.316
544	0.314
545	0.313
545	0.311
546	0.309
546	0.307
547	0.305
547	0.304
547	0.302
548	0.3
548	0.298
549	0.297
549	0.295
550	0.294
550	0.292
551	0.29
551	0.288
551	0.287
552	0.285
552	0.283
553	0.281
553	0.28
554	0.278
554	0.276
555	0.274
555	0.272
556	0.271
556	0.269
556	0.268
557	0.266
557	0.265
558	0.264
558	0.262
559	0.261
559	0.26
560	0.258
560	0.257
560	0.256
561	0.255
561	0.253
562	0.251
562	0.249
563	0.247
563	0.246
564	0.244
564	0.242
564	0.241
565	0.239
565	0.238
566	0.236
566	0.235
567	0.234
567	0.233
568	0.232
568	0.23
568	0.229
569	0.228
569	0.227
570	0.225
570	0.224
571	0.222
571	0.221
572	0.22
572	0.218
573	0.217
573	0.216
573	0.215
574	0.213
574	0.213
575	0.212
575	0.211
576	0.21
576	0.208
577	0.207
577	0.206
577	0.205
578	0.204
578	0.203
579	0.202
579	0.202
580	0.2
580	0.199
581	0.198
581	0.197
581	0.196
582	0.196
582	0.196
583	0.195
583	0.194
584	0.193
584	0.191
585	0.19
585	0.189
585	0.188
586	0.187
586	0.186
587	0.185
587	0.184
588	0.183
588	0.182
589	0.181
589	0.181
590	0.18
590	0.18
590	0.18
591	0.179
591	0.179
592	0.178
592	0.177
593	0.176
593	0.176
594	0.175
594	0.174
594	0.173
595	0.172
595	0.171
596	0.17
596	0.17
597	0.17
597	0.17
598	0.17
598	0.17
598	0.169
599	0.169
599	0.168
600	0.167
600	0.167
601	0.166
601	0.166
602	0.165
602	0.164
602	0.163
603	0.162
603	0.162
604	0.162
604	0.162
605	0.161
605	0.161
606	0.16
606	0.159
606	0.158
607	0.158
607	0.157
608	0.157
608	0.156
609	0.155
609	0.155
610	0.154
610	0.154
610	0.154
611	0.154
611	0.154
612	0.153
612	0.153
613	0.153
613	0.152
614	0.152
614	0.151
614	0.151
615	0.15
615	0.15
616	0.149
616	0.149
617	0.148
617	0.148
618	0.147
618	0.147
618	0.147
619	0.147
619	0.147
620	0.147
620	0.147
621	0.146
621	0.146
622	0.145
622	0.145
622	0.144
623	0.143
623	0.143
624	0.143
624	0.142
625	0.141
625	0.14
626	0.14
626	0.139
626	0.139
627	0.139
627	0.138
628	0.138
628	0.138
629	0.137
629	0.137
630	0.137
630	0.137
630	0.137
631	0.137
631	0.137
632	0.137
632	0.136
633	0.136
633	0.136
634	0.136
634	0.137
634	0.136
635	0.136
635	0.135
636	0.135
636	0.135
637	0.134
637	0.133
638	0.133
638	0.133
638	0.132
639	0.132
639	0.132
640	0.132
640	0.132
641	0.132
641	0.132
642	0.132
642	0.133
642	0.133
643	0.134
643	0.134
644	0.134
644	0.133
645	0.133
645	0.132
646	0.132
646	0.132
646	0.132
647	0.131
647	0.131
648	0.13
648	0.129
649	0.129
649	0.128
650	0.128
650	0.128
650	0.129
651	0.128
651	0.128
652	0.128
652	0.127
653	0.128
653	0.13
653	0.136
654	0.109
654	0.088
655	0.086
655	0.086
656	0.086
656	0.087
657	0.087
657	0.087
657	0.087
658	0.086
658	0.077
659	0.097
659	0.123
660	0.129
660	0.129
661	0.129
661	0.128
661	0.128
662	0.128
662	0.128
663	0.127
663	0.127
664	0.126
664	0.126
665	0.126
665	0.126
665	0.126
666	0.126
666	0.126
667	0.126
667	0.127
668	0.127
668	0.127
669	0.127
669	0.128
669	0.128
670	0.128
670	0.128
671	0.127
671	0.127
672	0.126
672	0.126
672	0.125
673	0.125
673	0.124
674	0.124
674	0.123
675	0.123
675	0.123
676	0.123
676	0.123
676	0.123
677	0.123
677	0.123
678	0.122
678	0.122
679	0.121
679	0.121
680	0.121
680	0.121
680	0.121
681	0.121
681	0.121
682	0.121
682	0.121
683	0.122
683	0.122
684	0.122
684	0.122
684	0.122
685	0.122
685	0.122
686	0.122
686	0.122
687	0.122
687	0.122
687	0.122
688	0.122
688	0.122
689	0.123
689	0.124
690	0.123
690	0.123
691	0.123
691	0.123
691	0.123
692	0.123
692	0.122
693	0.122
693	0.122
694	0.122
694	0.121
695	0.122
695	0.123
695	0.123
696	0.123
696	0.123
697	0.124
697	0.124
698	0.124
698	0.124
698	0.124
699	0.124
699	0.124
700	0.123
700	0.123
701	0.123
701	0.122
702	0.122
702	0.121
702	0.121
703	0.121
703	0.12
704	0.12
704	0.12
705	0.12
705	0.121
705	0.121
706	0.121
706	0.122
707	0.122
707	0.122
708	0.123
708	0.123
709	0.124
709	0.124
709	0.123
710	0.123
710	0.123
711	0.123
711	0.123
712	0.123
712	0.123
713	0.122
713	0.122
713	0.121
714	0.121
714	0.12
715	0.12
715	0.119
716	0.119
716	0.119
716	0.118
717	0.117
717	0.117
718	0.116
718	0.116
719	0.116
719	0.116
720	0.117
720	0.117
720	0.117
721	0.117
721	0.118
722	0.119
722	0.119
723	0.119
723	0.12
723	0.12
724	0.12
724	0.12
725	0.12
725	0.119
726	0.119
726	0.119
727	0.119
727	0.119
727	0.119
728	0.118
728	0.118
729	0.118
729	0.118
730	0.118
730	0.118
730	0.118
731	0.118
731	0.119
732	0.119
732	0.12
733	0.12
733	0.121
734	0.121
734	0.122
734	0.122
735	0.123
735	0.123
736	0.123
736	0.123
737	0.123
737	0.123
737	0.122
738	0.121
738	0.12
739	0.119
739	0.119
740	0.118
740	0.118
741	0.118
741	0.117
741	0.117
742	0.117
742	0.117
743	0.118
743	0.119
744	0.119
744	0.12
744	0.12
745	0.12
745	0.12
746	0.12
746	0.119
747	0.119
747	0.118
748	0.117
748	0.117
748	0.116
749	0.116
749	0.115
750	0.115
750	0.114
751	0.114
751	0.114
751	0.114
752	0.113
752	0.113
753	0.112
753	0.112
754	0.112
754	0.112
754	0.112
755	0.113
755	0.113
756	0.113
756	0.113
757	0.112
757	0.113
758	0.113
758	0.113
758	0.113
759	0.114
759	0.113
760	0.113
760	0.113
761	0.113
761	0.114
761	0.114
762	0.114
762	0.114
763	0.114
763	0.113
764	0.113
764	0.113
764	0.112
765	0.112
765	0.111
766	0.111
766	0.111
767	0.11
767	0.109
768	0.108
768	0.108
768	0.108
769	0.108
769	0.108
770	0.109
770	0.109
771	0.109
771	0.11
771	0.11
772	0.111
772	0.112
773	0.112
773	0.112
774	0.112
774	0.112
775	0.112
775	0.111
775	0.111
776	0.11
776	0.11
777	0.109
777	0.109
778	0.108
778	0.108
778	0.107
779	0.107
779	0.107
780	0.106
780	0.106
781	0.106
781	0.105
781	0.105
782	0.105
782	0.105
783	0.105
783	0.106
784	0.106
784	0.106
784	0.106
785	0.107
785	0.107
786	0.107
786	0.107
787	0.108
787	0.107
788	0.107
788	0.106
788	0.106
789	0.105
789	0.105
790	0.104
790	0.103
791	0.103
791	0.102
791	0.101
792	0.101
792	0.1
793	0.099
793	0.098
794	0.098
794	0.097
794	0.096
795	0.096
795	0.096
796	0.096
796	0.096
797	0.096
797	0.097
797	0.097
798	0.098
798	0.099
799	0.099
799	0.099
800	0.099
800	0.098
801	0.098
801	0.097
801	0.097
802	0.096
802	0.096
803	0.096
803	0.096
804	0.096
804	0.096
804	0.096
805	0.096
805	0.096
806	0.097
806	0.097
807	0.097
807	0.097
807	0.097
808	0.097
808	0.096
809	0.096
809	0.096
810	0.096
810	0.096
810	0.096
811	0.096
811	0.096
812	0.096
812	0.096
813	0.096
813	0.096
813	0.095
814	0.096
814	0.096
815	0.096
815	0.096
816	0.096
816	0.095
817	0.095
817	0.094
817	0.094
818	0.094
818	0.094
819	0.094
819	0.093
820	0.092
820	0.092
820	0.092
821	0.092
821	0.093
822	0.092
822	0.092
823	0.092
823	0.092
823	0.092
824	0.092
824	0.093
825	0.093
825	0.093
826	0.093
826	0.093
826	0.093
827	0.094
827	0.094
828	0.094
828	0.094
829	0.094
829	0.094
829	0.093
830	0.093
830	0.094
831	0.094
831	0.094
832	0.093
832	0.093
832	0.093
833	0.093
833	0.092
834	0.092
834	0.091
835	0.091
835	0.09
835	0.089
836	0.089
836	0.088
837	0.088
837	0.087
838	0.087
838	0.086
839	0.085
839	0.084
839	0.084
840	0.083
840	0.082
841	0.081
841	0.081
842	0.08
842	0.08
842	0.079
843	0.079
843	0.078
844	0.077
844	0.077
845	0.076
845	0.075
845	0.074
846	0.074
846	0.073
847	0.073
847	0.073
848	0.073
848	0.073
848	0.074
849	0.075
849	0.075
850	0.076
850	0.076
851	0.077
851	0.077
851	0.077
852	0.077
852	0.076
853	0.076
853	0.076
854	0.076
854	0.077
854	0.077
855	0.078
855	0.079
856	0.079
856	0.079
857	0.08
857	0.08
857	0.08
858	0.08
858	0.079
859	0.078
859	0.077
860	0.076
860	0.075
860	0.074
861	0.074
861	0.073
862	0.072
862	0.072
863	0.071
863	0.071
863	0.071
864	0.071
864	0.071
865	0.071
865	0.071
866	0.072
866	0.072
866	0.072
867	0.073
867	0.074
868	0.074
868	0.075
869	0.075
869	0.075
869	0.075
870	0.074
870	0.074
871	0.074
871	0.074
872	0.073
872	0.073
872	0.073
873	0.072
873	0.072
874	0.071
874	0.071
875	0.071
875	0.071
875	0.071
876	0.071
876	0.072
877	0.072
877	0.072
878	0.072
878	0.072
878	0.072
879	0.072
879	0.072
880	0.072
880	0.072
881	0.071
881	0.071
881	0.071
882	0.071
882	0.07
883	0.07
883	0.07
884	0.07
884	0.07
884	0.07
885	0.07
885	0.07
886	0.07
886	0.069
887	0.069
887	0.068
887	0.067
888	0.067
888	0.066
889	0.065
889	0.065
890	0.064
890	0.064
890	0.064
891	0.064
891	0.063
892	0.063
892	0.063
893	0.062
893	0.062
893	0.062
894	0.061
894	0.061
895	0.061
895	0.061
895	0.061
896	0.061
896	0.061
897	0.062
897	0.062
898	0.063
898	0.063
898	0.064
899	0.064
899	0.065
900	0.065
900	0.065
901	0.065
901	0.065
901	0.065
902	0.064
902	0.064
903	0.063
903	0.063
904	0.063
904	0.062
904	0.062
905	0.061
905	0.061
906	0.061
906	0.061
907	0.061
907	0.061
907	0.061
908	0.061
908	0.061
909	0.06
909	0.06
910	0.06
910	0.059
910	0.059
911	0.058
911	0.058
912	0.058
912	0.058
913	0.058
913	0.058
913	0.058
914	0.058
914	0.059
915	0.059
915	0.059
916	0.059
916	0.059
916	0.059
917	0.059
917	0.059
918	0.058
918	0.058
918	0.058
919	0.058
919	0.058
920	0.058
920	0.058
921	0.058
921	0.059
921	0.059
922	0.059
922	0.06
923	0.06
923	0.061
924	0.061
924	0.062
924	0.063
925	0.063
925	0.064
926	0.064
926	0.065
927	0.065
927	0.066
927	0.066
928	0.065
928	0.065
929	0.065
929	0.064
930	0.063
930	0.063
930	0.062
931	0.061
931	0.06
932	0.06
932	0.059
933	0.059
933	0.058
933	0.058
934	0.058
934	0.057
935	0.057
935	0.056
935	0.056
936	0.056
936	0.055
937	0.055
937	0.055
938	0.055
938	0.054
938	0.054
939	0.055
939	0.054
940	0.055
940	0.055
941	0.055
941	0.056
941	0.056
942	0.056
942	0.056
943	0.056
943	0.056
944	0.056
944	0.056
944	0.057
945	0.057
945	0.057
946	0.057
946	0.056
946	0.056
947	0.056
947	0.056
948	0.056
948	0.056
949	0.055
949	0.055
949	0.055
950	0.055
950	0.055
951	0.055
951	0.055
952	0.054
952	0.054
952	0.053
953	0.053
953	0.053
954	0.052
954	0.051
955	0.051
955	0.05
955	0.05
956	0.05
956	0.05
957	0.05
957	0.05
957	0.05
958	0.05
958	0.05
959	0.05
959	0.05
960	0.05
960	0.05
960	0.05
961	0.05
961	0.05
962	0.05
962	0.05
963	0.05
963	0.05
963	0.051
964	0.051
964	0.052
965	0.052
965	0.052
966	0.053
966	0.053
966	0.053
967	0.053
967	0.053
968	0.053
968	0.053
968	0.053
969	0.053
969	0.052
970	0.051
970	0.051
971	0.05
971	0.05
971	0.049
972	0.049
972	0.048
973	0.048
973	0.047
974	0.047
974	0.048
974	0.048
975	0.048
975	0.048
976	0.049
976	0.049
976	0.049
977	0.049
977	0.049
978	0.049
978	0.048
979	0.048
979	0.048
979	0.048
980	0.047
980	0.047
981	0.046
981	0.045
982	0.045
982	0.045
982	0.045
983	0.045
983	0.045
984	0.044
984	0.044
984	0.044
985	0.044
985	0.045
986	0.044
986	0.044
987	0.044
987	0.044
987	0.044
988	0.044
988	0.044
989	0.044
989	0.044
990	0.044
990	0.044
990	0.044
991	0.044
991	0.044
992	0.044
992	0.043
992	0.043
993	0.042
993	0.042
994	0.041
994	0.041
995	0.04
995	0.04
995	0.039
996	0.039
996	0.039
997	0.04
997	0.04
997	0.041
998	0.042
998	0.042
999	0.043
999	0.044
1000	0.045
1000	0.046
1000	0.046
1001	0.046
1001	0.047
1002	0.047
1002	0.046
1003	0.046
1003	0.045
1003	0.044
1004	0.043
1004	0.042
1005	0.04
1005	0.04
1005	0.039
1006	0.038
1006	0.037
1007	0.037
1007	0.037
1008	0.037
1008	0.037
1008	0.037
1009	0.038
1009	0.038
1010	0.038
1010	0.039
1010	0.038
1011	0.038
1011	0.038
1012	0.038
1012	0.037
1013	0.037
1013	0.036
1013	0.036
1014	0.035
1014	0.035
1015	0.034
1015	0.034
1016	0.034
1016	0.035
1016	0.035
1017	0.035
1017	0.035
1018	0.036
1018	0.036
1018	0.036
1019	0.036
1019	0.037
1020	0.037
1020	0.037
1021	0.038
1021	0.038
1021	0.039
1022	0.039
1022	0.039
1023	0.039
1023	0.04
1023	0.04
1024	0.04
1024	0.04
1025	0.04
1025	0.04
1026	0.04
1026	0.04
1026	0.04
1027	0.04
1027	0.04
1028	0.041
1028	0.041
1028	0.041
1029	0.041
1029	0.041
1030	0.041
1030	0.041
1031	0.042
1031	0.042
1031	0.042
1032	0.042
1032	0.042
1033	0.042
1033	0.041
1033	0.041
1034	0.041
1034	0.041
1035	0.041
1035	0.04
1036	0.04
1036	0.04
1036	0.04
1037	0.039
1037	0.039
1038	0.039
1038	0.039
1039	0.038
1039	0.038
1039	0.038
1040	0.038
1040	0.038
1041	0.039
1041	0.039
1041	0.038
1042	0.039
1042	0.039
1043	0.039
1043	0.039
1044	0.039
1044	0.039
1044	0.039
1045	0.04
1045	0.04
1046	0.04
1046	0.04
1046	0.04
1047	0.041
1047	0.041
1048	0.041
1048	0.042
1049	0.042
1049	0.042
1049	0.042
1050	0.042
1050	0.041
1051	0.041
1051	0.041
1051	0.041
1052	0.04
1052	0.04
1053	0.039
1053	0.038
1053	0.038
1054	0.037
1054	0.037
1055	0.037
1055	0.036
1056	0.036
1056	0.035
1056	0.035
1057	0.035
1057	0.034
1058	0.033
1058	0.033
1058	0.032
1059	0.032
1059	0.031
1060	0.031
1060	0.03
1061	0.03
1061	0.03
1061	0.03
1062	0.03
1062	0.03
1063	0.029
1063	0.03
1063	0.029
1064	0.029
1064	0.029
1065	0.029
1065	0.029
1066	0.029
1066	0.029
1066	0.029
1067	0.028
1067	0.028
1068	0.028
1068	0.028
1068	0.028
1069	0.028
1069	0.027
1070	0.027
1070	0.027
1071	0.026
1071	0.026
1071	0.026
1072	0.026
1072	0.026
1073	0.026
1073	0.026
1073	0.026
1074	0.026
1074	0.026
1075	0.026
1075	0.026
1076	0.027
1076	0.027
1076	0.027
1077	0.027
1077	0.027
1078	0.026
1078	0.026
1078	0.026
1079	0.026
1079	0.026
1080	0.025
1080	0.026
1080	0.025
1081	0.025
1081	0.025
1082	0.026
1082	0.026
1083	0.025
1083	0.025
1083	0.025
1084	0.025
1084	0.026
1085	0.026
1085	0.025
1085	0.026
1086	0.026
1086	0.025
1087	0.025
1087	0.026
1088	0.026
1088	0.026
1088	0.026
1089	0.026
1089	0.025
1090	0.025
1090	0.025
1090	0.024
1091	0.024
1091	0.024
1092	0.024
1092	0.024
1092	0.024
1093	0.023
1093	0.023
1094	0.023
1094	0.023
1095	0.023
1095	0.023
1095	0.022
1096	0.021
1096	0.02
1097	0.02
1097	0.019
1097	0.018
1098	0.018
1098	0.016
1099	0.016
1099	0.014
1100	0.013
1100	0.011
1100	0.01
1101	0.009
1101	0.007
1102	0.006
1102	0.005
1102	0.003
1103	0.003
1103	0.002
1104	0.002
1104	0.001
1104	0.001
1105	0.001
1105	-0.001
1106	-0.003
1106	-0.003
1107	-0.004
1107	-0.005
1107	-0.006
1108	-0.008
1108	-0.008
1109	-0.01
1109	-0.013
1109	-0.014
1110	-0.013
1110	-0.015
1111	-0.016
1111	-0.021
