Data from reversibility-20sec_Absorbance__2643__000000000002643.txt Node

Date: Wed Dec 06 02:54:06 CET 2023
User: Marek
Spectrometer: MAYP115816
Trigger mode: 0
Integration Time (sec): 2.000000E-1
Scans to average: 10
Electric dark correction enabled: true
Nonlinearity correction enabled: true
Boxcar width: 5
XAxis mode: Wavelengths
Number of Pixels in Spectrum: 2068
>>>>>Begin Spectral Data<<<<<
199	-0.19
199	-0.156
200	-0.084
200	-0.03
201	0.004
201	0.021
202	0.037
202	0.048
203	0.052
203	0.056
204	0.072
204	0.086
205	0.101
205	0.106
205	0.103
206	0.102
206	0.103
207	0.101
207	0.099
208	0.099
208	0.096
209	0.098
209	0.096
210	0.096
210	0.096
211	0.096
211	0.098
212	0.096
212	0.1
213	0.103
213	0.106
213	0.108
214	0.112
214	0.114
215	0.114
215	0.116
216	0.12
216	0.119
217	0.123
217	0.124
218	0.126
218	0.129
219	0.134
219	0.133
220	0.137
220	0.138
221	0.139
221	0.141
221	0.145
222	0.15
222	0.153
223	0.157
223	0.159
224	0.167
224	0.175
225	0.183
225	0.195
226	0.205
226	0.218
227	0.228
227	0.238
228	0.254
228	0.272
229	0.291
229	0.311
229	0.332
230	0.357
230	0.385
231	0.416
231	0.455
232	0.492
232	0.536
233	0.58
233	0.627
234	0.678
234	0.732
235	0.787
235	0.844
236	0.897
236	0.953
236	1.007
237	1.062
237	1.111
238	1.16
238	1.208
239	1.26
239	1.302
240	1.344
240	1.383
241	1.423
241	1.462
242	1.496
242	1.535
243	1.57
243	1.6
243	1.626
244	1.649
244	1.675
245	1.696
245	1.719
246	1.74
246	1.756
247	1.772
247	1.787
248	1.805
248	1.82
249	1.833
249	1.845
250	1.855
250	1.869
250	1.878
251	1.886
251	1.891
252	1.898
252	1.901
253	1.904
253	1.906
254	1.909
254	1.913
255	1.914
255	1.914
256	1.913
256	1.915
257	1.919
257	1.918
258	1.92
258	1.922
258	1.924
259	1.925
259	1.924
260	1.924
260	1.927
261	1.929
261	1.93
262	1.934
262	1.939
263	1.944
263	1.944
264	1.945
264	1.95
265	1.954
265	1.957
265	1.959
266	1.961
266	1.964
267	1.962
267	1.963
268	1.963
268	1.966
269	1.972
269	1.97
270	1.97
270	1.971
271	1.971
271	1.971
272	1.969
272	1.968
272	1.964
273	1.958
273	1.949
274	1.942
274	1.938
275	1.931
275	1.925
276	1.916
276	1.909
277	1.901
277	1.89
278	1.879
278	1.867
278	1.854
279	1.836
279	1.815
280	1.79
280	1.757
281	1.721
281	1.681
282	1.638
282	1.595
283	1.552
283	1.509
284	1.469
284	1.429
285	1.392
285	1.358
285	1.328
286	1.301
286	1.277
287	1.256
287	1.238
288	1.223
288	1.21
289	1.198
289	1.188
290	1.18
290	1.172
291	1.164
291	1.159
292	1.153
292	1.148
292	1.143
293	1.139
293	1.135
294	1.131
294	1.128
295	1.124
295	1.121
296	1.117
296	1.113
297	1.111
297	1.107
298	1.104
298	1.101
298	1.097
299	1.094
299	1.091
300	1.088
300	1.085
301	1.082
301	1.079
302	1.076
302	1.073
303	1.071
303	1.068
304	1.065
304	1.063
305	1.06
305	1.058
305	1.055
306	1.052
306	1.049
307	1.047
307	1.044
308	1.041
308	1.038
309	1.035
309	1.031
310	1.028
310	1.025
311	1.022
311	1.018
311	1.015
312	1.011
312	1.007
313	1.003
313	0.999
314	0.995
314	0.991
315	0.986
315	0.982
316	0.977
316	0.972
317	0.968
317	0.962
318	0.957
318	0.952
318	0.946
319	0.941
319	0.935
320	0.93
320	0.924
321	0.917
321	0.911
322	0.904
322	0.898
323	0.892
323	0.885
324	0.878
324	0.871
324	0.864
325	0.857
325	0.85
326	0.844
326	0.837
327	0.83
327	0.823
328	0.816
328	0.809
329	0.801
329	0.794
330	0.787
330	0.78
330	0.773
331	0.765
331	0.758
332	0.751
332	0.744
333	0.736
333	0.729
334	0.722
334	0.715
335	0.709
335	0.702
336	0.695
336	0.688
336	0.682
337	0.675
337	0.669
338	0.663
338	0.656
339	0.65
339	0.644
340	0.638
340	0.633
341	0.627
341	0.621
342	0.616
342	0.61
342	0.605
343	0.599
343	0.594
344	0.589
344	0.584
345	0.579
345	0.574
346	0.569
346	0.565
347	0.56
347	0.556
348	0.552
348	0.548
348	0.544
349	0.54
349	0.536
350	0.532
350	0.529
351	0.525
351	0.522
352	0.519
352	0.515
353	0.512
353	0.509
354	0.506
354	0.503
354	0.5
355	0.497
355	0.494
356	0.491
356	0.489
357	0.486
357	0.483
358	0.48
358	0.477
359	0.475
359	0.472
360	0.47
360	0.468
360	0.465
361	0.463
361	0.461
362	0.459
362	0.457
363	0.455
363	0.453
364	0.451
364	0.449
365	0.447
365	0.445
366	0.443
366	0.441
366	0.44
367	0.437
367	0.435
368	0.434
368	0.432
369	0.43
369	0.429
370	0.427
370	0.425
371	0.424
371	0.422
372	0.421
372	0.419
372	0.418
373	0.417
373	0.415
374	0.414
374	0.413
375	0.412
375	0.41
376	0.409
376	0.408
377	0.407
377	0.406
378	0.405
378	0.403
378	0.402
379	0.401
379	0.4
380	0.399
380	0.398
381	0.397
381	0.396
382	0.395
382	0.395
383	0.394
383	0.393
383	0.392
384	0.391
384	0.39
385	0.39
385	0.389
386	0.388
386	0.387
387	0.386
387	0.385
388	0.385
388	0.384
389	0.383
389	0.383
389	0.382
390	0.381
390	0.381
391	0.38
391	0.38
392	0.379
392	0.379
393	0.379
393	0.378
394	0.378
394	0.377
394	0.376
395	0.376
395	0.375
396	0.375
396	0.374
397	0.374
397	0.373
398	0.372
398	0.371
399	0.371
399	0.37
400	0.37
400	0.369
400	0.368
401	0.368
401	0.367
402	0.367
402	0.366
403	0.366
403	0.365
404	0.365
404	0.364
405	0.364
405	0.364
405	0.363
406	0.363
406	0.362
407	0.362
407	0.362
408	0.361
408	0.361
409	0.36
409	0.36
410	0.36
410	0.359
411	0.359
411	0.358
411	0.358
412	0.358
412	0.357
413	0.357
413	0.356
414	0.356
414	0.355
415	0.355
415	0.355
416	0.354
416	0.354
416	0.353
417	0.353
417	0.353
418	0.352
418	0.352
419	0.352
419	0.351
420	0.351
420	0.35
421	0.35
421	0.349
421	0.349
422	0.349
422	0.348
423	0.348
423	0.347
424	0.347
424	0.347
425	0.346
425	0.346
426	0.346
426	0.345
427	0.345
427	0.344
427	0.344
428	0.344
428	0.344
429	0.343
429	0.343
430	0.343
430	0.342
431	0.342
431	0.342
432	0.342
432	0.342
432	0.341
433	0.341
433	0.341
434	0.341
434	0.341
435	0.341
435	0.34
436	0.34
436	0.34
437	0.34
437	0.34
437	0.339
438	0.339
438	0.339
439	0.339
439	0.339
440	0.338
440	0.338
441	0.338
441	0.338
442	0.337
442	0.337
442	0.337
443	0.336
443	0.336
444	0.336
444	0.336
445	0.336
445	0.336
446	0.336
446	0.336
447	0.335
447	0.335
447	0.335
448	0.335
448	0.335
449	0.335
449	0.335
450	0.335
450	0.335
451	0.335
451	0.335
452	0.335
452	0.335
452	0.335
453	0.335
453	0.335
454	0.334
454	0.334
455	0.334
455	0.334
456	0.334
456	0.334
457	0.334
457	0.334
458	0.334
458	0.334
458	0.334
459	0.334
459	0.334
460	0.335
460	0.335
461	0.335
461	0.335
462	0.335
462	0.335
463	0.335
463	0.335
463	0.335
464	0.335
464	0.335
465	0.335
465	0.335
466	0.335
466	0.335
467	0.335
467	0.336
467	0.336
468	0.336
468	0.336
469	0.337
469	0.337
470	0.338
470	0.338
471	0.339
471	0.339
472	0.34
472	0.34
472	0.34
473	0.341
473	0.342
474	0.342
474	0.342
475	0.343
475	0.343
476	0.344
476	0.344
477	0.344
477	0.345
477	0.346
478	0.346
478	0.347
479	0.347
479	0.348
480	0.348
480	0.349
481	0.349
481	0.35
482	0.351
482	0.352
482	0.353
483	0.354
483	0.355
484	0.356
484	0.356
485	0.357
485	0.358
486	0.359
486	0.359
487	0.36
487	0.361
487	0.362
488	0.363
488	0.363
489	0.364
489	0.366
490	0.368
490	0.369
491	0.371
491	0.372
492	0.374
492	0.375
492	0.376
493	0.378
493	0.379
494	0.381
494	0.382
495	0.384
495	0.385
496	0.387
496	0.388
496	0.39
497	0.391
497	0.392
498	0.393
498	0.395
499	0.397
499	0.398
500	0.4
500	0.401
501	0.403
501	0.404
501	0.405
502	0.407
502	0.408
503	0.409
503	0.411
504	0.412
504	0.413
505	0.415
505	0.416
506	0.417
506	0.419
506	0.42
507	0.421
507	0.423
508	0.424
508	0.425
509	0.426
509	0.428
510	0.429
510	0.43
511	0.432
511	0.433
511	0.434
512	0.435
512	0.437
513	0.437
513	0.439
514	0.44
514	0.441
515	0.441
515	0.442
515	0.442
516	0.443
516	0.444
517	0.444
517	0.445
518	0.445
518	0.446
519	0.446
519	0.446
520	0.447
520	0.447
520	0.448
521	0.448
521	0.448
522	0.448
522	0.447
523	0.447
523	0.447
524	0.447
524	0.447
524	0.446
525	0.446
525	0.445
526	0.444
526	0.444
527	0.443
527	0.443
528	0.442
528	0.441
529	0.44
529	0.439
529	0.438
530	0.437
530	0.436
531	0.435
531	0.433
532	0.432
532	0.43
533	0.429
533	0.427
533	0.425
534	0.424
534	0.422
535	0.42
535	0.419
536	0.417
536	0.415
537	0.413
537	0.411
538	0.409
538	0.407
538	0.405
539	0.403
539	0.401
540	0.399
540	0.397
541	0.395
541	0.393
542	0.391
542	0.389
542	0.387
543	0.384
543	0.382
544	0.38
544	0.378
545	0.376
545	0.374
546	0.371
546	0.369
547	0.366
547	0.364
547	0.361
548	0.359
548	0.357
549	0.354
549	0.352
550	0.35
550	0.347
551	0.345
551	0.342
551	0.34
552	0.338
552	0.336
553	0.334
553	0.331
554	0.329
554	0.327
555	0.324
555	0.322
556	0.319
556	0.317
556	0.315
557	0.313
557	0.311
558	0.309
558	0.307
559	0.304
559	0.302
560	0.3
560	0.298
560	0.296
561	0.295
561	0.293
562	0.29
562	0.288
563	0.285
563	0.283
564	0.281
564	0.279
564	0.277
565	0.276
565	0.274
566	0.272
566	0.27
567	0.268
567	0.267
568	0.265
568	0.263
568	0.262
569	0.26
569	0.258
570	0.256
570	0.254
571	0.253
571	0.251
572	0.249
572	0.248
573	0.246
573	0.245
573	0.243
574	0.241
574	0.24
575	0.239
575	0.238
576	0.237
576	0.235
577	0.233
577	0.231
577	0.23
578	0.229
578	0.228
579	0.227
579	0.226
580	0.224
580	0.222
581	0.22
581	0.219
581	0.218
582	0.218
582	0.217
583	0.216
583	0.215
584	0.213
584	0.211
585	0.21
585	0.209
585	0.208
586	0.207
586	0.205
587	0.204
587	0.203
588	0.202
588	0.201
589	0.2
589	0.199
590	0.198
590	0.198
590	0.197
591	0.197
591	0.195
592	0.194
592	0.193
593	0.192
593	0.191
594	0.189
594	0.188
594	0.187
595	0.187
595	0.185
596	0.184
596	0.184
597	0.184
597	0.184
598	0.183
598	0.182
598	0.182
599	0.181
599	0.18
600	0.179
600	0.179
601	0.178
601	0.177
602	0.176
602	0.175
602	0.174
603	0.173
603	0.173
604	0.172
604	0.172
605	0.171
605	0.171
606	0.17
606	0.169
606	0.168
607	0.168
607	0.167
608	0.166
608	0.165
609	0.165
609	0.164
610	0.163
610	0.162
610	0.162
611	0.162
611	0.161
612	0.161
612	0.161
613	0.161
613	0.161
614	0.16
614	0.16
614	0.159
615	0.159
615	0.158
616	0.158
616	0.157
617	0.157
617	0.156
618	0.155
618	0.155
618	0.155
619	0.155
619	0.155
620	0.155
620	0.155
621	0.154
621	0.153
622	0.152
622	0.152
622	0.151
623	0.15
623	0.15
624	0.149
624	0.148
625	0.147
625	0.147
626	0.146
626	0.146
626	0.146
627	0.145
627	0.145
628	0.145
628	0.145
629	0.144
629	0.144
630	0.144
630	0.143
630	0.144
631	0.143
631	0.143
632	0.142
632	0.142
633	0.141
633	0.141
634	0.141
634	0.141
634	0.14
635	0.14
635	0.139
636	0.139
636	0.139
637	0.139
637	0.138
638	0.138
638	0.137
638	0.136
639	0.136
639	0.135
640	0.135
640	0.135
641	0.134
641	0.134
642	0.133
642	0.133
642	0.133
643	0.133
643	0.133
644	0.134
644	0.134
645	0.133
645	0.133
646	0.133
646	0.133
646	0.133
647	0.133
647	0.132
648	0.132
648	0.131
649	0.131
649	0.131
650	0.131
650	0.13
650	0.13
651	0.13
651	0.13
652	0.13
652	0.13
653	0.13
653	0.132
653	0.137
654	0.11
654	0.089
655	0.087
655	0.087
656	0.087
656	0.087
657	0.088
657	0.088
657	0.088
658	0.087
658	0.078
659	0.097
659	0.123
660	0.128
660	0.128
661	0.128
661	0.127
661	0.127
662	0.126
662	0.125
663	0.124
663	0.124
664	0.123
664	0.123
665	0.122
665	0.122
665	0.122
666	0.122
666	0.122
667	0.123
667	0.123
668	0.124
668	0.124
669	0.124
669	0.124
669	0.125
670	0.125
670	0.125
671	0.124
671	0.124
672	0.123
672	0.122
672	0.122
673	0.121
673	0.121
674	0.121
674	0.12
675	0.119
675	0.119
676	0.119
676	0.119
676	0.119
677	0.12
677	0.12
678	0.119
678	0.119
679	0.119
679	0.119
680	0.119
680	0.119
680	0.119
681	0.118
681	0.118
682	0.118
682	0.118
683	0.118
683	0.119
684	0.119
684	0.118
684	0.118
685	0.118
685	0.118
686	0.117
686	0.117
687	0.117
687	0.117
687	0.117
688	0.116
688	0.116
689	0.116
689	0.117
690	0.116
690	0.116
691	0.116
691	0.116
691	0.116
692	0.116
692	0.116
693	0.116
693	0.116
694	0.116
694	0.115
695	0.116
695	0.116
695	0.116
696	0.115
696	0.115
697	0.115
697	0.114
698	0.114
698	0.113
698	0.114
699	0.114
699	0.113
700	0.113
700	0.113
701	0.113
701	0.112
702	0.112
702	0.112
702	0.112
703	0.112
703	0.112
704	0.111
704	0.111
705	0.111
705	0.111
705	0.11
706	0.11
706	0.11
707	0.11
707	0.11
708	0.11
708	0.109
709	0.109
709	0.109
709	0.108
710	0.108
710	0.108
711	0.108
711	0.108
712	0.108
712	0.107
713	0.107
713	0.107
713	0.107
714	0.107
714	0.107
715	0.106
715	0.106
716	0.105
716	0.105
716	0.105
717	0.104
717	0.104
718	0.103
718	0.103
719	0.103
719	0.103
720	0.103
720	0.103
720	0.103
721	0.103
721	0.104
722	0.104
722	0.104
723	0.104
723	0.104
723	0.104
724	0.104
724	0.103
725	0.103
725	0.102
726	0.101
726	0.101
727	0.1
727	0.1
727	0.099
728	0.099
728	0.098
729	0.099
729	0.099
730	0.099
730	0.099
730	0.1
731	0.1
731	0.101
732	0.101
732	0.101
733	0.101
733	0.101
734	0.101
734	0.101
734	0.1
735	0.1
735	0.099
736	0.098
736	0.097
737	0.096
737	0.096
737	0.095
738	0.094
738	0.093
739	0.093
739	0.092
740	0.092
740	0.092
741	0.092
741	0.092
741	0.093
742	0.093
742	0.093
743	0.094
743	0.094
744	0.094
744	0.095
744	0.094
745	0.094
745	0.094
746	0.093
746	0.093
747	0.093
747	0.093
748	0.093
748	0.093
748	0.093
749	0.093
749	0.093
750	0.094
750	0.094
751	0.094
751	0.094
751	0.094
752	0.094
752	0.093
753	0.093
753	0.092
754	0.092
754	0.091
754	0.09
755	0.09
755	0.089
756	0.088
756	0.087
757	0.087
757	0.087
758	0.087
758	0.086
758	0.087
759	0.087
759	0.086
760	0.086
760	0.086
761	0.086
761	0.087
761	0.087
762	0.088
762	0.088
763	0.088
763	0.088
764	0.088
764	0.088
764	0.088
765	0.087
765	0.087
766	0.087
766	0.087
767	0.086
767	0.085
768	0.085
768	0.084
768	0.084
769	0.084
769	0.083
770	0.083
770	0.083
771	0.083
771	0.082
771	0.083
772	0.083
772	0.083
773	0.083
773	0.083
774	0.084
774	0.084
775	0.085
775	0.085
775	0.085
776	0.085
776	0.085
777	0.085
777	0.084
778	0.084
778	0.083
778	0.083
779	0.083
779	0.082
780	0.081
780	0.08
781	0.08
781	0.08
781	0.079
782	0.079
782	0.079
783	0.079
783	0.079
784	0.079
784	0.079
784	0.079
785	0.079
785	0.079
786	0.078
786	0.078
787	0.078
787	0.078
788	0.078
788	0.078
788	0.078
789	0.077
789	0.077
790	0.077
790	0.077
791	0.077
791	0.077
791	0.077
792	0.077
792	0.077
793	0.077
793	0.076
794	0.076
794	0.076
794	0.076
795	0.076
795	0.076
796	0.076
796	0.076
797	0.075
797	0.075
797	0.075
798	0.075
798	0.075
799	0.075
799	0.075
800	0.074
800	0.073
801	0.073
801	0.072
801	0.072
802	0.072
802	0.072
803	0.071
803	0.071
804	0.071
804	0.072
804	0.072
805	0.072
805	0.072
806	0.072
806	0.072
807	0.072
807	0.072
807	0.072
808	0.072
808	0.072
809	0.072
809	0.072
810	0.072
810	0.072
810	0.072
811	0.072
811	0.073
812	0.073
812	0.073
813	0.074
813	0.074
813	0.074
814	0.074
814	0.075
815	0.075
815	0.074
816	0.074
816	0.073
817	0.073
817	0.073
817	0.072
818	0.072
818	0.072
819	0.072
819	0.071
820	0.07
820	0.07
820	0.069
821	0.069
821	0.069
822	0.069
822	0.069
823	0.069
823	0.069
823	0.069
824	0.07
824	0.071
825	0.072
825	0.073
826	0.073
826	0.073
826	0.073
827	0.073
827	0.073
828	0.073
828	0.072
829	0.071
829	0.071
829	0.07
830	0.07
830	0.07
831	0.071
831	0.071
832	0.071
832	0.071
832	0.071
833	0.071
833	0.071
834	0.071
834	0.071
835	0.07
835	0.07
835	0.07
836	0.07
836	0.07
837	0.07
837	0.07
838	0.07
838	0.069
839	0.069
839	0.069
839	0.068
840	0.067
840	0.066
841	0.065
841	0.064
842	0.064
842	0.063
842	0.062
843	0.062
843	0.062
844	0.062
844	0.062
845	0.062
845	0.062
845	0.062
846	0.062
846	0.063
847	0.063
847	0.063
848	0.064
848	0.064
848	0.064
849	0.064
849	0.064
850	0.064
850	0.064
851	0.064
851	0.064
851	0.063
852	0.063
852	0.062
853	0.062
853	0.062
854	0.062
854	0.062
854	0.063
855	0.064
855	0.064
856	0.065
856	0.066
857	0.067
857	0.067
857	0.068
858	0.068
858	0.068
859	0.068
859	0.067
860	0.067
860	0.066
860	0.065
861	0.065
861	0.064
862	0.063
862	0.062
863	0.061
863	0.061
863	0.061
864	0.06
864	0.06
865	0.06
865	0.059
866	0.059
866	0.059
866	0.059
867	0.059
867	0.06
868	0.06
868	0.06
869	0.06
869	0.06
869	0.059
870	0.059
870	0.059
871	0.059
871	0.058
872	0.058
872	0.058
872	0.058
873	0.058
873	0.057
874	0.057
874	0.057
875	0.056
875	0.056
875	0.056
876	0.056
876	0.056
877	0.056
877	0.057
878	0.057
878	0.058
878	0.059
879	0.059
879	0.06
880	0.061
880	0.061
881	0.062
881	0.062
881	0.062
882	0.062
882	0.062
883	0.062
883	0.062
884	0.061
884	0.061
884	0.06
885	0.06
885	0.059
886	0.059
886	0.058
887	0.057
887	0.057
887	0.056
888	0.055
888	0.055
889	0.055
889	0.054
890	0.054
890	0.054
890	0.054
891	0.054
891	0.055
892	0.055
892	0.055
893	0.056
893	0.056
893	0.056
894	0.056
894	0.056
895	0.056
895	0.057
895	0.056
896	0.056
896	0.056
897	0.056
897	0.055
898	0.055
898	0.054
898	0.054
899	0.054
899	0.054
900	0.053
900	0.054
901	0.054
901	0.054
901	0.054
902	0.054
902	0.054
903	0.054
903	0.054
904	0.054
904	0.054
904	0.054
905	0.054
905	0.054
906	0.054
906	0.055
907	0.055
907	0.055
907	0.056
908	0.056
908	0.056
909	0.056
909	0.056
910	0.056
910	0.056
910	0.055
911	0.055
911	0.055
912	0.055
912	0.055
913	0.055
913	0.055
913	0.055
914	0.055
914	0.055
915	0.056
915	0.056
916	0.055
916	0.055
916	0.055
917	0.054
917	0.054
918	0.054
918	0.053
918	0.053
919	0.052
919	0.052
920	0.051
920	0.051
921	0.05
921	0.05
921	0.049
922	0.049
922	0.048
923	0.048
923	0.048
924	0.048
924	0.048
924	0.048
925	0.048
925	0.048
926	0.049
926	0.049
927	0.05
927	0.05
927	0.051
928	0.051
928	0.051
929	0.052
929	0.052
930	0.052
930	0.053
930	0.053
931	0.053
931	0.054
932	0.054
932	0.055
933	0.055
933	0.055
933	0.055
934	0.055
934	0.055
935	0.055
935	0.054
935	0.054
936	0.053
936	0.053
937	0.052
937	0.052
938	0.051
938	0.051
938	0.051
939	0.051
939	0.051
940	0.051
940	0.051
941	0.051
941	0.051
941	0.052
942	0.052
942	0.052
943	0.053
943	0.053
944	0.053
944	0.053
944	0.053
945	0.054
945	0.054
946	0.054
946	0.055
946	0.055
947	0.055
947	0.055
948	0.056
948	0.056
949	0.056
949	0.056
949	0.056
950	0.055
950	0.055
951	0.055
951	0.054
952	0.054
952	0.053
952	0.052
953	0.051
953	0.051
954	0.05
954	0.049
955	0.048
955	0.048
955	0.047
956	0.047
956	0.047
957	0.047
957	0.047
957	0.047
958	0.047
958	0.047
959	0.048
959	0.048
960	0.048
960	0.049
960	0.049
961	0.049
961	0.049
962	0.05
962	0.05
963	0.05
963	0.05
963	0.05
964	0.05
964	0.051
965	0.051
965	0.052
966	0.052
966	0.053
966	0.054
967	0.054
967	0.055
968	0.056
968	0.057
968	0.057
969	0.057
969	0.057
970	0.057
970	0.057
971	0.057
971	0.057
971	0.057
972	0.056
972	0.056
973	0.056
973	0.056
974	0.056
974	0.056
974	0.056
975	0.056
975	0.056
976	0.056
976	0.057
976	0.056
977	0.057
977	0.056
978	0.056
978	0.056
979	0.056
979	0.056
979	0.056
980	0.056
980	0.056
981	0.055
981	0.055
982	0.055
982	0.055
982	0.055
983	0.054
983	0.054
984	0.054
984	0.053
984	0.053
985	0.052
985	0.052
986	0.051
986	0.051
987	0.05
987	0.05
987	0.049
988	0.049
988	0.048
989	0.048
989	0.047
990	0.047
990	0.046
990	0.046
991	0.045
991	0.045
992	0.044
992	0.043
992	0.043
993	0.042
993	0.042
994	0.041
994	0.041
995	0.041
995	0.041
995	0.041
996	0.042
996	0.042
997	0.043
997	0.044
997	0.045
998	0.046
998	0.046
999	0.047
999	0.048
1000	0.049
1000	0.05
1000	0.05
1001	0.05
1001	0.05
1002	0.05
1002	0.05
1003	0.049
1003	0.048
1003	0.047
1004	0.047
1004	0.046
1005	0.045
1005	0.044
1005	0.043
1006	0.042
1006	0.042
1007	0.041
1007	0.041
1008	0.041
1008	0.041
1008	0.041
1009	0.041
1009	0.041
1010	0.042
1010	0.042
1010	0.042
1011	0.043
1011	0.043
1012	0.043
1012	0.043
1013	0.043
1013	0.043
1013	0.043
1014	0.043
1014	0.043
1015	0.043
1015	0.043
1016	0.043
1016	0.043
1016	0.043
1017	0.043
1017	0.043
1018	0.042
1018	0.042
1018	0.042
1019	0.042
1019	0.042
1020	0.042
1020	0.042
1021	0.042
1021	0.042
1021	0.042
1022	0.042
1022	0.042
1023	0.043
1023	0.043
1023	0.043
1024	0.043
1024	0.043
1025	0.043
1025	0.043
1026	0.042
1026	0.042
1026	0.042
1027	0.042
1027	0.041
1028	0.041
1028	0.04
1028	0.04
1029	0.04
1029	0.04
1030	0.04
1030	0.04
1031	0.041
1031	0.041
1031	0.041
1032	0.041
1032	0.042
1033	0.042
1033	0.042
1033	0.042
1034	0.042
1034	0.042
1035	0.042
1035	0.041
1036	0.041
1036	0.041
1036	0.041
1037	0.041
1037	0.04
1038	0.04
1038	0.04
1039	0.04
1039	0.041
1039	0.041
1040	0.042
1040	0.042
1041	0.042
1041	0.042
1041	0.043
1042	0.044
1042	0.044
1043	0.044
1043	0.045
1044	0.045
1044	0.045
1044	0.046
1045	0.046
1045	0.047
1046	0.047
1046	0.048
1046	0.048
1047	0.049
1047	0.049
1048	0.05
1048	0.05
1049	0.051
1049	0.051
1049	0.051
1050	0.051
1050	0.051
1051	0.051
1051	0.051
1051	0.051
1052	0.051
1052	0.05
1053	0.05
1053	0.049
1053	0.048
1054	0.048
1054	0.048
1055	0.047
1055	0.047
1056	0.046
1056	0.045
1056	0.044
1057	0.044
1057	0.043
1058	0.042
1058	0.041
1058	0.04
1059	0.039
1059	0.039
1060	0.038
1060	0.038
1061	0.037
1061	0.036
1061	0.036
1062	0.035
1062	0.035
1063	0.035
1063	0.034
1063	0.034
1064	0.034
1064	0.034
1065	0.033
1065	0.033
1066	0.033
1066	0.033
1066	0.033
1067	0.033
1067	0.033
1068	0.033
1068	0.033
1068	0.033
1069	0.032
1069	0.032
1070	0.032
1070	0.032
1071	0.032
1071	0.031
1071	0.031
1072	0.031
1072	0.03
1073	0.029
1073	0.029
1073	0.029
1074	0.029
1074	0.029
1075	0.029
1075	0.029
1076	0.03
1076	0.031
1076	0.031
1077	0.032
1077	0.032
1078	0.032
1078	0.032
1078	0.032
1079	0.032
1079	0.033
1080	0.033
1080	0.033
1080	0.033
1081	0.033
1081	0.033
1082	0.034
1082	0.034
1083	0.034
1083	0.034
1083	0.034
1084	0.034
1084	0.034
1085	0.034
1085	0.034
1085	0.034
1086	0.034
1086	0.033
1087	0.033
1087	0.032
1088	0.032
1088	0.031
1088	0.032
1089	0.031
1089	0.03
1090	0.03
1090	0.029
1090	0.028
1091	0.028
1091	0.027
1092	0.028
1092	0.027
1092	0.027
1093	0.026
1093	0.027
1094	0.026
1094	0.026
1095	0.026
1095	0.026
1095	0.026
1096	0.026
1096	0.024
1097	0.024
1097	0.024
1097	0.024
1098	0.024
1098	0.023
1099	0.023
1099	0.022
1100	0.022
1100	0.021
1100	0.02
1101	0.02
1101	0.02
1102	0.019
1102	0.018
1102	0.017
1103	0.017
1103	0.017
1104	0.017
1104	0.017
1104	0.016
1105	0.015
1105	0.013
1106	0.012
1106	0.01
1107	0.01
1107	0.01
1107	0.01
1108	0.009
1108	0.007
1109	0.005
1109	0.005
1109	0.006
1110	0.008
1110	0.008
1111	0.009
1111	0.007
