Data from reversibility-20sec_Absorbance__1749__000000000001749.txt Node

Date: Tue Dec 05 21:56:05 CET 2023
User: Marek
Spectrometer: MAYP115816
Trigger mode: 0
Integration Time (sec): 2.000000E-1
Scans to average: 10
Electric dark correction enabled: true
Nonlinearity correction enabled: true
Boxcar width: 5
XAxis mode: Wavelengths
Number of Pixels in Spectrum: 2068
>>>>>Begin Spectral Data<<<<<
199	-0.243
199	-0.203
200	-0.126
200	-0.074
201	-0.044
201	-0.03
202	-0.016
202	-0.006
203	0.002
203	0.004
204	0.019
204	0.035
205	0.045
205	0.05
205	0.049
206	0.049
206	0.051
207	0.053
207	0.052
208	0.053
208	0.054
209	0.057
209	0.054
210	0.055
210	0.056
211	0.057
211	0.059
212	0.057
212	0.058
213	0.062
213	0.062
213	0.061
214	0.065
214	0.067
215	0.068
215	0.068
216	0.067
216	0.066
217	0.07
217	0.074
218	0.07
218	0.074
219	0.076
219	0.075
220	0.078
220	0.078
221	0.08
221	0.083
221	0.089
222	0.092
222	0.093
223	0.1
223	0.103
224	0.109
224	0.119
225	0.128
225	0.137
226	0.146
226	0.156
227	0.166
227	0.175
228	0.192
228	0.206
229	0.225
229	0.251
229	0.273
230	0.296
230	0.327
231	0.359
231	0.399
232	0.437
232	0.484
233	0.526
233	0.574
234	0.623
234	0.675
235	0.727
235	0.782
236	0.837
236	0.891
236	0.943
237	0.996
237	1.043
238	1.093
238	1.146
239	1.196
239	1.24
240	1.284
240	1.324
241	1.359
241	1.398
242	1.433
242	1.47
243	1.506
243	1.536
243	1.565
244	1.589
244	1.614
245	1.635
245	1.663
246	1.687
246	1.708
247	1.725
247	1.743
248	1.759
248	1.777
249	1.789
249	1.803
250	1.815
250	1.828
250	1.834
251	1.843
251	1.849
252	1.86
252	1.864
253	1.871
253	1.871
254	1.874
254	1.879
255	1.882
255	1.884
256	1.886
256	1.887
257	1.889
257	1.889
258	1.891
258	1.892
258	1.894
259	1.896
259	1.899
260	1.898
260	1.902
261	1.904
261	1.908
262	1.911
262	1.914
263	1.92
263	1.922
264	1.925
264	1.928
265	1.928
265	1.932
265	1.934
266	1.935
266	1.937
267	1.936
267	1.939
268	1.938
268	1.941
269	1.946
269	1.944
270	1.945
270	1.944
271	1.943
271	1.944
272	1.941
272	1.941
272	1.939
273	1.932
273	1.927
274	1.921
274	1.917
275	1.91
275	1.906
276	1.899
276	1.892
277	1.886
277	1.878
278	1.866
278	1.856
278	1.845
279	1.829
279	1.81
280	1.787
280	1.758
281	1.726
281	1.687
282	1.647
282	1.606
283	1.566
283	1.526
284	1.487
284	1.448
285	1.412
285	1.379
285	1.349
286	1.322
286	1.299
287	1.277
287	1.259
288	1.243
288	1.23
289	1.218
289	1.207
290	1.198
290	1.191
291	1.183
291	1.177
292	1.171
292	1.167
292	1.162
293	1.157
293	1.153
294	1.149
294	1.146
295	1.142
295	1.139
296	1.135
296	1.131
297	1.128
297	1.125
298	1.121
298	1.119
298	1.115
299	1.112
299	1.109
300	1.106
300	1.103
301	1.1
301	1.097
302	1.094
302	1.091
303	1.089
303	1.086
304	1.083
304	1.081
305	1.078
305	1.075
305	1.073
306	1.07
306	1.067
307	1.065
307	1.062
308	1.059
308	1.056
309	1.052
309	1.049
310	1.046
310	1.043
311	1.04
311	1.036
311	1.032
312	1.028
312	1.024
313	1.02
313	1.016
314	1.012
314	1.008
315	1.003
315	0.998
316	0.994
316	0.989
317	0.984
317	0.979
318	0.974
318	0.968
318	0.963
319	0.957
319	0.951
320	0.946
320	0.939
321	0.933
321	0.927
322	0.92
322	0.914
323	0.907
323	0.901
324	0.894
324	0.888
324	0.881
325	0.874
325	0.867
326	0.86
326	0.853
327	0.846
327	0.839
328	0.833
328	0.825
329	0.818
329	0.811
330	0.804
330	0.796
330	0.789
331	0.782
331	0.775
332	0.768
332	0.761
333	0.754
333	0.747
334	0.74
334	0.733
335	0.726
335	0.719
336	0.712
336	0.705
336	0.698
337	0.692
337	0.686
338	0.679
338	0.673
339	0.667
339	0.661
340	0.655
340	0.649
341	0.643
341	0.638
342	0.632
342	0.626
342	0.621
343	0.615
343	0.61
344	0.605
344	0.6
345	0.595
345	0.59
346	0.586
346	0.581
347	0.577
347	0.572
348	0.568
348	0.564
348	0.56
349	0.556
349	0.552
350	0.549
350	0.545
351	0.542
351	0.538
352	0.535
352	0.532
353	0.528
353	0.525
354	0.522
354	0.519
354	0.516
355	0.513
355	0.51
356	0.507
356	0.504
357	0.5
357	0.497
358	0.494
358	0.491
359	0.489
359	0.486
360	0.484
360	0.481
360	0.479
361	0.477
361	0.475
362	0.474
362	0.472
363	0.47
363	0.468
364	0.465
364	0.463
365	0.461
365	0.459
366	0.458
366	0.455
366	0.454
367	0.452
367	0.45
368	0.447
368	0.446
369	0.444
369	0.442
370	0.44
370	0.439
371	0.437
371	0.435
372	0.433
372	0.432
372	0.43
373	0.429
373	0.428
374	0.427
374	0.425
375	0.424
375	0.423
376	0.422
376	0.421
377	0.419
377	0.418
378	0.417
378	0.416
378	0.415
379	0.414
379	0.413
380	0.412
380	0.41
381	0.409
381	0.408
382	0.407
382	0.406
383	0.406
383	0.405
383	0.404
384	0.403
384	0.402
385	0.401
385	0.401
386	0.4
386	0.399
387	0.398
387	0.397
388	0.396
388	0.395
389	0.395
389	0.394
389	0.393
390	0.392
390	0.392
391	0.391
391	0.391
392	0.39
392	0.389
393	0.389
393	0.388
394	0.387
394	0.387
394	0.386
395	0.385
395	0.385
396	0.384
396	0.383
397	0.383
397	0.382
398	0.381
398	0.381
399	0.38
399	0.379
400	0.379
400	0.378
400	0.378
401	0.377
401	0.377
402	0.376
402	0.376
403	0.376
403	0.375
404	0.375
404	0.374
405	0.374
405	0.373
405	0.372
406	0.372
406	0.371
407	0.371
407	0.37
408	0.37
408	0.369
409	0.369
409	0.368
410	0.368
410	0.367
411	0.367
411	0.366
411	0.366
412	0.366
412	0.365
413	0.364
413	0.364
414	0.364
414	0.364
415	0.363
415	0.363
416	0.362
416	0.362
416	0.361
417	0.361
417	0.36
418	0.36
418	0.36
419	0.359
419	0.358
420	0.358
420	0.358
421	0.357
421	0.357
421	0.356
422	0.356
422	0.356
423	0.355
423	0.355
424	0.354
424	0.354
425	0.354
425	0.353
426	0.353
426	0.353
427	0.352
427	0.352
427	0.352
428	0.351
428	0.351
429	0.351
429	0.35
430	0.35
430	0.35
431	0.35
431	0.35
432	0.35
432	0.349
432	0.349
433	0.349
433	0.348
434	0.348
434	0.348
435	0.348
435	0.348
436	0.347
436	0.347
437	0.347
437	0.347
437	0.346
438	0.346
438	0.346
439	0.346
439	0.346
440	0.346
440	0.346
441	0.346
441	0.345
442	0.345
442	0.345
442	0.345
443	0.345
443	0.345
444	0.344
444	0.344
445	0.344
445	0.344
446	0.344
446	0.344
447	0.344
447	0.343
447	0.343
448	0.343
448	0.343
449	0.344
449	0.343
450	0.343
450	0.343
451	0.343
451	0.343
452	0.343
452	0.343
452	0.344
453	0.344
453	0.343
454	0.343
454	0.343
455	0.343
455	0.343
456	0.343
456	0.343
457	0.343
457	0.343
458	0.343
458	0.343
458	0.343
459	0.343
459	0.343
460	0.343
460	0.343
461	0.344
461	0.344
462	0.344
462	0.344
463	0.344
463	0.344
463	0.344
464	0.344
464	0.344
465	0.344
465	0.344
466	0.345
466	0.345
467	0.345
467	0.345
467	0.345
468	0.345
468	0.345
469	0.346
469	0.346
470	0.347
470	0.347
471	0.348
471	0.348
472	0.349
472	0.349
472	0.35
473	0.351
473	0.352
474	0.352
474	0.352
475	0.353
475	0.353
476	0.354
476	0.355
477	0.355
477	0.356
477	0.356
478	0.357
478	0.358
479	0.358
479	0.359
480	0.36
480	0.361
481	0.361
481	0.362
482	0.363
482	0.363
482	0.364
483	0.365
483	0.366
484	0.367
484	0.368
485	0.369
485	0.37
486	0.37
486	0.371
487	0.372
487	0.374
487	0.375
488	0.376
488	0.377
489	0.378
489	0.38
490	0.381
490	0.383
491	0.385
491	0.386
492	0.388
492	0.389
492	0.391
493	0.392
493	0.393
494	0.395
494	0.396
495	0.398
495	0.399
496	0.401
496	0.402
496	0.404
497	0.405
497	0.407
498	0.408
498	0.41
499	0.411
499	0.413
500	0.414
500	0.416
501	0.418
501	0.419
501	0.421
502	0.422
502	0.424
503	0.425
503	0.427
504	0.428
504	0.43
505	0.431
505	0.432
506	0.434
506	0.435
506	0.437
507	0.438
507	0.44
508	0.441
508	0.442
509	0.444
509	0.445
510	0.447
510	0.448
511	0.45
511	0.451
511	0.452
512	0.454
512	0.455
513	0.456
513	0.457
514	0.458
514	0.459
515	0.46
515	0.461
515	0.461
516	0.462
516	0.463
517	0.463
517	0.464
518	0.464
518	0.465
519	0.465
519	0.465
520	0.465
520	0.466
520	0.466
521	0.465
521	0.465
522	0.465
522	0.465
523	0.465
523	0.464
524	0.465
524	0.464
524	0.464
525	0.463
525	0.463
526	0.462
526	0.462
527	0.461
527	0.46
528	0.459
528	0.458
529	0.456
529	0.455
529	0.454
530	0.452
530	0.451
531	0.449
531	0.448
532	0.446
532	0.445
533	0.443
533	0.442
533	0.44
534	0.438
534	0.436
535	0.435
535	0.433
536	0.431
536	0.429
537	0.427
537	0.425
538	0.422
538	0.42
538	0.418
539	0.416
539	0.414
540	0.412
540	0.409
541	0.406
541	0.404
542	0.402
542	0.399
542	0.397
543	0.395
543	0.392
544	0.389
544	0.387
545	0.385
545	0.382
546	0.38
546	0.377
547	0.374
547	0.371
547	0.369
548	0.366
548	0.364
549	0.361
549	0.358
550	0.355
550	0.352
551	0.349
551	0.346
551	0.344
552	0.341
552	0.338
553	0.335
553	0.333
554	0.33
554	0.327
555	0.325
555	0.322
556	0.319
556	0.317
556	0.315
557	0.312
557	0.31
558	0.308
558	0.305
559	0.303
559	0.3
560	0.298
560	0.296
560	0.293
561	0.291
561	0.289
562	0.286
562	0.284
563	0.281
563	0.279
564	0.277
564	0.275
564	0.273
565	0.271
565	0.269
566	0.267
566	0.264
567	0.263
567	0.26
568	0.259
568	0.257
568	0.255
569	0.254
569	0.252
570	0.25
570	0.247
571	0.246
571	0.244
572	0.242
572	0.24
573	0.239
573	0.236
573	0.234
574	0.232
574	0.231
575	0.229
575	0.228
576	0.226
576	0.224
577	0.222
577	0.22
577	0.219
578	0.217
578	0.216
579	0.215
579	0.214
580	0.212
580	0.21
581	0.208
581	0.207
581	0.206
582	0.205
582	0.204
583	0.203
583	0.202
584	0.2
584	0.197
585	0.196
585	0.195
585	0.194
586	0.192
586	0.191
587	0.189
587	0.188
588	0.186
588	0.185
589	0.184
589	0.183
590	0.182
590	0.181
590	0.181
591	0.18
591	0.179
592	0.178
592	0.176
593	0.175
593	0.175
594	0.174
594	0.172
594	0.171
595	0.17
595	0.168
596	0.167
596	0.166
597	0.166
597	0.166
598	0.165
598	0.164
598	0.163
599	0.163
599	0.162
600	0.161
600	0.16
601	0.159
601	0.159
602	0.158
602	0.157
602	0.156
603	0.155
603	0.155
604	0.154
604	0.153
605	0.153
605	0.153
606	0.152
606	0.15
606	0.15
607	0.149
607	0.148
608	0.148
608	0.146
609	0.145
609	0.145
610	0.144
610	0.143
610	0.143
611	0.142
611	0.142
612	0.141
612	0.141
613	0.141
613	0.14
614	0.139
614	0.138
614	0.138
615	0.137
615	0.137
616	0.136
616	0.136
617	0.135
617	0.134
618	0.134
618	0.133
618	0.133
619	0.133
619	0.133
620	0.133
620	0.132
621	0.131
621	0.131
622	0.13
622	0.129
622	0.129
623	0.128
623	0.127
624	0.127
624	0.126
625	0.125
625	0.125
626	0.124
626	0.124
626	0.123
627	0.123
627	0.123
628	0.122
628	0.122
629	0.121
629	0.121
630	0.12
630	0.12
630	0.119
631	0.119
631	0.119
632	0.118
632	0.118
633	0.117
633	0.117
634	0.117
634	0.117
634	0.117
635	0.116
635	0.116
636	0.115
636	0.115
637	0.114
637	0.114
638	0.113
638	0.113
638	0.112
639	0.112
639	0.111
640	0.111
640	0.11
641	0.11
641	0.11
642	0.109
642	0.109
642	0.109
643	0.109
643	0.109
644	0.109
644	0.109
645	0.108
645	0.108
646	0.108
646	0.108
646	0.108
647	0.107
647	0.107
648	0.106
648	0.105
649	0.104
649	0.104
650	0.104
650	0.104
650	0.103
651	0.103
651	0.103
652	0.102
652	0.102
653	0.103
653	0.104
653	0.112
654	0.09
654	0.073
655	0.07
655	0.07
656	0.07
656	0.07
657	0.07
657	0.07
657	0.07
658	0.069
658	0.06
659	0.075
659	0.095
660	0.1
660	0.1
661	0.1
661	0.099
661	0.099
662	0.098
662	0.098
663	0.097
663	0.096
664	0.096
664	0.095
665	0.094
665	0.094
665	0.094
666	0.093
666	0.093
667	0.093
667	0.093
668	0.093
668	0.093
669	0.093
669	0.093
669	0.094
670	0.094
670	0.093
671	0.093
671	0.092
672	0.092
672	0.091
672	0.09
673	0.09
673	0.09
674	0.089
674	0.089
675	0.088
675	0.088
676	0.088
676	0.089
676	0.089
677	0.089
677	0.089
678	0.088
678	0.088
679	0.087
679	0.087
680	0.087
680	0.087
680	0.087
681	0.086
681	0.087
682	0.087
682	0.088
683	0.088
683	0.089
684	0.089
684	0.089
684	0.089
685	0.089
685	0.089
686	0.089
686	0.088
687	0.087
687	0.087
687	0.086
688	0.085
688	0.085
689	0.084
689	0.084
690	0.084
690	0.083
691	0.083
691	0.083
691	0.083
692	0.083
692	0.083
693	0.084
693	0.084
694	0.084
694	0.084
695	0.085
695	0.085
695	0.085
696	0.085
696	0.084
697	0.084
697	0.083
698	0.083
698	0.082
698	0.082
699	0.082
699	0.082
700	0.081
700	0.082
701	0.083
701	0.083
702	0.083
702	0.083
702	0.083
703	0.083
703	0.082
704	0.082
704	0.082
705	0.081
705	0.081
705	0.08
706	0.08
706	0.079
707	0.079
707	0.079
708	0.079
708	0.079
709	0.079
709	0.078
709	0.077
710	0.077
710	0.077
711	0.077
711	0.077
712	0.076
712	0.076
713	0.076
713	0.076
713	0.075
714	0.075
714	0.075
715	0.075
715	0.075
716	0.075
716	0.075
716	0.074
717	0.073
717	0.073
718	0.072
718	0.072
719	0.072
719	0.072
720	0.073
720	0.073
720	0.073
721	0.074
721	0.074
722	0.075
722	0.074
723	0.075
723	0.075
723	0.075
724	0.074
724	0.074
725	0.073
725	0.072
726	0.071
726	0.07
727	0.07
727	0.069
727	0.069
728	0.068
728	0.068
729	0.068
729	0.068
730	0.068
730	0.068
730	0.069
731	0.069
731	0.069
732	0.07
732	0.07
733	0.07
733	0.07
734	0.07
734	0.069
734	0.069
735	0.069
735	0.069
736	0.069
736	0.068
737	0.068
737	0.068
737	0.068
738	0.068
738	0.067
739	0.066
739	0.066
740	0.065
740	0.065
741	0.065
741	0.065
741	0.064
742	0.063
742	0.063
743	0.064
743	0.064
744	0.065
744	0.065
744	0.065
745	0.065
745	0.066
746	0.066
746	0.067
747	0.067
747	0.067
748	0.068
748	0.068
748	0.068
749	0.068
749	0.068
750	0.068
750	0.067
751	0.067
751	0.067
751	0.066
752	0.066
752	0.065
753	0.064
753	0.064
754	0.063
754	0.063
754	0.063
755	0.063
755	0.063
756	0.062
756	0.061
757	0.06
757	0.06
758	0.06
758	0.06
758	0.059
759	0.059
759	0.059
760	0.058
760	0.058
761	0.058
761	0.059
761	0.06
762	0.06
762	0.061
763	0.061
763	0.061
764	0.06
764	0.06
764	0.06
765	0.06
765	0.059
766	0.059
766	0.059
767	0.058
767	0.058
768	0.057
768	0.057
768	0.057
769	0.057
769	0.056
770	0.056
770	0.056
771	0.056
771	0.056
771	0.056
772	0.056
772	0.057
773	0.057
773	0.057
774	0.057
774	0.057
775	0.057
775	0.057
775	0.057
776	0.057
776	0.057
777	0.057
777	0.057
778	0.057
778	0.056
778	0.056
779	0.056
779	0.056
780	0.055
780	0.055
781	0.055
781	0.054
781	0.054
782	0.054
782	0.054
783	0.055
783	0.055
784	0.055
784	0.055
784	0.055
785	0.055
785	0.055
786	0.055
786	0.056
787	0.056
787	0.056
788	0.055
788	0.055
788	0.055
789	0.055
789	0.055
790	0.055
790	0.055
791	0.055
791	0.055
791	0.055
792	0.055
792	0.055
793	0.055
793	0.055
794	0.054
794	0.054
794	0.053
795	0.053
795	0.053
796	0.053
796	0.053
797	0.053
797	0.053
797	0.053
798	0.052
798	0.052
799	0.051
799	0.051
800	0.05
800	0.05
801	0.049
801	0.049
801	0.049
802	0.049
802	0.049
803	0.05
803	0.05
804	0.051
804	0.052
804	0.052
805	0.052
805	0.052
806	0.052
806	0.052
807	0.052
807	0.051
807	0.051
808	0.051
808	0.05
809	0.05
809	0.05
810	0.05
810	0.05
810	0.05
811	0.05
811	0.051
812	0.051
812	0.052
813	0.052
813	0.052
813	0.052
814	0.052
814	0.052
815	0.053
815	0.053
816	0.054
816	0.053
817	0.053
817	0.053
817	0.053
818	0.053
818	0.053
819	0.053
819	0.052
820	0.052
820	0.051
820	0.051
821	0.051
821	0.051
822	0.051
822	0.05
823	0.05
823	0.05
823	0.05
824	0.05
824	0.051
825	0.051
825	0.051
826	0.051
826	0.051
826	0.05
827	0.05
827	0.05
828	0.05
828	0.049
829	0.049
829	0.049
829	0.048
830	0.048
830	0.048
831	0.049
831	0.049
832	0.049
832	0.05
832	0.05
833	0.05
833	0.05
834	0.051
834	0.051
835	0.051
835	0.051
835	0.052
836	0.052
836	0.053
837	0.053
837	0.053
838	0.053
838	0.053
839	0.053
839	0.052
839	0.051
840	0.051
840	0.05
841	0.049
841	0.048
842	0.047
842	0.047
842	0.047
843	0.046
843	0.046
844	0.046
844	0.046
845	0.046
845	0.046
845	0.046
846	0.046
846	0.046
847	0.046
847	0.046
848	0.047
848	0.047
848	0.047
849	0.048
849	0.048
850	0.048
850	0.048
851	0.048
851	0.047
851	0.047
852	0.046
852	0.045
853	0.044
853	0.043
854	0.042
854	0.042
854	0.042
855	0.042
855	0.042
856	0.043
856	0.043
857	0.044
857	0.045
857	0.045
858	0.046
858	0.046
859	0.046
859	0.045
860	0.045
860	0.045
860	0.044
861	0.044
861	0.043
862	0.042
862	0.041
863	0.041
863	0.041
863	0.041
864	0.041
864	0.041
865	0.041
865	0.04
866	0.04
866	0.04
866	0.04
867	0.04
867	0.04
868	0.04
868	0.04
869	0.04
869	0.04
869	0.04
870	0.04
870	0.041
871	0.042
871	0.043
872	0.043
872	0.044
872	0.045
873	0.045
873	0.045
874	0.045
874	0.045
875	0.045
875	0.045
875	0.045
876	0.045
876	0.044
877	0.044
877	0.045
878	0.045
878	0.045
878	0.046
879	0.046
879	0.047
880	0.047
880	0.047
881	0.047
881	0.046
881	0.046
882	0.045
882	0.044
883	0.043
883	0.042
884	0.042
884	0.041
884	0.04
885	0.04
885	0.039
886	0.039
886	0.039
887	0.039
887	0.039
887	0.039
888	0.039
888	0.038
889	0.039
889	0.039
890	0.039
890	0.039
890	0.039
891	0.039
891	0.04
892	0.04
892	0.041
893	0.041
893	0.042
893	0.042
894	0.043
894	0.043
895	0.043
895	0.043
895	0.043
896	0.043
896	0.043
897	0.043
897	0.042
898	0.042
898	0.041
898	0.041
899	0.041
899	0.041
900	0.041
900	0.041
901	0.041
901	0.041
901	0.041
902	0.041
902	0.041
903	0.041
903	0.041
904	0.041
904	0.041
904	0.041
905	0.041
905	0.041
906	0.041
906	0.041
907	0.041
907	0.042
907	0.042
908	0.042
908	0.043
909	0.043
909	0.043
910	0.044
910	0.044
910	0.044
911	0.044
911	0.044
912	0.044
912	0.044
913	0.044
913	0.044
913	0.044
914	0.043
914	0.043
915	0.043
915	0.043
916	0.043
916	0.042
916	0.042
917	0.041
917	0.04
918	0.04
918	0.039
918	0.039
919	0.039
919	0.038
920	0.038
920	0.038
921	0.039
921	0.039
921	0.039
922	0.039
922	0.04
923	0.04
923	0.041
924	0.041
924	0.042
924	0.042
925	0.042
925	0.043
926	0.043
926	0.043
927	0.043
927	0.043
927	0.043
928	0.043
928	0.043
929	0.043
929	0.042
930	0.042
930	0.042
930	0.042
931	0.041
931	0.041
932	0.041
932	0.04
933	0.039
933	0.039
933	0.038
934	0.037
934	0.037
935	0.036
935	0.036
935	0.036
936	0.036
936	0.036
937	0.037
937	0.037
938	0.037
938	0.038
938	0.038
939	0.038
939	0.038
940	0.039
940	0.039
941	0.04
941	0.04
941	0.041
942	0.042
942	0.042
943	0.042
943	0.043
944	0.043
944	0.043
944	0.044
945	0.044
945	0.044
946	0.044
946	0.045
946	0.045
947	0.045
947	0.045
948	0.046
948	0.046
949	0.046
949	0.046
949	0.046
950	0.046
950	0.046
951	0.046
951	0.045
952	0.045
952	0.045
952	0.045
953	0.045
953	0.044
954	0.044
954	0.043
955	0.043
955	0.043
955	0.042
956	0.043
956	0.043
957	0.043
957	0.043
957	0.043
958	0.044
958	0.044
959	0.044
959	0.045
960	0.046
960	0.046
960	0.046
961	0.046
961	0.046
962	0.046
962	0.046
963	0.046
963	0.046
963	0.046
964	0.045
964	0.045
965	0.045
965	0.045
966	0.045
966	0.045
966	0.045
967	0.045
967	0.045
968	0.045
968	0.045
968	0.045
969	0.045
969	0.045
970	0.045
970	0.045
971	0.045
971	0.045
971	0.045
972	0.045
972	0.045
973	0.044
973	0.044
974	0.044
974	0.045
974	0.045
975	0.045
975	0.045
976	0.045
976	0.045
976	0.045
977	0.046
977	0.046
978	0.046
978	0.046
979	0.046
979	0.046
979	0.046
980	0.046
980	0.046
981	0.045
981	0.045
982	0.045
982	0.044
982	0.043
983	0.042
983	0.041
984	0.04
984	0.039
984	0.037
985	0.036
985	0.035
986	0.034
986	0.033
987	0.033
987	0.032
987	0.032
988	0.032
988	0.032
989	0.032
989	0.032
990	0.032
990	0.032
990	0.032
991	0.032
991	0.032
992	0.033
992	0.032
992	0.032
993	0.032
993	0.032
994	0.032
994	0.033
995	0.033
995	0.033
995	0.033
996	0.034
996	0.034
997	0.035
997	0.035
997	0.036
998	0.037
998	0.038
999	0.039
999	0.04
1000	0.041
1000	0.042
1000	0.042
1001	0.043
1001	0.044
1002	0.044
1002	0.044
1003	0.044
1003	0.044
1003	0.044
1004	0.043
1004	0.043
1005	0.042
1005	0.042
1005	0.041
1006	0.04
1006	0.04
1007	0.04
1007	0.039
1008	0.039
1008	0.039
1008	0.039
1009	0.039
1009	0.038
1010	0.038
1010	0.038
1010	0.037
1011	0.037
1011	0.037
1012	0.036
1012	0.036
1013	0.036
1013	0.036
1013	0.036
1014	0.035
1014	0.035
1015	0.035
1015	0.035
1016	0.035
1016	0.035
1016	0.035
1017	0.035
1017	0.034
1018	0.034
1018	0.034
1018	0.034
1019	0.034
1019	0.034
1020	0.034
1020	0.034
1021	0.034
1021	0.034
1021	0.034
1022	0.034
1022	0.034
1023	0.034
1023	0.034
1023	0.035
1024	0.034
1024	0.034
1025	0.034
1025	0.034
1026	0.033
1026	0.033
1026	0.032
1027	0.032
1027	0.031
1028	0.031
1028	0.03
1028	0.03
1029	0.03
1029	0.03
1030	0.03
1030	0.03
1031	0.031
1031	0.031
1031	0.031
1032	0.031
1032	0.032
1033	0.032
1033	0.032
1033	0.033
1034	0.033
1034	0.033
1035	0.033
1035	0.033
1036	0.033
1036	0.033
1036	0.033
1037	0.033
1037	0.033
1038	0.033
1038	0.033
1039	0.033
1039	0.034
1039	0.034
1040	0.034
1040	0.034
1041	0.034
1041	0.034
1041	0.034
1042	0.035
1042	0.035
1043	0.035
1043	0.035
1044	0.035
1044	0.035
1044	0.035
1045	0.035
1045	0.035
1046	0.036
1046	0.036
1046	0.036
1047	0.037
1047	0.037
1048	0.038
1048	0.038
1049	0.038
1049	0.038
1049	0.039
1050	0.038
1050	0.037
1051	0.037
1051	0.036
1051	0.036
1052	0.035
1052	0.034
1053	0.033
1053	0.031
1053	0.031
1054	0.03
1054	0.03
1055	0.029
1055	0.029
1056	0.029
1056	0.029
1056	0.028
1057	0.028
1057	0.028
1058	0.028
1058	0.027
1058	0.027
1059	0.026
1059	0.026
1060	0.026
1060	0.025
1061	0.025
1061	0.025
1061	0.025
1062	0.024
1062	0.024
1063	0.024
1063	0.024
1063	0.024
1064	0.024
1064	0.024
1065	0.024
1065	0.024
1066	0.024
1066	0.024
1066	0.024
1067	0.024
1067	0.024
1068	0.024
1068	0.024
1068	0.023
1069	0.023
1069	0.022
1070	0.022
1070	0.022
1071	0.021
1071	0.02
1071	0.02
1072	0.02
1072	0.019
1073	0.018
1073	0.018
1073	0.018
1074	0.018
1074	0.018
1075	0.018
1075	0.018
1076	0.019
1076	0.019
1076	0.019
1077	0.02
1077	0.02
1078	0.02
1078	0.02
1078	0.021
1079	0.021
1079	0.021
1080	0.02
1080	0.021
1080	0.021
1081	0.021
1081	0.022
1082	0.022
1082	0.022
1083	0.022
1083	0.022
1083	0.022
1084	0.022
1084	0.022
1085	0.022
1085	0.022
1085	0.023
1086	0.022
1086	0.021
1087	0.021
1087	0.021
1088	0.02
1088	0.02
1088	0.02
1089	0.019
1089	0.019
1090	0.018
1090	0.017
1090	0.016
1091	0.015
1091	0.015
1092	0.015
1092	0.015
1092	0.015
1093	0.014
1093	0.014
1094	0.014
1094	0.014
1095	0.014
1095	0.014
1095	0.014
1096	0.013
1096	0.012
1097	0.011
1097	0.011
1097	0.01
1098	0.01
1098	0.009
1099	0.009
1099	0.008
1100	0.007
1100	0.005
1100	0.004
1101	0.003
1101	0.003
1102	0.002
1102	0.001
1102	-0
1103	-0.001
1103	-0.002
1104	-0.002
1104	-0.003
1104	-0.003
1105	-0.004
1105	-0.005
1106	-0.006
1106	-0.008
1107	-0.009
1107	-0.01
1107	-0.012
1108	-0.013
1108	-0.015
1109	-0.017
1109	-0.019
1109	-0.02
1110	-0.019
1110	-0.022
1111	-0.022
1111	-0.026
