Data from reversibility-20sec_Absorbance__4866__000000000004866.txt Node

Date: Wed Dec 06 15:15:07 CET 2023
User: Marek
Spectrometer: MAYP115816
Trigger mode: 0
Integration Time (sec): 2.000000E-1
Scans to average: 10
Electric dark correction enabled: true
Nonlinearity correction enabled: true
Boxcar width: 5
XAxis mode: Wavelengths
Number of Pixels in Spectrum: 2068
>>>>>Begin Spectral Data<<<<<
199	-0.128
199	-0.1
200	-0.045
200	0.009
201	0.03
201	0.05
202	0.06
202	0.069
203	0.077
203	0.08
204	0.094
204	0.108
205	0.119
205	0.127
205	0.124
206	0.128
206	0.127
207	0.129
207	0.128
208	0.129
208	0.13
209	0.133
209	0.13
210	0.13
210	0.132
211	0.135
211	0.136
212	0.135
212	0.138
213	0.143
213	0.142
213	0.141
214	0.143
214	0.146
215	0.147
215	0.146
216	0.145
216	0.144
217	0.15
217	0.15
218	0.148
218	0.154
219	0.16
219	0.159
220	0.162
220	0.165
221	0.167
221	0.171
221	0.177
222	0.18
222	0.184
223	0.193
223	0.197
224	0.201
224	0.208
225	0.218
225	0.228
226	0.238
226	0.248
227	0.256
227	0.269
228	0.286
228	0.298
229	0.315
229	0.339
229	0.363
230	0.388
230	0.417
231	0.449
231	0.485
232	0.525
232	0.569
233	0.611
233	0.662
234	0.711
234	0.757
235	0.811
235	0.867
236	0.919
236	0.97
236	1.023
237	1.075
237	1.122
238	1.168
238	1.214
239	1.26
239	1.305
240	1.345
240	1.378
241	1.413
241	1.446
242	1.477
242	1.509
243	1.538
243	1.565
243	1.591
244	1.612
244	1.635
245	1.652
245	1.673
246	1.691
246	1.711
247	1.725
247	1.738
248	1.753
248	1.766
249	1.774
249	1.781
250	1.79
250	1.797
250	1.801
251	1.808
251	1.807
252	1.814
252	1.814
253	1.813
253	1.814
254	1.814
254	1.816
255	1.814
255	1.815
256	1.815
256	1.813
257	1.813
257	1.81
258	1.811
258	1.81
258	1.808
259	1.808
259	1.806
260	1.805
260	1.804
261	1.804
261	1.806
262	1.807
262	1.809
263	1.81
263	1.812
264	1.813
264	1.813
265	1.816
265	1.818
265	1.819
266	1.817
266	1.818
267	1.815
267	1.816
268	1.815
268	1.814
269	1.816
269	1.814
270	1.812
270	1.809
271	1.807
271	1.807
272	1.804
272	1.803
272	1.8
273	1.795
273	1.791
274	1.785
274	1.779
275	1.773
275	1.768
276	1.76
276	1.752
277	1.744
277	1.735
278	1.724
278	1.712
278	1.698
279	1.683
279	1.667
280	1.645
280	1.617
281	1.585
281	1.55
282	1.513
282	1.474
283	1.436
283	1.398
284	1.362
284	1.326
285	1.291
285	1.26
285	1.232
286	1.207
286	1.185
287	1.166
287	1.149
288	1.134
288	1.122
289	1.111
289	1.101
290	1.093
290	1.086
291	1.079
291	1.073
292	1.068
292	1.063
292	1.058
293	1.054
293	1.05
294	1.047
294	1.043
295	1.04
295	1.036
296	1.033
296	1.03
297	1.027
297	1.024
298	1.021
298	1.018
298	1.015
299	1.012
299	1.009
300	1.005
300	1.003
301	1
301	0.997
302	0.994
302	0.992
303	0.989
303	0.987
304	0.984
304	0.981
305	0.979
305	0.977
305	0.974
306	0.971
306	0.969
307	0.966
307	0.964
308	0.961
308	0.958
309	0.955
309	0.952
310	0.949
310	0.946
311	0.943
311	0.939
311	0.935
312	0.932
312	0.928
313	0.924
313	0.92
314	0.916
314	0.912
315	0.908
315	0.904
316	0.9
316	0.895
317	0.891
317	0.886
318	0.881
318	0.876
318	0.871
319	0.865
319	0.86
320	0.854
320	0.848
321	0.843
321	0.836
322	0.83
322	0.824
323	0.818
323	0.811
324	0.805
324	0.798
324	0.791
325	0.785
325	0.778
326	0.771
326	0.765
327	0.758
327	0.751
328	0.744
328	0.738
329	0.731
329	0.723
330	0.716
330	0.709
330	0.702
331	0.695
331	0.688
332	0.681
332	0.674
333	0.667
333	0.66
334	0.654
334	0.647
335	0.64
335	0.634
336	0.627
336	0.621
336	0.614
337	0.608
337	0.602
338	0.595
338	0.59
339	0.584
339	0.578
340	0.572
340	0.567
341	0.561
341	0.556
342	0.55
342	0.545
342	0.539
343	0.534
343	0.529
344	0.524
344	0.519
345	0.514
345	0.51
346	0.506
346	0.501
347	0.497
347	0.492
348	0.488
348	0.485
348	0.481
349	0.477
349	0.474
350	0.47
350	0.466
351	0.463
351	0.46
352	0.457
352	0.454
353	0.451
353	0.447
354	0.444
354	0.441
354	0.438
355	0.435
355	0.432
356	0.429
356	0.426
357	0.423
357	0.42
358	0.418
358	0.415
359	0.413
359	0.411
360	0.409
360	0.407
360	0.405
361	0.403
361	0.401
362	0.399
362	0.397
363	0.396
363	0.394
364	0.391
364	0.389
365	0.387
365	0.385
366	0.384
366	0.382
366	0.38
367	0.378
367	0.377
368	0.375
368	0.373
369	0.372
369	0.37
370	0.369
370	0.368
371	0.366
371	0.364
372	0.363
372	0.362
372	0.361
373	0.359
373	0.358
374	0.357
374	0.356
375	0.355
375	0.354
376	0.353
376	0.352
377	0.351
377	0.35
378	0.349
378	0.348
378	0.347
379	0.346
379	0.345
380	0.344
380	0.343
381	0.342
381	0.341
382	0.34
382	0.34
383	0.339
383	0.338
383	0.338
384	0.337
384	0.336
385	0.336
385	0.335
386	0.335
386	0.334
387	0.334
387	0.333
388	0.333
388	0.332
389	0.331
389	0.331
389	0.33
390	0.33
390	0.329
391	0.329
391	0.328
392	0.327
392	0.327
393	0.327
393	0.326
394	0.326
394	0.325
394	0.324
395	0.324
395	0.323
396	0.323
396	0.322
397	0.322
397	0.321
398	0.321
398	0.32
399	0.32
399	0.32
400	0.319
400	0.319
400	0.319
401	0.318
401	0.318
402	0.318
402	0.317
403	0.317
403	0.316
404	0.316
404	0.316
405	0.315
405	0.315
405	0.314
406	0.314
406	0.313
407	0.313
407	0.313
408	0.312
408	0.312
409	0.311
409	0.311
410	0.311
410	0.311
411	0.31
411	0.31
411	0.309
412	0.309
412	0.309
413	0.308
413	0.308
414	0.307
414	0.307
415	0.306
415	0.306
416	0.306
416	0.305
416	0.305
417	0.305
417	0.304
418	0.304
418	0.303
419	0.303
419	0.302
420	0.302
420	0.302
421	0.302
421	0.301
421	0.301
422	0.301
422	0.3
423	0.3
423	0.3
424	0.299
424	0.299
425	0.299
425	0.298
426	0.298
426	0.297
427	0.297
427	0.297
427	0.296
428	0.296
428	0.296
429	0.295
429	0.295
430	0.295
430	0.295
431	0.295
431	0.295
432	0.295
432	0.295
432	0.294
433	0.294
433	0.294
434	0.294
434	0.294
435	0.293
435	0.293
436	0.293
436	0.293
437	0.292
437	0.292
437	0.292
438	0.291
438	0.291
439	0.291
439	0.291
440	0.291
440	0.291
441	0.29
441	0.29
442	0.29
442	0.29
442	0.29
443	0.29
443	0.29
444	0.29
444	0.29
445	0.29
445	0.29
446	0.289
446	0.289
447	0.289
447	0.289
447	0.288
448	0.288
448	0.288
449	0.288
449	0.288
450	0.288
450	0.288
451	0.288
451	0.288
452	0.288
452	0.288
452	0.288
453	0.288
453	0.288
454	0.288
454	0.287
455	0.287
455	0.287
456	0.287
456	0.287
457	0.287
457	0.286
458	0.286
458	0.286
458	0.286
459	0.286
459	0.286
460	0.287
460	0.287
461	0.287
461	0.286
462	0.286
462	0.286
463	0.286
463	0.286
463	0.287
464	0.287
464	0.287
465	0.287
465	0.287
466	0.287
466	0.287
467	0.287
467	0.287
467	0.288
468	0.288
468	0.288
469	0.288
469	0.289
470	0.289
470	0.289
471	0.29
471	0.29
472	0.29
472	0.291
472	0.291
473	0.291
473	0.292
474	0.292
474	0.292
475	0.293
475	0.293
476	0.293
476	0.294
477	0.294
477	0.295
477	0.295
478	0.296
478	0.296
479	0.297
479	0.298
480	0.298
480	0.299
481	0.299
481	0.299
482	0.3
482	0.301
482	0.301
483	0.302
483	0.302
484	0.303
484	0.304
485	0.305
485	0.305
486	0.306
486	0.307
487	0.307
487	0.308
487	0.309
488	0.31
488	0.311
489	0.312
489	0.313
490	0.314
490	0.315
491	0.317
491	0.318
492	0.319
492	0.32
492	0.322
493	0.323
493	0.324
494	0.324
494	0.326
495	0.327
495	0.328
496	0.329
496	0.33
496	0.331
497	0.332
497	0.333
498	0.335
498	0.336
499	0.337
499	0.338
500	0.34
500	0.341
501	0.343
501	0.344
501	0.345
502	0.346
502	0.347
503	0.349
503	0.35
504	0.351
504	0.352
505	0.353
505	0.354
506	0.356
506	0.357
506	0.358
507	0.36
507	0.361
508	0.362
508	0.363
509	0.364
509	0.365
510	0.366
510	0.367
511	0.368
511	0.369
511	0.37
512	0.372
512	0.372
513	0.373
513	0.374
514	0.375
514	0.376
515	0.377
515	0.377
515	0.378
516	0.379
516	0.379
517	0.38
517	0.38
518	0.381
518	0.381
519	0.382
519	0.382
520	0.383
520	0.383
520	0.383
521	0.383
521	0.383
522	0.383
522	0.383
523	0.382
523	0.382
524	0.382
524	0.382
524	0.381
525	0.381
525	0.38
526	0.38
526	0.379
527	0.379
527	0.378
528	0.378
528	0.377
529	0.377
529	0.376
529	0.375
530	0.374
530	0.373
531	0.372
531	0.371
532	0.37
532	0.369
533	0.368
533	0.366
533	0.365
534	0.364
534	0.362
535	0.361
535	0.36
536	0.359
536	0.357
537	0.356
537	0.355
538	0.353
538	0.351
538	0.35
539	0.348
539	0.346
540	0.344
540	0.342
541	0.341
541	0.339
542	0.337
542	0.335
542	0.333
543	0.331
543	0.329
544	0.327
544	0.325
545	0.324
545	0.322
546	0.32
546	0.318
547	0.316
547	0.314
547	0.312
548	0.31
548	0.309
549	0.307
549	0.305
550	0.303
550	0.301
551	0.299
551	0.297
551	0.295
552	0.293
552	0.291
553	0.289
553	0.287
554	0.285
554	0.283
555	0.281
555	0.279
556	0.277
556	0.275
556	0.273
557	0.272
557	0.27
558	0.268
558	0.267
559	0.265
559	0.263
560	0.261
560	0.26
560	0.258
561	0.257
561	0.255
562	0.253
562	0.251
563	0.249
563	0.247
564	0.245
564	0.244
564	0.242
565	0.241
565	0.239
566	0.238
566	0.236
567	0.235
567	0.233
568	0.232
568	0.23
568	0.229
569	0.228
569	0.226
570	0.224
570	0.222
571	0.221
571	0.22
572	0.218
572	0.217
573	0.216
573	0.215
573	0.213
574	0.212
574	0.211
575	0.21
575	0.209
576	0.208
576	0.207
577	0.205
577	0.204
577	0.203
578	0.201
578	0.2
579	0.199
579	0.199
580	0.197
580	0.196
581	0.194
581	0.193
581	0.193
582	0.192
582	0.191
583	0.191
583	0.189
584	0.188
584	0.186
585	0.185
585	0.184
585	0.183
586	0.182
586	0.181
587	0.18
587	0.179
588	0.178
588	0.177
589	0.176
589	0.176
590	0.175
590	0.175
590	0.175
591	0.174
591	0.173
592	0.172
592	0.171
593	0.171
593	0.17
594	0.169
594	0.168
594	0.167
595	0.166
595	0.165
596	0.164
596	0.164
597	0.164
597	0.163
598	0.163
598	0.162
598	0.162
599	0.161
599	0.16
600	0.159
600	0.158
601	0.158
601	0.157
602	0.156
602	0.155
602	0.155
603	0.154
603	0.154
604	0.154
604	0.154
605	0.153
605	0.153
606	0.153
606	0.152
606	0.151
607	0.151
607	0.151
608	0.15
608	0.149
609	0.148
609	0.148
610	0.147
610	0.147
610	0.146
611	0.146
611	0.145
612	0.145
612	0.145
613	0.144
613	0.144
614	0.143
614	0.143
614	0.142
615	0.142
615	0.141
616	0.141
616	0.14
617	0.14
617	0.139
618	0.139
618	0.138
618	0.138
619	0.138
619	0.137
620	0.137
620	0.137
621	0.136
621	0.136
622	0.135
622	0.135
622	0.134
623	0.134
623	0.134
624	0.133
624	0.133
625	0.132
625	0.132
626	0.131
626	0.131
626	0.131
627	0.131
627	0.131
628	0.13
628	0.13
629	0.129
629	0.129
630	0.128
630	0.128
630	0.128
631	0.128
631	0.127
632	0.127
632	0.126
633	0.126
633	0.126
634	0.126
634	0.126
634	0.126
635	0.126
635	0.125
636	0.124
636	0.124
637	0.124
637	0.123
638	0.123
638	0.122
638	0.121
639	0.121
639	0.121
640	0.12
640	0.12
641	0.12
641	0.12
642	0.12
642	0.12
642	0.12
643	0.12
643	0.12
644	0.12
644	0.12
645	0.119
645	0.119
646	0.119
646	0.119
646	0.119
647	0.118
647	0.118
648	0.117
648	0.117
649	0.116
649	0.116
650	0.116
650	0.116
650	0.116
651	0.116
651	0.116
652	0.116
652	0.116
653	0.117
653	0.118
653	0.123
654	0.099
654	0.08
655	0.079
655	0.078
656	0.079
656	0.079
657	0.079
657	0.079
657	0.079
658	0.078
658	0.07
659	0.088
659	0.111
660	0.116
660	0.116
661	0.116
661	0.115
661	0.115
662	0.115
662	0.115
663	0.114
663	0.114
664	0.114
664	0.114
665	0.114
665	0.113
665	0.114
666	0.113
666	0.113
667	0.113
667	0.113
668	0.113
668	0.113
669	0.112
669	0.113
669	0.113
670	0.113
670	0.113
671	0.113
671	0.112
672	0.112
672	0.111
672	0.111
673	0.11
673	0.11
674	0.11
674	0.109
675	0.109
675	0.108
676	0.109
676	0.109
676	0.109
677	0.109
677	0.109
678	0.108
678	0.108
679	0.107
679	0.107
680	0.107
680	0.106
680	0.106
681	0.106
681	0.106
682	0.106
682	0.106
683	0.107
683	0.108
684	0.108
684	0.108
684	0.107
685	0.108
685	0.108
686	0.108
686	0.108
687	0.108
687	0.108
687	0.108
688	0.108
688	0.107
689	0.108
689	0.108
690	0.108
690	0.107
691	0.107
691	0.107
691	0.107
692	0.107
692	0.107
693	0.107
693	0.108
694	0.108
694	0.108
695	0.109
695	0.11
695	0.11
696	0.11
696	0.11
697	0.11
697	0.11
698	0.11
698	0.109
698	0.109
699	0.108
699	0.108
700	0.106
700	0.106
701	0.106
701	0.105
702	0.105
702	0.104
702	0.104
703	0.103
703	0.103
704	0.103
704	0.103
705	0.103
705	0.103
705	0.103
706	0.103
706	0.104
707	0.104
707	0.104
708	0.105
708	0.105
709	0.106
709	0.106
709	0.105
710	0.105
710	0.106
711	0.106
711	0.106
712	0.105
712	0.105
713	0.105
713	0.104
713	0.104
714	0.104
714	0.103
715	0.103
715	0.102
716	0.101
716	0.101
716	0.101
717	0.1
717	0.1
718	0.1
718	0.1
719	0.101
719	0.101
720	0.101
720	0.102
720	0.102
721	0.102
721	0.102
722	0.103
722	0.103
723	0.103
723	0.103
723	0.103
724	0.102
724	0.102
725	0.101
725	0.101
726	0.1
726	0.1
727	0.1
727	0.1
727	0.1
728	0.099
728	0.099
729	0.1
729	0.1
730	0.1
730	0.1
730	0.101
731	0.101
731	0.101
732	0.102
732	0.102
733	0.103
733	0.103
734	0.103
734	0.104
734	0.104
735	0.105
735	0.105
736	0.104
736	0.104
737	0.104
737	0.104
737	0.104
738	0.103
738	0.102
739	0.101
739	0.101
740	0.1
740	0.099
741	0.099
741	0.099
741	0.098
742	0.098
742	0.099
743	0.099
743	0.1
744	0.1
744	0.101
744	0.101
745	0.101
745	0.101
746	0.1
746	0.1
747	0.1
747	0.1
748	0.099
748	0.099
748	0.098
749	0.098
749	0.098
750	0.098
750	0.097
751	0.097
751	0.097
751	0.097
752	0.097
752	0.096
753	0.096
753	0.095
754	0.095
754	0.094
754	0.094
755	0.094
755	0.094
756	0.093
756	0.091
757	0.091
757	0.091
758	0.091
758	0.091
758	0.091
759	0.091
759	0.091
760	0.091
760	0.091
761	0.091
761	0.092
761	0.092
762	0.092
762	0.092
763	0.092
763	0.091
764	0.091
764	0.09
764	0.09
765	0.09
765	0.089
766	0.089
766	0.089
767	0.089
767	0.088
768	0.088
768	0.088
768	0.089
769	0.089
769	0.089
770	0.09
770	0.09
771	0.09
771	0.09
771	0.09
772	0.091
772	0.091
773	0.091
773	0.091
774	0.091
774	0.09
775	0.09
775	0.09
775	0.09
776	0.09
776	0.091
777	0.091
777	0.091
778	0.09
778	0.09
778	0.089
779	0.089
779	0.088
780	0.087
780	0.086
781	0.086
781	0.085
781	0.085
782	0.085
782	0.085
783	0.085
783	0.086
784	0.086
784	0.086
784	0.087
785	0.087
785	0.087
786	0.087
786	0.087
787	0.087
787	0.087
788	0.087
788	0.086
788	0.085
789	0.084
789	0.084
790	0.083
790	0.083
791	0.082
791	0.08
791	0.079
792	0.079
792	0.079
793	0.078
793	0.078
794	0.077
794	0.077
794	0.076
795	0.076
795	0.077
796	0.077
796	0.077
797	0.077
797	0.077
797	0.078
798	0.078
798	0.078
799	0.078
799	0.078
800	0.078
800	0.077
801	0.076
801	0.076
801	0.075
802	0.075
802	0.074
803	0.074
803	0.073
804	0.073
804	0.073
804	0.072
805	0.072
805	0.072
806	0.071
806	0.072
807	0.072
807	0.072
807	0.072
808	0.073
808	0.073
809	0.073
809	0.073
810	0.073
810	0.073
810	0.072
811	0.072
811	0.072
812	0.072
812	0.072
813	0.072
813	0.072
813	0.073
814	0.073
814	0.074
815	0.075
815	0.075
816	0.076
816	0.075
817	0.075
817	0.075
817	0.074
818	0.074
818	0.073
819	0.073
819	0.072
820	0.071
820	0.07
820	0.07
821	0.069
821	0.069
822	0.069
822	0.069
823	0.069
823	0.069
823	0.069
824	0.069
824	0.07
825	0.071
825	0.071
826	0.071
826	0.071
826	0.071
827	0.071
827	0.071
828	0.071
828	0.071
829	0.071
829	0.071
829	0.071
830	0.071
830	0.072
831	0.073
831	0.073
832	0.073
832	0.073
832	0.073
833	0.073
833	0.073
834	0.072
834	0.072
835	0.071
835	0.071
835	0.07
836	0.07
836	0.07
837	0.069
837	0.069
838	0.069
838	0.068
839	0.068
839	0.068
839	0.067
840	0.067
840	0.066
841	0.065
841	0.064
842	0.063
842	0.062
842	0.061
843	0.06
843	0.059
844	0.058
844	0.058
845	0.057
845	0.057
845	0.057
846	0.057
846	0.057
847	0.057
847	0.057
848	0.058
848	0.058
848	0.058
849	0.059
849	0.059
850	0.059
850	0.059
851	0.059
851	0.059
851	0.059
852	0.059
852	0.059
853	0.058
853	0.058
854	0.059
854	0.059
854	0.06
855	0.06
855	0.061
856	0.062
856	0.062
857	0.063
857	0.064
857	0.064
858	0.065
858	0.065
859	0.064
859	0.064
860	0.063
860	0.063
860	0.062
861	0.062
861	0.061
862	0.06
862	0.06
863	0.059
863	0.059
863	0.058
864	0.058
864	0.058
865	0.059
865	0.059
866	0.059
866	0.059
866	0.059
867	0.059
867	0.059
868	0.06
868	0.06
869	0.06
869	0.059
869	0.058
870	0.058
870	0.058
871	0.058
871	0.058
872	0.057
872	0.057
872	0.057
873	0.057
873	0.057
874	0.056
874	0.057
875	0.057
875	0.057
875	0.057
876	0.057
876	0.057
877	0.057
877	0.058
878	0.058
878	0.058
878	0.058
879	0.058
879	0.058
880	0.058
880	0.058
881	0.058
881	0.058
881	0.057
882	0.057
882	0.057
883	0.056
883	0.056
884	0.056
884	0.056
884	0.056
885	0.056
885	0.055
886	0.055
886	0.055
887	0.055
887	0.054
887	0.054
888	0.053
888	0.053
889	0.052
889	0.052
890	0.052
890	0.052
890	0.052
891	0.052
891	0.052
892	0.052
892	0.052
893	0.051
893	0.051
893	0.051
894	0.05
894	0.049
895	0.049
895	0.049
895	0.048
896	0.048
896	0.049
897	0.049
897	0.049
898	0.049
898	0.049
898	0.05
899	0.05
899	0.051
900	0.051
900	0.051
901	0.051
901	0.052
901	0.052
902	0.052
902	0.052
903	0.052
903	0.052
904	0.052
904	0.051
904	0.05
905	0.05
905	0.05
906	0.049
906	0.049
907	0.049
907	0.049
907	0.049
908	0.049
908	0.049
909	0.049
909	0.049
910	0.05
910	0.05
910	0.049
911	0.049
911	0.049
912	0.048
912	0.048
913	0.047
913	0.047
913	0.046
914	0.046
914	0.046
915	0.046
915	0.046
916	0.046
916	0.046
916	0.046
917	0.046
917	0.046
918	0.047
918	0.047
918	0.047
919	0.048
919	0.048
920	0.048
920	0.048
921	0.049
921	0.049
921	0.049
922	0.049
922	0.049
923	0.049
923	0.05
924	0.05
924	0.05
924	0.05
925	0.051
925	0.051
926	0.051
926	0.051
927	0.051
927	0.051
927	0.051
928	0.05
928	0.05
929	0.05
929	0.049
930	0.049
930	0.048
930	0.048
931	0.048
931	0.048
932	0.048
932	0.048
933	0.048
933	0.047
933	0.047
934	0.047
934	0.047
935	0.046
935	0.046
935	0.045
936	0.045
936	0.045
937	0.044
937	0.044
938	0.044
938	0.043
938	0.043
939	0.043
939	0.043
940	0.042
940	0.042
941	0.042
941	0.043
941	0.043
942	0.043
942	0.043
943	0.044
943	0.044
944	0.045
944	0.045
944	0.046
945	0.046
945	0.046
946	0.046
946	0.046
946	0.047
947	0.047
947	0.047
948	0.046
948	0.046
949	0.046
949	0.046
949	0.045
950	0.045
950	0.045
951	0.044
951	0.043
952	0.042
952	0.042
952	0.042
953	0.041
953	0.041
954	0.041
954	0.041
955	0.041
955	0.041
955	0.041
956	0.041
956	0.042
957	0.043
957	0.043
957	0.043
958	0.044
958	0.044
959	0.044
959	0.044
960	0.044
960	0.044
960	0.044
961	0.044
961	0.044
962	0.044
962	0.044
963	0.044
963	0.044
963	0.044
964	0.044
964	0.044
965	0.044
965	0.044
966	0.044
966	0.044
966	0.044
967	0.044
967	0.044
968	0.044
968	0.044
968	0.043
969	0.043
969	0.043
970	0.042
970	0.042
971	0.041
971	0.041
971	0.041
972	0.04
972	0.04
973	0.039
973	0.039
974	0.039
974	0.039
974	0.038
975	0.038
975	0.038
976	0.039
976	0.039
976	0.039
977	0.039
977	0.039
978	0.039
978	0.039
979	0.039
979	0.039
979	0.039
980	0.039
980	0.038
981	0.038
981	0.038
982	0.038
982	0.039
982	0.039
983	0.039
983	0.04
984	0.04
984	0.041
984	0.041
985	0.042
985	0.042
986	0.042
986	0.042
987	0.043
987	0.043
987	0.043
988	0.043
988	0.043
989	0.043
989	0.043
990	0.043
990	0.043
990	0.043
991	0.043
991	0.043
992	0.042
992	0.042
992	0.041
993	0.041
993	0.04
994	0.04
994	0.039
995	0.039
995	0.039
995	0.039
996	0.038
996	0.038
997	0.038
997	0.038
997	0.039
998	0.039
998	0.04
999	0.04
999	0.041
1000	0.042
1000	0.042
1000	0.043
1001	0.043
1001	0.044
1002	0.044
1002	0.044
1003	0.044
1003	0.043
1003	0.043
1004	0.042
1004	0.042
1005	0.041
1005	0.04
1005	0.04
1006	0.039
1006	0.039
1007	0.038
1007	0.038
1008	0.037
1008	0.037
1008	0.036
1009	0.036
1009	0.036
1010	0.035
1010	0.035
1010	0.035
1011	0.035
1011	0.034
1012	0.034
1012	0.034
1013	0.034
1013	0.034
1013	0.033
1014	0.033
1014	0.033
1015	0.033
1015	0.033
1016	0.033
1016	0.033
1016	0.033
1017	0.033
1017	0.033
1018	0.033
1018	0.033
1018	0.033
1019	0.033
1019	0.033
1020	0.033
1020	0.033
1021	0.033
1021	0.033
1021	0.034
1022	0.034
1022	0.034
1023	0.034
1023	0.035
1023	0.035
1024	0.035
1024	0.035
1025	0.035
1025	0.035
1026	0.035
1026	0.035
1026	0.036
1027	0.036
1027	0.036
1028	0.036
1028	0.037
1028	0.037
1029	0.037
1029	0.037
1030	0.038
1030	0.038
1031	0.038
1031	0.039
1031	0.039
1032	0.039
1032	0.039
1033	0.039
1033	0.039
1033	0.039
1034	0.039
1034	0.039
1035	0.039
1035	0.039
1036	0.039
1036	0.039
1036	0.039
1037	0.039
1037	0.039
1038	0.039
1038	0.039
1039	0.039
1039	0.039
1039	0.039
1040	0.04
1040	0.039
1041	0.04
1041	0.04
1041	0.04
1042	0.04
1042	0.04
1043	0.04
1043	0.04
1044	0.039
1044	0.039
1044	0.039
1045	0.039
1045	0.039
1046	0.039
1046	0.039
1046	0.039
1047	0.039
1047	0.039
1048	0.039
1048	0.039
1049	0.038
1049	0.038
1049	0.038
1050	0.037
1050	0.037
1051	0.036
1051	0.036
1051	0.036
1052	0.035
1052	0.035
1053	0.035
1053	0.034
1053	0.034
1054	0.034
1054	0.034
1055	0.034
1055	0.034
1056	0.033
1056	0.033
1056	0.033
1057	0.032
1057	0.032
1058	0.031
1058	0.03
1058	0.03
1059	0.029
1059	0.029
1060	0.029
1060	0.028
1061	0.028
1061	0.028
1061	0.028
1062	0.027
1062	0.028
1063	0.027
1063	0.027
1063	0.027
1064	0.027
1064	0.027
1065	0.027
1065	0.027
1066	0.027
1066	0.027
1066	0.027
1067	0.027
1067	0.027
1068	0.027
1068	0.028
1068	0.027
1069	0.027
1069	0.027
1070	0.026
1070	0.026
1071	0.026
1071	0.026
1071	0.026
1072	0.026
1072	0.025
1073	0.025
1073	0.025
1073	0.025
1074	0.026
1074	0.026
1075	0.026
1075	0.027
1076	0.027
1076	0.028
1076	0.028
1077	0.028
1077	0.027
1078	0.027
1078	0.027
1078	0.027
1079	0.026
1079	0.026
1080	0.025
1080	0.024
1080	0.024
1081	0.023
1081	0.023
1082	0.023
1082	0.023
1083	0.024
1083	0.023
1083	0.024
1084	0.024
1084	0.025
1085	0.024
1085	0.025
1085	0.025
1086	0.026
1086	0.026
1087	0.026
1087	0.026
1088	0.026
1088	0.026
1088	0.026
1089	0.026
1089	0.026
1090	0.025
1090	0.024
1090	0.024
1091	0.024
1091	0.024
1092	0.024
1092	0.024
1092	0.023
1093	0.023
1093	0.023
1094	0.023
1094	0.022
1095	0.022
1095	0.022
1095	0.022
1096	0.021
1096	0.02
1097	0.02
1097	0.02
1097	0.019
1098	0.019
1098	0.018
1099	0.018
1099	0.017
1100	0.016
1100	0.015
1100	0.014
1101	0.014
1101	0.014
1102	0.013
1102	0.012
1102	0.01
1103	0.01
1103	0.01
1104	0.011
1104	0.011
1104	0.01
1105	0.01
1105	0.008
1106	0.007
1106	0.006
1107	0.007
1107	0.007
1107	0.007
1108	0.006
1108	0.004
1109	0.004
1109	0.004
1109	0.005
1110	0.006
1110	0.006
1111	0.008
1111	0.003
