Data from reversibility-20sec_Absorbance__6237__000000000006237.txt Node

Date: Wed Dec 06 22:52:06 CET 2023
User: Marek
Spectrometer: MAYP115816
Trigger mode: 0
Integration Time (sec): 2.000000E-1
Scans to average: 10
Electric dark correction enabled: true
Nonlinearity correction enabled: true
Boxcar width: 5
XAxis mode: Wavelengths
Number of Pixels in Spectrum: 2068
>>>>>Begin Spectral Data<<<<<
199	-0.135
199	-0.113
200	-0.053
200	-0.006
201	0.024
201	0.043
202	0.057
202	0.065
203	0.071
203	0.073
204	0.087
204	0.1
205	0.116
205	0.124
205	0.124
206	0.124
206	0.123
207	0.126
207	0.124
208	0.125
208	0.125
209	0.127
209	0.126
210	0.125
210	0.125
211	0.128
211	0.13
212	0.129
212	0.13
213	0.135
213	0.134
213	0.135
214	0.135
214	0.135
215	0.136
215	0.133
216	0.132
216	0.131
217	0.131
217	0.133
218	0.132
218	0.138
219	0.143
219	0.147
220	0.149
220	0.148
221	0.149
221	0.151
221	0.159
222	0.166
222	0.17
223	0.175
223	0.176
224	0.181
224	0.186
225	0.195
225	0.208
226	0.22
226	0.232
227	0.238
227	0.248
228	0.261
228	0.279
229	0.296
229	0.319
229	0.34
230	0.362
230	0.388
231	0.417
231	0.455
232	0.493
232	0.537
233	0.581
233	0.626
234	0.679
234	0.727
235	0.781
235	0.836
236	0.889
236	0.942
236	0.991
237	1.042
237	1.09
238	1.137
238	1.184
239	1.23
239	1.274
240	1.314
240	1.351
241	1.385
241	1.417
242	1.448
242	1.481
243	1.511
243	1.538
243	1.563
244	1.584
244	1.603
245	1.619
245	1.64
246	1.661
246	1.68
247	1.695
247	1.708
248	1.723
248	1.736
249	1.748
249	1.754
250	1.764
250	1.773
250	1.776
251	1.78
251	1.782
252	1.786
252	1.787
253	1.787
253	1.783
254	1.781
254	1.781
255	1.778
255	1.777
256	1.775
256	1.774
257	1.775
257	1.774
258	1.773
258	1.772
258	1.772
259	1.772
259	1.772
260	1.772
260	1.774
261	1.775
261	1.778
262	1.779
262	1.779
263	1.781
263	1.782
264	1.783
264	1.785
265	1.787
265	1.788
265	1.789
266	1.789
266	1.789
267	1.787
267	1.79
268	1.788
268	1.789
269	1.792
269	1.791
270	1.79
270	1.788
271	1.786
271	1.785
272	1.782
272	1.781
272	1.775
273	1.77
273	1.763
274	1.756
274	1.749
275	1.743
275	1.736
276	1.728
276	1.72
277	1.711
277	1.701
278	1.69
278	1.677
278	1.663
279	1.646
279	1.625
280	1.598
280	1.566
281	1.529
281	1.487
282	1.443
282	1.399
283	1.356
283	1.314
284	1.274
284	1.234
285	1.197
285	1.164
285	1.135
286	1.109
286	1.087
287	1.067
287	1.051
288	1.036
288	1.024
289	1.014
289	1.006
290	0.998
290	0.991
291	0.985
291	0.98
292	0.975
292	0.971
292	0.967
293	0.963
293	0.96
294	0.956
294	0.953
295	0.951
295	0.948
296	0.945
296	0.942
297	0.939
297	0.936
298	0.933
298	0.931
298	0.928
299	0.925
299	0.922
300	0.92
300	0.917
301	0.915
301	0.912
302	0.91
302	0.907
303	0.905
303	0.902
304	0.9
304	0.899
305	0.896
305	0.894
305	0.892
306	0.889
306	0.887
307	0.884
307	0.882
308	0.879
308	0.877
309	0.874
309	0.871
310	0.868
310	0.865
311	0.863
311	0.86
311	0.857
312	0.853
312	0.85
313	0.847
313	0.843
314	0.84
314	0.836
315	0.832
315	0.828
316	0.823
316	0.819
317	0.814
317	0.809
318	0.804
318	0.799
318	0.794
319	0.789
319	0.784
320	0.778
320	0.772
321	0.766
321	0.76
322	0.754
322	0.748
323	0.742
323	0.735
324	0.729
324	0.722
324	0.715
325	0.709
325	0.702
326	0.695
326	0.688
327	0.681
327	0.675
328	0.668
328	0.661
329	0.654
329	0.647
330	0.64
330	0.632
330	0.625
331	0.619
331	0.612
332	0.605
332	0.598
333	0.591
333	0.584
334	0.577
334	0.57
335	0.563
335	0.557
336	0.55
336	0.544
336	0.537
337	0.531
337	0.525
338	0.519
338	0.513
339	0.507
339	0.501
340	0.495
340	0.489
341	0.483
341	0.478
342	0.472
342	0.467
342	0.462
343	0.456
343	0.451
344	0.446
344	0.441
345	0.437
345	0.432
346	0.428
346	0.423
347	0.419
347	0.415
348	0.41
348	0.407
348	0.403
349	0.399
349	0.395
350	0.392
350	0.388
351	0.384
351	0.381
352	0.378
352	0.375
353	0.372
353	0.369
354	0.367
354	0.364
354	0.361
355	0.358
355	0.355
356	0.353
356	0.35
357	0.347
357	0.345
358	0.342
358	0.339
359	0.337
359	0.335
360	0.333
360	0.331
360	0.329
361	0.327
361	0.325
362	0.324
362	0.322
363	0.321
363	0.319
364	0.317
364	0.315
365	0.314
365	0.312
366	0.31
366	0.309
366	0.307
367	0.305
367	0.303
368	0.302
368	0.3
369	0.299
369	0.298
370	0.296
370	0.295
371	0.293
371	0.292
372	0.291
372	0.29
372	0.289
373	0.288
373	0.287
374	0.286
374	0.285
375	0.284
375	0.283
376	0.282
376	0.281
377	0.281
377	0.28
378	0.279
378	0.278
378	0.277
379	0.276
379	0.276
380	0.275
380	0.274
381	0.274
381	0.273
382	0.273
382	0.272
383	0.272
383	0.271
383	0.271
384	0.27
384	0.269
385	0.269
385	0.268
386	0.268
386	0.267
387	0.267
387	0.267
388	0.266
388	0.266
389	0.266
389	0.265
389	0.265
390	0.265
390	0.265
391	0.264
391	0.264
392	0.264
392	0.263
393	0.263
393	0.262
394	0.262
394	0.262
394	0.261
395	0.261
395	0.261
396	0.26
396	0.26
397	0.26
397	0.259
398	0.259
398	0.259
399	0.259
399	0.258
400	0.258
400	0.258
400	0.258
401	0.257
401	0.257
402	0.257
402	0.257
403	0.256
403	0.256
404	0.256
404	0.256
405	0.255
405	0.255
405	0.255
406	0.254
406	0.254
407	0.254
407	0.253
408	0.253
408	0.253
409	0.252
409	0.252
410	0.252
410	0.252
411	0.252
411	0.251
411	0.251
412	0.251
412	0.251
413	0.25
413	0.25
414	0.25
414	0.25
415	0.249
415	0.249
416	0.249
416	0.248
416	0.248
417	0.248
417	0.247
418	0.247
418	0.247
419	0.246
419	0.246
420	0.246
420	0.245
421	0.245
421	0.244
421	0.244
422	0.244
422	0.243
423	0.243
423	0.243
424	0.242
424	0.242
425	0.242
425	0.242
426	0.241
426	0.241
427	0.241
427	0.24
427	0.24
428	0.239
428	0.239
429	0.239
429	0.239
430	0.238
430	0.238
431	0.238
431	0.238
432	0.238
432	0.237
432	0.237
433	0.237
433	0.237
434	0.237
434	0.237
435	0.237
435	0.236
436	0.236
436	0.236
437	0.236
437	0.236
437	0.235
438	0.235
438	0.235
439	0.235
439	0.234
440	0.234
440	0.234
441	0.234
441	0.233
442	0.233
442	0.233
442	0.233
443	0.232
443	0.232
444	0.232
444	0.232
445	0.232
445	0.231
446	0.231
446	0.23
447	0.23
447	0.23
447	0.23
448	0.23
448	0.229
449	0.229
449	0.229
450	0.229
450	0.229
451	0.229
451	0.229
452	0.229
452	0.229
452	0.228
453	0.228
453	0.228
454	0.228
454	0.228
455	0.227
455	0.227
456	0.227
456	0.226
457	0.226
457	0.226
458	0.226
458	0.226
458	0.226
459	0.225
459	0.225
460	0.225
460	0.225
461	0.225
461	0.225
462	0.224
462	0.224
463	0.224
463	0.223
463	0.223
464	0.223
464	0.222
465	0.222
465	0.222
466	0.222
466	0.222
467	0.222
467	0.222
467	0.222
468	0.222
468	0.222
469	0.222
469	0.222
470	0.222
470	0.223
471	0.222
471	0.222
472	0.222
472	0.222
472	0.222
473	0.222
473	0.222
474	0.222
474	0.222
475	0.222
475	0.222
476	0.221
476	0.222
477	0.222
477	0.222
477	0.222
478	0.221
478	0.221
479	0.221
479	0.222
480	0.222
480	0.222
481	0.222
481	0.222
482	0.222
482	0.222
482	0.222
483	0.222
483	0.222
484	0.222
484	0.222
485	0.222
485	0.222
486	0.222
486	0.222
487	0.222
487	0.222
487	0.223
488	0.223
488	0.223
489	0.223
489	0.224
490	0.225
490	0.225
491	0.226
491	0.226
492	0.226
492	0.227
492	0.227
493	0.227
493	0.228
494	0.228
494	0.229
495	0.229
495	0.229
496	0.229
496	0.23
496	0.23
497	0.23
497	0.231
498	0.231
498	0.231
499	0.232
499	0.232
500	0.233
500	0.234
501	0.234
501	0.234
501	0.235
502	0.235
502	0.236
503	0.236
503	0.237
504	0.237
504	0.237
505	0.238
505	0.238
506	0.238
506	0.239
506	0.239
507	0.239
507	0.24
508	0.24
508	0.24
509	0.241
509	0.241
510	0.242
510	0.242
511	0.243
511	0.243
511	0.244
512	0.244
512	0.245
513	0.245
513	0.246
514	0.246
514	0.247
515	0.247
515	0.247
515	0.248
516	0.248
516	0.249
517	0.249
517	0.25
518	0.25
518	0.25
519	0.251
519	0.251
520	0.251
520	0.251
520	0.252
521	0.252
521	0.252
522	0.252
522	0.252
523	0.252
523	0.252
524	0.252
524	0.253
524	0.253
525	0.253
525	0.253
526	0.253
526	0.253
527	0.253
527	0.253
528	0.253
528	0.253
529	0.253
529	0.253
529	0.253
530	0.253
530	0.253
531	0.253
531	0.253
532	0.252
532	0.252
533	0.252
533	0.252
533	0.252
534	0.251
534	0.251
535	0.251
535	0.251
536	0.25
536	0.25
537	0.25
537	0.25
538	0.25
538	0.25
538	0.249
539	0.249
539	0.249
540	0.248
540	0.248
541	0.248
541	0.248
542	0.247
542	0.247
542	0.247
543	0.247
543	0.246
544	0.246
544	0.246
545	0.246
545	0.245
546	0.245
546	0.245
547	0.244
547	0.244
547	0.243
548	0.243
548	0.243
549	0.242
549	0.242
550	0.242
550	0.241
551	0.241
551	0.24
551	0.24
552	0.239
552	0.239
553	0.238
553	0.238
554	0.237
554	0.236
555	0.235
555	0.235
556	0.234
556	0.234
556	0.233
557	0.233
557	0.233
558	0.233
558	0.233
559	0.233
559	0.233
560	0.232
560	0.232
560	0.232
561	0.232
561	0.231
562	0.231
562	0.23
563	0.229
563	0.228
564	0.228
564	0.227
564	0.227
565	0.227
565	0.226
566	0.226
566	0.225
567	0.225
567	0.225
568	0.225
568	0.224
568	0.224
569	0.224
569	0.223
570	0.222
570	0.221
571	0.221
571	0.22
572	0.22
572	0.219
573	0.219
573	0.218
573	0.218
574	0.217
574	0.217
575	0.217
575	0.217
576	0.217
576	0.216
577	0.216
577	0.215
577	0.215
578	0.214
578	0.214
579	0.214
579	0.214
580	0.213
580	0.212
581	0.212
581	0.211
581	0.212
582	0.212
582	0.212
583	0.212
583	0.212
584	0.211
584	0.21
585	0.21
585	0.209
585	0.209
586	0.208
586	0.208
587	0.207
587	0.206
588	0.206
588	0.205
589	0.205
589	0.205
590	0.205
590	0.205
590	0.205
591	0.205
591	0.205
592	0.204
592	0.204
593	0.204
593	0.204
594	0.203
594	0.202
594	0.202
595	0.201
595	0.201
596	0.2
596	0.2
597	0.201
597	0.201
598	0.201
598	0.201
598	0.201
599	0.201
599	0.2
600	0.2
600	0.199
601	0.199
601	0.199
602	0.198
602	0.197
602	0.197
603	0.197
603	0.197
604	0.196
604	0.196
605	0.196
605	0.196
606	0.196
606	0.196
606	0.195
607	0.195
607	0.195
608	0.195
608	0.195
609	0.194
609	0.194
610	0.194
610	0.193
610	0.194
611	0.193
611	0.193
612	0.193
612	0.193
613	0.193
613	0.193
614	0.193
614	0.192
614	0.192
615	0.192
615	0.192
616	0.192
616	0.192
617	0.192
617	0.192
618	0.192
618	0.192
618	0.192
619	0.192
619	0.193
620	0.193
620	0.193
621	0.192
621	0.192
622	0.191
622	0.191
622	0.19
623	0.189
623	0.189
624	0.189
624	0.188
625	0.187
625	0.187
626	0.187
626	0.186
626	0.186
627	0.186
627	0.186
628	0.186
628	0.185
629	0.185
629	0.185
630	0.184
630	0.184
630	0.184
631	0.184
631	0.184
632	0.184
632	0.184
633	0.184
633	0.184
634	0.184
634	0.184
634	0.184
635	0.184
635	0.184
636	0.184
636	0.184
637	0.184
637	0.183
638	0.183
638	0.183
638	0.183
639	0.182
639	0.182
640	0.182
640	0.182
641	0.182
641	0.182
642	0.182
642	0.182
642	0.182
643	0.182
643	0.182
644	0.182
644	0.182
645	0.182
645	0.182
646	0.182
646	0.182
646	0.182
647	0.181
647	0.181
648	0.18
648	0.18
649	0.18
649	0.179
650	0.179
650	0.179
650	0.179
651	0.179
651	0.179
652	0.18
652	0.18
653	0.181
653	0.182
653	0.188
654	0.148
654	0.119
655	0.119
655	0.119
656	0.119
656	0.12
657	0.12
657	0.12
657	0.12
658	0.119
658	0.109
659	0.138
659	0.177
660	0.182
660	0.182
661	0.182
661	0.182
661	0.181
662	0.181
662	0.181
663	0.18
663	0.18
664	0.179
664	0.179
665	0.179
665	0.179
665	0.179
666	0.179
666	0.179
667	0.179
667	0.179
668	0.18
668	0.18
669	0.18
669	0.181
669	0.182
670	0.182
670	0.182
671	0.182
671	0.182
672	0.182
672	0.182
672	0.181
673	0.181
673	0.18
674	0.18
674	0.179
675	0.179
675	0.178
676	0.179
676	0.178
676	0.178
677	0.178
677	0.179
678	0.179
678	0.178
679	0.178
679	0.179
680	0.179
680	0.179
680	0.179
681	0.179
681	0.179
682	0.179
682	0.179
683	0.18
683	0.18
684	0.18
684	0.18
684	0.179
685	0.18
685	0.18
686	0.18
686	0.179
687	0.179
687	0.179
687	0.179
688	0.179
688	0.179
689	0.18
689	0.18
690	0.18
690	0.18
691	0.18
691	0.18
691	0.18
692	0.18
692	0.18
693	0.181
693	0.181
694	0.181
694	0.181
695	0.182
695	0.182
695	0.182
696	0.182
696	0.182
697	0.182
697	0.182
698	0.181
698	0.181
698	0.181
699	0.181
699	0.181
700	0.18
700	0.18
701	0.181
701	0.18
702	0.181
702	0.181
702	0.181
703	0.181
703	0.181
704	0.181
704	0.182
705	0.182
705	0.181
705	0.181
706	0.181
706	0.181
707	0.181
707	0.181
708	0.181
708	0.182
709	0.182
709	0.181
709	0.181
710	0.181
710	0.182
711	0.182
711	0.183
712	0.183
712	0.183
713	0.183
713	0.183
713	0.183
714	0.183
714	0.183
715	0.183
715	0.182
716	0.182
716	0.182
716	0.181
717	0.18
717	0.18
718	0.18
718	0.179
719	0.18
719	0.18
720	0.18
720	0.181
720	0.181
721	0.182
721	0.183
722	0.184
722	0.184
723	0.185
723	0.185
723	0.185
724	0.185
724	0.185
725	0.185
725	0.184
726	0.183
726	0.183
727	0.182
727	0.182
727	0.181
728	0.181
728	0.181
729	0.181
729	0.181
730	0.181
730	0.182
730	0.183
731	0.183
731	0.184
732	0.185
732	0.186
733	0.186
733	0.186
734	0.187
734	0.187
734	0.187
735	0.187
735	0.187
736	0.187
736	0.187
737	0.187
737	0.187
737	0.187
738	0.186
738	0.185
739	0.185
739	0.185
740	0.185
740	0.185
741	0.185
741	0.184
741	0.184
742	0.184
742	0.185
743	0.186
743	0.186
744	0.187
744	0.188
744	0.188
745	0.189
745	0.189
746	0.189
746	0.189
747	0.19
747	0.189
748	0.189
748	0.189
748	0.189
749	0.188
749	0.188
750	0.188
750	0.188
751	0.188
751	0.188
751	0.188
752	0.188
752	0.187
753	0.187
753	0.187
754	0.187
754	0.186
754	0.186
755	0.186
755	0.186
756	0.186
756	0.185
757	0.185
757	0.185
758	0.185
758	0.185
758	0.186
759	0.186
759	0.186
760	0.186
760	0.186
761	0.187
761	0.188
761	0.188
762	0.188
762	0.188
763	0.188
763	0.188
764	0.187
764	0.187
764	0.188
765	0.187
765	0.187
766	0.187
766	0.187
767	0.187
767	0.186
768	0.186
768	0.186
768	0.186
769	0.187
769	0.187
770	0.187
770	0.188
771	0.188
771	0.189
771	0.19
772	0.191
772	0.192
773	0.192
773	0.193
774	0.193
774	0.193
775	0.194
775	0.194
775	0.194
776	0.195
776	0.195
777	0.196
777	0.196
778	0.196
778	0.196
778	0.196
779	0.196
779	0.195
780	0.195
780	0.194
781	0.194
781	0.193
781	0.193
782	0.193
782	0.193
783	0.193
783	0.194
784	0.194
784	0.194
784	0.195
785	0.196
785	0.196
786	0.196
786	0.197
787	0.197
787	0.196
788	0.196
788	0.195
788	0.194
789	0.194
789	0.193
790	0.193
790	0.193
791	0.193
791	0.192
791	0.192
792	0.193
792	0.193
793	0.193
793	0.194
794	0.194
794	0.194
794	0.194
795	0.194
795	0.195
796	0.195
796	0.195
797	0.195
797	0.195
797	0.196
798	0.196
798	0.196
799	0.196
799	0.196
800	0.195
800	0.195
801	0.195
801	0.195
801	0.195
802	0.195
802	0.195
803	0.196
803	0.196
804	0.196
804	0.197
804	0.197
805	0.197
805	0.197
806	0.197
806	0.196
807	0.196
807	0.196
807	0.196
808	0.195
808	0.195
809	0.195
809	0.195
810	0.195
810	0.195
810	0.196
811	0.196
811	0.197
812	0.198
812	0.198
813	0.199
813	0.199
813	0.2
814	0.201
814	0.201
815	0.202
815	0.202
816	0.202
816	0.201
817	0.201
817	0.201
817	0.2
818	0.2
818	0.199
819	0.199
819	0.198
820	0.197
820	0.197
820	0.197
821	0.197
821	0.197
822	0.197
822	0.198
823	0.198
823	0.198
823	0.199
824	0.2
824	0.201
825	0.202
825	0.203
826	0.203
826	0.203
826	0.204
827	0.204
827	0.204
828	0.204
828	0.204
829	0.204
829	0.205
829	0.205
830	0.205
830	0.206
831	0.207
831	0.207
832	0.207
832	0.207
832	0.207
833	0.207
833	0.206
834	0.206
834	0.205
835	0.205
835	0.204
835	0.204
836	0.203
836	0.203
837	0.203
837	0.203
838	0.203
838	0.202
839	0.202
839	0.201
839	0.201
840	0.2
840	0.199
841	0.198
841	0.197
842	0.196
842	0.195
842	0.194
843	0.193
843	0.193
844	0.192
844	0.192
845	0.191
845	0.191
845	0.191
846	0.19
846	0.19
847	0.19
847	0.191
848	0.191
848	0.192
848	0.192
849	0.193
849	0.194
850	0.194
850	0.195
851	0.195
851	0.196
851	0.195
852	0.195
852	0.195
853	0.194
853	0.194
854	0.194
854	0.194
854	0.194
855	0.194
855	0.195
856	0.195
856	0.196
857	0.197
857	0.198
857	0.198
858	0.199
858	0.199
859	0.198
859	0.198
860	0.198
860	0.197
860	0.196
861	0.195
861	0.195
862	0.193
862	0.192
863	0.191
863	0.191
863	0.19
864	0.19
864	0.19
865	0.19
865	0.191
866	0.191
866	0.191
866	0.191
867	0.192
867	0.193
868	0.193
868	0.193
869	0.194
869	0.193
869	0.193
870	0.193
870	0.193
871	0.193
871	0.193
872	0.193
872	0.193
872	0.193
873	0.192
873	0.192
874	0.191
874	0.191
875	0.19
875	0.19
875	0.189
876	0.189
876	0.188
877	0.188
877	0.187
878	0.187
878	0.188
878	0.188
879	0.188
879	0.189
880	0.189
880	0.19
881	0.19
881	0.19
881	0.191
882	0.191
882	0.191
883	0.191
883	0.191
884	0.191
884	0.191
884	0.191
885	0.19
885	0.189
886	0.189
886	0.188
887	0.188
887	0.187
887	0.186
888	0.185
888	0.185
889	0.184
889	0.183
890	0.183
890	0.183
890	0.183
891	0.182
891	0.182
892	0.182
892	0.182
893	0.182
893	0.182
893	0.182
894	0.182
894	0.182
895	0.182
895	0.182
895	0.182
896	0.182
896	0.182
897	0.182
897	0.182
898	0.182
898	0.181
898	0.181
899	0.18
899	0.179
900	0.179
900	0.178
901	0.177
901	0.177
901	0.176
902	0.176
902	0.175
903	0.175
903	0.175
904	0.174
904	0.174
904	0.174
905	0.174
905	0.174
906	0.174
906	0.174
907	0.174
907	0.174
907	0.175
908	0.175
908	0.175
909	0.174
909	0.174
910	0.174
910	0.174
910	0.174
911	0.174
911	0.173
912	0.173
912	0.173
913	0.172
913	0.172
913	0.172
914	0.172
914	0.172
915	0.172
915	0.172
916	0.172
916	0.172
916	0.172
917	0.171
917	0.171
918	0.17
918	0.17
918	0.169
919	0.168
919	0.167
920	0.167
920	0.166
921	0.166
921	0.165
921	0.165
922	0.165
922	0.165
923	0.165
923	0.165
924	0.166
924	0.166
924	0.166
925	0.166
925	0.167
926	0.167
926	0.168
927	0.168
927	0.168
927	0.169
928	0.169
928	0.169
929	0.169
929	0.169
930	0.169
930	0.169
930	0.168
931	0.168
931	0.167
932	0.166
932	0.166
933	0.165
933	0.165
933	0.164
934	0.164
934	0.163
935	0.163
935	0.162
935	0.162
936	0.161
936	0.161
937	0.161
937	0.16
938	0.16
938	0.159
938	0.158
939	0.158
939	0.157
940	0.157
940	0.157
941	0.157
941	0.157
941	0.157
942	0.157
942	0.157
943	0.158
943	0.158
944	0.158
944	0.158
944	0.158
945	0.158
945	0.158
946	0.157
946	0.157
946	0.157
947	0.157
947	0.157
948	0.156
948	0.156
949	0.156
949	0.155
949	0.155
950	0.154
950	0.154
951	0.154
951	0.153
952	0.153
952	0.152
952	0.151
953	0.151
953	0.151
954	0.15
954	0.15
955	0.15
955	0.149
955	0.149
956	0.149
956	0.149
957	0.149
957	0.149
957	0.149
958	0.149
958	0.149
959	0.149
959	0.148
960	0.148
960	0.148
960	0.148
961	0.147
961	0.147
962	0.147
962	0.147
963	0.147
963	0.147
963	0.147
964	0.147
964	0.148
965	0.148
965	0.148
966	0.148
966	0.148
966	0.147
967	0.147
967	0.146
968	0.146
968	0.145
968	0.145
969	0.144
969	0.143
970	0.142
970	0.141
971	0.141
971	0.14
971	0.139
972	0.139
972	0.139
973	0.138
973	0.138
974	0.138
974	0.139
974	0.139
975	0.139
975	0.139
976	0.14
976	0.141
976	0.141
977	0.141
977	0.141
978	0.141
978	0.141
979	0.141
979	0.141
979	0.141
980	0.14
980	0.14
981	0.139
981	0.139
982	0.138
982	0.138
982	0.138
983	0.138
983	0.138
984	0.138
984	0.138
984	0.138
985	0.138
985	0.138
986	0.137
986	0.137
987	0.137
987	0.137
987	0.136
988	0.136
988	0.136
989	0.136
989	0.136
990	0.135
990	0.135
990	0.135
991	0.134
991	0.134
992	0.133
992	0.132
992	0.131
993	0.13
993	0.129
994	0.128
994	0.126
995	0.125
995	0.125
995	0.124
996	0.124
996	0.124
997	0.124
997	0.124
997	0.125
998	0.125
998	0.126
999	0.127
999	0.128
1000	0.128
1000	0.129
1000	0.129
1001	0.129
1001	0.129
1002	0.129
1002	0.129
1003	0.129
1003	0.128
1003	0.128
1004	0.127
1004	0.126
1005	0.125
1005	0.124
1005	0.123
1006	0.123
1006	0.122
1007	0.121
1007	0.121
1008	0.12
1008	0.12
1008	0.12
1009	0.12
1009	0.12
1010	0.12
1010	0.121
1010	0.121
1011	0.121
1011	0.121
1012	0.121
1012	0.121
1013	0.121
1013	0.12
1013	0.12
1014	0.119
1014	0.119
1015	0.118
1015	0.118
1016	0.118
1016	0.117
1016	0.117
1017	0.116
1017	0.116
1018	0.115
1018	0.115
1018	0.114
1019	0.114
1019	0.114
1020	0.113
1020	0.113
1021	0.113
1021	0.113
1021	0.113
1022	0.114
1022	0.114
1023	0.114
1023	0.115
1023	0.115
1024	0.116
1024	0.116
1025	0.117
1025	0.117
1026	0.117
1026	0.117
1026	0.117
1027	0.117
1027	0.117
1028	0.118
1028	0.117
1028	0.117
1029	0.117
1029	0.117
1030	0.117
1030	0.117
1031	0.118
1031	0.118
1031	0.118
1032	0.118
1032	0.118
1033	0.118
1033	0.118
1033	0.118
1034	0.118
1034	0.118
1035	0.118
1035	0.118
1036	0.118
1036	0.118
1036	0.118
1037	0.118
1037	0.117
1038	0.117
1038	0.116
1039	0.116
1039	0.116
1039	0.115
1040	0.115
1040	0.115
1041	0.114
1041	0.114
1041	0.114
1042	0.114
1042	0.113
1043	0.113
1043	0.113
1044	0.113
1044	0.112
1044	0.112
1045	0.112
1045	0.112
1046	0.111
1046	0.111
1046	0.111
1047	0.111
1047	0.111
1048	0.111
1048	0.111
1049	0.111
1049	0.111
1049	0.111
1050	0.111
1050	0.11
1051	0.11
1051	0.109
1051	0.109
1052	0.108
1052	0.107
1053	0.106
1053	0.106
1053	0.105
1054	0.104
1054	0.104
1055	0.104
1055	0.103
1056	0.102
1056	0.102
1056	0.101
1057	0.1
1057	0.1
1058	0.099
1058	0.099
1058	0.098
1059	0.097
1059	0.097
1060	0.096
1060	0.096
1061	0.095
1061	0.095
1061	0.095
1062	0.094
1062	0.094
1063	0.094
1063	0.093
1063	0.093
1064	0.092
1064	0.092
1065	0.092
1065	0.092
1066	0.092
1066	0.092
1066	0.091
1067	0.091
1067	0.091
1068	0.091
1068	0.091
1068	0.091
1069	0.091
1069	0.091
1070	0.09
1070	0.09
1071	0.089
1071	0.089
1071	0.088
1072	0.088
1072	0.087
1073	0.086
1073	0.086
1073	0.085
1074	0.086
1074	0.086
1075	0.086
1075	0.086
1076	0.086
1076	0.087
1076	0.087
1077	0.087
1077	0.087
1078	0.087
1078	0.087
1078	0.087
1079	0.086
1079	0.086
1080	0.086
1080	0.085
1080	0.085
1081	0.085
1081	0.085
1082	0.085
1082	0.085
1083	0.085
1083	0.084
1083	0.084
1084	0.084
1084	0.085
1085	0.084
1085	0.085
1085	0.085
1086	0.085
1086	0.084
1087	0.084
1087	0.084
1088	0.084
1088	0.084
1088	0.084
1089	0.083
1089	0.082
1090	0.081
1090	0.081
1090	0.08
1091	0.08
1091	0.079
1092	0.08
1092	0.08
1092	0.079
1093	0.079
1093	0.079
1094	0.079
1094	0.079
1095	0.079
1095	0.078
1095	0.078
1096	0.077
1096	0.076
1097	0.075
1097	0.073
1097	0.072
1098	0.072
1098	0.069
1099	0.068
1099	0.066
1100	0.065
1100	0.062
1100	0.062
1101	0.061
1101	0.06
1102	0.06
1102	0.059
1102	0.057
1103	0.057
1103	0.057
1104	0.057
1104	0.057
1104	0.057
1105	0.055
1105	0.054
1106	0.051
1106	0.05
1107	0.05
1107	0.05
1107	0.049
1108	0.047
1108	0.047
1109	0.045
1109	0.044
1109	0.045
1110	0.045
1110	0.044
1111	0.045
1111	0.042
