Data from reversibility-20sec_Absorbance__515__000000000000515.txt Node

Date: Tue Dec 05 15:04:45 CET 2023
User: Marek
Spectrometer: MAYP115816
Trigger mode: 0
Integration Time (sec): 2.000000E-1
Scans to average: 10
Electric dark correction enabled: true
Nonlinearity correction enabled: true
Boxcar width: 5
XAxis mode: Wavelengths
Number of Pixels in Spectrum: 2068
>>>>>Begin Spectral Data<<<<<
199	-0.175
199	-0.138
200	-0.069
200	-0.021
201	0.008
201	0.024
202	0.035
202	0.044
203	0.051
203	0.052
204	0.066
204	0.08
205	0.089
205	0.093
205	0.091
206	0.09
206	0.088
207	0.091
207	0.088
208	0.088
208	0.091
209	0.093
209	0.089
210	0.089
210	0.09
211	0.091
211	0.092
212	0.092
212	0.094
213	0.099
213	0.099
213	0.097
214	0.099
214	0.103
215	0.106
215	0.106
216	0.108
216	0.108
217	0.111
217	0.111
218	0.109
218	0.113
219	0.118
219	0.119
220	0.119
220	0.118
221	0.119
221	0.12
221	0.128
222	0.133
222	0.138
223	0.142
223	0.143
224	0.15
224	0.157
225	0.164
225	0.177
226	0.187
226	0.196
227	0.208
227	0.218
228	0.23
228	0.245
229	0.262
229	0.282
229	0.305
230	0.331
230	0.359
231	0.39
231	0.43
232	0.464
232	0.507
233	0.549
233	0.6
234	0.648
234	0.698
235	0.749
235	0.801
236	0.85
236	0.902
236	0.95
237	1.001
237	1.049
238	1.098
238	1.144
239	1.191
239	1.233
240	1.271
240	1.306
241	1.343
241	1.376
242	1.406
242	1.438
243	1.466
243	1.491
243	1.515
244	1.537
244	1.56
245	1.579
245	1.6
246	1.617
246	1.633
247	1.646
247	1.66
248	1.673
248	1.685
249	1.693
249	1.698
250	1.703
250	1.708
250	1.711
251	1.713
251	1.712
252	1.713
252	1.71
253	1.709
253	1.706
254	1.704
254	1.705
255	1.701
255	1.7
256	1.699
256	1.698
257	1.698
257	1.698
258	1.696
258	1.696
258	1.695
259	1.693
259	1.691
260	1.692
260	1.692
261	1.692
261	1.693
262	1.695
262	1.696
263	1.7
263	1.701
264	1.702
264	1.704
265	1.706
265	1.706
265	1.707
266	1.708
266	1.707
267	1.707
267	1.707
268	1.706
268	1.707
269	1.709
269	1.708
270	1.708
270	1.708
271	1.706
271	1.704
272	1.702
272	1.697
272	1.693
273	1.685
273	1.679
274	1.671
274	1.664
275	1.656
275	1.648
276	1.639
276	1.631
277	1.623
277	1.613
278	1.602
278	1.59
278	1.574
279	1.555
279	1.533
280	1.505
280	1.472
281	1.434
281	1.392
282	1.348
282	1.304
283	1.261
283	1.219
284	1.179
284	1.141
285	1.106
285	1.073
285	1.045
286	1.021
286	0.999
287	0.981
287	0.966
288	0.953
288	0.942
289	0.933
289	0.925
290	0.919
290	0.914
291	0.909
291	0.905
292	0.901
292	0.898
292	0.895
293	0.892
293	0.89
294	0.887
294	0.885
295	0.883
295	0.881
296	0.879
296	0.877
297	0.875
297	0.873
298	0.871
298	0.869
298	0.867
299	0.866
299	0.864
300	0.862
300	0.86
301	0.858
301	0.857
302	0.855
302	0.853
303	0.851
303	0.85
304	0.848
304	0.846
305	0.845
305	0.843
305	0.841
306	0.839
306	0.837
307	0.835
307	0.833
308	0.831
308	0.829
309	0.827
309	0.825
310	0.822
310	0.82
311	0.817
311	0.815
311	0.812
312	0.809
312	0.806
313	0.802
313	0.799
314	0.796
314	0.792
315	0.788
315	0.785
316	0.781
316	0.777
317	0.772
317	0.768
318	0.763
318	0.759
318	0.754
319	0.749
319	0.744
320	0.738
320	0.733
321	0.727
321	0.722
322	0.716
322	0.711
323	0.704
323	0.699
324	0.692
324	0.686
324	0.68
325	0.674
325	0.667
326	0.661
326	0.654
327	0.648
327	0.641
328	0.635
328	0.628
329	0.621
329	0.614
330	0.608
330	0.601
330	0.594
331	0.587
331	0.58
332	0.574
332	0.567
333	0.56
333	0.554
334	0.547
334	0.541
335	0.534
335	0.527
336	0.521
336	0.515
336	0.509
337	0.503
337	0.497
338	0.491
338	0.485
339	0.479
339	0.473
340	0.468
340	0.462
341	0.456
341	0.451
342	0.446
342	0.441
342	0.436
343	0.431
343	0.426
344	0.421
344	0.416
345	0.412
345	0.408
346	0.404
346	0.399
347	0.395
347	0.391
348	0.387
348	0.383
348	0.38
349	0.376
349	0.373
350	0.369
350	0.366
351	0.363
351	0.36
352	0.356
352	0.354
353	0.351
353	0.348
354	0.345
354	0.342
354	0.34
355	0.337
355	0.334
356	0.331
356	0.329
357	0.326
357	0.323
358	0.321
358	0.318
359	0.316
359	0.314
360	0.312
360	0.31
360	0.308
361	0.307
361	0.305
362	0.304
362	0.302
363	0.301
363	0.299
364	0.297
364	0.295
365	0.294
365	0.292
366	0.29
366	0.289
366	0.287
367	0.286
367	0.284
368	0.283
368	0.281
369	0.28
369	0.279
370	0.277
370	0.276
371	0.275
371	0.273
372	0.272
372	0.271
372	0.27
373	0.269
373	0.268
374	0.267
374	0.266
375	0.265
375	0.264
376	0.264
376	0.263
377	0.262
377	0.261
378	0.26
378	0.259
378	0.259
379	0.258
379	0.257
380	0.256
380	0.256
381	0.255
381	0.254
382	0.254
382	0.253
383	0.252
383	0.252
383	0.251
384	0.25
384	0.25
385	0.249
385	0.249
386	0.248
386	0.248
387	0.247
387	0.247
388	0.246
388	0.246
389	0.245
389	0.245
389	0.245
390	0.244
390	0.244
391	0.244
391	0.243
392	0.243
392	0.243
393	0.243
393	0.242
394	0.242
394	0.242
394	0.241
395	0.241
395	0.24
396	0.24
396	0.239
397	0.239
397	0.238
398	0.238
398	0.238
399	0.238
399	0.237
400	0.237
400	0.237
400	0.236
401	0.236
401	0.236
402	0.235
402	0.235
403	0.235
403	0.235
404	0.234
404	0.234
405	0.234
405	0.234
405	0.234
406	0.234
406	0.233
407	0.233
407	0.233
408	0.232
408	0.232
409	0.232
409	0.231
410	0.231
410	0.231
411	0.231
411	0.23
411	0.23
412	0.23
412	0.229
413	0.229
413	0.229
414	0.229
414	0.228
415	0.228
415	0.228
416	0.227
416	0.227
416	0.227
417	0.227
417	0.227
418	0.226
418	0.226
419	0.226
419	0.226
420	0.225
420	0.225
421	0.225
421	0.225
421	0.224
422	0.224
422	0.224
423	0.224
423	0.224
424	0.223
424	0.223
425	0.223
425	0.222
426	0.222
426	0.222
427	0.222
427	0.221
427	0.221
428	0.221
428	0.221
429	0.221
429	0.22
430	0.22
430	0.22
431	0.22
431	0.22
432	0.22
432	0.22
432	0.219
433	0.219
433	0.219
434	0.219
434	0.219
435	0.219
435	0.218
436	0.218
436	0.218
437	0.218
437	0.218
437	0.218
438	0.218
438	0.218
439	0.218
439	0.218
440	0.217
440	0.217
441	0.217
441	0.217
442	0.217
442	0.217
442	0.216
443	0.216
443	0.216
444	0.216
444	0.216
445	0.215
445	0.215
446	0.215
446	0.215
447	0.214
447	0.214
447	0.214
448	0.214
448	0.214
449	0.213
449	0.213
450	0.213
450	0.213
451	0.213
451	0.213
452	0.213
452	0.213
452	0.213
453	0.213
453	0.213
454	0.213
454	0.212
455	0.212
455	0.212
456	0.212
456	0.212
457	0.212
457	0.211
458	0.211
458	0.211
458	0.211
459	0.211
459	0.211
460	0.21
460	0.21
461	0.21
461	0.21
462	0.21
462	0.21
463	0.209
463	0.209
463	0.209
464	0.209
464	0.209
465	0.208
465	0.208
466	0.208
466	0.208
467	0.208
467	0.208
467	0.208
468	0.208
468	0.208
469	0.208
469	0.208
470	0.208
470	0.208
471	0.208
471	0.208
472	0.208
472	0.208
472	0.208
473	0.208
473	0.208
474	0.208
474	0.208
475	0.208
475	0.208
476	0.208
476	0.208
477	0.208
477	0.208
477	0.209
478	0.209
478	0.209
479	0.209
479	0.209
480	0.21
480	0.21
481	0.21
481	0.21
482	0.21
482	0.21
482	0.21
483	0.211
483	0.211
484	0.211
484	0.211
485	0.211
485	0.211
486	0.212
486	0.212
487	0.212
487	0.212
487	0.213
488	0.213
488	0.213
489	0.213
489	0.214
490	0.214
490	0.215
491	0.216
491	0.216
492	0.217
492	0.217
492	0.218
493	0.218
493	0.219
494	0.219
494	0.22
495	0.22
495	0.221
496	0.221
496	0.222
496	0.222
497	0.223
497	0.223
498	0.224
498	0.224
499	0.225
499	0.225
500	0.226
500	0.227
501	0.227
501	0.228
501	0.228
502	0.228
502	0.229
503	0.23
503	0.23
504	0.231
504	0.231
505	0.232
505	0.232
506	0.233
506	0.233
506	0.234
507	0.235
507	0.235
508	0.236
508	0.236
509	0.236
509	0.237
510	0.237
510	0.238
511	0.239
511	0.239
511	0.24
512	0.241
512	0.242
513	0.242
513	0.243
514	0.243
514	0.244
515	0.245
515	0.245
515	0.246
516	0.246
516	0.247
517	0.247
517	0.247
518	0.248
518	0.248
519	0.248
519	0.249
520	0.249
520	0.249
520	0.25
521	0.25
521	0.25
522	0.25
522	0.25
523	0.25
523	0.251
524	0.251
524	0.251
524	0.251
525	0.252
525	0.252
526	0.252
526	0.252
527	0.252
527	0.252
528	0.252
528	0.253
529	0.253
529	0.252
529	0.252
530	0.252
530	0.252
531	0.252
531	0.252
532	0.252
532	0.252
533	0.252
533	0.252
533	0.252
534	0.252
534	0.252
535	0.252
535	0.252
536	0.252
536	0.252
537	0.251
537	0.251
538	0.251
538	0.25
538	0.25
539	0.25
539	0.25
540	0.249
540	0.249
541	0.248
541	0.248
542	0.248
542	0.247
542	0.247
543	0.247
543	0.246
544	0.246
544	0.246
545	0.245
545	0.245
546	0.245
546	0.245
547	0.244
547	0.243
547	0.243
548	0.243
548	0.242
549	0.242
549	0.241
550	0.241
550	0.24
551	0.24
551	0.239
551	0.239
552	0.238
552	0.238
553	0.237
553	0.237
554	0.237
554	0.236
555	0.235
555	0.235
556	0.234
556	0.234
556	0.233
557	0.233
557	0.233
558	0.233
558	0.233
559	0.233
559	0.233
560	0.233
560	0.233
560	0.232
561	0.232
561	0.232
562	0.231
562	0.23
563	0.229
563	0.229
564	0.228
564	0.227
564	0.227
565	0.227
565	0.226
566	0.226
566	0.226
567	0.225
567	0.225
568	0.225
568	0.225
568	0.224
569	0.224
569	0.224
570	0.223
570	0.222
571	0.222
571	0.221
572	0.221
572	0.22
573	0.22
573	0.219
573	0.219
574	0.218
574	0.218
575	0.218
575	0.218
576	0.218
576	0.218
577	0.217
577	0.217
577	0.216
578	0.216
578	0.216
579	0.216
579	0.216
580	0.215
580	0.214
581	0.213
581	0.213
581	0.213
582	0.213
582	0.213
583	0.213
583	0.212
584	0.211
584	0.21
585	0.21
585	0.21
585	0.209
586	0.209
586	0.208
587	0.207
587	0.206
588	0.206
588	0.205
589	0.205
589	0.205
590	0.205
590	0.205
590	0.205
591	0.205
591	0.205
592	0.204
592	0.204
593	0.204
593	0.204
594	0.203
594	0.203
594	0.202
595	0.202
595	0.201
596	0.2
596	0.201
597	0.201
597	0.201
598	0.201
598	0.201
598	0.201
599	0.201
599	0.2
600	0.2
600	0.199
601	0.199
601	0.198
602	0.198
602	0.197
602	0.197
603	0.196
603	0.197
604	0.197
604	0.197
605	0.197
605	0.197
606	0.196
606	0.196
606	0.196
607	0.195
607	0.195
608	0.195
608	0.194
609	0.194
609	0.193
610	0.193
610	0.193
610	0.193
611	0.193
611	0.193
612	0.193
612	0.193
613	0.193
613	0.193
614	0.192
614	0.192
614	0.192
615	0.191
615	0.191
616	0.191
616	0.19
617	0.19
617	0.189
618	0.189
618	0.189
618	0.189
619	0.189
619	0.189
620	0.189
620	0.189
621	0.188
621	0.188
622	0.188
622	0.188
622	0.187
623	0.187
623	0.187
624	0.187
624	0.186
625	0.186
625	0.186
626	0.185
626	0.185
626	0.185
627	0.185
627	0.185
628	0.184
628	0.184
629	0.184
629	0.183
630	0.183
630	0.183
630	0.183
631	0.183
631	0.183
632	0.183
632	0.183
633	0.183
633	0.183
634	0.183
634	0.184
634	0.184
635	0.184
635	0.184
636	0.184
636	0.184
637	0.183
637	0.183
638	0.183
638	0.183
638	0.182
639	0.182
639	0.181
640	0.181
640	0.181
641	0.18
641	0.18
642	0.18
642	0.18
642	0.18
643	0.18
643	0.18
644	0.179
644	0.18
645	0.179
645	0.179
646	0.179
646	0.179
646	0.18
647	0.18
647	0.18
648	0.179
648	0.179
649	0.179
649	0.179
650	0.179
650	0.179
650	0.179
651	0.179
651	0.179
652	0.179
652	0.179
653	0.179
653	0.181
653	0.187
654	0.147
654	0.118
655	0.119
655	0.12
656	0.12
656	0.12
657	0.121
657	0.121
657	0.121
658	0.12
658	0.11
659	0.139
659	0.178
660	0.181
660	0.181
661	0.181
661	0.181
661	0.18
662	0.18
662	0.18
663	0.18
663	0.179
664	0.179
664	0.179
665	0.179
665	0.179
665	0.179
666	0.179
666	0.179
667	0.179
667	0.179
668	0.179
668	0.179
669	0.179
669	0.179
669	0.179
670	0.179
670	0.179
671	0.179
671	0.179
672	0.178
672	0.178
672	0.178
673	0.177
673	0.178
674	0.178
674	0.178
675	0.178
675	0.178
676	0.179
676	0.179
676	0.18
677	0.18
677	0.18
678	0.181
678	0.181
679	0.181
679	0.181
680	0.181
680	0.181
680	0.181
681	0.181
681	0.181
682	0.181
682	0.181
683	0.182
683	0.182
684	0.183
684	0.183
684	0.183
685	0.183
685	0.183
686	0.183
686	0.183
687	0.183
687	0.183
687	0.183
688	0.183
688	0.183
689	0.183
689	0.184
690	0.184
690	0.184
691	0.184
691	0.185
691	0.185
692	0.186
692	0.186
693	0.187
693	0.187
694	0.187
694	0.187
695	0.188
695	0.189
695	0.189
696	0.189
696	0.189
697	0.189
697	0.189
698	0.188
698	0.188
698	0.188
699	0.188
699	0.187
700	0.187
700	0.187
701	0.187
701	0.187
702	0.188
702	0.188
702	0.188
703	0.188
703	0.188
704	0.188
704	0.188
705	0.188
705	0.188
705	0.188
706	0.188
706	0.188
707	0.188
707	0.189
708	0.189
708	0.189
709	0.189
709	0.19
709	0.19
710	0.19
710	0.19
711	0.191
711	0.191
712	0.191
712	0.191
713	0.192
713	0.192
713	0.192
714	0.192
714	0.192
715	0.192
715	0.192
716	0.191
716	0.192
716	0.191
717	0.191
717	0.191
718	0.19
718	0.19
719	0.191
719	0.191
720	0.191
720	0.191
720	0.192
721	0.192
721	0.193
722	0.193
722	0.193
723	0.194
723	0.194
723	0.194
724	0.194
724	0.194
725	0.193
725	0.193
726	0.193
726	0.192
727	0.192
727	0.192
727	0.192
728	0.192
728	0.192
729	0.192
729	0.192
730	0.193
730	0.193
730	0.194
731	0.194
731	0.195
732	0.195
732	0.196
733	0.195
733	0.196
734	0.196
734	0.196
734	0.196
735	0.196
735	0.196
736	0.195
736	0.195
737	0.195
737	0.195
737	0.195
738	0.195
738	0.194
739	0.194
739	0.194
740	0.194
740	0.194
741	0.194
741	0.195
741	0.195
742	0.195
742	0.196
743	0.196
743	0.197
744	0.198
744	0.198
744	0.198
745	0.199
745	0.199
746	0.199
746	0.199
747	0.199
747	0.199
748	0.199
748	0.199
748	0.199
749	0.198
749	0.198
750	0.198
750	0.197
751	0.197
751	0.197
751	0.197
752	0.197
752	0.196
753	0.196
753	0.196
754	0.197
754	0.197
754	0.198
755	0.198
755	0.198
756	0.198
756	0.197
757	0.196
757	0.196
758	0.195
758	0.195
758	0.195
759	0.195
759	0.195
760	0.195
760	0.195
761	0.195
761	0.196
761	0.197
762	0.198
762	0.199
763	0.199
763	0.199
764	0.2
764	0.2
764	0.2
765	0.2
765	0.199
766	0.199
766	0.199
767	0.198
767	0.197
768	0.197
768	0.196
768	0.196
769	0.196
769	0.196
770	0.196
770	0.196
771	0.196
771	0.196
771	0.196
772	0.196
772	0.197
773	0.197
773	0.197
774	0.197
774	0.198
775	0.198
775	0.198
775	0.199
776	0.199
776	0.2
777	0.2
777	0.2
778	0.201
778	0.201
778	0.201
779	0.201
779	0.2
780	0.2
780	0.199
781	0.199
781	0.199
781	0.199
782	0.198
782	0.198
783	0.199
783	0.199
784	0.199
784	0.199
784	0.199
785	0.2
785	0.2
786	0.2
786	0.2
787	0.2
787	0.2
788	0.2
788	0.2
788	0.199
789	0.199
789	0.199
790	0.2
790	0.2
791	0.199
791	0.199
791	0.199
792	0.199
792	0.199
793	0.199
793	0.199
794	0.198
794	0.198
794	0.197
795	0.197
795	0.197
796	0.197
796	0.197
797	0.197
797	0.197
797	0.197
798	0.197
798	0.198
799	0.198
799	0.198
800	0.198
800	0.198
801	0.198
801	0.198
801	0.198
802	0.198
802	0.198
803	0.198
803	0.198
804	0.199
804	0.2
804	0.201
805	0.201
805	0.202
806	0.202
806	0.203
807	0.203
807	0.203
807	0.204
808	0.204
808	0.204
809	0.204
809	0.204
810	0.204
810	0.204
810	0.204
811	0.204
811	0.204
812	0.205
812	0.205
813	0.205
813	0.205
813	0.206
814	0.206
814	0.207
815	0.207
815	0.207
816	0.208
816	0.207
817	0.207
817	0.207
817	0.207
818	0.206
818	0.206
819	0.206
819	0.205
820	0.204
820	0.204
820	0.203
821	0.203
821	0.202
822	0.202
822	0.202
823	0.202
823	0.202
823	0.203
824	0.204
824	0.205
825	0.206
825	0.207
826	0.208
826	0.208
826	0.209
827	0.209
827	0.209
828	0.209
828	0.209
829	0.208
829	0.208
829	0.208
830	0.207
830	0.207
831	0.207
831	0.207
832	0.207
832	0.207
832	0.207
833	0.207
833	0.207
834	0.206
834	0.206
835	0.206
835	0.206
835	0.206
836	0.206
836	0.206
837	0.206
837	0.206
838	0.206
838	0.206
839	0.206
839	0.205
839	0.204
840	0.203
840	0.202
841	0.201
841	0.2
842	0.2
842	0.199
842	0.198
843	0.198
843	0.197
844	0.197
844	0.197
845	0.197
845	0.197
845	0.197
846	0.197
846	0.197
847	0.197
847	0.198
848	0.198
848	0.199
848	0.199
849	0.2
849	0.2
850	0.2
850	0.201
851	0.201
851	0.202
851	0.201
852	0.201
852	0.201
853	0.2
853	0.199
854	0.199
854	0.199
854	0.199
855	0.2
855	0.2
856	0.2
856	0.2
857	0.201
857	0.201
857	0.201
858	0.201
858	0.2
859	0.2
859	0.199
860	0.198
860	0.197
860	0.196
861	0.195
861	0.194
862	0.193
862	0.192
863	0.192
863	0.192
863	0.191
864	0.191
864	0.191
865	0.191
865	0.191
866	0.191
866	0.191
866	0.191
867	0.192
867	0.192
868	0.193
868	0.194
869	0.194
869	0.194
869	0.194
870	0.194
870	0.194
871	0.194
871	0.194
872	0.194
872	0.194
872	0.193
873	0.193
873	0.192
874	0.191
874	0.19
875	0.19
875	0.19
875	0.189
876	0.189
876	0.189
877	0.189
877	0.19
878	0.19
878	0.191
878	0.192
879	0.193
879	0.193
880	0.194
880	0.194
881	0.193
881	0.193
881	0.192
882	0.191
882	0.19
883	0.188
883	0.187
884	0.186
884	0.185
884	0.184
885	0.182
885	0.181
886	0.181
886	0.18
887	0.179
887	0.178
887	0.177
888	0.177
888	0.176
889	0.176
889	0.176
890	0.176
890	0.176
890	0.177
891	0.177
891	0.178
892	0.179
892	0.18
893	0.181
893	0.181
893	0.182
894	0.182
894	0.182
895	0.182
895	0.181
895	0.181
896	0.18
896	0.179
897	0.178
897	0.177
898	0.176
898	0.175
898	0.175
899	0.174
899	0.174
900	0.173
900	0.173
901	0.172
901	0.172
901	0.172
902	0.172
902	0.171
903	0.171
903	0.171
904	0.17
904	0.17
904	0.169
905	0.168
905	0.168
906	0.167
906	0.167
907	0.167
907	0.168
907	0.168
908	0.168
908	0.168
909	0.168
909	0.169
910	0.169
910	0.169
910	0.168
911	0.168
911	0.168
912	0.167
912	0.167
913	0.166
913	0.166
913	0.166
914	0.165
914	0.165
915	0.165
915	0.164
916	0.164
916	0.163
916	0.162
917	0.162
917	0.161
918	0.16
918	0.16
918	0.159
919	0.159
919	0.158
920	0.158
920	0.158
921	0.158
921	0.158
921	0.158
922	0.158
922	0.159
923	0.159
923	0.159
924	0.159
924	0.16
924	0.16
925	0.16
925	0.16
926	0.16
926	0.159
927	0.159
927	0.158
927	0.158
928	0.157
928	0.157
929	0.156
929	0.155
930	0.155
930	0.154
930	0.153
931	0.153
931	0.153
932	0.153
932	0.152
933	0.152
933	0.151
933	0.151
934	0.151
934	0.15
935	0.15
935	0.149
935	0.149
936	0.148
936	0.148
937	0.147
937	0.147
938	0.146
938	0.146
938	0.145
939	0.145
939	0.145
940	0.144
940	0.144
941	0.144
941	0.144
941	0.144
942	0.145
942	0.145
943	0.145
943	0.145
944	0.145
944	0.145
944	0.145
945	0.144
945	0.144
946	0.144
946	0.143
946	0.142
947	0.142
947	0.141
948	0.141
948	0.14
949	0.139
949	0.138
949	0.138
950	0.137
950	0.136
951	0.136
951	0.135
952	0.134
952	0.133
952	0.132
953	0.132
953	0.131
954	0.13
954	0.129
955	0.129
955	0.128
955	0.127
956	0.127
956	0.127
957	0.127
957	0.127
957	0.127
958	0.128
958	0.128
959	0.128
959	0.128
960	0.128
960	0.128
960	0.128
961	0.128
961	0.127
962	0.127
962	0.127
963	0.126
963	0.126
963	0.125
964	0.125
964	0.124
965	0.124
965	0.124
966	0.124
966	0.124
966	0.124
967	0.124
967	0.124
968	0.125
968	0.125
968	0.125
969	0.126
969	0.125
970	0.125
970	0.125
971	0.125
971	0.125
971	0.124
972	0.124
972	0.123
973	0.122
973	0.122
974	0.122
974	0.122
974	0.122
975	0.122
975	0.122
976	0.122
976	0.122
976	0.122
977	0.122
977	0.121
978	0.12
978	0.12
979	0.119
979	0.119
979	0.118
980	0.117
980	0.116
981	0.115
981	0.113
982	0.112
982	0.112
982	0.111
983	0.11
983	0.109
984	0.109
984	0.108
984	0.107
985	0.107
985	0.107
986	0.106
986	0.106
987	0.106
987	0.105
987	0.105
988	0.104
988	0.104
989	0.104
989	0.103
990	0.103
990	0.102
990	0.102
991	0.101
991	0.101
992	0.1
992	0.1
992	0.099
993	0.098
993	0.098
994	0.097
994	0.096
995	0.096
995	0.095
995	0.095
996	0.096
996	0.096
997	0.096
997	0.097
997	0.098
998	0.098
998	0.099
999	0.1
999	0.101
1000	0.102
1000	0.103
1000	0.103
1001	0.104
1001	0.104
1002	0.105
1002	0.105
1003	0.105
1003	0.105
1003	0.105
1004	0.104
1004	0.104
1005	0.103
1005	0.103
1005	0.103
1006	0.102
1006	0.102
1007	0.101
1007	0.101
1008	0.1
1008	0.1
1008	0.099
1009	0.099
1009	0.099
1010	0.099
1010	0.098
1010	0.098
1011	0.097
1011	0.097
1012	0.097
1012	0.097
1013	0.096
1013	0.096
1013	0.095
1014	0.095
1014	0.094
1015	0.094
1015	0.094
1016	0.093
1016	0.093
1016	0.092
1017	0.092
1017	0.092
1018	0.091
1018	0.091
1018	0.091
1019	0.09
1019	0.09
1020	0.09
1020	0.09
1021	0.09
1021	0.09
1021	0.09
1022	0.09
1022	0.09
1023	0.089
1023	0.089
1023	0.089
1024	0.089
1024	0.088
1025	0.088
1025	0.087
1026	0.087
1026	0.086
1026	0.086
1027	0.085
1027	0.085
1028	0.084
1028	0.084
1028	0.083
1029	0.083
1029	0.083
1030	0.083
1030	0.083
1031	0.082
1031	0.083
1031	0.082
1032	0.082
1032	0.082
1033	0.082
1033	0.082
1033	0.082
1034	0.081
1034	0.081
1035	0.08
1035	0.08
1036	0.08
1036	0.079
1036	0.079
1037	0.079
1037	0.078
1038	0.078
1038	0.078
1039	0.078
1039	0.078
1039	0.078
1040	0.078
1040	0.078
1041	0.078
1041	0.078
1041	0.078
1042	0.079
1042	0.078
1043	0.079
1043	0.079
1044	0.078
1044	0.079
1044	0.079
1045	0.079
1045	0.08
1046	0.08
1046	0.081
1046	0.081
1047	0.082
1047	0.083
1048	0.083
1048	0.084
1049	0.084
1049	0.084
1049	0.084
1050	0.084
1050	0.083
1051	0.083
1051	0.082
1051	0.081
1052	0.08
1052	0.079
1053	0.078
1053	0.077
1053	0.076
1054	0.075
1054	0.074
1055	0.074
1055	0.073
1056	0.072
1056	0.071
1056	0.07
1057	0.069
1057	0.068
1058	0.068
1058	0.067
1058	0.066
1059	0.065
1059	0.065
1060	0.064
1060	0.064
1061	0.063
1061	0.063
1061	0.062
1062	0.062
1062	0.061
1063	0.061
1063	0.061
1063	0.06
1064	0.06
1064	0.059
1065	0.059
1065	0.058
1066	0.058
1066	0.058
1066	0.058
1067	0.058
1067	0.058
1068	0.057
1068	0.057
1068	0.057
1069	0.057
1069	0.056
1070	0.056
1070	0.055
1071	0.054
1071	0.054
1071	0.053
1072	0.053
1072	0.052
1073	0.052
1073	0.051
1073	0.051
1074	0.051
1074	0.051
1075	0.051
1075	0.051
1076	0.052
1076	0.052
1076	0.053
1077	0.053
1077	0.053
1078	0.054
1078	0.054
1078	0.054
1079	0.054
1079	0.055
1080	0.055
1080	0.055
1080	0.055
1081	0.056
1081	0.056
1082	0.056
1082	0.056
1083	0.055
1083	0.055
1083	0.055
1084	0.055
1084	0.055
1085	0.054
1085	0.054
1085	0.054
1086	0.053
1086	0.052
1087	0.052
1087	0.052
1088	0.051
1088	0.051
1088	0.05
1089	0.049
1089	0.049
1090	0.048
1090	0.047
1090	0.046
1091	0.046
1091	0.046
1092	0.046
1092	0.046
1092	0.045
1093	0.045
1093	0.046
1094	0.046
1094	0.046
1095	0.045
1095	0.045
1095	0.045
1096	0.044
1096	0.043
1097	0.042
1097	0.042
1097	0.042
1098	0.041
1098	0.04
1099	0.039
1099	0.038
1100	0.037
1100	0.036
1100	0.035
1101	0.034
1101	0.033
1102	0.033
1102	0.031
1102	0.03
1103	0.029
1103	0.029
1104	0.028
1104	0.028
1104	0.028
1105	0.027
1105	0.026
1106	0.025
1106	0.025
1107	0.023
1107	0.023
1107	0.022
1108	0.021
1108	0.021
1109	0.019
1109	0.018
1109	0.019
1110	0.021
1110	0.019
1111	0.017
1111	0.017
