Data from reversibility-20sec_Absorbance__4442__000000000004442.txt Node

Date: Wed Dec 06 12:53:45 CET 2023
User: Marek
Spectrometer: MAYP115816
Trigger mode: 0
Integration Time (sec): 2.000000E-1
Scans to average: 10
Electric dark correction enabled: true
Nonlinearity correction enabled: true
Boxcar width: 5
XAxis mode: Wavelengths
Number of Pixels in Spectrum: 2068
>>>>>Begin Spectral Data<<<<<
199	-0.167
199	-0.137
200	-0.068
200	-0.008
201	0.023
201	0.038
202	0.051
202	0.064
203	0.071
203	0.074
204	0.089
204	0.103
205	0.116
205	0.123
205	0.12
206	0.12
206	0.121
207	0.124
207	0.123
208	0.122
208	0.123
209	0.123
209	0.123
210	0.123
210	0.124
211	0.125
211	0.129
212	0.123
212	0.124
213	0.126
213	0.128
213	0.125
214	0.131
214	0.131
215	0.131
215	0.128
216	0.128
216	0.126
217	0.133
217	0.134
218	0.132
218	0.136
219	0.142
219	0.141
220	0.143
220	0.141
221	0.145
221	0.149
221	0.153
222	0.16
222	0.165
223	0.172
223	0.174
224	0.178
224	0.185
225	0.194
225	0.207
226	0.214
226	0.223
227	0.233
227	0.239
228	0.252
228	0.265
229	0.282
229	0.306
229	0.328
230	0.352
230	0.378
231	0.411
231	0.45
232	0.486
232	0.529
233	0.574
233	0.622
234	0.673
234	0.725
235	0.779
235	0.834
236	0.885
236	0.936
236	0.987
237	1.039
237	1.087
238	1.133
238	1.181
239	1.226
239	1.268
240	1.307
240	1.344
241	1.381
241	1.417
242	1.446
242	1.48
243	1.511
243	1.535
243	1.56
244	1.582
244	1.602
245	1.619
245	1.64
246	1.66
246	1.678
247	1.693
247	1.706
248	1.72
248	1.734
249	1.742
249	1.749
250	1.757
250	1.765
250	1.768
251	1.77
251	1.769
252	1.772
252	1.772
253	1.771
253	1.768
254	1.766
254	1.766
255	1.763
255	1.762
256	1.761
256	1.759
257	1.759
257	1.758
258	1.757
258	1.756
258	1.757
259	1.757
259	1.758
260	1.758
260	1.76
261	1.76
261	1.765
262	1.767
262	1.769
263	1.772
263	1.773
264	1.774
264	1.776
265	1.777
265	1.777
265	1.778
266	1.78
266	1.78
267	1.778
267	1.779
268	1.78
268	1.781
269	1.782
269	1.781
270	1.781
270	1.782
271	1.779
271	1.777
272	1.774
272	1.772
272	1.766
273	1.759
273	1.751
274	1.744
274	1.738
275	1.73
275	1.722
276	1.715
276	1.707
277	1.698
277	1.688
278	1.677
278	1.665
278	1.651
279	1.634
279	1.612
280	1.585
280	1.551
281	1.512
281	1.47
282	1.427
282	1.382
283	1.339
283	1.297
284	1.257
284	1.219
285	1.182
285	1.15
285	1.121
286	1.096
286	1.074
287	1.054
287	1.038
288	1.024
288	1.013
289	1.003
289	0.994
290	0.987
290	0.98
291	0.975
291	0.97
292	0.966
292	0.962
292	0.959
293	0.955
293	0.952
294	0.949
294	0.947
295	0.944
295	0.941
296	0.939
296	0.936
297	0.933
297	0.93
298	0.928
298	0.925
298	0.922
299	0.92
299	0.917
300	0.915
300	0.912
301	0.91
301	0.908
302	0.906
302	0.904
303	0.902
303	0.9
304	0.898
304	0.896
305	0.894
305	0.892
305	0.89
306	0.888
306	0.885
307	0.883
307	0.881
308	0.878
308	0.876
309	0.874
309	0.871
310	0.868
310	0.866
311	0.863
311	0.86
311	0.857
312	0.854
312	0.851
313	0.847
313	0.844
314	0.84
314	0.836
315	0.832
315	0.828
316	0.824
316	0.82
317	0.816
317	0.811
318	0.806
318	0.801
318	0.796
319	0.791
319	0.786
320	0.78
320	0.775
321	0.769
321	0.763
322	0.757
322	0.751
323	0.745
323	0.738
324	0.732
324	0.726
324	0.719
325	0.713
325	0.706
326	0.7
326	0.693
327	0.686
327	0.679
328	0.673
328	0.666
329	0.659
329	0.652
330	0.646
330	0.639
330	0.632
331	0.625
331	0.618
332	0.611
332	0.605
333	0.598
333	0.591
334	0.584
334	0.578
335	0.571
335	0.565
336	0.558
336	0.552
336	0.545
337	0.539
337	0.533
338	0.527
338	0.521
339	0.515
339	0.509
340	0.503
340	0.497
341	0.492
341	0.487
342	0.481
342	0.476
342	0.471
343	0.466
343	0.461
344	0.456
344	0.451
345	0.447
345	0.442
346	0.438
346	0.434
347	0.429
347	0.425
348	0.421
348	0.417
348	0.413
349	0.41
349	0.406
350	0.403
350	0.399
351	0.396
351	0.393
352	0.39
352	0.387
353	0.384
353	0.381
354	0.379
354	0.376
354	0.373
355	0.37
355	0.367
356	0.364
356	0.361
357	0.358
357	0.355
358	0.352
358	0.35
359	0.348
359	0.345
360	0.343
360	0.342
360	0.34
361	0.338
361	0.336
362	0.335
362	0.334
363	0.332
363	0.331
364	0.329
364	0.327
365	0.326
365	0.324
366	0.322
366	0.32
366	0.319
367	0.317
367	0.316
368	0.314
368	0.312
369	0.311
369	0.31
370	0.308
370	0.307
371	0.306
371	0.305
372	0.304
372	0.302
372	0.301
373	0.3
373	0.3
374	0.299
374	0.298
375	0.297
375	0.296
376	0.295
376	0.294
377	0.293
377	0.293
378	0.292
378	0.291
378	0.29
379	0.289
379	0.289
380	0.288
380	0.287
381	0.286
381	0.286
382	0.285
382	0.285
383	0.284
383	0.283
383	0.283
384	0.282
384	0.282
385	0.281
385	0.281
386	0.281
386	0.28
387	0.28
387	0.28
388	0.279
388	0.279
389	0.278
389	0.278
389	0.278
390	0.277
390	0.277
391	0.276
391	0.276
392	0.276
392	0.276
393	0.275
393	0.275
394	0.275
394	0.275
394	0.274
395	0.274
395	0.274
396	0.273
396	0.273
397	0.273
397	0.272
398	0.272
398	0.272
399	0.271
399	0.271
400	0.271
400	0.27
400	0.27
401	0.27
401	0.27
402	0.269
402	0.269
403	0.269
403	0.269
404	0.269
404	0.269
405	0.268
405	0.268
405	0.268
406	0.268
406	0.268
407	0.267
407	0.267
408	0.267
408	0.266
409	0.266
409	0.266
410	0.265
410	0.265
411	0.265
411	0.264
411	0.264
412	0.264
412	0.264
413	0.264
413	0.263
414	0.263
414	0.263
415	0.263
415	0.262
416	0.262
416	0.262
416	0.261
417	0.261
417	0.261
418	0.261
418	0.261
419	0.26
419	0.26
420	0.259
420	0.259
421	0.259
421	0.258
421	0.258
422	0.257
422	0.257
423	0.256
423	0.256
424	0.255
424	0.255
425	0.255
425	0.255
426	0.254
426	0.254
427	0.254
427	0.253
427	0.253
428	0.253
428	0.253
429	0.253
429	0.252
430	0.252
430	0.252
431	0.252
431	0.252
432	0.252
432	0.251
432	0.251
433	0.251
433	0.25
434	0.25
434	0.25
435	0.25
435	0.25
436	0.249
436	0.249
437	0.249
437	0.249
437	0.248
438	0.248
438	0.248
439	0.248
439	0.248
440	0.247
440	0.247
441	0.247
441	0.247
442	0.247
442	0.247
442	0.246
443	0.246
443	0.246
444	0.246
444	0.246
445	0.245
445	0.245
446	0.245
446	0.244
447	0.244
447	0.244
447	0.244
448	0.244
448	0.244
449	0.243
449	0.243
450	0.243
450	0.243
451	0.243
451	0.243
452	0.243
452	0.243
452	0.243
453	0.242
453	0.242
454	0.242
454	0.241
455	0.241
455	0.24
456	0.24
456	0.24
457	0.239
457	0.239
458	0.239
458	0.238
458	0.238
459	0.238
459	0.238
460	0.238
460	0.238
461	0.238
461	0.237
462	0.237
462	0.237
463	0.237
463	0.237
463	0.237
464	0.236
464	0.236
465	0.235
465	0.235
466	0.235
466	0.235
467	0.235
467	0.235
467	0.234
468	0.234
468	0.234
469	0.234
469	0.234
470	0.235
470	0.235
471	0.235
471	0.235
472	0.235
472	0.235
472	0.235
473	0.235
473	0.235
474	0.235
474	0.234
475	0.234
475	0.234
476	0.234
476	0.234
477	0.234
477	0.234
477	0.234
478	0.234
478	0.234
479	0.234
479	0.234
480	0.234
480	0.234
481	0.234
481	0.233
482	0.233
482	0.233
482	0.234
483	0.234
483	0.234
484	0.234
484	0.234
485	0.235
485	0.235
486	0.235
486	0.235
487	0.235
487	0.235
487	0.235
488	0.235
488	0.235
489	0.235
489	0.236
490	0.236
490	0.236
491	0.237
491	0.237
492	0.238
492	0.238
492	0.239
493	0.239
493	0.239
494	0.24
494	0.24
495	0.24
495	0.24
496	0.24
496	0.241
496	0.241
497	0.241
497	0.242
498	0.242
498	0.242
499	0.243
499	0.243
500	0.244
500	0.244
501	0.245
501	0.245
501	0.245
502	0.246
502	0.246
503	0.246
503	0.247
504	0.247
504	0.247
505	0.248
505	0.248
506	0.248
506	0.249
506	0.249
507	0.249
507	0.25
508	0.25
508	0.251
509	0.251
509	0.252
510	0.252
510	0.253
511	0.253
511	0.254
511	0.255
512	0.255
512	0.256
513	0.256
513	0.257
514	0.257
514	0.258
515	0.258
515	0.258
515	0.259
516	0.259
516	0.26
517	0.26
517	0.26
518	0.261
518	0.261
519	0.261
519	0.261
520	0.262
520	0.262
520	0.262
521	0.262
521	0.262
522	0.262
522	0.262
523	0.263
523	0.263
524	0.263
524	0.263
524	0.263
525	0.264
525	0.264
526	0.264
526	0.264
527	0.264
527	0.264
528	0.264
528	0.264
529	0.265
529	0.265
529	0.264
530	0.265
530	0.265
531	0.265
531	0.265
532	0.265
532	0.265
533	0.265
533	0.264
533	0.265
534	0.264
534	0.264
535	0.264
535	0.264
536	0.264
536	0.264
537	0.264
537	0.264
538	0.264
538	0.263
538	0.263
539	0.263
539	0.263
540	0.263
540	0.263
541	0.263
541	0.262
542	0.262
542	0.262
542	0.261
543	0.261
543	0.261
544	0.261
544	0.261
545	0.261
545	0.261
546	0.261
546	0.26
547	0.26
547	0.259
547	0.259
548	0.259
548	0.259
549	0.258
549	0.258
550	0.258
550	0.257
551	0.257
551	0.257
551	0.256
552	0.256
552	0.256
553	0.255
553	0.255
554	0.255
554	0.254
555	0.254
555	0.253
556	0.253
556	0.252
556	0.252
557	0.252
557	0.252
558	0.252
558	0.252
559	0.252
559	0.252
560	0.252
560	0.252
560	0.252
561	0.252
561	0.251
562	0.25
562	0.25
563	0.249
563	0.248
564	0.247
564	0.247
564	0.247
565	0.247
565	0.246
566	0.246
566	0.246
567	0.246
567	0.246
568	0.246
568	0.246
568	0.246
569	0.246
569	0.245
570	0.245
570	0.244
571	0.243
571	0.243
572	0.242
572	0.242
573	0.242
573	0.241
573	0.241
574	0.24
574	0.24
575	0.24
575	0.24
576	0.24
576	0.239
577	0.239
577	0.238
577	0.238
578	0.237
578	0.237
579	0.237
579	0.237
580	0.236
580	0.235
581	0.235
581	0.234
581	0.235
582	0.235
582	0.235
583	0.235
583	0.235
584	0.234
584	0.233
585	0.233
585	0.233
585	0.233
586	0.232
586	0.232
587	0.231
587	0.23
588	0.229
588	0.229
589	0.229
589	0.229
590	0.229
590	0.229
590	0.229
591	0.23
591	0.229
592	0.229
592	0.228
593	0.228
593	0.227
594	0.227
594	0.226
594	0.225
595	0.225
595	0.225
596	0.224
596	0.224
597	0.225
597	0.226
598	0.225
598	0.226
598	0.225
599	0.225
599	0.225
600	0.225
600	0.224
601	0.224
601	0.224
602	0.224
602	0.223
602	0.223
603	0.223
603	0.223
604	0.223
604	0.223
605	0.223
605	0.223
606	0.223
606	0.222
606	0.221
607	0.221
607	0.22
608	0.22
608	0.219
609	0.219
609	0.218
610	0.218
610	0.217
610	0.217
611	0.218
611	0.218
612	0.217
612	0.217
613	0.218
613	0.218
614	0.217
614	0.217
614	0.217
615	0.217
615	0.217
616	0.217
616	0.217
617	0.217
617	0.216
618	0.216
618	0.216
618	0.216
619	0.216
619	0.216
620	0.216
620	0.216
621	0.216
621	0.215
622	0.215
622	0.215
622	0.214
623	0.214
623	0.214
624	0.213
624	0.213
625	0.212
625	0.212
626	0.212
626	0.212
626	0.212
627	0.212
627	0.211
628	0.211
628	0.211
629	0.211
629	0.211
630	0.21
630	0.21
630	0.21
631	0.21
631	0.21
632	0.21
632	0.21
633	0.21
633	0.209
634	0.21
634	0.21
634	0.21
635	0.209
635	0.209
636	0.209
636	0.209
637	0.208
637	0.208
638	0.208
638	0.208
638	0.208
639	0.207
639	0.207
640	0.207
640	0.207
641	0.207
641	0.207
642	0.207
642	0.207
642	0.207
643	0.207
643	0.207
644	0.207
644	0.207
645	0.207
645	0.207
646	0.207
646	0.207
646	0.207
647	0.207
647	0.206
648	0.206
648	0.205
649	0.205
649	0.205
650	0.205
650	0.205
650	0.205
651	0.205
651	0.205
652	0.205
652	0.205
653	0.205
653	0.207
653	0.214
654	0.167
654	0.133
655	0.134
655	0.134
656	0.135
656	0.135
657	0.135
657	0.136
657	0.136
658	0.134
658	0.123
659	0.155
659	0.2
660	0.205
660	0.206
661	0.205
661	0.205
661	0.205
662	0.205
662	0.205
663	0.205
663	0.205
664	0.205
664	0.205
665	0.204
665	0.204
665	0.204
666	0.204
666	0.204
667	0.204
667	0.204
668	0.204
668	0.204
669	0.204
669	0.204
669	0.205
670	0.205
670	0.205
671	0.205
671	0.205
672	0.205
672	0.204
672	0.204
673	0.204
673	0.204
674	0.204
674	0.204
675	0.204
675	0.204
676	0.205
676	0.205
676	0.205
677	0.205
677	0.205
678	0.204
678	0.204
679	0.203
679	0.203
680	0.203
680	0.203
680	0.202
681	0.203
681	0.203
682	0.204
682	0.204
683	0.205
683	0.206
684	0.206
684	0.206
684	0.206
685	0.207
685	0.207
686	0.207
686	0.207
687	0.207
687	0.207
687	0.207
688	0.207
688	0.206
689	0.207
689	0.207
690	0.207
690	0.206
691	0.206
691	0.207
691	0.207
692	0.207
692	0.207
693	0.207
693	0.207
694	0.207
694	0.207
695	0.208
695	0.209
695	0.21
696	0.21
696	0.21
697	0.21
697	0.21
698	0.21
698	0.21
698	0.211
699	0.211
699	0.211
700	0.21
700	0.21
701	0.21
701	0.21
702	0.21
702	0.21
702	0.21
703	0.209
703	0.209
704	0.209
704	0.209
705	0.209
705	0.209
705	0.209
706	0.209
706	0.209
707	0.209
707	0.209
708	0.209
708	0.209
709	0.21
709	0.209
709	0.209
710	0.209
710	0.209
711	0.21
711	0.21
712	0.21
712	0.21
713	0.211
713	0.211
713	0.211
714	0.211
714	0.211
715	0.21
715	0.21
716	0.21
716	0.209
716	0.209
717	0.208
717	0.208
718	0.208
718	0.208
719	0.208
719	0.209
720	0.209
720	0.21
720	0.21
721	0.211
721	0.212
722	0.213
722	0.213
723	0.213
723	0.214
723	0.214
724	0.214
724	0.214
725	0.213
725	0.213
726	0.212
726	0.212
727	0.211
727	0.211
727	0.211
728	0.211
728	0.21
729	0.211
729	0.211
730	0.211
730	0.212
730	0.212
731	0.213
731	0.213
732	0.214
732	0.214
733	0.215
733	0.215
734	0.215
734	0.215
734	0.216
735	0.216
735	0.216
736	0.215
736	0.215
737	0.215
737	0.215
737	0.214
738	0.214
738	0.213
739	0.213
739	0.212
740	0.212
740	0.212
741	0.213
741	0.213
741	0.213
742	0.213
742	0.214
743	0.215
743	0.215
744	0.216
744	0.216
744	0.216
745	0.216
745	0.216
746	0.216
746	0.216
747	0.216
747	0.216
748	0.216
748	0.216
748	0.216
749	0.216
749	0.216
750	0.216
750	0.216
751	0.216
751	0.216
751	0.216
752	0.215
752	0.215
753	0.214
753	0.214
754	0.214
754	0.214
754	0.214
755	0.215
755	0.215
756	0.215
756	0.215
757	0.215
757	0.216
758	0.216
758	0.217
758	0.217
759	0.218
759	0.217
760	0.217
760	0.217
761	0.217
761	0.217
761	0.218
762	0.217
762	0.217
763	0.217
763	0.217
764	0.216
764	0.216
764	0.216
765	0.216
765	0.216
766	0.216
766	0.216
767	0.216
767	0.215
768	0.215
768	0.215
768	0.215
769	0.215
769	0.215
770	0.216
770	0.216
771	0.217
771	0.217
771	0.217
772	0.218
772	0.219
773	0.219
773	0.219
774	0.219
774	0.219
775	0.22
775	0.219
775	0.219
776	0.219
776	0.219
777	0.219
777	0.219
778	0.219
778	0.219
778	0.219
779	0.219
779	0.218
780	0.218
780	0.217
781	0.217
781	0.217
781	0.217
782	0.217
782	0.217
783	0.217
783	0.218
784	0.218
784	0.219
784	0.22
785	0.221
785	0.221
786	0.222
786	0.222
787	0.223
787	0.223
788	0.223
788	0.222
788	0.222
789	0.222
789	0.222
790	0.222
790	0.222
791	0.222
791	0.221
791	0.221
792	0.221
792	0.221
793	0.221
793	0.221
794	0.22
794	0.219
794	0.219
795	0.219
795	0.219
796	0.219
796	0.219
797	0.218
797	0.218
797	0.219
798	0.219
798	0.22
799	0.22
799	0.22
800	0.22
800	0.22
801	0.22
801	0.221
801	0.221
802	0.221
802	0.221
803	0.222
803	0.222
804	0.222
804	0.223
804	0.223
805	0.223
805	0.223
806	0.223
806	0.223
807	0.223
807	0.223
807	0.223
808	0.224
808	0.224
809	0.224
809	0.224
810	0.225
810	0.225
810	0.225
811	0.225
811	0.226
812	0.226
812	0.227
813	0.227
813	0.227
813	0.227
814	0.227
814	0.227
815	0.228
815	0.228
816	0.228
816	0.228
817	0.227
817	0.227
817	0.227
818	0.227
818	0.227
819	0.227
819	0.226
820	0.225
820	0.225
820	0.225
821	0.225
821	0.225
822	0.225
822	0.225
823	0.226
823	0.226
823	0.226
824	0.227
824	0.228
825	0.229
825	0.23
826	0.231
826	0.231
826	0.231
827	0.231
827	0.231
828	0.231
828	0.231
829	0.231
829	0.231
829	0.231
830	0.23
830	0.231
831	0.231
831	0.231
832	0.231
832	0.231
832	0.231
833	0.231
833	0.231
834	0.232
834	0.232
835	0.232
835	0.232
835	0.232
836	0.232
836	0.232
837	0.232
837	0.232
838	0.232
838	0.231
839	0.231
839	0.23
839	0.229
840	0.228
840	0.227
841	0.227
841	0.226
842	0.225
842	0.225
842	0.225
843	0.224
843	0.224
844	0.224
844	0.224
845	0.224
845	0.223
845	0.223
846	0.223
846	0.223
847	0.223
847	0.223
848	0.223
848	0.223
848	0.224
849	0.224
849	0.224
850	0.224
850	0.224
851	0.225
851	0.225
851	0.225
852	0.225
852	0.225
853	0.225
853	0.225
854	0.225
854	0.225
854	0.226
855	0.226
855	0.226
856	0.227
856	0.227
857	0.228
857	0.228
857	0.229
858	0.229
858	0.229
859	0.229
859	0.228
860	0.228
860	0.228
860	0.227
861	0.227
861	0.226
862	0.226
862	0.225
863	0.224
863	0.224
863	0.224
864	0.224
864	0.224
865	0.224
865	0.224
866	0.224
866	0.224
866	0.225
867	0.225
867	0.226
868	0.226
868	0.227
869	0.227
869	0.227
869	0.227
870	0.227
870	0.227
871	0.227
871	0.227
872	0.227
872	0.227
872	0.227
873	0.226
873	0.226
874	0.225
874	0.225
875	0.225
875	0.225
875	0.224
876	0.224
876	0.224
877	0.224
877	0.224
878	0.225
878	0.225
878	0.226
879	0.226
879	0.226
880	0.226
880	0.226
881	0.226
881	0.226
881	0.226
882	0.225
882	0.225
883	0.224
883	0.224
884	0.223
884	0.223
884	0.222
885	0.222
885	0.221
886	0.221
886	0.22
887	0.219
887	0.219
887	0.218
888	0.218
888	0.217
889	0.216
889	0.216
890	0.216
890	0.216
890	0.215
891	0.215
891	0.215
892	0.214
892	0.214
893	0.214
893	0.214
893	0.213
894	0.213
894	0.213
895	0.213
895	0.213
895	0.213
896	0.213
896	0.213
897	0.213
897	0.214
898	0.214
898	0.214
898	0.214
899	0.214
899	0.214
900	0.214
900	0.214
901	0.214
901	0.214
901	0.214
902	0.214
902	0.214
903	0.213
903	0.213
904	0.212
904	0.212
904	0.211
905	0.21
905	0.209
906	0.208
906	0.208
907	0.207
907	0.207
907	0.207
908	0.206
908	0.206
909	0.206
909	0.206
910	0.206
910	0.206
910	0.205
911	0.205
911	0.205
912	0.204
912	0.204
913	0.204
913	0.203
913	0.203
914	0.203
914	0.203
915	0.203
915	0.203
916	0.203
916	0.203
916	0.203
917	0.203
917	0.203
918	0.202
918	0.202
918	0.201
919	0.201
919	0.2
920	0.2
920	0.2
921	0.199
921	0.199
921	0.198
922	0.198
922	0.198
923	0.198
923	0.198
924	0.198
924	0.198
924	0.199
925	0.199
925	0.199
926	0.199
926	0.199
927	0.199
927	0.199
927	0.199
928	0.198
928	0.198
929	0.198
929	0.198
930	0.197
930	0.197
930	0.197
931	0.196
931	0.196
932	0.196
932	0.195
933	0.195
933	0.194
933	0.193
934	0.193
934	0.192
935	0.191
935	0.191
935	0.19
936	0.189
936	0.188
937	0.188
937	0.187
938	0.187
938	0.187
938	0.186
939	0.186
939	0.186
940	0.186
940	0.186
941	0.186
941	0.187
941	0.187
942	0.187
942	0.187
943	0.187
943	0.187
944	0.187
944	0.187
944	0.187
945	0.187
945	0.187
946	0.187
946	0.186
946	0.186
947	0.186
947	0.185
948	0.185
948	0.184
949	0.183
949	0.182
949	0.181
950	0.18
950	0.179
951	0.178
951	0.176
952	0.175
952	0.174
952	0.173
953	0.173
953	0.172
954	0.171
954	0.171
955	0.171
955	0.17
955	0.17
956	0.17
956	0.17
957	0.17
957	0.17
957	0.17
958	0.17
958	0.17
959	0.17
959	0.169
960	0.169
960	0.169
960	0.169
961	0.168
961	0.168
962	0.168
962	0.167
963	0.167
963	0.167
963	0.167
964	0.168
964	0.168
965	0.168
965	0.168
966	0.168
966	0.168
966	0.168
967	0.168
967	0.168
968	0.169
968	0.168
968	0.168
969	0.167
969	0.167
970	0.166
970	0.165
971	0.164
971	0.163
971	0.162
972	0.161
972	0.159
973	0.158
973	0.158
974	0.157
974	0.157
974	0.157
975	0.157
975	0.158
976	0.159
976	0.16
976	0.16
977	0.161
977	0.162
978	0.162
978	0.163
979	0.163
979	0.163
979	0.163
980	0.163
980	0.162
981	0.161
981	0.161
982	0.16
982	0.159
982	0.159
983	0.158
983	0.157
984	0.157
984	0.156
984	0.156
985	0.155
985	0.155
986	0.155
986	0.154
987	0.154
987	0.154
987	0.153
988	0.153
988	0.153
989	0.152
989	0.152
990	0.152
990	0.152
990	0.152
991	0.151
991	0.151
992	0.151
992	0.15
992	0.149
993	0.148
993	0.147
994	0.146
994	0.145
995	0.144
995	0.143
995	0.143
996	0.142
996	0.142
997	0.142
997	0.142
997	0.143
998	0.143
998	0.144
999	0.145
999	0.146
1000	0.147
1000	0.147
1000	0.148
1001	0.148
1001	0.148
1002	0.148
1002	0.148
1003	0.148
1003	0.147
1003	0.146
1004	0.145
1004	0.144
1005	0.144
1005	0.143
1005	0.142
1006	0.142
1006	0.141
1007	0.141
1007	0.14
1008	0.14
1008	0.14
1008	0.139
1009	0.139
1009	0.139
1010	0.139
1010	0.138
1010	0.138
1011	0.137
1011	0.137
1012	0.136
1012	0.135
1013	0.135
1013	0.134
1013	0.133
1014	0.133
1014	0.132
1015	0.132
1015	0.131
1016	0.131
1016	0.131
1016	0.13
1017	0.13
1017	0.13
1018	0.13
1018	0.13
1018	0.13
1019	0.13
1019	0.131
1020	0.131
1020	0.131
1021	0.131
1021	0.131
1021	0.131
1022	0.131
1022	0.131
1023	0.131
1023	0.131
1023	0.131
1024	0.131
1024	0.131
1025	0.131
1025	0.131
1026	0.131
1026	0.131
1026	0.131
1027	0.131
1027	0.132
1028	0.132
1028	0.132
1028	0.132
1029	0.132
1029	0.132
1030	0.132
1030	0.132
1031	0.132
1031	0.132
1031	0.132
1032	0.132
1032	0.132
1033	0.131
1033	0.131
1033	0.131
1034	0.131
1034	0.13
1035	0.13
1035	0.129
1036	0.128
1036	0.128
1036	0.127
1037	0.127
1037	0.126
1038	0.126
1038	0.125
1039	0.125
1039	0.124
1039	0.124
1040	0.124
1040	0.124
1041	0.124
1041	0.124
1041	0.124
1042	0.124
1042	0.124
1043	0.123
1043	0.123
1044	0.123
1044	0.122
1044	0.122
1045	0.122
1045	0.121
1046	0.121
1046	0.12
1046	0.12
1047	0.12
1047	0.12
1048	0.12
1048	0.12
1049	0.12
1049	0.12
1049	0.119
1050	0.119
1050	0.119
1051	0.118
1051	0.118
1051	0.117
1052	0.117
1052	0.116
1053	0.115
1053	0.114
1053	0.114
1054	0.113
1054	0.113
1055	0.112
1055	0.111
1056	0.11
1056	0.109
1056	0.108
1057	0.107
1057	0.106
1058	0.105
1058	0.104
1058	0.103
1059	0.102
1059	0.102
1060	0.101
1060	0.1
1061	0.1
1061	0.099
1061	0.099
1062	0.098
1062	0.098
1063	0.098
1063	0.098
1063	0.097
1064	0.097
1064	0.097
1065	0.097
1065	0.097
1066	0.097
1066	0.097
1066	0.097
1067	0.097
1067	0.096
1068	0.096
1068	0.096
1068	0.096
1069	0.095
1069	0.095
1070	0.094
1070	0.094
1071	0.093
1071	0.093
1071	0.093
1072	0.093
1072	0.093
1073	0.093
1073	0.093
1073	0.093
1074	0.094
1074	0.094
1075	0.094
1075	0.095
1076	0.095
1076	0.095
1076	0.095
1077	0.095
1077	0.096
1078	0.096
1078	0.095
1078	0.095
1079	0.095
1079	0.095
1080	0.094
1080	0.094
1080	0.093
1081	0.093
1081	0.093
1082	0.093
1082	0.093
1083	0.093
1083	0.093
1083	0.093
1084	0.093
1084	0.093
1085	0.093
1085	0.094
1085	0.094
1086	0.095
1086	0.094
1087	0.094
1087	0.093
1088	0.093
1088	0.093
1088	0.093
1089	0.092
1089	0.091
1090	0.091
1090	0.09
1090	0.089
1091	0.089
1091	0.089
1092	0.089
1092	0.088
1092	0.088
1093	0.087
1093	0.087
1094	0.086
1094	0.086
1095	0.086
1095	0.085
1095	0.085
1096	0.083
1096	0.083
1097	0.082
1097	0.081
1097	0.081
1098	0.081
1098	0.08
1099	0.079
1099	0.078
1100	0.077
1100	0.075
1100	0.074
1101	0.073
1101	0.072
1102	0.071
1102	0.069
1102	0.068
1103	0.067
1103	0.066
1104	0.066
1104	0.065
1104	0.064
1105	0.063
1105	0.061
1106	0.06
1106	0.057
1107	0.058
1107	0.056
1107	0.055
1108	0.054
1108	0.053
1109	0.051
1109	0.051
1109	0.051
1110	0.052
1110	0.053
1111	0.054
1111	0.05
