Data from reversibility-20sec_Absorbance__1615__000000000001615.txt Node

Date: Tue Dec 05 21:11:25 CET 2023
User: Marek
Spectrometer: MAYP115816
Trigger mode: 0
Integration Time (sec): 2.000000E-1
Scans to average: 10
Electric dark correction enabled: true
Nonlinearity correction enabled: true
Boxcar width: 5
XAxis mode: Wavelengths
Number of Pixels in Spectrum: 2068
>>>>>Begin Spectral Data<<<<<
199	-0.24
199	-0.206
200	-0.132
200	-0.078
201	-0.045
201	-0.028
202	-0.014
202	-0.005
203	0.004
203	0.009
204	0.022
204	0.037
205	0.052
205	0.058
205	0.058
206	0.056
206	0.056
207	0.058
207	0.057
208	0.055
208	0.055
209	0.058
209	0.054
210	0.053
210	0.052
211	0.051
211	0.053
212	0.053
212	0.055
213	0.06
213	0.063
213	0.061
214	0.062
214	0.064
215	0.065
215	0.066
216	0.068
216	0.067
217	0.07
217	0.071
218	0.07
218	0.073
219	0.081
219	0.082
220	0.086
220	0.087
221	0.087
221	0.089
221	0.094
222	0.098
222	0.1
223	0.104
223	0.106
224	0.108
224	0.116
225	0.127
225	0.136
226	0.146
226	0.156
227	0.166
227	0.174
228	0.192
228	0.207
229	0.226
229	0.25
229	0.274
230	0.297
230	0.328
231	0.358
231	0.398
232	0.437
232	0.482
233	0.526
233	0.573
234	0.621
234	0.675
235	0.728
235	0.779
236	0.828
236	0.885
236	0.939
237	0.992
237	1.043
238	1.091
238	1.14
239	1.193
239	1.237
240	1.281
240	1.323
241	1.365
241	1.405
242	1.442
242	1.481
243	1.513
243	1.545
243	1.573
244	1.599
244	1.624
245	1.646
245	1.673
246	1.695
246	1.713
247	1.728
247	1.746
248	1.766
248	1.785
249	1.801
249	1.813
250	1.827
250	1.84
250	1.848
251	1.857
251	1.863
252	1.873
252	1.875
253	1.88
253	1.88
254	1.881
254	1.884
255	1.884
255	1.888
256	1.89
256	1.893
257	1.898
257	1.898
258	1.902
258	1.904
258	1.905
259	1.908
259	1.91
260	1.911
260	1.913
261	1.916
261	1.918
262	1.922
262	1.925
263	1.932
263	1.933
264	1.937
264	1.941
265	1.944
265	1.946
265	1.948
266	1.95
266	1.952
267	1.951
267	1.953
268	1.952
268	1.954
269	1.958
269	1.959
270	1.959
270	1.958
271	1.956
271	1.957
272	1.955
272	1.955
272	1.954
273	1.946
273	1.941
274	1.934
274	1.93
275	1.924
275	1.919
276	1.914
276	1.907
277	1.901
277	1.891
278	1.88
278	1.87
278	1.858
279	1.843
279	1.822
280	1.797
280	1.768
281	1.733
281	1.693
282	1.652
282	1.609
283	1.568
283	1.526
284	1.487
284	1.448
285	1.412
285	1.378
285	1.349
286	1.322
286	1.298
287	1.277
287	1.26
288	1.244
288	1.231
289	1.219
289	1.209
290	1.2
290	1.192
291	1.185
291	1.179
292	1.173
292	1.168
292	1.164
293	1.159
293	1.155
294	1.151
294	1.148
295	1.144
295	1.141
296	1.137
296	1.133
297	1.13
297	1.127
298	1.124
298	1.121
298	1.118
299	1.115
299	1.112
300	1.109
300	1.106
301	1.103
301	1.1
302	1.097
302	1.094
303	1.092
303	1.089
304	1.086
304	1.083
305	1.081
305	1.078
305	1.075
306	1.073
306	1.07
307	1.067
307	1.064
308	1.061
308	1.058
309	1.055
309	1.052
310	1.049
310	1.046
311	1.043
311	1.039
311	1.035
312	1.031
312	1.027
313	1.023
313	1.019
314	1.015
314	1.011
315	1.006
315	1.001
316	0.997
316	0.992
317	0.987
317	0.982
318	0.977
318	0.972
318	0.966
319	0.96
319	0.955
320	0.949
320	0.943
321	0.937
321	0.93
322	0.924
322	0.917
323	0.911
323	0.904
324	0.897
324	0.89
324	0.884
325	0.876
325	0.87
326	0.862
326	0.855
327	0.848
327	0.841
328	0.834
328	0.827
329	0.82
329	0.812
330	0.805
330	0.798
330	0.791
331	0.784
331	0.777
332	0.77
332	0.763
333	0.755
333	0.748
334	0.741
334	0.734
335	0.727
335	0.72
336	0.713
336	0.706
336	0.7
337	0.693
337	0.687
338	0.681
338	0.674
339	0.668
339	0.662
340	0.656
340	0.651
341	0.645
341	0.639
342	0.633
342	0.628
342	0.623
343	0.617
343	0.612
344	0.607
344	0.601
345	0.596
345	0.592
346	0.587
346	0.583
347	0.578
347	0.574
348	0.569
348	0.565
348	0.561
349	0.557
349	0.553
350	0.549
350	0.545
351	0.542
351	0.538
352	0.535
352	0.531
353	0.528
353	0.525
354	0.522
354	0.519
354	0.516
355	0.513
355	0.51
356	0.507
356	0.504
357	0.5
357	0.498
358	0.495
358	0.492
359	0.489
359	0.487
360	0.485
360	0.482
360	0.48
361	0.478
361	0.476
362	0.475
362	0.472
363	0.47
363	0.468
364	0.466
364	0.464
365	0.462
365	0.46
366	0.458
366	0.455
366	0.453
367	0.451
367	0.449
368	0.448
368	0.446
369	0.444
369	0.443
370	0.441
370	0.439
371	0.438
371	0.436
372	0.434
372	0.433
372	0.432
373	0.43
373	0.429
374	0.427
374	0.426
375	0.425
375	0.424
376	0.422
376	0.421
377	0.42
377	0.418
378	0.417
378	0.416
378	0.415
379	0.414
379	0.413
380	0.412
380	0.411
381	0.41
381	0.409
382	0.408
382	0.407
383	0.406
383	0.405
383	0.404
384	0.403
384	0.402
385	0.401
385	0.401
386	0.4
386	0.399
387	0.398
387	0.397
388	0.397
388	0.396
389	0.395
389	0.395
389	0.394
390	0.393
390	0.393
391	0.392
391	0.391
392	0.39
392	0.39
393	0.389
393	0.388
394	0.388
394	0.387
394	0.386
395	0.386
395	0.385
396	0.385
396	0.384
397	0.383
397	0.382
398	0.382
398	0.381
399	0.381
399	0.38
400	0.379
400	0.379
400	0.378
401	0.378
401	0.377
402	0.376
402	0.376
403	0.375
403	0.375
404	0.374
404	0.374
405	0.374
405	0.373
405	0.373
406	0.372
406	0.372
407	0.371
407	0.37
408	0.37
408	0.369
409	0.369
409	0.368
410	0.367
410	0.367
411	0.366
411	0.366
411	0.366
412	0.365
412	0.365
413	0.365
413	0.364
414	0.364
414	0.364
415	0.363
415	0.363
416	0.362
416	0.362
416	0.361
417	0.361
417	0.361
418	0.36
418	0.36
419	0.359
419	0.359
420	0.358
420	0.358
421	0.357
421	0.357
421	0.357
422	0.356
422	0.356
423	0.356
423	0.355
424	0.355
424	0.354
425	0.354
425	0.354
426	0.353
426	0.353
427	0.353
427	0.352
427	0.352
428	0.352
428	0.351
429	0.351
429	0.351
430	0.35
430	0.35
431	0.35
431	0.349
432	0.349
432	0.349
432	0.348
433	0.348
433	0.348
434	0.348
434	0.347
435	0.347
435	0.347
436	0.347
436	0.347
437	0.347
437	0.346
437	0.346
438	0.346
438	0.346
439	0.346
439	0.346
440	0.345
440	0.345
441	0.345
441	0.345
442	0.345
442	0.345
442	0.345
443	0.344
443	0.344
444	0.344
444	0.344
445	0.344
445	0.344
446	0.344
446	0.344
447	0.343
447	0.343
447	0.343
448	0.344
448	0.343
449	0.343
449	0.343
450	0.343
450	0.343
451	0.343
451	0.343
452	0.343
452	0.343
452	0.343
453	0.343
453	0.343
454	0.343
454	0.342
455	0.342
455	0.342
456	0.342
456	0.342
457	0.342
457	0.342
458	0.342
458	0.342
458	0.342
459	0.342
459	0.342
460	0.342
460	0.342
461	0.343
461	0.343
462	0.343
462	0.343
463	0.343
463	0.343
463	0.343
464	0.343
464	0.343
465	0.344
465	0.344
466	0.344
466	0.344
467	0.344
467	0.345
467	0.344
468	0.345
468	0.345
469	0.345
469	0.345
470	0.346
470	0.346
471	0.346
471	0.346
472	0.347
472	0.348
472	0.348
473	0.349
473	0.35
474	0.35
474	0.351
475	0.351
475	0.352
476	0.353
476	0.354
477	0.354
477	0.355
477	0.356
478	0.356
478	0.357
479	0.358
479	0.359
480	0.359
480	0.36
481	0.361
481	0.362
482	0.362
482	0.363
482	0.364
483	0.365
483	0.366
484	0.367
484	0.368
485	0.369
485	0.369
486	0.37
486	0.371
487	0.372
487	0.373
487	0.374
488	0.375
488	0.376
489	0.378
489	0.379
490	0.381
490	0.383
491	0.384
491	0.385
492	0.387
492	0.388
492	0.389
493	0.391
493	0.392
494	0.394
494	0.395
495	0.397
495	0.398
496	0.4
496	0.401
496	0.403
497	0.405
497	0.406
498	0.408
498	0.409
499	0.411
499	0.413
500	0.415
500	0.417
501	0.419
501	0.42
501	0.421
502	0.423
502	0.424
503	0.426
503	0.427
504	0.429
504	0.43
505	0.431
505	0.433
506	0.434
506	0.436
506	0.437
507	0.438
507	0.44
508	0.441
508	0.443
509	0.444
509	0.446
510	0.447
510	0.448
511	0.449
511	0.451
511	0.452
512	0.454
512	0.455
513	0.456
513	0.457
514	0.458
514	0.459
515	0.46
515	0.461
515	0.461
516	0.462
516	0.463
517	0.463
517	0.464
518	0.464
518	0.464
519	0.464
519	0.464
520	0.465
520	0.465
520	0.465
521	0.465
521	0.465
522	0.464
522	0.464
523	0.464
523	0.464
524	0.464
524	0.464
524	0.464
525	0.463
525	0.462
526	0.462
526	0.461
527	0.461
527	0.46
528	0.459
528	0.458
529	0.457
529	0.456
529	0.454
530	0.453
530	0.451
531	0.45
531	0.448
532	0.447
532	0.445
533	0.444
533	0.442
533	0.44
534	0.438
534	0.436
535	0.434
535	0.433
536	0.431
536	0.429
537	0.427
537	0.425
538	0.422
538	0.42
538	0.418
539	0.416
539	0.413
540	0.411
540	0.409
541	0.406
541	0.403
542	0.401
542	0.398
542	0.396
543	0.393
543	0.391
544	0.388
544	0.386
545	0.383
545	0.381
546	0.378
546	0.375
547	0.372
547	0.37
547	0.367
548	0.364
548	0.362
549	0.359
549	0.357
550	0.354
550	0.351
551	0.348
551	0.345
551	0.343
552	0.34
552	0.338
553	0.335
553	0.332
554	0.33
554	0.327
555	0.324
555	0.321
556	0.319
556	0.316
556	0.314
557	0.312
557	0.309
558	0.307
558	0.304
559	0.302
559	0.299
560	0.297
560	0.295
560	0.293
561	0.291
561	0.288
562	0.285
562	0.283
563	0.28
563	0.278
564	0.275
564	0.273
564	0.271
565	0.269
565	0.267
566	0.265
566	0.262
567	0.26
567	0.259
568	0.257
568	0.255
568	0.253
569	0.252
569	0.25
570	0.247
570	0.245
571	0.244
571	0.242
572	0.24
572	0.238
573	0.236
573	0.234
573	0.232
574	0.23
574	0.228
575	0.227
575	0.225
576	0.224
576	0.222
577	0.22
577	0.218
577	0.217
578	0.215
578	0.214
579	0.213
579	0.212
580	0.21
580	0.208
581	0.206
581	0.204
581	0.204
582	0.203
582	0.202
583	0.201
583	0.2
584	0.198
584	0.196
585	0.194
585	0.193
585	0.192
586	0.191
586	0.189
587	0.188
587	0.186
588	0.185
588	0.183
589	0.182
589	0.181
590	0.18
590	0.179
590	0.179
591	0.178
591	0.177
592	0.176
592	0.174
593	0.173
593	0.172
594	0.171
594	0.17
594	0.169
595	0.168
595	0.166
596	0.165
596	0.165
597	0.165
597	0.164
598	0.163
598	0.162
598	0.161
599	0.161
599	0.16
600	0.159
600	0.158
601	0.157
601	0.156
602	0.155
602	0.154
602	0.153
603	0.152
603	0.152
604	0.151
604	0.151
605	0.15
605	0.149
606	0.149
606	0.147
606	0.147
607	0.146
607	0.145
608	0.145
608	0.143
609	0.142
609	0.142
610	0.141
610	0.14
610	0.14
611	0.14
611	0.139
612	0.139
612	0.139
613	0.138
613	0.138
614	0.137
614	0.136
614	0.136
615	0.135
615	0.134
616	0.134
616	0.133
617	0.133
617	0.132
618	0.131
618	0.13
618	0.13
619	0.13
619	0.13
620	0.13
620	0.129
621	0.128
621	0.127
622	0.127
622	0.126
622	0.125
623	0.124
623	0.124
624	0.123
624	0.122
625	0.122
625	0.121
626	0.121
626	0.12
626	0.12
627	0.12
627	0.119
628	0.119
628	0.119
629	0.118
629	0.117
630	0.117
630	0.116
630	0.116
631	0.115
631	0.115
632	0.114
632	0.114
633	0.113
633	0.113
634	0.113
634	0.114
634	0.113
635	0.113
635	0.112
636	0.112
636	0.112
637	0.111
637	0.111
638	0.111
638	0.11
638	0.109
639	0.109
639	0.108
640	0.108
640	0.107
641	0.107
641	0.106
642	0.106
642	0.106
642	0.106
643	0.105
643	0.105
644	0.105
644	0.105
645	0.104
645	0.104
646	0.104
646	0.104
646	0.104
647	0.103
647	0.103
648	0.102
648	0.102
649	0.101
649	0.101
650	0.101
650	0.101
650	0.1
651	0.1
651	0.099
652	0.099
652	0.098
653	0.099
653	0.1
653	0.107
654	0.086
654	0.07
655	0.068
655	0.068
656	0.068
656	0.068
657	0.068
657	0.068
657	0.068
658	0.066
658	0.057
659	0.071
659	0.09
660	0.095
660	0.095
661	0.094
661	0.094
661	0.093
662	0.093
662	0.092
663	0.092
663	0.092
664	0.091
664	0.091
665	0.09
665	0.09
665	0.09
666	0.089
666	0.089
667	0.089
667	0.089
668	0.089
668	0.089
669	0.088
669	0.088
669	0.089
670	0.089
670	0.089
671	0.089
671	0.088
672	0.088
672	0.087
672	0.087
673	0.087
673	0.086
674	0.086
674	0.085
675	0.085
675	0.085
676	0.085
676	0.085
676	0.085
677	0.085
677	0.085
678	0.084
678	0.084
679	0.083
679	0.083
680	0.083
680	0.082
680	0.081
681	0.081
681	0.082
682	0.082
682	0.082
683	0.083
683	0.083
684	0.084
684	0.083
684	0.083
685	0.083
685	0.083
686	0.083
686	0.083
687	0.082
687	0.082
687	0.081
688	0.081
688	0.08
689	0.08
689	0.081
690	0.08
690	0.08
691	0.08
691	0.08
691	0.08
692	0.08
692	0.08
693	0.08
693	0.08
694	0.08
694	0.08
695	0.08
695	0.081
695	0.08
696	0.08
696	0.079
697	0.079
697	0.078
698	0.078
698	0.077
698	0.077
699	0.077
699	0.076
700	0.075
700	0.076
701	0.076
701	0.076
702	0.076
702	0.076
702	0.076
703	0.076
703	0.076
704	0.076
704	0.075
705	0.075
705	0.075
705	0.074
706	0.074
706	0.074
707	0.074
707	0.074
708	0.074
708	0.074
709	0.074
709	0.074
709	0.073
710	0.073
710	0.073
711	0.073
711	0.073
712	0.073
712	0.072
713	0.072
713	0.072
713	0.072
714	0.072
714	0.072
715	0.072
715	0.072
716	0.071
716	0.071
716	0.071
717	0.07
717	0.07
718	0.069
718	0.069
719	0.069
719	0.069
720	0.07
720	0.07
720	0.07
721	0.07
721	0.071
722	0.071
722	0.072
723	0.072
723	0.072
723	0.072
724	0.072
724	0.071
725	0.07
725	0.069
726	0.069
726	0.068
727	0.067
727	0.067
727	0.066
728	0.065
728	0.065
729	0.065
729	0.065
730	0.064
730	0.064
730	0.064
731	0.064
731	0.064
732	0.064
732	0.064
733	0.064
733	0.064
734	0.064
734	0.064
734	0.065
735	0.065
735	0.065
736	0.065
736	0.065
737	0.065
737	0.066
737	0.066
738	0.065
738	0.064
739	0.064
739	0.063
740	0.062
740	0.061
741	0.061
741	0.06
741	0.059
742	0.058
742	0.058
743	0.059
743	0.059
744	0.06
744	0.06
744	0.061
745	0.061
745	0.062
746	0.063
746	0.063
747	0.064
747	0.065
748	0.065
748	0.065
748	0.064
749	0.064
749	0.064
750	0.063
750	0.062
751	0.062
751	0.061
751	0.061
752	0.06
752	0.059
753	0.059
753	0.058
754	0.058
754	0.058
754	0.058
755	0.058
755	0.058
756	0.057
756	0.056
757	0.055
757	0.055
758	0.054
758	0.054
758	0.054
759	0.054
759	0.054
760	0.053
760	0.053
761	0.054
761	0.055
761	0.055
762	0.056
762	0.056
763	0.057
763	0.056
764	0.056
764	0.056
764	0.056
765	0.055
765	0.055
766	0.055
766	0.054
767	0.054
767	0.052
768	0.051
768	0.051
768	0.051
769	0.05
769	0.05
770	0.05
770	0.05
771	0.05
771	0.05
771	0.051
772	0.051
772	0.052
773	0.052
773	0.052
774	0.052
774	0.053
775	0.053
775	0.053
775	0.053
776	0.052
776	0.052
777	0.052
777	0.052
778	0.051
778	0.051
778	0.051
779	0.051
779	0.05
780	0.05
780	0.049
781	0.049
781	0.049
781	0.049
782	0.049
782	0.049
783	0.049
783	0.05
784	0.05
784	0.05
784	0.051
785	0.051
785	0.051
786	0.052
786	0.052
787	0.052
787	0.052
788	0.051
788	0.051
788	0.051
789	0.051
789	0.051
790	0.051
790	0.051
791	0.05
791	0.05
791	0.05
792	0.05
792	0.05
793	0.05
793	0.05
794	0.049
794	0.049
794	0.049
795	0.048
795	0.048
796	0.048
796	0.048
797	0.048
797	0.047
797	0.047
798	0.047
798	0.047
799	0.047
799	0.046
800	0.046
800	0.045
801	0.045
801	0.046
801	0.046
802	0.046
802	0.046
803	0.047
803	0.047
804	0.048
804	0.049
804	0.049
805	0.049
805	0.049
806	0.049
806	0.048
807	0.048
807	0.048
807	0.047
808	0.047
808	0.047
809	0.046
809	0.046
810	0.046
810	0.046
810	0.046
811	0.046
811	0.047
812	0.047
812	0.048
813	0.048
813	0.048
813	0.049
814	0.049
814	0.05
815	0.051
815	0.051
816	0.051
816	0.051
817	0.051
817	0.051
817	0.051
818	0.05
818	0.05
819	0.05
819	0.049
820	0.048
820	0.048
820	0.047
821	0.047
821	0.047
822	0.047
822	0.047
823	0.047
823	0.047
823	0.047
824	0.048
824	0.048
825	0.049
825	0.049
826	0.049
826	0.049
826	0.048
827	0.048
827	0.048
828	0.048
828	0.047
829	0.047
829	0.047
829	0.047
830	0.047
830	0.047
831	0.048
831	0.048
832	0.049
832	0.049
832	0.049
833	0.05
833	0.05
834	0.05
834	0.05
835	0.05
835	0.05
835	0.05
836	0.05
836	0.051
837	0.051
837	0.051
838	0.051
838	0.05
839	0.05
839	0.049
839	0.048
840	0.046
840	0.045
841	0.044
841	0.043
842	0.042
842	0.042
842	0.041
843	0.041
843	0.041
844	0.041
844	0.042
845	0.042
845	0.042
845	0.042
846	0.042
846	0.042
847	0.042
847	0.042
848	0.042
848	0.042
848	0.043
849	0.043
849	0.043
850	0.043
850	0.043
851	0.043
851	0.043
851	0.042
852	0.042
852	0.041
853	0.04
853	0.04
854	0.039
854	0.039
854	0.039
855	0.04
855	0.04
856	0.04
856	0.04
857	0.041
857	0.041
857	0.042
858	0.042
858	0.041
859	0.041
859	0.04
860	0.04
860	0.039
860	0.039
861	0.038
861	0.038
862	0.038
862	0.037
863	0.037
863	0.037
863	0.037
864	0.037
864	0.037
865	0.037
865	0.037
866	0.036
866	0.036
866	0.036
867	0.036
867	0.036
868	0.036
868	0.036
869	0.036
869	0.037
869	0.037
870	0.037
870	0.038
871	0.038
871	0.039
872	0.04
872	0.041
872	0.041
873	0.042
873	0.042
874	0.042
874	0.042
875	0.043
875	0.043
875	0.043
876	0.043
876	0.043
877	0.043
877	0.044
878	0.044
878	0.045
878	0.045
879	0.046
879	0.046
880	0.046
880	0.045
881	0.045
881	0.044
881	0.043
882	0.042
882	0.041
883	0.039
883	0.038
884	0.037
884	0.036
884	0.036
885	0.035
885	0.035
886	0.034
886	0.034
887	0.034
887	0.034
887	0.033
888	0.033
888	0.033
889	0.033
889	0.033
890	0.033
890	0.033
890	0.034
891	0.034
891	0.035
892	0.035
892	0.036
893	0.037
893	0.038
893	0.038
894	0.038
894	0.039
895	0.039
895	0.039
895	0.04
896	0.04
896	0.04
897	0.039
897	0.039
898	0.039
898	0.038
898	0.038
899	0.038
899	0.038
900	0.038
900	0.038
901	0.038
901	0.038
901	0.038
902	0.039
902	0.039
903	0.039
903	0.039
904	0.039
904	0.039
904	0.039
905	0.039
905	0.039
906	0.039
906	0.039
907	0.04
907	0.04
907	0.041
908	0.041
908	0.041
909	0.042
909	0.042
910	0.042
910	0.043
910	0.043
911	0.043
911	0.042
912	0.042
912	0.042
913	0.041
913	0.041
913	0.041
914	0.04
914	0.04
915	0.04
915	0.039
916	0.039
916	0.038
916	0.038
917	0.037
917	0.037
918	0.036
918	0.036
918	0.035
919	0.035
919	0.035
920	0.035
920	0.035
921	0.035
921	0.035
921	0.036
922	0.036
922	0.037
923	0.038
923	0.038
924	0.039
924	0.039
924	0.039
925	0.039
925	0.039
926	0.039
926	0.038
927	0.038
927	0.037
927	0.037
928	0.036
928	0.036
929	0.036
929	0.035
930	0.035
930	0.035
930	0.035
931	0.035
931	0.035
932	0.036
932	0.036
933	0.036
933	0.036
933	0.036
934	0.035
934	0.035
935	0.035
935	0.035
935	0.034
936	0.034
936	0.034
937	0.034
937	0.034
938	0.034
938	0.034
938	0.034
939	0.034
939	0.035
940	0.035
940	0.036
941	0.037
941	0.037
941	0.038
942	0.038
942	0.038
943	0.039
943	0.039
944	0.039
944	0.04
944	0.04
945	0.04
945	0.04
946	0.04
946	0.041
946	0.041
947	0.041
947	0.041
948	0.041
948	0.041
949	0.041
949	0.041
949	0.041
950	0.041
950	0.041
951	0.041
951	0.041
952	0.04
952	0.04
952	0.04
953	0.04
953	0.04
954	0.039
954	0.039
955	0.039
955	0.039
955	0.039
956	0.04
956	0.04
957	0.04
957	0.04
957	0.041
958	0.041
958	0.041
959	0.041
959	0.041
960	0.041
960	0.042
960	0.042
961	0.042
961	0.042
962	0.042
962	0.042
963	0.042
963	0.042
963	0.042
964	0.042
964	0.042
965	0.042
965	0.043
966	0.043
966	0.043
966	0.043
967	0.043
967	0.043
968	0.044
968	0.044
968	0.044
969	0.044
969	0.044
970	0.044
970	0.044
971	0.045
971	0.045
971	0.045
972	0.045
972	0.045
973	0.045
973	0.045
974	0.045
974	0.045
974	0.045
975	0.045
975	0.045
976	0.045
976	0.045
976	0.045
977	0.045
977	0.045
978	0.045
978	0.045
979	0.045
979	0.044
979	0.044
980	0.044
980	0.043
981	0.042
981	0.042
982	0.042
982	0.041
982	0.041
983	0.04
983	0.04
984	0.039
984	0.039
984	0.038
985	0.038
985	0.037
986	0.037
986	0.036
987	0.036
987	0.035
987	0.034
988	0.034
988	0.034
989	0.034
989	0.033
990	0.033
990	0.033
990	0.033
991	0.033
991	0.033
992	0.033
992	0.033
992	0.033
993	0.033
993	0.033
994	0.032
994	0.032
995	0.032
995	0.031
995	0.031
996	0.031
996	0.031
997	0.031
997	0.032
997	0.032
998	0.033
998	0.034
999	0.034
999	0.036
1000	0.037
1000	0.037
1000	0.038
1001	0.039
1001	0.04
1002	0.04
1002	0.04
1003	0.04
1003	0.04
1003	0.04
1004	0.039
1004	0.039
1005	0.038
1005	0.037
1005	0.037
1006	0.036
1006	0.036
1007	0.035
1007	0.035
1008	0.035
1008	0.035
1008	0.035
1009	0.035
1009	0.036
1010	0.036
1010	0.036
1010	0.036
1011	0.036
1011	0.036
1012	0.036
1012	0.036
1013	0.036
1013	0.036
1013	0.035
1014	0.035
1014	0.035
1015	0.034
1015	0.035
1016	0.034
1016	0.034
1016	0.034
1017	0.033
1017	0.033
1018	0.033
1018	0.033
1018	0.032
1019	0.032
1019	0.032
1020	0.031
1020	0.031
1021	0.031
1021	0.031
1021	0.031
1022	0.031
1022	0.03
1023	0.03
1023	0.031
1023	0.031
1024	0.031
1024	0.031
1025	0.031
1025	0.031
1026	0.031
1026	0.031
1026	0.031
1027	0.031
1027	0.031
1028	0.031
1028	0.031
1028	0.031
1029	0.031
1029	0.031
1030	0.031
1030	0.031
1031	0.031
1031	0.031
1031	0.031
1032	0.031
1032	0.031
1033	0.031
1033	0.031
1033	0.031
1034	0.031
1034	0.031
1035	0.031
1035	0.031
1036	0.031
1036	0.03
1036	0.031
1037	0.031
1037	0.031
1038	0.031
1038	0.031
1039	0.031
1039	0.031
1039	0.031
1040	0.031
1040	0.031
1041	0.031
1041	0.03
1041	0.03
1042	0.03
1042	0.03
1043	0.029
1043	0.029
1044	0.029
1044	0.029
1044	0.029
1045	0.029
1045	0.029
1046	0.029
1046	0.03
1046	0.03
1047	0.031
1047	0.032
1048	0.032
1048	0.033
1049	0.033
1049	0.033
1049	0.033
1050	0.033
1050	0.033
1051	0.032
1051	0.031
1051	0.03
1052	0.03
1052	0.029
1053	0.028
1053	0.027
1053	0.026
1054	0.025
1054	0.025
1055	0.025
1055	0.025
1056	0.024
1056	0.024
1056	0.024
1057	0.024
1057	0.024
1058	0.023
1058	0.023
1058	0.022
1059	0.022
1059	0.022
1060	0.021
1060	0.021
1061	0.021
1061	0.021
1061	0.021
1062	0.021
1062	0.021
1063	0.022
1063	0.022
1063	0.022
1064	0.022
1064	0.022
1065	0.022
1065	0.023
1066	0.023
1066	0.023
1066	0.023
1067	0.023
1067	0.023
1068	0.022
1068	0.022
1068	0.022
1069	0.022
1069	0.021
1070	0.02
1070	0.02
1071	0.019
1071	0.019
1071	0.018
1072	0.018
1072	0.017
1073	0.017
1073	0.017
1073	0.016
1074	0.017
1074	0.017
1075	0.017
1075	0.017
1076	0.018
1076	0.019
1076	0.019
1077	0.019
1077	0.019
1078	0.019
1078	0.019
1078	0.02
1079	0.019
1079	0.019
1080	0.019
1080	0.018
1080	0.018
1081	0.018
1081	0.017
1082	0.018
1082	0.018
1083	0.017
1083	0.017
1083	0.017
1084	0.016
1084	0.016
1085	0.016
1085	0.016
1085	0.016
1086	0.016
1086	0.015
1087	0.015
1087	0.015
1088	0.015
1088	0.014
1088	0.015
1089	0.015
1089	0.014
1090	0.013
1090	0.013
1090	0.012
1091	0.012
1091	0.012
1092	0.012
1092	0.012
1092	0.012
1093	0.012
1093	0.013
1094	0.013
1094	0.013
1095	0.013
1095	0.013
1095	0.012
1096	0.012
1096	0.011
1097	0.01
1097	0.009
1097	0.009
1098	0.007
1098	0.006
1099	0.005
1099	0.004
1100	0.003
1100	0.002
1100	0.001
1101	0
1101	-0
1102	-0.001
1102	-0.002
1102	-0.003
1103	-0.002
1103	-0.003
1104	-0.003
1104	-0.003
1104	-0.004
1105	-0.005
1105	-0.007
1106	-0.008
1106	-0.01
1107	-0.011
1107	-0.012
1107	-0.013
1108	-0.015
1108	-0.016
1109	-0.018
1109	-0.019
1109	-0.02
1110	-0.017
1110	-0.019
1111	-0.018
1111	-0.015
