Data from reversibility-20sec_Absorbance__4792__000000000004792.txt Node

Date: Wed Dec 06 14:50:27 CET 2023
User: Marek
Spectrometer: MAYP115816
Trigger mode: 0
Integration Time (sec): 2.000000E-1
Scans to average: 10
Electric dark correction enabled: true
Nonlinearity correction enabled: true
Boxcar width: 5
XAxis mode: Wavelengths
Number of Pixels in Spectrum: 2068
>>>>>Begin Spectral Data<<<<<
199	-0.18
199	-0.158
200	-0.091
200	-0.034
201	-0.01
201	0.005
202	0.018
202	0.027
203	0.035
203	0.036
204	0.052
204	0.064
205	0.079
205	0.085
205	0.081
206	0.084
206	0.083
207	0.084
207	0.084
208	0.085
208	0.085
209	0.087
209	0.085
210	0.086
210	0.088
211	0.091
211	0.091
212	0.091
212	0.092
213	0.095
213	0.095
213	0.097
214	0.099
214	0.102
215	0.102
215	0.099
216	0.1
216	0.1
217	0.106
217	0.107
218	0.107
218	0.113
219	0.117
219	0.119
220	0.119
220	0.118
221	0.12
221	0.122
221	0.125
222	0.129
222	0.134
223	0.137
223	0.136
224	0.14
224	0.146
225	0.157
225	0.168
226	0.178
226	0.19
227	0.2
227	0.209
228	0.226
228	0.242
229	0.26
229	0.283
229	0.304
230	0.33
230	0.361
231	0.393
231	0.43
232	0.471
232	0.517
233	0.557
233	0.605
234	0.655
234	0.708
235	0.763
235	0.814
236	0.866
236	0.917
236	0.968
237	1.019
237	1.068
238	1.118
238	1.164
239	1.214
239	1.254
240	1.295
240	1.334
241	1.369
241	1.406
242	1.436
242	1.468
243	1.496
243	1.522
243	1.549
244	1.57
244	1.594
245	1.614
245	1.636
246	1.654
246	1.67
247	1.684
247	1.698
248	1.713
248	1.724
249	1.736
249	1.744
250	1.752
250	1.757
250	1.76
251	1.764
251	1.767
252	1.773
252	1.774
253	1.776
253	1.776
254	1.775
254	1.777
255	1.775
255	1.778
256	1.779
256	1.778
257	1.778
257	1.777
258	1.777
258	1.777
258	1.777
259	1.778
259	1.776
260	1.778
260	1.778
261	1.777
261	1.781
262	1.784
262	1.784
263	1.787
263	1.788
264	1.788
264	1.789
265	1.79
265	1.791
265	1.792
266	1.791
266	1.79
267	1.788
267	1.789
268	1.786
268	1.788
269	1.79
269	1.787
270	1.787
270	1.785
271	1.782
271	1.783
272	1.781
272	1.781
272	1.778
273	1.776
273	1.77
274	1.765
274	1.76
275	1.755
275	1.748
276	1.743
276	1.736
277	1.727
277	1.718
278	1.706
278	1.694
278	1.682
279	1.668
279	1.65
280	1.628
280	1.601
281	1.569
281	1.533
282	1.497
282	1.459
283	1.42
283	1.383
284	1.346
284	1.31
285	1.276
285	1.244
285	1.217
286	1.192
286	1.17
287	1.151
287	1.134
288	1.12
288	1.108
289	1.097
289	1.088
290	1.08
290	1.073
291	1.067
291	1.061
292	1.056
292	1.052
292	1.047
293	1.043
293	1.04
294	1.036
294	1.033
295	1.03
295	1.026
296	1.023
296	1.02
297	1.017
297	1.014
298	1.01
298	1.007
298	1.004
299	1.002
299	0.999
300	0.996
300	0.993
301	0.99
301	0.988
302	0.985
302	0.982
303	0.98
303	0.977
304	0.975
304	0.972
305	0.97
305	0.967
305	0.964
306	0.962
306	0.959
307	0.957
307	0.954
308	0.951
308	0.948
309	0.946
309	0.942
310	0.94
310	0.936
311	0.934
311	0.93
311	0.927
312	0.923
312	0.92
313	0.916
313	0.912
314	0.908
314	0.904
315	0.9
315	0.896
316	0.891
316	0.887
317	0.882
317	0.878
318	0.873
318	0.868
318	0.863
319	0.858
319	0.852
320	0.847
320	0.84
321	0.835
321	0.829
322	0.822
322	0.816
323	0.81
323	0.803
324	0.797
324	0.79
324	0.784
325	0.777
325	0.771
326	0.764
326	0.757
327	0.751
327	0.744
328	0.738
328	0.731
329	0.724
329	0.717
330	0.71
330	0.703
330	0.696
331	0.689
331	0.682
332	0.675
332	0.668
333	0.661
333	0.654
334	0.647
334	0.64
335	0.633
335	0.627
336	0.62
336	0.614
336	0.607
337	0.601
337	0.595
338	0.589
338	0.583
339	0.577
339	0.571
340	0.565
340	0.56
341	0.554
341	0.549
342	0.543
342	0.538
342	0.533
343	0.527
343	0.522
344	0.518
344	0.513
345	0.508
345	0.503
346	0.499
346	0.494
347	0.49
347	0.486
348	0.482
348	0.478
348	0.474
349	0.47
349	0.467
350	0.463
350	0.46
351	0.456
351	0.453
352	0.45
352	0.447
353	0.444
353	0.441
354	0.438
354	0.435
354	0.432
355	0.429
355	0.426
356	0.423
356	0.42
357	0.417
357	0.414
358	0.411
358	0.408
359	0.406
359	0.404
360	0.402
360	0.4
360	0.398
361	0.396
361	0.394
362	0.393
362	0.392
363	0.39
363	0.388
364	0.386
364	0.384
365	0.382
365	0.38
366	0.378
366	0.377
366	0.375
367	0.373
367	0.372
368	0.37
368	0.368
369	0.367
369	0.365
370	0.364
370	0.362
371	0.361
371	0.359
372	0.358
372	0.357
372	0.355
373	0.354
373	0.353
374	0.352
374	0.351
375	0.35
375	0.349
376	0.348
376	0.347
377	0.346
377	0.345
378	0.344
378	0.343
378	0.342
379	0.341
379	0.34
380	0.339
380	0.338
381	0.337
381	0.336
382	0.336
382	0.335
383	0.334
383	0.334
383	0.333
384	0.332
384	0.332
385	0.331
385	0.331
386	0.33
386	0.329
387	0.329
387	0.328
388	0.328
388	0.328
389	0.327
389	0.327
389	0.326
390	0.326
390	0.325
391	0.325
391	0.325
392	0.324
392	0.324
393	0.323
393	0.322
394	0.322
394	0.321
394	0.321
395	0.32
395	0.32
396	0.319
396	0.319
397	0.318
397	0.317
398	0.317
398	0.317
399	0.316
399	0.316
400	0.316
400	0.315
400	0.315
401	0.314
401	0.314
402	0.313
402	0.313
403	0.313
403	0.312
404	0.312
404	0.311
405	0.311
405	0.311
405	0.311
406	0.31
406	0.31
407	0.309
407	0.309
408	0.309
408	0.308
409	0.308
409	0.308
410	0.307
410	0.307
411	0.307
411	0.306
411	0.306
412	0.306
412	0.306
413	0.305
413	0.305
414	0.304
414	0.304
415	0.304
415	0.303
416	0.303
416	0.302
416	0.302
417	0.302
417	0.301
418	0.301
418	0.301
419	0.3
419	0.3
420	0.3
420	0.299
421	0.299
421	0.298
421	0.298
422	0.297
422	0.297
423	0.297
423	0.297
424	0.296
424	0.296
425	0.296
425	0.295
426	0.295
426	0.295
427	0.295
427	0.294
427	0.294
428	0.294
428	0.293
429	0.293
429	0.293
430	0.292
430	0.292
431	0.292
431	0.292
432	0.292
432	0.291
432	0.291
433	0.291
433	0.291
434	0.291
434	0.291
435	0.291
435	0.291
436	0.291
436	0.29
437	0.29
437	0.29
437	0.29
438	0.289
438	0.289
439	0.289
439	0.289
440	0.288
440	0.288
441	0.288
441	0.287
442	0.287
442	0.287
442	0.287
443	0.287
443	0.287
444	0.287
444	0.287
445	0.286
445	0.286
446	0.286
446	0.286
447	0.286
447	0.286
447	0.285
448	0.285
448	0.285
449	0.285
449	0.285
450	0.285
450	0.285
451	0.285
451	0.285
452	0.285
452	0.284
452	0.285
453	0.284
453	0.284
454	0.284
454	0.284
455	0.284
455	0.283
456	0.283
456	0.283
457	0.283
457	0.283
458	0.283
458	0.283
458	0.283
459	0.283
459	0.283
460	0.283
460	0.283
461	0.283
461	0.283
462	0.283
462	0.283
463	0.283
463	0.283
463	0.283
464	0.284
464	0.283
465	0.283
465	0.283
466	0.283
466	0.283
467	0.284
467	0.284
467	0.284
468	0.284
468	0.284
469	0.284
469	0.284
470	0.284
470	0.284
471	0.285
471	0.285
472	0.285
472	0.286
472	0.286
473	0.286
473	0.287
474	0.287
474	0.287
475	0.287
475	0.288
476	0.288
476	0.289
477	0.289
477	0.289
477	0.289
478	0.29
478	0.29
479	0.291
479	0.292
480	0.292
480	0.293
481	0.293
481	0.294
482	0.294
482	0.295
482	0.295
483	0.296
483	0.297
484	0.297
484	0.298
485	0.298
485	0.299
486	0.299
486	0.3
487	0.3
487	0.301
487	0.302
488	0.303
488	0.303
489	0.304
489	0.306
490	0.308
490	0.309
491	0.31
491	0.311
492	0.313
492	0.314
492	0.315
493	0.316
493	0.317
494	0.318
494	0.319
495	0.32
495	0.321
496	0.322
496	0.323
496	0.324
497	0.325
497	0.326
498	0.327
498	0.328
499	0.329
499	0.33
500	0.332
500	0.333
501	0.334
501	0.336
501	0.336
502	0.338
502	0.339
503	0.34
503	0.341
504	0.342
504	0.343
505	0.344
505	0.345
506	0.346
506	0.347
506	0.348
507	0.35
507	0.351
508	0.352
508	0.353
509	0.354
509	0.355
510	0.356
510	0.357
511	0.358
511	0.359
511	0.36
512	0.361
512	0.362
513	0.362
513	0.363
514	0.364
514	0.365
515	0.365
515	0.366
515	0.367
516	0.367
516	0.368
517	0.368
517	0.369
518	0.369
518	0.37
519	0.37
519	0.37
520	0.37
520	0.371
520	0.371
521	0.371
521	0.371
522	0.371
522	0.371
523	0.371
523	0.371
524	0.371
524	0.371
524	0.371
525	0.371
525	0.37
526	0.369
526	0.369
527	0.368
527	0.368
528	0.367
528	0.367
529	0.366
529	0.365
529	0.364
530	0.363
530	0.363
531	0.362
531	0.361
532	0.36
532	0.359
533	0.358
533	0.357
533	0.356
534	0.354
534	0.353
535	0.352
535	0.351
536	0.35
536	0.348
537	0.347
537	0.346
538	0.344
538	0.343
538	0.341
539	0.34
539	0.338
540	0.337
540	0.335
541	0.333
541	0.332
542	0.33
542	0.329
542	0.327
543	0.325
543	0.323
544	0.322
544	0.32
545	0.319
545	0.317
546	0.316
546	0.314
547	0.312
547	0.311
547	0.309
548	0.308
548	0.306
549	0.304
549	0.302
550	0.3
550	0.298
551	0.296
551	0.294
551	0.292
552	0.29
552	0.289
553	0.287
553	0.286
554	0.284
554	0.282
555	0.28
555	0.278
556	0.277
556	0.275
556	0.274
557	0.272
557	0.271
558	0.27
558	0.268
559	0.267
559	0.266
560	0.264
560	0.263
560	0.261
561	0.26
561	0.259
562	0.257
562	0.255
563	0.253
563	0.251
564	0.25
564	0.248
564	0.247
565	0.245
565	0.244
566	0.243
566	0.241
567	0.24
567	0.239
568	0.238
568	0.237
568	0.235
569	0.234
569	0.233
570	0.231
570	0.23
571	0.228
571	0.227
572	0.226
572	0.224
573	0.223
573	0.222
573	0.22
574	0.219
574	0.218
575	0.216
575	0.216
576	0.214
576	0.213
577	0.211
577	0.21
577	0.209
578	0.208
578	0.207
579	0.207
579	0.206
580	0.205
580	0.204
581	0.203
581	0.202
581	0.202
582	0.202
582	0.201
583	0.201
583	0.2
584	0.198
584	0.197
585	0.196
585	0.195
585	0.194
586	0.194
586	0.193
587	0.192
587	0.191
588	0.19
588	0.189
589	0.188
589	0.188
590	0.188
590	0.187
590	0.186
591	0.186
591	0.185
592	0.184
592	0.183
593	0.182
593	0.181
594	0.181
594	0.179
594	0.178
595	0.178
595	0.177
596	0.176
596	0.175
597	0.176
597	0.176
598	0.175
598	0.175
598	0.174
599	0.174
599	0.173
600	0.172
600	0.171
601	0.17
601	0.17
602	0.168
602	0.167
602	0.166
603	0.165
603	0.165
604	0.164
604	0.164
605	0.164
605	0.164
606	0.163
606	0.163
606	0.162
607	0.162
607	0.161
608	0.161
608	0.16
609	0.159
609	0.158
610	0.157
610	0.156
610	0.156
611	0.156
611	0.155
612	0.155
612	0.155
613	0.155
613	0.155
614	0.155
614	0.155
614	0.155
615	0.155
615	0.154
616	0.154
616	0.154
617	0.153
617	0.153
618	0.153
618	0.152
618	0.152
619	0.152
619	0.152
620	0.152
620	0.152
621	0.151
621	0.15
622	0.15
622	0.149
622	0.148
623	0.147
623	0.147
624	0.146
624	0.145
625	0.144
625	0.144
626	0.144
626	0.143
626	0.143
627	0.143
627	0.142
628	0.142
628	0.142
629	0.142
629	0.142
630	0.141
630	0.141
630	0.14
631	0.14
631	0.139
632	0.139
632	0.138
633	0.138
633	0.138
634	0.138
634	0.138
634	0.137
635	0.137
635	0.137
636	0.137
636	0.137
637	0.137
637	0.136
638	0.136
638	0.136
638	0.135
639	0.135
639	0.134
640	0.134
640	0.134
641	0.133
641	0.132
642	0.132
642	0.132
642	0.132
643	0.132
643	0.132
644	0.132
644	0.133
645	0.133
645	0.134
646	0.134
646	0.135
646	0.136
647	0.136
647	0.136
648	0.135
648	0.135
649	0.134
649	0.134
650	0.134
650	0.133
650	0.132
651	0.132
651	0.131
652	0.13
652	0.13
653	0.13
653	0.131
653	0.137
654	0.109
654	0.088
655	0.087
655	0.087
656	0.087
656	0.088
657	0.088
657	0.088
657	0.088
658	0.087
658	0.079
659	0.099
659	0.125
660	0.131
660	0.131
661	0.131
661	0.13
661	0.13
662	0.129
662	0.129
663	0.128
663	0.128
664	0.127
664	0.127
665	0.126
665	0.126
665	0.125
666	0.125
666	0.125
667	0.125
667	0.125
668	0.125
668	0.125
669	0.125
669	0.125
669	0.126
670	0.126
670	0.126
671	0.125
671	0.125
672	0.125
672	0.124
672	0.124
673	0.124
673	0.124
674	0.123
674	0.123
675	0.122
675	0.122
676	0.123
676	0.123
676	0.123
677	0.123
677	0.123
678	0.123
678	0.123
679	0.123
679	0.123
680	0.123
680	0.123
680	0.123
681	0.123
681	0.123
682	0.123
682	0.123
683	0.123
683	0.124
684	0.124
684	0.123
684	0.123
685	0.124
685	0.124
686	0.124
686	0.124
687	0.125
687	0.125
687	0.126
688	0.126
688	0.126
689	0.127
689	0.127
690	0.127
690	0.127
691	0.127
691	0.127
691	0.127
692	0.127
692	0.127
693	0.127
693	0.128
694	0.127
694	0.127
695	0.128
695	0.128
695	0.128
696	0.128
696	0.128
697	0.128
697	0.128
698	0.127
698	0.126
698	0.126
699	0.126
699	0.126
700	0.125
700	0.125
701	0.124
701	0.124
702	0.123
702	0.122
702	0.122
703	0.121
703	0.121
704	0.121
704	0.121
705	0.121
705	0.121
705	0.121
706	0.122
706	0.122
707	0.123
707	0.123
708	0.124
708	0.125
709	0.125
709	0.125
709	0.125
710	0.125
710	0.125
711	0.125
711	0.125
712	0.125
712	0.124
713	0.124
713	0.124
713	0.123
714	0.122
714	0.122
715	0.121
715	0.12
716	0.12
716	0.119
716	0.119
717	0.119
717	0.119
718	0.118
718	0.119
719	0.119
719	0.12
720	0.121
720	0.123
720	0.124
721	0.125
721	0.126
722	0.126
722	0.127
723	0.127
723	0.128
723	0.128
724	0.128
724	0.127
725	0.126
725	0.125
726	0.125
726	0.124
727	0.124
727	0.123
727	0.123
728	0.122
728	0.122
729	0.122
729	0.121
730	0.121
730	0.121
730	0.121
731	0.12
731	0.12
732	0.12
732	0.12
733	0.12
733	0.12
734	0.12
734	0.12
734	0.12
735	0.12
735	0.12
736	0.12
736	0.12
737	0.12
737	0.12
737	0.12
738	0.12
738	0.119
739	0.119
739	0.119
740	0.119
740	0.119
741	0.119
741	0.119
741	0.119
742	0.118
742	0.119
743	0.119
743	0.12
744	0.12
744	0.12
744	0.12
745	0.121
745	0.121
746	0.121
746	0.121
747	0.121
747	0.121
748	0.121
748	0.121
748	0.121
749	0.121
749	0.122
750	0.122
750	0.122
751	0.122
751	0.122
751	0.122
752	0.122
752	0.121
753	0.121
753	0.12
754	0.12
754	0.119
754	0.119
755	0.119
755	0.118
756	0.118
756	0.117
757	0.116
757	0.116
758	0.115
758	0.115
758	0.115
759	0.115
759	0.114
760	0.114
760	0.113
761	0.114
761	0.114
761	0.114
762	0.114
762	0.115
763	0.115
763	0.114
764	0.114
764	0.113
764	0.113
765	0.113
765	0.112
766	0.112
766	0.112
767	0.111
767	0.111
768	0.11
768	0.11
768	0.11
769	0.111
769	0.111
770	0.111
770	0.112
771	0.112
771	0.112
771	0.112
772	0.112
772	0.112
773	0.112
773	0.111
774	0.111
774	0.111
775	0.111
775	0.11
775	0.11
776	0.11
776	0.11
777	0.11
777	0.11
778	0.11
778	0.109
778	0.109
779	0.109
779	0.108
780	0.107
780	0.107
781	0.106
781	0.106
781	0.105
782	0.105
782	0.104
783	0.104
783	0.104
784	0.104
784	0.103
784	0.104
785	0.103
785	0.103
786	0.103
786	0.103
787	0.103
787	0.103
788	0.103
788	0.102
788	0.102
789	0.102
789	0.102
790	0.102
790	0.102
791	0.102
791	0.102
791	0.102
792	0.103
792	0.103
793	0.103
793	0.103
794	0.103
794	0.102
794	0.103
795	0.103
795	0.103
796	0.103
796	0.103
797	0.102
797	0.102
797	0.102
798	0.101
798	0.101
799	0.101
799	0.1
800	0.1
800	0.099
801	0.099
801	0.099
801	0.099
802	0.099
802	0.099
803	0.099
803	0.099
804	0.099
804	0.099
804	0.099
805	0.099
805	0.098
806	0.098
806	0.097
807	0.097
807	0.096
807	0.096
808	0.095
808	0.095
809	0.095
809	0.095
810	0.095
810	0.095
810	0.095
811	0.095
811	0.096
812	0.096
812	0.097
813	0.097
813	0.098
813	0.098
814	0.098
814	0.099
815	0.099
815	0.099
816	0.099
816	0.099
817	0.098
817	0.098
817	0.097
818	0.097
818	0.097
819	0.096
819	0.095
820	0.095
820	0.094
820	0.094
821	0.093
821	0.093
822	0.092
822	0.092
823	0.091
823	0.09
823	0.09
824	0.09
824	0.09
825	0.09
825	0.09
826	0.09
826	0.09
826	0.09
827	0.091
827	0.091
828	0.092
828	0.092
829	0.092
829	0.093
829	0.093
830	0.093
830	0.094
831	0.095
831	0.095
832	0.095
832	0.095
832	0.095
833	0.094
833	0.094
834	0.093
834	0.093
835	0.092
835	0.091
835	0.091
836	0.09
836	0.09
837	0.089
837	0.089
838	0.088
838	0.088
839	0.087
839	0.087
839	0.086
840	0.085
840	0.084
841	0.083
841	0.082
842	0.081
842	0.08
842	0.079
843	0.078
843	0.076
844	0.075
844	0.075
845	0.074
845	0.074
845	0.073
846	0.073
846	0.073
847	0.074
847	0.074
848	0.074
848	0.074
848	0.074
849	0.074
849	0.074
850	0.074
850	0.074
851	0.074
851	0.074
851	0.074
852	0.073
852	0.073
853	0.073
853	0.073
854	0.073
854	0.074
854	0.074
855	0.074
855	0.075
856	0.075
856	0.076
857	0.077
857	0.078
857	0.078
858	0.079
858	0.079
859	0.079
859	0.078
860	0.078
860	0.078
860	0.078
861	0.077
861	0.077
862	0.076
862	0.076
863	0.075
863	0.075
863	0.075
864	0.075
864	0.076
865	0.076
865	0.076
866	0.076
866	0.076
866	0.076
867	0.076
867	0.076
868	0.077
868	0.077
869	0.077
869	0.077
869	0.077
870	0.077
870	0.077
871	0.077
871	0.077
872	0.077
872	0.076
872	0.076
873	0.075
873	0.074
874	0.073
874	0.072
875	0.072
875	0.071
875	0.071
876	0.07
876	0.07
877	0.071
877	0.071
878	0.072
878	0.073
878	0.075
879	0.076
879	0.076
880	0.077
880	0.077
881	0.077
881	0.077
881	0.077
882	0.076
882	0.075
883	0.074
883	0.074
884	0.073
884	0.073
884	0.072
885	0.072
885	0.072
886	0.072
886	0.072
887	0.072
887	0.072
887	0.072
888	0.072
888	0.071
889	0.072
889	0.072
890	0.073
890	0.073
890	0.073
891	0.073
891	0.074
892	0.074
892	0.075
893	0.075
893	0.075
893	0.075
894	0.075
894	0.074
895	0.074
895	0.073
895	0.073
896	0.072
896	0.072
897	0.071
897	0.07
898	0.069
898	0.068
898	0.067
899	0.066
899	0.065
900	0.065
900	0.064
901	0.064
901	0.064
901	0.064
902	0.064
902	0.064
903	0.065
903	0.065
904	0.065
904	0.065
904	0.064
905	0.064
905	0.064
906	0.063
906	0.063
907	0.062
907	0.062
907	0.062
908	0.061
908	0.061
909	0.061
909	0.061
910	0.061
910	0.061
910	0.061
911	0.061
911	0.061
912	0.06
912	0.06
913	0.06
913	0.06
913	0.06
914	0.059
914	0.059
915	0.059
915	0.058
916	0.058
916	0.057
916	0.057
917	0.056
917	0.056
918	0.055
918	0.055
918	0.054
919	0.054
919	0.053
920	0.053
920	0.053
921	0.053
921	0.054
921	0.054
922	0.055
922	0.056
923	0.057
923	0.058
924	0.059
924	0.06
924	0.061
925	0.063
925	0.063
926	0.064
926	0.065
927	0.065
927	0.065
927	0.065
928	0.065
928	0.065
929	0.064
929	0.064
930	0.063
930	0.063
930	0.062
931	0.061
931	0.06
932	0.06
932	0.059
933	0.058
933	0.058
933	0.057
934	0.056
934	0.056
935	0.055
935	0.055
935	0.054
936	0.054
936	0.053
937	0.053
937	0.053
938	0.052
938	0.052
938	0.052
939	0.051
939	0.051
940	0.051
940	0.051
941	0.051
941	0.051
941	0.051
942	0.051
942	0.051
943	0.051
943	0.051
944	0.052
944	0.052
944	0.052
945	0.053
945	0.053
946	0.053
946	0.054
946	0.054
947	0.054
947	0.055
948	0.055
948	0.055
949	0.055
949	0.055
949	0.055
950	0.054
950	0.054
951	0.054
951	0.053
952	0.052
952	0.051
952	0.05
953	0.049
953	0.048
954	0.048
954	0.047
955	0.047
955	0.046
955	0.046
956	0.046
956	0.046
957	0.047
957	0.047
957	0.047
958	0.047
958	0.047
959	0.048
959	0.048
960	0.049
960	0.05
960	0.05
961	0.05
961	0.051
962	0.051
962	0.052
963	0.052
963	0.052
963	0.053
964	0.053
964	0.053
965	0.053
965	0.054
966	0.054
966	0.054
966	0.054
967	0.055
967	0.055
968	0.055
968	0.055
968	0.055
969	0.055
969	0.055
970	0.054
970	0.053
971	0.052
971	0.051
971	0.051
972	0.05
972	0.049
973	0.048
973	0.047
974	0.047
974	0.047
974	0.047
975	0.047
975	0.048
976	0.049
976	0.05
976	0.05
977	0.051
977	0.052
978	0.052
978	0.052
979	0.053
979	0.053
979	0.053
980	0.053
980	0.053
981	0.053
981	0.053
982	0.052
982	0.052
982	0.052
983	0.052
983	0.051
984	0.05
984	0.05
984	0.049
985	0.049
985	0.048
986	0.047
986	0.046
987	0.045
987	0.044
987	0.044
988	0.043
988	0.042
989	0.041
989	0.041
990	0.04
990	0.04
990	0.039
991	0.039
991	0.039
992	0.039
992	0.039
992	0.039
993	0.039
993	0.039
994	0.039
994	0.04
995	0.04
995	0.04
995	0.041
996	0.041
996	0.042
997	0.042
997	0.043
997	0.044
998	0.044
998	0.045
999	0.046
999	0.046
1000	0.047
1000	0.048
1000	0.049
1001	0.05
1001	0.05
1002	0.051
1002	0.051
1003	0.052
1003	0.052
1003	0.051
1004	0.051
1004	0.051
1005	0.05
1005	0.05
1005	0.05
1006	0.049
1006	0.049
1007	0.049
1007	0.048
1008	0.048
1008	0.048
1008	0.048
1009	0.049
1009	0.049
1010	0.049
1010	0.049
1010	0.049
1011	0.049
1011	0.048
1012	0.048
1012	0.048
1013	0.048
1013	0.047
1013	0.047
1014	0.046
1014	0.046
1015	0.046
1015	0.045
1016	0.045
1016	0.045
1016	0.044
1017	0.044
1017	0.044
1018	0.044
1018	0.044
1018	0.043
1019	0.043
1019	0.043
1020	0.043
1020	0.044
1021	0.044
1021	0.045
1021	0.045
1022	0.045
1022	0.046
1023	0.046
1023	0.046
1023	0.046
1024	0.046
1024	0.046
1025	0.046
1025	0.046
1026	0.046
1026	0.045
1026	0.045
1027	0.045
1027	0.045
1028	0.045
1028	0.045
1028	0.046
1029	0.046
1029	0.047
1030	0.047
1030	0.048
1031	0.049
1031	0.049
1031	0.05
1032	0.05
1032	0.051
1033	0.051
1033	0.051
1033	0.051
1034	0.051
1034	0.05
1035	0.05
1035	0.049
1036	0.048
1036	0.048
1036	0.047
1037	0.046
1037	0.045
1038	0.045
1038	0.044
1039	0.044
1039	0.043
1039	0.043
1040	0.042
1040	0.042
1041	0.042
1041	0.041
1041	0.041
1042	0.041
1042	0.04
1043	0.04
1043	0.04
1044	0.04
1044	0.04
1044	0.04
1045	0.04
1045	0.04
1046	0.04
1046	0.04
1046	0.041
1047	0.041
1047	0.041
1048	0.041
1048	0.042
1049	0.042
1049	0.042
1049	0.042
1050	0.042
1050	0.041
1051	0.041
1051	0.04
1051	0.04
1052	0.039
1052	0.039
1053	0.038
1053	0.038
1053	0.037
1054	0.037
1054	0.037
1055	0.037
1055	0.037
1056	0.037
1056	0.038
1056	0.038
1057	0.038
1057	0.038
1058	0.038
1058	0.038
1058	0.038
1059	0.037
1059	0.037
1060	0.036
1060	0.036
1061	0.036
1061	0.035
1061	0.035
1062	0.035
1062	0.035
1063	0.035
1063	0.035
1063	0.035
1064	0.035
1064	0.035
1065	0.034
1065	0.034
1066	0.033
1066	0.033
1066	0.032
1067	0.031
1067	0.031
1068	0.031
1068	0.03
1068	0.03
1069	0.03
1069	0.029
1070	0.029
1070	0.028
1071	0.028
1071	0.027
1071	0.026
1072	0.026
1072	0.025
1073	0.024
1073	0.024
1073	0.023
1074	0.023
1074	0.022
1075	0.022
1075	0.022
1076	0.022
1076	0.023
1076	0.022
1077	0.022
1077	0.023
1078	0.022
1078	0.023
1078	0.023
1079	0.023
1079	0.023
1080	0.023
1080	0.023
1080	0.023
1081	0.024
1081	0.024
1082	0.024
1082	0.025
1083	0.025
1083	0.025
1083	0.026
1084	0.026
1084	0.027
1085	0.027
1085	0.028
1085	0.028
1086	0.029
1086	0.028
1087	0.028
1087	0.028
1088	0.028
1088	0.028
1088	0.028
1089	0.028
1089	0.028
1090	0.027
1090	0.026
1090	0.025
1091	0.025
1091	0.025
1092	0.025
1092	0.025
1092	0.025
1093	0.024
1093	0.025
1094	0.024
1094	0.024
1095	0.024
1095	0.024
1095	0.024
1096	0.022
1096	0.021
1097	0.021
1097	0.019
1097	0.019
1098	0.018
1098	0.016
1099	0.015
1099	0.014
1100	0.013
1100	0.011
1100	0.011
1101	0.01
1101	0.009
1102	0.009
1102	0.007
1102	0.006
1103	0.007
1103	0.007
1104	0.006
1104	0.007
1104	0.006
1105	0.006
1105	0.004
1106	0.002
1106	0.001
1107	0.001
1107	-0
1107	-0.001
1108	-0.001
1108	-0.002
1109	-0.005
1109	-0.006
1109	-0.006
1110	-0.004
1110	-0.003
1111	-0.002
1111	-0
