Data from reversibility-20sec_Absorbance__1981__000000000001981.txt Node

Date: Tue Dec 05 23:13:27 CET 2023
User: Marek
Spectrometer: MAYP115816
Trigger mode: 0
Integration Time (sec): 2.000000E-1
Scans to average: 10
Electric dark correction enabled: true
Nonlinearity correction enabled: true
Boxcar width: 5
XAxis mode: Wavelengths
Number of Pixels in Spectrum: 2068
>>>>>Begin Spectral Data<<<<<
199	-0.222
199	-0.191
200	-0.123
200	-0.066
201	-0.04
201	-0.023
202	-0.007
202	0.001
203	0.01
203	0.011
204	0.026
204	0.041
205	0.056
205	0.062
205	0.06
206	0.061
206	0.06
207	0.06
207	0.059
208	0.058
208	0.059
209	0.061
209	0.057
210	0.054
210	0.053
211	0.056
211	0.058
212	0.058
212	0.061
213	0.064
213	0.065
213	0.066
214	0.071
214	0.072
215	0.075
215	0.077
216	0.077
216	0.075
217	0.079
217	0.081
218	0.081
218	0.084
219	0.088
219	0.087
220	0.094
220	0.097
221	0.094
221	0.099
221	0.105
222	0.109
222	0.112
223	0.118
223	0.12
224	0.123
224	0.131
225	0.137
225	0.144
226	0.157
226	0.164
227	0.177
227	0.183
228	0.199
228	0.211
229	0.23
229	0.254
229	0.276
230	0.301
230	0.331
231	0.364
231	0.403
232	0.44
232	0.486
233	0.53
233	0.582
234	0.635
234	0.684
235	0.737
235	0.79
236	0.844
236	0.897
236	0.95
237	1.002
237	1.053
238	1.101
238	1.15
239	1.2
239	1.249
240	1.292
240	1.331
241	1.369
241	1.407
242	1.442
242	1.481
243	1.513
243	1.544
243	1.571
244	1.597
244	1.622
245	1.645
245	1.674
246	1.697
246	1.718
247	1.733
247	1.75
248	1.77
248	1.787
249	1.8
249	1.809
250	1.821
250	1.832
250	1.839
251	1.846
251	1.852
252	1.862
252	1.867
253	1.871
253	1.87
254	1.874
254	1.881
255	1.882
255	1.885
256	1.888
256	1.889
257	1.892
257	1.892
258	1.893
258	1.894
258	1.897
259	1.899
259	1.898
260	1.899
260	1.902
261	1.903
261	1.907
262	1.912
262	1.915
263	1.921
263	1.924
264	1.926
264	1.927
265	1.931
265	1.933
265	1.934
266	1.938
266	1.94
267	1.938
267	1.941
268	1.94
268	1.941
269	1.945
269	1.945
270	1.944
270	1.945
271	1.942
271	1.943
272	1.942
272	1.943
272	1.94
273	1.934
273	1.929
274	1.923
274	1.919
275	1.915
275	1.91
276	1.905
276	1.897
277	1.889
277	1.879
278	1.869
278	1.859
278	1.845
279	1.831
279	1.811
280	1.788
280	1.76
281	1.725
281	1.687
282	1.648
282	1.607
283	1.566
283	1.526
284	1.487
284	1.448
285	1.412
285	1.378
285	1.348
286	1.321
286	1.298
287	1.276
287	1.258
288	1.243
288	1.229
289	1.217
289	1.206
290	1.197
290	1.189
291	1.182
291	1.176
292	1.17
292	1.165
292	1.16
293	1.155
293	1.151
294	1.147
294	1.143
295	1.14
295	1.136
296	1.133
296	1.129
297	1.126
297	1.123
298	1.119
298	1.115
298	1.112
299	1.109
299	1.106
300	1.103
300	1.1
301	1.097
301	1.094
302	1.091
302	1.088
303	1.085
303	1.083
304	1.08
304	1.077
305	1.074
305	1.071
305	1.069
306	1.066
306	1.063
307	1.061
307	1.058
308	1.055
308	1.052
309	1.049
309	1.045
310	1.042
310	1.039
311	1.035
311	1.032
311	1.028
312	1.024
312	1.02
313	1.016
313	1.012
314	1.008
314	1.004
315	0.999
315	0.995
316	0.99
316	0.986
317	0.981
317	0.976
318	0.971
318	0.965
318	0.96
319	0.954
319	0.948
320	0.943
320	0.936
321	0.93
321	0.924
322	0.918
322	0.911
323	0.904
323	0.897
324	0.891
324	0.884
324	0.877
325	0.87
325	0.864
326	0.856
326	0.849
327	0.842
327	0.835
328	0.828
328	0.821
329	0.814
329	0.807
330	0.8
330	0.793
330	0.785
331	0.778
331	0.771
332	0.764
332	0.757
333	0.75
333	0.743
334	0.736
334	0.729
335	0.722
335	0.715
336	0.709
336	0.702
336	0.696
337	0.689
337	0.683
338	0.676
338	0.67
339	0.664
339	0.658
340	0.652
340	0.647
341	0.641
341	0.635
342	0.629
342	0.624
342	0.619
343	0.613
343	0.608
344	0.603
344	0.598
345	0.593
345	0.588
346	0.583
346	0.579
347	0.574
347	0.57
348	0.566
348	0.562
348	0.558
349	0.554
349	0.55
350	0.546
350	0.543
351	0.539
351	0.535
352	0.532
352	0.529
353	0.526
353	0.523
354	0.52
354	0.517
354	0.513
355	0.51
355	0.507
356	0.505
356	0.502
357	0.498
357	0.495
358	0.492
358	0.489
359	0.486
359	0.484
360	0.481
360	0.479
360	0.477
361	0.474
361	0.472
362	0.471
362	0.469
363	0.467
363	0.465
364	0.463
364	0.461
365	0.459
365	0.457
366	0.455
366	0.453
366	0.451
367	0.449
367	0.447
368	0.445
368	0.443
369	0.441
369	0.44
370	0.438
370	0.436
371	0.435
371	0.433
372	0.431
372	0.43
372	0.429
373	0.427
373	0.426
374	0.425
374	0.424
375	0.422
375	0.421
376	0.42
376	0.419
377	0.417
377	0.416
378	0.415
378	0.414
378	0.413
379	0.412
379	0.411
380	0.41
380	0.409
381	0.408
381	0.406
382	0.406
382	0.405
383	0.404
383	0.403
383	0.402
384	0.401
384	0.4
385	0.399
385	0.399
386	0.398
386	0.397
387	0.396
387	0.396
388	0.395
388	0.394
389	0.393
389	0.393
389	0.392
390	0.391
390	0.391
391	0.39
391	0.389
392	0.389
392	0.388
393	0.387
393	0.387
394	0.386
394	0.385
394	0.385
395	0.384
395	0.383
396	0.383
396	0.382
397	0.381
397	0.38
398	0.38
398	0.379
399	0.379
399	0.378
400	0.378
400	0.377
400	0.376
401	0.376
401	0.375
402	0.375
402	0.374
403	0.374
403	0.373
404	0.373
404	0.372
405	0.372
405	0.372
405	0.371
406	0.371
406	0.37
407	0.369
407	0.369
408	0.368
408	0.368
409	0.367
409	0.367
410	0.367
410	0.366
411	0.366
411	0.365
411	0.365
412	0.364
412	0.364
413	0.363
413	0.363
414	0.363
414	0.362
415	0.362
415	0.361
416	0.361
416	0.36
416	0.36
417	0.359
417	0.359
418	0.359
418	0.358
419	0.358
419	0.357
420	0.357
420	0.357
421	0.356
421	0.355
421	0.355
422	0.355
422	0.354
423	0.354
423	0.354
424	0.353
424	0.353
425	0.352
425	0.352
426	0.352
426	0.352
427	0.351
427	0.351
427	0.351
428	0.351
428	0.35
429	0.35
429	0.35
430	0.349
430	0.349
431	0.349
431	0.349
432	0.349
432	0.348
432	0.348
433	0.348
433	0.347
434	0.347
434	0.347
435	0.347
435	0.346
436	0.346
436	0.346
437	0.346
437	0.346
437	0.346
438	0.345
438	0.345
439	0.345
439	0.345
440	0.345
440	0.345
441	0.344
441	0.344
442	0.344
442	0.344
442	0.344
443	0.344
443	0.344
444	0.344
444	0.343
445	0.343
445	0.343
446	0.343
446	0.343
447	0.343
447	0.342
447	0.342
448	0.342
448	0.342
449	0.342
449	0.342
450	0.342
450	0.342
451	0.342
451	0.342
452	0.342
452	0.342
452	0.342
453	0.342
453	0.342
454	0.342
454	0.342
455	0.342
455	0.342
456	0.342
456	0.342
457	0.342
457	0.342
458	0.342
458	0.342
458	0.342
459	0.342
459	0.342
460	0.342
460	0.342
461	0.342
461	0.343
462	0.343
462	0.343
463	0.343
463	0.343
463	0.343
464	0.343
464	0.343
465	0.343
465	0.343
466	0.343
466	0.343
467	0.344
467	0.344
467	0.344
468	0.345
468	0.345
469	0.345
469	0.346
470	0.346
470	0.347
471	0.347
471	0.347
472	0.348
472	0.348
472	0.349
473	0.35
473	0.35
474	0.351
474	0.351
475	0.351
475	0.352
476	0.353
476	0.353
477	0.354
477	0.355
477	0.355
478	0.356
478	0.356
479	0.357
479	0.358
480	0.359
480	0.36
481	0.36
481	0.361
482	0.362
482	0.363
482	0.364
483	0.365
483	0.366
484	0.367
484	0.367
485	0.368
485	0.369
486	0.37
486	0.371
487	0.372
487	0.373
487	0.373
488	0.374
488	0.375
489	0.377
489	0.379
490	0.38
490	0.382
491	0.383
491	0.385
492	0.386
492	0.387
492	0.389
493	0.39
493	0.392
494	0.393
494	0.395
495	0.396
495	0.398
496	0.399
496	0.401
496	0.403
497	0.404
497	0.406
498	0.407
498	0.409
499	0.41
499	0.412
500	0.414
500	0.416
501	0.417
501	0.418
501	0.419
502	0.421
502	0.422
503	0.423
503	0.425
504	0.426
504	0.428
505	0.429
505	0.431
506	0.432
506	0.434
506	0.435
507	0.437
507	0.438
508	0.44
508	0.441
509	0.443
509	0.444
510	0.445
510	0.446
511	0.448
511	0.449
511	0.451
512	0.452
512	0.453
513	0.454
513	0.455
514	0.456
514	0.457
515	0.458
515	0.459
515	0.459
516	0.46
516	0.461
517	0.462
517	0.463
518	0.463
518	0.463
519	0.463
519	0.463
520	0.463
520	0.463
520	0.464
521	0.463
521	0.463
522	0.462
522	0.462
523	0.462
523	0.462
524	0.462
524	0.462
524	0.462
525	0.462
525	0.461
526	0.46
526	0.46
527	0.459
527	0.459
528	0.458
528	0.457
529	0.455
529	0.454
529	0.452
530	0.451
530	0.449
531	0.448
531	0.447
532	0.445
532	0.443
533	0.442
533	0.44
533	0.439
534	0.437
534	0.435
535	0.433
535	0.432
536	0.43
536	0.428
537	0.426
537	0.423
538	0.421
538	0.419
538	0.417
539	0.415
539	0.413
540	0.411
540	0.409
541	0.406
541	0.403
542	0.401
542	0.398
542	0.396
543	0.393
543	0.39
544	0.388
544	0.385
545	0.383
545	0.38
546	0.378
546	0.375
547	0.372
547	0.37
547	0.367
548	0.365
548	0.362
549	0.36
549	0.357
550	0.354
550	0.351
551	0.348
551	0.345
551	0.343
552	0.34
552	0.338
553	0.335
553	0.333
554	0.33
554	0.327
555	0.325
555	0.322
556	0.319
556	0.317
556	0.315
557	0.312
557	0.31
558	0.308
558	0.305
559	0.303
559	0.3
560	0.297
560	0.295
560	0.293
561	0.291
561	0.288
562	0.286
562	0.283
563	0.28
563	0.278
564	0.276
564	0.274
564	0.272
565	0.27
565	0.268
566	0.266
566	0.264
567	0.262
567	0.26
568	0.258
568	0.256
568	0.254
569	0.253
569	0.251
570	0.248
570	0.246
571	0.245
571	0.243
572	0.241
572	0.239
573	0.237
573	0.235
573	0.233
574	0.231
574	0.23
575	0.228
575	0.227
576	0.226
576	0.224
577	0.222
577	0.22
577	0.219
578	0.217
578	0.216
579	0.215
579	0.214
580	0.212
580	0.21
581	0.208
581	0.206
581	0.206
582	0.205
582	0.204
583	0.203
583	0.201
584	0.199
584	0.197
585	0.196
585	0.194
585	0.193
586	0.192
586	0.19
587	0.188
587	0.187
588	0.185
588	0.184
589	0.183
589	0.182
590	0.181
590	0.181
590	0.18
591	0.18
591	0.178
592	0.177
592	0.176
593	0.175
593	0.174
594	0.173
594	0.172
594	0.171
595	0.17
595	0.168
596	0.167
596	0.166
597	0.166
597	0.165
598	0.164
598	0.164
598	0.163
599	0.162
599	0.162
600	0.161
600	0.16
601	0.159
601	0.158
602	0.157
602	0.156
602	0.155
603	0.154
603	0.154
604	0.153
604	0.152
605	0.152
605	0.151
606	0.151
606	0.15
606	0.149
607	0.148
607	0.148
608	0.147
608	0.146
609	0.145
609	0.144
610	0.143
610	0.142
610	0.142
611	0.142
611	0.141
612	0.141
612	0.14
613	0.14
613	0.139
614	0.139
614	0.138
614	0.137
615	0.137
615	0.137
616	0.136
616	0.136
617	0.135
617	0.134
618	0.134
618	0.134
618	0.134
619	0.133
619	0.133
620	0.133
620	0.132
621	0.132
621	0.131
622	0.13
622	0.129
622	0.128
623	0.127
623	0.127
624	0.126
624	0.125
625	0.124
625	0.124
626	0.124
626	0.123
626	0.123
627	0.122
627	0.122
628	0.121
628	0.121
629	0.12
629	0.12
630	0.119
630	0.119
630	0.119
631	0.118
631	0.118
632	0.118
632	0.117
633	0.117
633	0.117
634	0.117
634	0.117
634	0.117
635	0.116
635	0.115
636	0.115
636	0.114
637	0.114
637	0.113
638	0.113
638	0.112
638	0.112
639	0.111
639	0.11
640	0.11
640	0.11
641	0.109
641	0.109
642	0.109
642	0.108
642	0.108
643	0.108
643	0.108
644	0.108
644	0.107
645	0.107
645	0.107
646	0.106
646	0.106
646	0.106
647	0.106
647	0.105
648	0.104
648	0.104
649	0.103
649	0.103
650	0.103
650	0.103
650	0.102
651	0.102
651	0.102
652	0.102
652	0.102
653	0.102
653	0.104
653	0.11
654	0.089
654	0.072
655	0.07
655	0.07
656	0.07
656	0.07
657	0.07
657	0.07
657	0.07
658	0.069
658	0.061
659	0.076
659	0.095
660	0.101
660	0.101
661	0.1
661	0.1
661	0.099
662	0.098
662	0.097
663	0.097
663	0.096
664	0.095
664	0.094
665	0.093
665	0.093
665	0.093
666	0.093
666	0.093
667	0.093
667	0.093
668	0.093
668	0.093
669	0.093
669	0.093
669	0.093
670	0.093
670	0.093
671	0.093
671	0.092
672	0.092
672	0.091
672	0.091
673	0.09
673	0.09
674	0.09
674	0.089
675	0.089
675	0.088
676	0.089
676	0.089
676	0.089
677	0.089
677	0.089
678	0.088
678	0.088
679	0.087
679	0.087
680	0.087
680	0.087
680	0.087
681	0.087
681	0.087
682	0.087
682	0.087
683	0.088
683	0.088
684	0.088
684	0.088
684	0.088
685	0.088
685	0.088
686	0.087
686	0.087
687	0.086
687	0.086
687	0.085
688	0.085
688	0.084
689	0.085
689	0.085
690	0.084
690	0.084
691	0.083
691	0.084
691	0.084
692	0.084
692	0.084
693	0.084
693	0.085
694	0.084
694	0.084
695	0.085
695	0.086
695	0.086
696	0.085
696	0.085
697	0.085
697	0.084
698	0.084
698	0.084
698	0.084
699	0.084
699	0.084
700	0.083
700	0.084
701	0.084
701	0.084
702	0.084
702	0.084
702	0.084
703	0.084
703	0.083
704	0.083
704	0.082
705	0.082
705	0.082
705	0.081
706	0.081
706	0.08
707	0.08
707	0.08
708	0.08
708	0.08
709	0.08
709	0.079
709	0.078
710	0.078
710	0.077
711	0.077
711	0.077
712	0.077
712	0.076
713	0.076
713	0.076
713	0.076
714	0.075
714	0.075
715	0.075
715	0.075
716	0.075
716	0.075
716	0.075
717	0.074
717	0.074
718	0.073
718	0.073
719	0.073
719	0.073
720	0.074
720	0.074
720	0.074
721	0.074
721	0.075
722	0.075
722	0.075
723	0.075
723	0.075
723	0.075
724	0.075
724	0.074
725	0.074
725	0.073
726	0.072
726	0.072
727	0.071
727	0.071
727	0.07
728	0.07
728	0.07
729	0.07
729	0.069
730	0.069
730	0.069
730	0.07
731	0.07
731	0.071
732	0.071
732	0.072
733	0.071
733	0.072
734	0.072
734	0.072
734	0.072
735	0.072
735	0.071
736	0.07
736	0.07
737	0.069
737	0.069
737	0.069
738	0.068
738	0.067
739	0.066
739	0.066
740	0.065
740	0.065
741	0.065
741	0.065
741	0.065
742	0.065
742	0.065
743	0.066
743	0.066
744	0.067
744	0.067
744	0.067
745	0.067
745	0.067
746	0.067
746	0.068
747	0.068
747	0.068
748	0.068
748	0.068
748	0.068
749	0.068
749	0.069
750	0.069
750	0.069
751	0.069
751	0.069
751	0.068
752	0.068
752	0.067
753	0.066
753	0.066
754	0.066
754	0.065
754	0.065
755	0.065
755	0.065
756	0.064
756	0.063
757	0.062
757	0.062
758	0.061
758	0.061
758	0.06
759	0.06
759	0.06
760	0.059
760	0.059
761	0.06
761	0.06
761	0.061
762	0.061
762	0.062
763	0.062
763	0.062
764	0.062
764	0.062
764	0.062
765	0.062
765	0.061
766	0.061
766	0.061
767	0.061
767	0.06
768	0.059
768	0.059
768	0.059
769	0.059
769	0.058
770	0.058
770	0.058
771	0.058
771	0.058
771	0.057
772	0.058
772	0.058
773	0.058
773	0.058
774	0.058
774	0.059
775	0.059
775	0.059
775	0.059
776	0.06
776	0.06
777	0.06
777	0.06
778	0.06
778	0.059
778	0.059
779	0.059
779	0.058
780	0.057
780	0.057
781	0.056
781	0.056
781	0.055
782	0.055
782	0.055
783	0.055
783	0.056
784	0.056
784	0.056
784	0.056
785	0.057
785	0.057
786	0.057
786	0.057
787	0.057
787	0.057
788	0.057
788	0.056
788	0.056
789	0.056
789	0.057
790	0.057
790	0.057
791	0.057
791	0.057
791	0.057
792	0.058
792	0.058
793	0.058
793	0.058
794	0.057
794	0.057
794	0.057
795	0.057
795	0.057
796	0.057
796	0.057
797	0.056
797	0.056
797	0.056
798	0.056
798	0.055
799	0.055
799	0.054
800	0.053
800	0.052
801	0.052
801	0.052
801	0.051
802	0.051
802	0.052
803	0.052
803	0.053
804	0.053
804	0.054
804	0.054
805	0.054
805	0.054
806	0.054
806	0.054
807	0.053
807	0.053
807	0.052
808	0.052
808	0.052
809	0.051
809	0.051
810	0.051
810	0.051
810	0.051
811	0.051
811	0.052
812	0.052
812	0.052
813	0.053
813	0.053
813	0.053
814	0.053
814	0.054
815	0.054
815	0.054
816	0.055
816	0.054
817	0.054
817	0.054
817	0.054
818	0.054
818	0.054
819	0.053
819	0.053
820	0.052
820	0.052
820	0.051
821	0.051
821	0.051
822	0.051
822	0.051
823	0.051
823	0.051
823	0.051
824	0.051
824	0.052
825	0.052
825	0.052
826	0.052
826	0.052
826	0.052
827	0.052
827	0.052
828	0.052
828	0.052
829	0.052
829	0.052
829	0.052
830	0.052
830	0.052
831	0.053
831	0.053
832	0.052
832	0.052
832	0.052
833	0.052
833	0.052
834	0.052
834	0.052
835	0.052
835	0.053
835	0.053
836	0.054
836	0.054
837	0.054
837	0.055
838	0.055
838	0.054
839	0.054
839	0.054
839	0.053
840	0.052
840	0.051
841	0.051
841	0.05
842	0.049
842	0.049
842	0.048
843	0.048
843	0.048
844	0.047
844	0.047
845	0.047
845	0.047
845	0.047
846	0.047
846	0.047
847	0.047
847	0.047
848	0.048
848	0.048
848	0.049
849	0.05
849	0.05
850	0.05
850	0.05
851	0.05
851	0.05
851	0.05
852	0.049
852	0.048
853	0.048
853	0.047
854	0.046
854	0.046
854	0.046
855	0.046
855	0.046
856	0.046
856	0.047
857	0.047
857	0.048
857	0.048
858	0.048
858	0.048
859	0.048
859	0.047
860	0.047
860	0.046
860	0.046
861	0.045
861	0.044
862	0.043
862	0.043
863	0.042
863	0.042
863	0.042
864	0.042
864	0.041
865	0.041
865	0.041
866	0.041
866	0.041
866	0.041
867	0.041
867	0.041
868	0.042
868	0.042
869	0.042
869	0.042
869	0.042
870	0.043
870	0.043
871	0.044
871	0.045
872	0.045
872	0.045
872	0.046
873	0.046
873	0.046
874	0.045
874	0.045
875	0.045
875	0.044
875	0.044
876	0.043
876	0.043
877	0.042
877	0.043
878	0.043
878	0.044
878	0.045
879	0.045
879	0.046
880	0.047
880	0.047
881	0.047
881	0.047
881	0.047
882	0.047
882	0.046
883	0.045
883	0.045
884	0.044
884	0.043
884	0.043
885	0.042
885	0.041
886	0.041
886	0.041
887	0.041
887	0.04
887	0.04
888	0.04
888	0.039
889	0.039
889	0.039
890	0.039
890	0.039
890	0.04
891	0.04
891	0.04
892	0.04
892	0.041
893	0.041
893	0.042
893	0.043
894	0.043
894	0.044
895	0.044
895	0.044
895	0.044
896	0.044
896	0.044
897	0.044
897	0.043
898	0.043
898	0.042
898	0.042
899	0.042
899	0.042
900	0.042
900	0.042
901	0.042
901	0.043
901	0.043
902	0.043
902	0.043
903	0.043
903	0.043
904	0.043
904	0.043
904	0.043
905	0.043
905	0.043
906	0.043
906	0.043
907	0.043
907	0.044
907	0.044
908	0.044
908	0.045
909	0.045
909	0.045
910	0.045
910	0.045
910	0.045
911	0.045
911	0.045
912	0.045
912	0.045
913	0.045
913	0.045
913	0.045
914	0.045
914	0.045
915	0.045
915	0.045
916	0.044
916	0.044
916	0.044
917	0.043
917	0.042
918	0.041
918	0.04
918	0.04
919	0.039
919	0.039
920	0.038
920	0.038
921	0.038
921	0.038
921	0.038
922	0.038
922	0.039
923	0.039
923	0.04
924	0.041
924	0.041
924	0.042
925	0.042
925	0.043
926	0.043
926	0.043
927	0.044
927	0.044
927	0.044
928	0.043
928	0.043
929	0.043
929	0.043
930	0.042
930	0.042
930	0.041
931	0.041
931	0.041
932	0.041
932	0.04
933	0.04
933	0.04
933	0.039
934	0.039
934	0.039
935	0.039
935	0.039
935	0.039
936	0.038
936	0.039
937	0.039
937	0.039
938	0.04
938	0.04
938	0.04
939	0.04
939	0.04
940	0.041
940	0.041
941	0.042
941	0.042
941	0.042
942	0.043
942	0.043
943	0.044
943	0.044
944	0.044
944	0.045
944	0.045
945	0.045
945	0.045
946	0.045
946	0.045
946	0.045
947	0.045
947	0.045
948	0.045
948	0.045
949	0.045
949	0.045
949	0.045
950	0.045
950	0.045
951	0.045
951	0.045
952	0.044
952	0.044
952	0.044
953	0.044
953	0.044
954	0.043
954	0.043
955	0.042
955	0.042
955	0.042
956	0.042
956	0.042
957	0.042
957	0.042
957	0.042
958	0.043
958	0.043
959	0.044
959	0.044
960	0.045
960	0.045
960	0.045
961	0.045
961	0.045
962	0.046
962	0.046
963	0.046
963	0.045
963	0.045
964	0.045
964	0.045
965	0.045
965	0.046
966	0.046
966	0.046
966	0.046
967	0.047
967	0.047
968	0.047
968	0.048
968	0.047
969	0.047
969	0.047
970	0.047
970	0.047
971	0.047
971	0.046
971	0.046
972	0.046
972	0.045
973	0.045
973	0.045
974	0.045
974	0.045
974	0.045
975	0.045
975	0.045
976	0.046
976	0.046
976	0.047
977	0.047
977	0.047
978	0.047
978	0.047
979	0.048
979	0.048
979	0.048
980	0.047
980	0.047
981	0.046
981	0.046
982	0.045
982	0.045
982	0.044
983	0.043
983	0.042
984	0.041
984	0.04
984	0.038
985	0.037
985	0.037
986	0.036
986	0.035
987	0.034
987	0.034
987	0.034
988	0.033
988	0.033
989	0.033
989	0.033
990	0.033
990	0.033
990	0.033
991	0.032
991	0.032
992	0.032
992	0.032
992	0.031
993	0.031
993	0.031
994	0.031
994	0.032
995	0.032
995	0.032
995	0.033
996	0.033
996	0.034
997	0.035
997	0.035
997	0.036
998	0.037
998	0.038
999	0.039
999	0.04
1000	0.041
1000	0.042
1000	0.043
1001	0.043
1001	0.044
1002	0.044
1002	0.044
1003	0.044
1003	0.044
1003	0.044
1004	0.043
1004	0.043
1005	0.042
1005	0.041
1005	0.041
1006	0.04
1006	0.04
1007	0.039
1007	0.039
1008	0.039
1008	0.039
1008	0.039
1009	0.039
1009	0.039
1010	0.038
1010	0.038
1010	0.038
1011	0.038
1011	0.038
1012	0.038
1012	0.038
1013	0.037
1013	0.037
1013	0.037
1014	0.037
1014	0.036
1015	0.036
1015	0.036
1016	0.037
1016	0.036
1016	0.036
1017	0.036
1017	0.036
1018	0.036
1018	0.036
1018	0.036
1019	0.036
1019	0.035
1020	0.035
1020	0.035
1021	0.035
1021	0.035
1021	0.035
1022	0.035
1022	0.035
1023	0.035
1023	0.035
1023	0.035
1024	0.035
1024	0.034
1025	0.034
1025	0.034
1026	0.033
1026	0.033
1026	0.032
1027	0.032
1027	0.032
1028	0.031
1028	0.031
1028	0.03
1029	0.031
1029	0.031
1030	0.031
1030	0.031
1031	0.031
1031	0.031
1031	0.032
1032	0.032
1032	0.032
1033	0.033
1033	0.033
1033	0.033
1034	0.033
1034	0.033
1035	0.033
1035	0.033
1036	0.033
1036	0.033
1036	0.033
1037	0.034
1037	0.034
1038	0.034
1038	0.034
1039	0.034
1039	0.034
1039	0.035
1040	0.035
1040	0.036
1041	0.036
1041	0.036
1041	0.036
1042	0.036
1042	0.036
1043	0.036
1043	0.036
1044	0.036
1044	0.036
1044	0.036
1045	0.036
1045	0.036
1046	0.036
1046	0.036
1046	0.037
1047	0.037
1047	0.038
1048	0.038
1048	0.038
1049	0.039
1049	0.039
1049	0.039
1050	0.038
1050	0.038
1051	0.037
1051	0.037
1051	0.037
1052	0.036
1052	0.035
1053	0.034
1053	0.033
1053	0.032
1054	0.031
1054	0.031
1055	0.031
1055	0.03
1056	0.03
1056	0.029
1056	0.029
1057	0.029
1057	0.029
1058	0.028
1058	0.028
1058	0.027
1059	0.027
1059	0.027
1060	0.026
1060	0.026
1061	0.025
1061	0.025
1061	0.025
1062	0.025
1062	0.025
1063	0.025
1063	0.025
1063	0.025
1064	0.025
1064	0.025
1065	0.024
1065	0.024
1066	0.025
1066	0.025
1066	0.024
1067	0.024
1067	0.024
1068	0.024
1068	0.023
1068	0.023
1069	0.023
1069	0.023
1070	0.022
1070	0.022
1071	0.021
1071	0.02
1071	0.02
1072	0.019
1072	0.019
1073	0.018
1073	0.018
1073	0.017
1074	0.017
1074	0.018
1075	0.018
1075	0.018
1076	0.018
1076	0.019
1076	0.019
1077	0.02
1077	0.02
1078	0.02
1078	0.021
1078	0.021
1079	0.021
1079	0.022
1080	0.022
1080	0.023
1080	0.022
1081	0.023
1081	0.023
1082	0.024
1082	0.024
1083	0.024
1083	0.024
1083	0.025
1084	0.025
1084	0.025
1085	0.024
1085	0.024
1085	0.024
1086	0.024
1086	0.023
1087	0.022
1087	0.022
1088	0.021
1088	0.021
1088	0.021
1089	0.021
1089	0.02
1090	0.019
1090	0.019
1090	0.017
1091	0.017
1091	0.017
1092	0.017
1092	0.017
1092	0.016
1093	0.015
1093	0.015
1094	0.015
1094	0.015
1095	0.014
1095	0.014
1095	0.014
1096	0.013
1096	0.013
1097	0.012
1097	0.012
1097	0.012
1098	0.011
1098	0.009
1099	0.009
1099	0.008
1100	0.008
1100	0.007
1100	0.006
1101	0.005
1101	0.004
1102	0.004
1102	0.002
1102	0.002
1103	0.002
1103	0.001
1104	0.001
1104	0
1104	-0
1105	-0.002
1105	-0.003
1106	-0.004
1106	-0.005
1107	-0.006
1107	-0.006
1107	-0.007
1108	-0.008
1108	-0.009
1109	-0.01
1109	-0.011
1109	-0.012
1110	-0.01
1110	-0.012
1111	-0.012
1111	-0.012
