Data from reversibility-20sec_Absorbance__8018__000000000008018.txt Node

Date: Thu Dec 07 08:45:46 CET 2023
User: Marek
Spectrometer: MAYP115816
Trigger mode: 0
Integration Time (sec): 2.000000E-1
Scans to average: 10
Electric dark correction enabled: true
Nonlinearity correction enabled: true
Boxcar width: 5
XAxis mode: Wavelengths
Number of Pixels in Spectrum: 2068
>>>>>Begin Spectral Data<<<<<
199	-0.121
199	-0.098
200	-0.036
200	0.011
201	0.035
201	0.049
202	0.057
202	0.067
203	0.077
203	0.08
204	0.091
204	0.102
205	0.114
205	0.119
205	0.119
206	0.119
206	0.119
207	0.123
207	0.123
208	0.12
208	0.12
209	0.123
209	0.121
210	0.122
210	0.122
211	0.124
211	0.13
212	0.129
212	0.129
213	0.132
213	0.132
213	0.132
214	0.136
214	0.139
215	0.139
215	0.14
216	0.141
216	0.133
217	0.138
217	0.139
218	0.141
218	0.148
219	0.15
219	0.149
220	0.152
220	0.153
221	0.153
221	0.156
221	0.165
222	0.17
222	0.177
223	0.18
223	0.185
224	0.191
224	0.198
225	0.206
225	0.217
226	0.229
226	0.237
227	0.245
227	0.256
228	0.271
228	0.287
229	0.303
229	0.327
229	0.35
230	0.374
230	0.404
231	0.435
231	0.475
232	0.516
232	0.558
233	0.6
233	0.647
234	0.698
234	0.748
235	0.805
235	0.861
236	0.91
236	0.962
236	1.011
237	1.063
237	1.112
238	1.157
238	1.203
239	1.247
239	1.286
240	1.321
240	1.354
241	1.39
241	1.426
242	1.458
242	1.489
243	1.518
243	1.544
243	1.569
244	1.592
244	1.616
245	1.635
245	1.658
246	1.674
246	1.688
247	1.701
247	1.713
248	1.728
248	1.744
249	1.753
249	1.761
250	1.768
250	1.776
250	1.78
251	1.786
251	1.79
252	1.796
252	1.797
253	1.797
253	1.797
254	1.797
254	1.799
255	1.799
255	1.8
256	1.8
256	1.799
257	1.799
257	1.797
258	1.796
258	1.797
258	1.795
259	1.793
259	1.792
260	1.791
260	1.791
261	1.79
261	1.792
262	1.794
262	1.796
263	1.798
263	1.797
264	1.798
264	1.8
265	1.801
265	1.802
265	1.803
266	1.803
266	1.802
267	1.797
267	1.798
268	1.797
268	1.797
269	1.798
269	1.796
270	1.794
270	1.792
271	1.789
271	1.789
272	1.788
272	1.789
272	1.784
273	1.78
273	1.776
274	1.772
274	1.768
275	1.763
275	1.759
276	1.752
276	1.744
277	1.736
277	1.726
278	1.717
278	1.706
278	1.693
279	1.679
279	1.662
280	1.643
280	1.619
281	1.591
281	1.558
282	1.523
282	1.487
283	1.451
283	1.414
284	1.377
284	1.341
285	1.307
285	1.274
285	1.245
286	1.218
286	1.195
287	1.174
287	1.156
288	1.14
288	1.126
289	1.114
289	1.104
290	1.095
290	1.087
291	1.08
291	1.073
292	1.068
292	1.062
292	1.057
293	1.053
293	1.048
294	1.044
294	1.04
295	1.036
295	1.032
296	1.028
296	1.024
297	1.02
297	1.017
298	1.014
298	1.01
298	1.007
299	1.004
299	1
300	0.997
300	0.994
301	0.991
301	0.987
302	0.984
302	0.981
303	0.978
303	0.976
304	0.973
304	0.97
305	0.967
305	0.964
305	0.961
306	0.959
306	0.956
307	0.953
307	0.95
308	0.947
308	0.944
309	0.941
309	0.938
310	0.935
310	0.932
311	0.929
311	0.925
311	0.922
312	0.918
312	0.914
313	0.91
313	0.906
314	0.902
314	0.898
315	0.893
315	0.889
316	0.884
316	0.88
317	0.875
317	0.87
318	0.865
318	0.859
318	0.854
319	0.848
319	0.842
320	0.836
320	0.83
321	0.824
321	0.817
322	0.811
322	0.804
323	0.798
323	0.791
324	0.785
324	0.778
324	0.771
325	0.764
325	0.758
326	0.75
326	0.743
327	0.736
327	0.729
328	0.722
328	0.715
329	0.708
329	0.7
330	0.693
330	0.686
330	0.679
331	0.672
331	0.664
332	0.657
332	0.65
333	0.643
333	0.636
334	0.629
334	0.622
335	0.615
335	0.608
336	0.602
336	0.595
336	0.588
337	0.582
337	0.575
338	0.569
338	0.562
339	0.556
339	0.55
340	0.544
340	0.539
341	0.533
341	0.527
342	0.521
342	0.516
342	0.51
343	0.505
343	0.5
344	0.494
344	0.489
345	0.485
345	0.48
346	0.475
346	0.47
347	0.466
347	0.462
348	0.457
348	0.453
348	0.449
349	0.445
349	0.441
350	0.437
350	0.434
351	0.43
351	0.427
352	0.423
352	0.42
353	0.417
353	0.414
354	0.411
354	0.408
354	0.405
355	0.402
355	0.399
356	0.396
356	0.393
357	0.39
357	0.387
358	0.384
358	0.381
359	0.379
359	0.376
360	0.374
360	0.372
360	0.37
361	0.368
361	0.366
362	0.364
362	0.363
363	0.361
363	0.359
364	0.357
364	0.355
365	0.353
365	0.351
366	0.349
366	0.347
366	0.345
367	0.343
367	0.342
368	0.34
368	0.338
369	0.337
369	0.335
370	0.334
370	0.332
371	0.331
371	0.329
372	0.328
372	0.327
372	0.326
373	0.324
373	0.323
374	0.322
374	0.321
375	0.32
375	0.319
376	0.318
376	0.317
377	0.315
377	0.314
378	0.313
378	0.312
378	0.311
379	0.31
379	0.309
380	0.308
380	0.307
381	0.307
381	0.306
382	0.305
382	0.305
383	0.304
383	0.304
383	0.303
384	0.302
384	0.301
385	0.301
385	0.3
386	0.3
386	0.299
387	0.299
387	0.298
388	0.298
388	0.297
389	0.297
389	0.297
389	0.296
390	0.296
390	0.295
391	0.295
391	0.294
392	0.293
392	0.293
393	0.293
393	0.292
394	0.292
394	0.291
394	0.291
395	0.29
395	0.29
396	0.289
396	0.289
397	0.288
397	0.288
398	0.287
398	0.287
399	0.287
399	0.286
400	0.286
400	0.285
400	0.285
401	0.285
401	0.284
402	0.284
402	0.283
403	0.283
403	0.283
404	0.282
404	0.282
405	0.281
405	0.281
405	0.281
406	0.281
406	0.28
407	0.28
407	0.28
408	0.279
408	0.279
409	0.279
409	0.278
410	0.278
410	0.278
411	0.277
411	0.277
411	0.277
412	0.276
412	0.276
413	0.276
413	0.276
414	0.275
414	0.275
415	0.274
415	0.274
416	0.274
416	0.274
416	0.273
417	0.273
417	0.272
418	0.272
418	0.272
419	0.271
419	0.271
420	0.27
420	0.269
421	0.269
421	0.268
421	0.268
422	0.268
422	0.267
423	0.267
423	0.266
424	0.266
424	0.266
425	0.266
425	0.266
426	0.266
426	0.265
427	0.265
427	0.265
427	0.264
428	0.264
428	0.263
429	0.263
429	0.262
430	0.262
430	0.262
431	0.261
431	0.261
432	0.261
432	0.261
432	0.261
433	0.261
433	0.261
434	0.261
434	0.261
435	0.261
435	0.26
436	0.26
436	0.26
437	0.26
437	0.259
437	0.259
438	0.259
438	0.259
439	0.259
439	0.259
440	0.258
440	0.258
441	0.258
441	0.257
442	0.257
442	0.257
442	0.257
443	0.257
443	0.256
444	0.256
444	0.256
445	0.256
445	0.256
446	0.256
446	0.256
447	0.255
447	0.255
447	0.255
448	0.255
448	0.255
449	0.255
449	0.255
450	0.255
450	0.255
451	0.255
451	0.255
452	0.255
452	0.255
452	0.255
453	0.255
453	0.255
454	0.255
454	0.254
455	0.254
455	0.254
456	0.254
456	0.254
457	0.254
457	0.254
458	0.254
458	0.254
458	0.254
459	0.254
459	0.254
460	0.254
460	0.254
461	0.254
461	0.254
462	0.254
462	0.254
463	0.254
463	0.254
463	0.254
464	0.254
464	0.254
465	0.253
465	0.253
466	0.253
466	0.253
467	0.253
467	0.254
467	0.254
468	0.254
468	0.254
469	0.254
469	0.255
470	0.255
470	0.256
471	0.256
471	0.256
472	0.257
472	0.257
472	0.257
473	0.257
473	0.258
474	0.258
474	0.258
475	0.258
475	0.258
476	0.259
476	0.259
477	0.259
477	0.26
477	0.26
478	0.26
478	0.261
479	0.261
479	0.262
480	0.262
480	0.263
481	0.263
481	0.263
482	0.264
482	0.265
482	0.265
483	0.265
483	0.266
484	0.266
484	0.266
485	0.267
485	0.267
486	0.268
486	0.268
487	0.269
487	0.269
487	0.27
488	0.27
488	0.271
489	0.272
489	0.274
490	0.275
490	0.276
491	0.277
491	0.278
492	0.279
492	0.28
492	0.281
493	0.282
493	0.283
494	0.283
494	0.285
495	0.285
495	0.287
496	0.287
496	0.289
496	0.29
497	0.291
497	0.292
498	0.293
498	0.294
499	0.295
499	0.296
500	0.297
500	0.298
501	0.299
501	0.3
501	0.301
502	0.302
502	0.303
503	0.304
503	0.305
504	0.306
504	0.307
505	0.308
505	0.309
506	0.31
506	0.311
506	0.312
507	0.313
507	0.314
508	0.315
508	0.316
509	0.316
509	0.317
510	0.318
510	0.319
511	0.32
511	0.321
511	0.322
512	0.323
512	0.323
513	0.324
513	0.325
514	0.325
514	0.326
515	0.327
515	0.327
515	0.327
516	0.328
516	0.328
517	0.328
517	0.329
518	0.329
518	0.33
519	0.33
519	0.33
520	0.33
520	0.331
520	0.331
521	0.331
521	0.332
522	0.331
522	0.331
523	0.331
523	0.332
524	0.332
524	0.331
524	0.331
525	0.331
525	0.331
526	0.33
526	0.33
527	0.33
527	0.329
528	0.329
528	0.328
529	0.327
529	0.327
529	0.326
530	0.325
530	0.324
531	0.323
531	0.322
532	0.321
532	0.32
533	0.319
533	0.318
533	0.317
534	0.315
534	0.314
535	0.313
535	0.312
536	0.311
536	0.309
537	0.308
537	0.306
538	0.305
538	0.304
538	0.302
539	0.301
539	0.3
540	0.299
540	0.297
541	0.296
541	0.294
542	0.293
542	0.291
542	0.29
543	0.288
543	0.286
544	0.284
544	0.283
545	0.281
545	0.28
546	0.278
546	0.276
547	0.274
547	0.272
547	0.271
548	0.269
548	0.268
549	0.266
549	0.265
550	0.263
550	0.261
551	0.26
551	0.258
551	0.256
552	0.255
552	0.253
553	0.252
553	0.25
554	0.249
554	0.247
555	0.245
555	0.243
556	0.242
556	0.24
556	0.239
557	0.238
557	0.236
558	0.235
558	0.234
559	0.232
559	0.231
560	0.229
560	0.228
560	0.226
561	0.225
561	0.224
562	0.222
562	0.22
563	0.218
563	0.216
564	0.215
564	0.213
564	0.212
565	0.211
565	0.21
566	0.208
566	0.207
567	0.206
567	0.205
568	0.204
568	0.202
568	0.201
569	0.2
569	0.198
570	0.196
570	0.194
571	0.193
571	0.191
572	0.19
572	0.189
573	0.188
573	0.186
573	0.185
574	0.184
574	0.183
575	0.183
575	0.182
576	0.181
576	0.18
577	0.178
577	0.177
577	0.176
578	0.175
578	0.174
579	0.174
579	0.173
580	0.172
580	0.171
581	0.17
581	0.169
581	0.168
582	0.168
582	0.167
583	0.166
583	0.165
584	0.164
584	0.162
585	0.161
585	0.161
585	0.16
586	0.159
586	0.158
587	0.157
587	0.157
588	0.156
588	0.155
589	0.155
589	0.155
590	0.154
590	0.153
590	0.153
591	0.152
591	0.151
592	0.15
592	0.149
593	0.148
593	0.147
594	0.147
594	0.146
594	0.145
595	0.144
595	0.143
596	0.142
596	0.142
597	0.142
597	0.142
598	0.141
598	0.141
598	0.14
599	0.14
599	0.139
600	0.139
600	0.138
601	0.137
601	0.137
602	0.136
602	0.135
602	0.135
603	0.134
603	0.134
604	0.134
604	0.134
605	0.134
605	0.134
606	0.133
606	0.132
606	0.131
607	0.131
607	0.131
608	0.13
608	0.129
609	0.128
609	0.128
610	0.127
610	0.126
610	0.126
611	0.126
611	0.126
612	0.125
612	0.125
613	0.125
613	0.125
614	0.124
614	0.124
614	0.124
615	0.124
615	0.124
616	0.124
616	0.124
617	0.123
617	0.123
618	0.122
618	0.122
618	0.122
619	0.122
619	0.122
620	0.122
620	0.121
621	0.12
621	0.12
622	0.119
622	0.119
622	0.118
623	0.117
623	0.117
624	0.117
624	0.116
625	0.115
625	0.115
626	0.115
626	0.115
626	0.115
627	0.115
627	0.115
628	0.115
628	0.115
629	0.114
629	0.114
630	0.114
630	0.113
630	0.113
631	0.113
631	0.112
632	0.112
632	0.111
633	0.111
633	0.111
634	0.111
634	0.111
634	0.111
635	0.11
635	0.11
636	0.11
636	0.11
637	0.109
637	0.109
638	0.109
638	0.109
638	0.108
639	0.107
639	0.107
640	0.107
640	0.107
641	0.106
641	0.106
642	0.106
642	0.106
642	0.106
643	0.105
643	0.105
644	0.105
644	0.105
645	0.105
645	0.105
646	0.106
646	0.106
646	0.106
647	0.105
647	0.105
648	0.104
648	0.104
649	0.103
649	0.103
650	0.103
650	0.102
650	0.102
651	0.102
651	0.102
652	0.102
652	0.102
653	0.103
653	0.104
653	0.109
654	0.088
654	0.071
655	0.069
655	0.069
656	0.07
656	0.07
657	0.07
657	0.07
657	0.07
658	0.069
658	0.062
659	0.078
659	0.098
660	0.103
660	0.103
661	0.102
661	0.101
661	0.101
662	0.1
662	0.099
663	0.099
663	0.098
664	0.098
664	0.097
665	0.097
665	0.097
665	0.097
666	0.097
666	0.097
667	0.097
667	0.098
668	0.098
668	0.098
669	0.098
669	0.098
669	0.099
670	0.099
670	0.099
671	0.099
671	0.099
672	0.098
672	0.098
672	0.098
673	0.097
673	0.097
674	0.097
674	0.096
675	0.096
675	0.096
676	0.096
676	0.096
676	0.096
677	0.096
677	0.096
678	0.096
678	0.095
679	0.095
679	0.095
680	0.096
680	0.095
680	0.095
681	0.095
681	0.096
682	0.096
682	0.096
683	0.096
683	0.096
684	0.096
684	0.096
684	0.095
685	0.095
685	0.095
686	0.095
686	0.094
687	0.094
687	0.094
687	0.094
688	0.094
688	0.094
689	0.095
689	0.095
690	0.095
690	0.095
691	0.095
691	0.095
691	0.095
692	0.095
692	0.095
693	0.095
693	0.096
694	0.095
694	0.095
695	0.096
695	0.097
695	0.097
696	0.097
696	0.097
697	0.097
697	0.096
698	0.096
698	0.096
698	0.096
699	0.096
699	0.095
700	0.095
700	0.095
701	0.095
701	0.094
702	0.093
702	0.093
702	0.092
703	0.092
703	0.091
704	0.091
704	0.091
705	0.091
705	0.09
705	0.09
706	0.09
706	0.09
707	0.09
707	0.09
708	0.091
708	0.091
709	0.091
709	0.091
709	0.091
710	0.091
710	0.091
711	0.092
711	0.092
712	0.092
712	0.092
713	0.092
713	0.092
713	0.091
714	0.091
714	0.091
715	0.091
715	0.09
716	0.089
716	0.089
716	0.088
717	0.088
717	0.088
718	0.088
718	0.088
719	0.089
719	0.089
720	0.089
720	0.09
720	0.091
721	0.091
721	0.092
722	0.092
722	0.092
723	0.092
723	0.092
723	0.092
724	0.091
724	0.091
725	0.09
725	0.089
726	0.089
726	0.088
727	0.087
727	0.087
727	0.087
728	0.087
728	0.087
729	0.087
729	0.087
730	0.087
730	0.087
730	0.087
731	0.088
731	0.088
732	0.088
732	0.088
733	0.088
733	0.088
734	0.088
734	0.089
734	0.089
735	0.089
735	0.089
736	0.089
736	0.089
737	0.088
737	0.088
737	0.088
738	0.087
738	0.087
739	0.087
739	0.086
740	0.086
740	0.086
741	0.087
741	0.087
741	0.087
742	0.087
742	0.088
743	0.089
743	0.089
744	0.089
744	0.09
744	0.089
745	0.089
745	0.089
746	0.089
746	0.088
747	0.088
747	0.088
748	0.087
748	0.087
748	0.087
749	0.087
749	0.088
750	0.088
750	0.088
751	0.088
751	0.088
751	0.089
752	0.088
752	0.088
753	0.088
753	0.087
754	0.087
754	0.086
754	0.085
755	0.085
755	0.084
756	0.084
756	0.082
757	0.082
757	0.082
758	0.082
758	0.081
758	0.081
759	0.081
759	0.081
760	0.081
760	0.081
761	0.081
761	0.082
761	0.082
762	0.082
762	0.083
763	0.083
763	0.083
764	0.083
764	0.083
764	0.083
765	0.082
765	0.082
766	0.082
766	0.081
767	0.081
767	0.08
768	0.079
768	0.079
768	0.078
769	0.079
769	0.079
770	0.079
770	0.079
771	0.079
771	0.079
771	0.08
772	0.08
772	0.081
773	0.081
773	0.081
774	0.081
774	0.082
775	0.082
775	0.083
775	0.083
776	0.083
776	0.084
777	0.085
777	0.085
778	0.085
778	0.085
778	0.084
779	0.084
779	0.083
780	0.081
780	0.08
781	0.079
781	0.078
781	0.077
782	0.076
782	0.075
783	0.075
783	0.075
784	0.075
784	0.075
784	0.076
785	0.076
785	0.076
786	0.076
786	0.077
787	0.077
787	0.077
788	0.076
788	0.076
788	0.076
789	0.076
789	0.076
790	0.076
790	0.076
791	0.076
791	0.075
791	0.075
792	0.075
792	0.075
793	0.074
793	0.073
794	0.073
794	0.072
794	0.072
795	0.071
795	0.071
796	0.071
796	0.071
797	0.071
797	0.071
797	0.071
798	0.071
798	0.072
799	0.072
799	0.072
800	0.072
800	0.072
801	0.072
801	0.072
801	0.073
802	0.073
802	0.074
803	0.075
803	0.075
804	0.076
804	0.077
804	0.077
805	0.076
805	0.076
806	0.076
806	0.075
807	0.075
807	0.075
807	0.074
808	0.074
808	0.074
809	0.073
809	0.073
810	0.073
810	0.073
810	0.073
811	0.073
811	0.074
812	0.074
812	0.074
813	0.074
813	0.074
813	0.074
814	0.075
814	0.075
815	0.075
815	0.075
816	0.075
816	0.074
817	0.074
817	0.073
817	0.073
818	0.073
818	0.072
819	0.072
819	0.071
820	0.07
820	0.07
820	0.069
821	0.069
821	0.069
822	0.069
822	0.069
823	0.069
823	0.069
823	0.07
824	0.07
824	0.071
825	0.072
825	0.073
826	0.074
826	0.074
826	0.075
827	0.075
827	0.076
828	0.076
828	0.076
829	0.076
829	0.077
829	0.077
830	0.077
830	0.078
831	0.078
831	0.078
832	0.078
832	0.078
832	0.077
833	0.077
833	0.076
834	0.076
834	0.075
835	0.074
835	0.073
835	0.072
836	0.071
836	0.071
837	0.07
837	0.07
838	0.069
838	0.069
839	0.068
839	0.067
839	0.067
840	0.066
840	0.065
841	0.064
841	0.064
842	0.063
842	0.062
842	0.061
843	0.06
843	0.06
844	0.059
844	0.059
845	0.059
845	0.058
845	0.058
846	0.059
846	0.059
847	0.059
847	0.06
848	0.06
848	0.061
848	0.061
849	0.061
849	0.061
850	0.061
850	0.061
851	0.06
851	0.06
851	0.06
852	0.059
852	0.059
853	0.059
853	0.059
854	0.06
854	0.061
854	0.062
855	0.063
855	0.064
856	0.065
856	0.066
857	0.067
857	0.068
857	0.069
858	0.069
858	0.069
859	0.068
859	0.068
860	0.068
860	0.067
860	0.066
861	0.066
861	0.065
862	0.064
862	0.064
863	0.064
863	0.064
863	0.064
864	0.064
864	0.064
865	0.064
865	0.064
866	0.064
866	0.064
866	0.065
867	0.065
867	0.065
868	0.065
868	0.065
869	0.065
869	0.065
869	0.065
870	0.064
870	0.064
871	0.064
871	0.064
872	0.064
872	0.064
872	0.063
873	0.063
873	0.062
874	0.062
874	0.061
875	0.061
875	0.061
875	0.061
876	0.061
876	0.06
877	0.06
877	0.061
878	0.061
878	0.061
878	0.061
879	0.062
879	0.062
880	0.062
880	0.062
881	0.062
881	0.063
881	0.063
882	0.062
882	0.062
883	0.062
883	0.062
884	0.062
884	0.061
884	0.061
885	0.061
885	0.061
886	0.06
886	0.06
887	0.06
887	0.06
887	0.06
888	0.06
888	0.06
889	0.06
889	0.061
890	0.061
890	0.062
890	0.062
891	0.063
891	0.063
892	0.063
892	0.063
893	0.063
893	0.062
893	0.062
894	0.061
894	0.061
895	0.06
895	0.06
895	0.06
896	0.06
896	0.06
897	0.061
897	0.061
898	0.061
898	0.061
898	0.06
899	0.06
899	0.06
900	0.06
900	0.059
901	0.059
901	0.058
901	0.058
902	0.058
902	0.057
903	0.057
903	0.057
904	0.057
904	0.057
904	0.057
905	0.057
905	0.057
906	0.057
906	0.057
907	0.058
907	0.058
907	0.058
908	0.058
908	0.057
909	0.057
909	0.057
910	0.056
910	0.056
910	0.055
911	0.055
911	0.054
912	0.053
912	0.053
913	0.052
913	0.052
913	0.052
914	0.051
914	0.051
915	0.051
915	0.051
916	0.051
916	0.05
916	0.05
917	0.05
917	0.05
918	0.049
918	0.049
918	0.048
919	0.048
919	0.047
920	0.047
920	0.047
921	0.047
921	0.047
921	0.047
922	0.047
922	0.048
923	0.048
923	0.049
924	0.05
924	0.051
924	0.051
925	0.052
925	0.052
926	0.053
926	0.053
927	0.054
927	0.054
927	0.054
928	0.054
928	0.054
929	0.054
929	0.055
930	0.055
930	0.055
930	0.055
931	0.055
931	0.055
932	0.055
932	0.055
933	0.055
933	0.054
933	0.054
934	0.053
934	0.053
935	0.052
935	0.052
935	0.051
936	0.05
936	0.05
937	0.049
937	0.048
938	0.048
938	0.047
938	0.046
939	0.045
939	0.045
940	0.045
940	0.045
941	0.045
941	0.046
941	0.046
942	0.047
942	0.047
943	0.048
943	0.049
944	0.049
944	0.05
944	0.05
945	0.051
945	0.051
946	0.052
946	0.052
946	0.052
947	0.052
947	0.052
948	0.052
948	0.051
949	0.051
949	0.051
949	0.05
950	0.05
950	0.049
951	0.049
951	0.048
952	0.047
952	0.047
952	0.046
953	0.046
953	0.046
954	0.046
954	0.046
955	0.046
955	0.046
955	0.046
956	0.047
956	0.048
957	0.049
957	0.05
957	0.05
958	0.051
958	0.051
959	0.052
959	0.052
960	0.053
960	0.053
960	0.053
961	0.053
961	0.053
962	0.053
962	0.052
963	0.052
963	0.051
963	0.051
964	0.051
964	0.05
965	0.05
965	0.05
966	0.05
966	0.05
966	0.051
967	0.051
967	0.051
968	0.052
968	0.052
968	0.052
969	0.052
969	0.051
970	0.051
970	0.05
971	0.049
971	0.048
971	0.047
972	0.047
972	0.046
973	0.045
973	0.045
974	0.045
974	0.045
974	0.045
975	0.046
975	0.046
976	0.047
976	0.048
976	0.048
977	0.048
977	0.048
978	0.049
978	0.049
979	0.049
979	0.049
979	0.049
980	0.049
980	0.049
981	0.049
981	0.049
982	0.049
982	0.049
982	0.049
983	0.049
983	0.048
984	0.048
984	0.048
984	0.048
985	0.047
985	0.047
986	0.047
986	0.046
987	0.046
987	0.046
987	0.045
988	0.045
988	0.044
989	0.044
989	0.044
990	0.043
990	0.043
990	0.043
991	0.043
991	0.042
992	0.042
992	0.041
992	0.041
993	0.04
993	0.039
994	0.038
994	0.037
995	0.037
995	0.036
995	0.036
996	0.036
996	0.036
997	0.036
997	0.036
997	0.037
998	0.037
998	0.037
999	0.038
999	0.038
1000	0.038
1000	0.039
1000	0.039
1001	0.04
1001	0.04
1002	0.04
1002	0.04
1003	0.041
1003	0.041
1003	0.041
1004	0.041
1004	0.041
1005	0.04
1005	0.04
1005	0.04
1006	0.039
1006	0.039
1007	0.039
1007	0.039
1008	0.038
1008	0.038
1008	0.038
1009	0.038
1009	0.038
1010	0.037
1010	0.037
1010	0.037
1011	0.036
1011	0.036
1012	0.036
1012	0.035
1013	0.035
1013	0.035
1013	0.035
1014	0.035
1014	0.035
1015	0.035
1015	0.035
1016	0.035
1016	0.036
1016	0.036
1017	0.036
1017	0.036
1018	0.037
1018	0.037
1018	0.037
1019	0.037
1019	0.037
1020	0.037
1020	0.037
1021	0.038
1021	0.038
1021	0.039
1022	0.039
1022	0.039
1023	0.04
1023	0.04
1023	0.04
1024	0.04
1024	0.04
1025	0.04
1025	0.04
1026	0.04
1026	0.039
1026	0.039
1027	0.039
1027	0.039
1028	0.039
1028	0.039
1028	0.039
1029	0.04
1029	0.039
1030	0.04
1030	0.04
1031	0.04
1031	0.04
1031	0.04
1032	0.04
1032	0.04
1033	0.04
1033	0.041
1033	0.041
1034	0.041
1034	0.041
1035	0.041
1035	0.04
1036	0.041
1036	0.041
1036	0.041
1037	0.041
1037	0.04
1038	0.04
1038	0.04
1039	0.04
1039	0.04
1039	0.04
1040	0.04
1040	0.04
1041	0.04
1041	0.04
1041	0.04
1042	0.04
1042	0.04
1043	0.04
1043	0.039
1044	0.039
1044	0.038
1044	0.038
1045	0.038
1045	0.038
1046	0.038
1046	0.037
1046	0.037
1047	0.037
1047	0.037
1048	0.038
1048	0.038
1049	0.038
1049	0.038
1049	0.037
1050	0.037
1050	0.037
1051	0.036
1051	0.036
1051	0.035
1052	0.034
1052	0.034
1053	0.033
1053	0.032
1053	0.031
1054	0.031
1054	0.03
1055	0.03
1055	0.03
1056	0.029
1056	0.029
1056	0.029
1057	0.028
1057	0.028
1058	0.028
1058	0.027
1058	0.027
1059	0.026
1059	0.026
1060	0.026
1060	0.026
1061	0.026
1061	0.026
1061	0.026
1062	0.026
1062	0.027
1063	0.027
1063	0.027
1063	0.027
1064	0.027
1064	0.027
1065	0.028
1065	0.028
1066	0.028
1066	0.028
1066	0.028
1067	0.028
1067	0.028
1068	0.028
1068	0.029
1068	0.029
1069	0.028
1069	0.029
1070	0.029
1070	0.028
1071	0.028
1071	0.028
1071	0.028
1072	0.028
1072	0.028
1073	0.027
1073	0.027
1073	0.027
1074	0.027
1074	0.028
1075	0.027
1075	0.028
1076	0.028
1076	0.029
1076	0.029
1077	0.029
1077	0.029
1078	0.029
1078	0.03
1078	0.03
1079	0.03
1079	0.03
1080	0.029
1080	0.029
1080	0.029
1081	0.029
1081	0.029
1082	0.029
1082	0.029
1083	0.029
1083	0.029
1083	0.029
1084	0.029
1084	0.03
1085	0.03
1085	0.03
1085	0.031
1086	0.031
1086	0.031
1087	0.03
1087	0.03
1088	0.03
1088	0.03
1088	0.03
1089	0.029
1089	0.029
1090	0.028
1090	0.027
1090	0.026
1091	0.026
1091	0.026
1092	0.025
1092	0.026
1092	0.026
1093	0.025
1093	0.026
1094	0.026
1094	0.026
1095	0.026
1095	0.026
1095	0.025
1096	0.025
1096	0.024
1097	0.024
1097	0.023
1097	0.023
1098	0.022
1098	0.021
1099	0.021
1099	0.02
1100	0.019
1100	0.018
1100	0.018
1101	0.017
1101	0.016
1102	0.016
1102	0.015
1102	0.014
1103	0.014
1103	0.013
1104	0.012
1104	0.013
1104	0.013
1105	0.012
1105	0.011
1106	0.01
1106	0.009
1107	0.009
1107	0.009
1107	0.009
1108	0.008
1108	0.008
1109	0.007
1109	0.007
1109	0.006
1110	0.008
1110	0.008
1111	0.009
1111	0.008
