Data from reversibility-20sec_Absorbance__7004__000000000007004.txt Node

Date: Thu Dec 07 03:07:45 CET 2023
User: Marek
Spectrometer: MAYP115816
Trigger mode: 0
Integration Time (sec): 2.000000E-1
Scans to average: 10
Electric dark correction enabled: true
Nonlinearity correction enabled: true
Boxcar width: 5
XAxis mode: Wavelengths
Number of Pixels in Spectrum: 2068
>>>>>Begin Spectral Data<<<<<
199	-0.107
199	-0.084
200	-0.028
200	0.024
201	0.056
201	0.074
202	0.083
202	0.094
203	0.102
203	0.105
204	0.119
204	0.134
205	0.146
205	0.151
205	0.15
206	0.147
206	0.148
207	0.149
207	0.148
208	0.144
208	0.143
209	0.144
209	0.139
210	0.141
210	0.143
211	0.145
211	0.148
212	0.145
212	0.149
213	0.152
213	0.154
213	0.157
214	0.161
214	0.164
215	0.165
215	0.165
216	0.163
216	0.164
217	0.169
217	0.169
218	0.168
218	0.173
219	0.176
219	0.173
220	0.178
220	0.178
221	0.179
221	0.183
221	0.188
222	0.192
222	0.199
223	0.206
223	0.21
224	0.214
224	0.221
225	0.227
225	0.237
226	0.248
226	0.258
227	0.267
227	0.275
228	0.289
228	0.304
229	0.319
229	0.342
229	0.368
230	0.392
230	0.422
231	0.452
231	0.491
232	0.529
232	0.572
233	0.614
233	0.661
234	0.711
234	0.766
235	0.819
235	0.875
236	0.923
236	0.978
236	1.028
237	1.078
237	1.125
238	1.171
238	1.217
239	1.266
239	1.306
240	1.346
240	1.378
241	1.414
241	1.446
242	1.476
242	1.509
243	1.539
243	1.562
243	1.586
244	1.603
244	1.625
245	1.641
245	1.664
246	1.684
246	1.702
247	1.715
247	1.729
248	1.743
248	1.759
249	1.768
249	1.775
250	1.78
250	1.789
250	1.791
251	1.792
251	1.794
252	1.796
252	1.795
253	1.795
253	1.79
254	1.788
254	1.79
255	1.788
255	1.786
256	1.787
256	1.787
257	1.786
257	1.785
258	1.785
258	1.784
258	1.785
259	1.786
259	1.785
260	1.786
260	1.787
261	1.786
261	1.788
262	1.791
262	1.793
263	1.797
263	1.799
264	1.8
264	1.802
265	1.804
265	1.805
265	1.805
266	1.807
266	1.807
267	1.804
267	1.804
268	1.804
268	1.804
269	1.805
269	1.805
270	1.804
270	1.802
271	1.801
271	1.799
272	1.796
272	1.794
272	1.79
273	1.784
273	1.777
274	1.77
274	1.761
275	1.754
275	1.746
276	1.738
276	1.73
277	1.722
277	1.712
278	1.701
278	1.687
278	1.672
279	1.654
279	1.632
280	1.603
280	1.57
281	1.531
281	1.487
282	1.441
282	1.395
283	1.35
283	1.307
284	1.265
284	1.225
285	1.188
285	1.154
285	1.124
286	1.097
286	1.075
287	1.055
287	1.038
288	1.024
288	1.012
289	1.002
289	0.993
290	0.986
290	0.979
291	0.973
291	0.969
292	0.964
292	0.96
292	0.956
293	0.953
293	0.949
294	0.946
294	0.943
295	0.94
295	0.937
296	0.934
296	0.931
297	0.928
297	0.925
298	0.923
298	0.92
298	0.917
299	0.914
299	0.911
300	0.908
300	0.906
301	0.903
301	0.901
302	0.898
302	0.896
303	0.894
303	0.892
304	0.889
304	0.887
305	0.885
305	0.883
305	0.881
306	0.878
306	0.876
307	0.874
307	0.871
308	0.868
308	0.866
309	0.864
309	0.861
310	0.858
310	0.855
311	0.852
311	0.849
311	0.846
312	0.843
312	0.839
313	0.836
313	0.832
314	0.828
314	0.824
315	0.82
315	0.816
316	0.812
316	0.807
317	0.803
317	0.798
318	0.793
318	0.788
318	0.783
319	0.778
319	0.772
320	0.767
320	0.761
321	0.755
321	0.749
322	0.742
322	0.736
323	0.73
323	0.723
324	0.717
324	0.71
324	0.703
325	0.697
325	0.69
326	0.683
326	0.676
327	0.669
327	0.662
328	0.655
328	0.648
329	0.64
329	0.633
330	0.626
330	0.619
330	0.612
331	0.605
331	0.598
332	0.591
332	0.584
333	0.577
333	0.57
334	0.563
334	0.556
335	0.549
335	0.542
336	0.535
336	0.529
336	0.522
337	0.515
337	0.509
338	0.503
338	0.497
339	0.491
339	0.485
340	0.479
340	0.473
341	0.467
341	0.462
342	0.456
342	0.451
342	0.445
343	0.44
343	0.435
344	0.43
344	0.425
345	0.42
345	0.415
346	0.411
346	0.406
347	0.402
347	0.398
348	0.394
348	0.39
348	0.386
349	0.382
349	0.378
350	0.375
350	0.372
351	0.368
351	0.365
352	0.362
352	0.359
353	0.356
353	0.353
354	0.35
354	0.348
354	0.345
355	0.342
355	0.339
356	0.336
356	0.333
357	0.33
357	0.327
358	0.325
358	0.322
359	0.32
359	0.318
360	0.316
360	0.314
360	0.312
361	0.31
361	0.309
362	0.307
362	0.306
363	0.304
363	0.302
364	0.3
364	0.298
365	0.297
365	0.295
366	0.293
366	0.292
366	0.29
367	0.288
367	0.286
368	0.285
368	0.283
369	0.282
369	0.281
370	0.279
370	0.278
371	0.277
371	0.276
372	0.274
372	0.273
372	0.272
373	0.271
373	0.27
374	0.27
374	0.269
375	0.268
375	0.267
376	0.266
376	0.265
377	0.264
377	0.263
378	0.262
378	0.262
378	0.261
379	0.26
379	0.259
380	0.259
380	0.258
381	0.257
381	0.257
382	0.256
382	0.256
383	0.256
383	0.255
383	0.255
384	0.254
384	0.254
385	0.253
385	0.253
386	0.252
386	0.252
387	0.252
387	0.251
388	0.251
388	0.251
389	0.25
389	0.25
389	0.25
390	0.249
390	0.249
391	0.249
391	0.249
392	0.248
392	0.248
393	0.248
393	0.247
394	0.247
394	0.247
394	0.247
395	0.246
395	0.246
396	0.246
396	0.246
397	0.246
397	0.245
398	0.245
398	0.245
399	0.245
399	0.244
400	0.244
400	0.243
400	0.243
401	0.243
401	0.243
402	0.242
402	0.242
403	0.242
403	0.241
404	0.241
404	0.241
405	0.241
405	0.241
405	0.241
406	0.24
406	0.24
407	0.24
407	0.239
408	0.239
408	0.239
409	0.239
409	0.239
410	0.238
410	0.238
411	0.238
411	0.238
411	0.238
412	0.237
412	0.237
413	0.237
413	0.236
414	0.236
414	0.236
415	0.235
415	0.235
416	0.235
416	0.234
416	0.234
417	0.234
417	0.234
418	0.233
418	0.233
419	0.233
419	0.232
420	0.232
420	0.231
421	0.231
421	0.231
421	0.23
422	0.23
422	0.23
423	0.229
423	0.229
424	0.229
424	0.228
425	0.228
425	0.228
426	0.228
426	0.227
427	0.227
427	0.227
427	0.226
428	0.226
428	0.226
429	0.225
429	0.225
430	0.225
430	0.224
431	0.224
431	0.224
432	0.224
432	0.223
432	0.223
433	0.223
433	0.223
434	0.222
434	0.222
435	0.222
435	0.222
436	0.222
436	0.222
437	0.222
437	0.221
437	0.221
438	0.221
438	0.221
439	0.22
439	0.22
440	0.22
440	0.219
441	0.219
441	0.219
442	0.218
442	0.218
442	0.218
443	0.218
443	0.217
444	0.217
444	0.217
445	0.217
445	0.217
446	0.217
446	0.216
447	0.216
447	0.216
447	0.216
448	0.216
448	0.215
449	0.215
449	0.215
450	0.215
450	0.215
451	0.214
451	0.214
452	0.214
452	0.214
452	0.214
453	0.213
453	0.213
454	0.213
454	0.213
455	0.212
455	0.212
456	0.212
456	0.211
457	0.211
457	0.211
458	0.21
458	0.21
458	0.21
459	0.209
459	0.209
460	0.209
460	0.209
461	0.209
461	0.209
462	0.208
462	0.208
463	0.208
463	0.208
463	0.208
464	0.207
464	0.207
465	0.207
465	0.207
466	0.206
466	0.206
467	0.206
467	0.206
467	0.206
468	0.206
468	0.206
469	0.206
469	0.206
470	0.206
470	0.206
471	0.206
471	0.206
472	0.206
472	0.206
472	0.206
473	0.206
473	0.205
474	0.205
474	0.205
475	0.205
475	0.205
476	0.205
476	0.205
477	0.205
477	0.204
477	0.204
478	0.204
478	0.204
479	0.204
479	0.204
480	0.204
480	0.204
481	0.204
481	0.203
482	0.203
482	0.204
482	0.204
483	0.204
483	0.204
484	0.204
484	0.204
485	0.204
485	0.204
486	0.204
486	0.204
487	0.204
487	0.204
487	0.204
488	0.203
488	0.203
489	0.203
489	0.204
490	0.204
490	0.204
491	0.205
491	0.205
492	0.205
492	0.205
492	0.206
493	0.206
493	0.207
494	0.207
494	0.207
495	0.207
495	0.207
496	0.207
496	0.208
496	0.208
497	0.208
497	0.208
498	0.208
498	0.208
499	0.209
499	0.209
500	0.21
500	0.21
501	0.211
501	0.211
501	0.211
502	0.211
502	0.212
503	0.212
503	0.212
504	0.213
504	0.213
505	0.213
505	0.213
506	0.214
506	0.214
506	0.214
507	0.214
507	0.215
508	0.215
508	0.215
509	0.216
509	0.216
510	0.216
510	0.217
511	0.217
511	0.218
511	0.218
512	0.218
512	0.219
513	0.219
513	0.219
514	0.22
514	0.22
515	0.22
515	0.221
515	0.221
516	0.221
516	0.221
517	0.222
517	0.222
518	0.223
518	0.223
519	0.223
519	0.223
520	0.223
520	0.224
520	0.224
521	0.224
521	0.224
522	0.224
522	0.224
523	0.225
523	0.225
524	0.225
524	0.225
524	0.226
525	0.226
525	0.226
526	0.226
526	0.226
527	0.226
527	0.227
528	0.226
528	0.227
529	0.227
529	0.227
529	0.226
530	0.226
530	0.227
531	0.227
531	0.227
532	0.227
532	0.226
533	0.226
533	0.226
533	0.227
534	0.227
534	0.227
535	0.227
535	0.227
536	0.227
536	0.227
537	0.227
537	0.227
538	0.227
538	0.227
538	0.227
539	0.227
539	0.227
540	0.226
540	0.226
541	0.226
541	0.226
542	0.226
542	0.226
542	0.226
543	0.226
543	0.226
544	0.226
544	0.226
545	0.226
545	0.226
546	0.226
546	0.226
547	0.225
547	0.225
547	0.225
548	0.225
548	0.224
549	0.224
549	0.224
550	0.224
550	0.223
551	0.223
551	0.223
551	0.223
552	0.223
552	0.223
553	0.222
553	0.222
554	0.222
554	0.222
555	0.221
555	0.22
556	0.22
556	0.22
556	0.22
557	0.22
557	0.22
558	0.22
558	0.22
559	0.221
559	0.221
560	0.221
560	0.221
560	0.221
561	0.221
561	0.221
562	0.22
562	0.219
563	0.218
563	0.218
564	0.217
564	0.216
564	0.216
565	0.216
565	0.216
566	0.215
566	0.215
567	0.215
567	0.215
568	0.215
568	0.215
568	0.215
569	0.214
569	0.214
570	0.213
570	0.212
571	0.212
571	0.212
572	0.211
572	0.211
573	0.211
573	0.21
573	0.21
574	0.21
574	0.21
575	0.21
575	0.21
576	0.21
576	0.209
577	0.209
577	0.208
577	0.208
578	0.207
578	0.207
579	0.207
579	0.207
580	0.207
580	0.206
581	0.206
581	0.206
581	0.206
582	0.206
582	0.206
583	0.206
583	0.206
584	0.205
584	0.204
585	0.204
585	0.204
585	0.203
586	0.203
586	0.203
587	0.202
587	0.202
588	0.201
588	0.201
589	0.201
589	0.201
590	0.201
590	0.201
590	0.202
591	0.202
591	0.201
592	0.201
592	0.2
593	0.2
593	0.2
594	0.199
594	0.198
594	0.198
595	0.197
595	0.197
596	0.196
596	0.196
597	0.197
597	0.198
598	0.198
598	0.198
598	0.198
599	0.198
599	0.198
600	0.198
600	0.197
601	0.197
601	0.197
602	0.196
602	0.196
602	0.195
603	0.195
603	0.195
604	0.195
604	0.195
605	0.195
605	0.195
606	0.194
606	0.193
606	0.193
607	0.193
607	0.193
608	0.193
608	0.192
609	0.192
609	0.192
610	0.191
610	0.191
610	0.191
611	0.191
611	0.191
612	0.191
612	0.191
613	0.192
613	0.192
614	0.191
614	0.191
614	0.191
615	0.191
615	0.191
616	0.191
616	0.191
617	0.191
617	0.191
618	0.191
618	0.191
618	0.191
619	0.191
619	0.191
620	0.191
620	0.191
621	0.19
621	0.19
622	0.189
622	0.189
622	0.189
623	0.188
623	0.188
624	0.188
624	0.187
625	0.187
625	0.187
626	0.187
626	0.187
626	0.187
627	0.188
627	0.187
628	0.187
628	0.187
629	0.187
629	0.187
630	0.187
630	0.186
630	0.187
631	0.186
631	0.186
632	0.186
632	0.185
633	0.185
633	0.185
634	0.185
634	0.186
634	0.185
635	0.185
635	0.185
636	0.185
636	0.185
637	0.185
637	0.184
638	0.184
638	0.184
638	0.183
639	0.183
639	0.183
640	0.183
640	0.183
641	0.183
641	0.182
642	0.182
642	0.182
642	0.183
643	0.183
643	0.183
644	0.183
644	0.184
645	0.184
645	0.184
646	0.184
646	0.184
646	0.184
647	0.184
647	0.184
648	0.183
648	0.183
649	0.182
649	0.182
650	0.182
650	0.182
650	0.182
651	0.182
651	0.182
652	0.182
652	0.182
653	0.183
653	0.184
653	0.19
654	0.149
654	0.119
655	0.12
655	0.12
656	0.12
656	0.121
657	0.121
657	0.121
657	0.121
658	0.12
658	0.111
659	0.14
659	0.179
660	0.184
660	0.184
661	0.184
661	0.183
661	0.183
662	0.183
662	0.183
663	0.182
663	0.182
664	0.182
664	0.181
665	0.181
665	0.181
665	0.181
666	0.181
666	0.181
667	0.181
667	0.181
668	0.182
668	0.182
669	0.182
669	0.182
669	0.182
670	0.183
670	0.183
671	0.183
671	0.182
672	0.182
672	0.181
672	0.181
673	0.181
673	0.181
674	0.181
674	0.18
675	0.18
675	0.18
676	0.18
676	0.18
676	0.181
677	0.181
677	0.181
678	0.181
678	0.181
679	0.18
679	0.18
680	0.18
680	0.18
680	0.18
681	0.18
681	0.18
682	0.18
682	0.18
683	0.181
683	0.181
684	0.181
684	0.181
684	0.181
685	0.181
685	0.182
686	0.182
686	0.182
687	0.181
687	0.182
687	0.182
688	0.182
688	0.182
689	0.183
689	0.183
690	0.183
690	0.182
691	0.183
691	0.183
691	0.183
692	0.183
692	0.183
693	0.183
693	0.184
694	0.183
694	0.183
695	0.184
695	0.186
695	0.186
696	0.186
696	0.186
697	0.186
697	0.186
698	0.186
698	0.185
698	0.185
699	0.185
699	0.185
700	0.184
700	0.184
701	0.184
701	0.183
702	0.183
702	0.183
702	0.183
703	0.182
703	0.182
704	0.182
704	0.182
705	0.182
705	0.181
705	0.181
706	0.181
706	0.181
707	0.181
707	0.181
708	0.182
708	0.182
709	0.182
709	0.182
709	0.182
710	0.182
710	0.182
711	0.183
711	0.183
712	0.184
712	0.184
713	0.185
713	0.185
713	0.186
714	0.186
714	0.186
715	0.186
715	0.185
716	0.185
716	0.184
716	0.183
717	0.182
717	0.182
718	0.181
718	0.181
719	0.181
719	0.181
720	0.181
720	0.182
720	0.182
721	0.183
721	0.184
722	0.185
722	0.186
723	0.186
723	0.186
723	0.187
724	0.187
724	0.186
725	0.185
725	0.185
726	0.184
726	0.183
727	0.182
727	0.182
727	0.182
728	0.181
728	0.181
729	0.182
729	0.182
730	0.182
730	0.182
730	0.183
731	0.184
731	0.184
732	0.185
732	0.186
733	0.186
733	0.186
734	0.187
734	0.187
734	0.188
735	0.188
735	0.188
736	0.188
736	0.188
737	0.188
737	0.188
737	0.188
738	0.187
738	0.186
739	0.186
739	0.186
740	0.186
740	0.186
741	0.186
741	0.186
741	0.186
742	0.186
742	0.187
743	0.188
743	0.189
744	0.19
744	0.191
744	0.191
745	0.191
745	0.191
746	0.191
746	0.191
747	0.191
747	0.191
748	0.19
748	0.19
748	0.19
749	0.19
749	0.19
750	0.19
750	0.19
751	0.19
751	0.191
751	0.191
752	0.191
752	0.191
753	0.191
753	0.19
754	0.19
754	0.19
754	0.19
755	0.189
755	0.189
756	0.189
756	0.188
757	0.188
757	0.188
758	0.188
758	0.188
758	0.188
759	0.188
759	0.188
760	0.188
760	0.188
761	0.189
761	0.189
761	0.19
762	0.19
762	0.19
763	0.19
763	0.19
764	0.19
764	0.19
764	0.19
765	0.19
765	0.19
766	0.19
766	0.189
767	0.189
767	0.188
768	0.188
768	0.188
768	0.188
769	0.189
769	0.189
770	0.189
770	0.19
771	0.191
771	0.191
771	0.192
772	0.192
772	0.193
773	0.193
773	0.193
774	0.194
774	0.194
775	0.194
775	0.194
775	0.194
776	0.194
776	0.194
777	0.195
777	0.195
778	0.195
778	0.195
778	0.196
779	0.196
779	0.196
780	0.195
780	0.195
781	0.195
781	0.194
781	0.194
782	0.194
782	0.194
783	0.195
783	0.195
784	0.195
784	0.196
784	0.197
785	0.197
785	0.197
786	0.197
786	0.197
787	0.197
787	0.197
788	0.196
788	0.195
788	0.195
789	0.195
789	0.195
790	0.195
790	0.195
791	0.195
791	0.194
791	0.194
792	0.195
792	0.195
793	0.195
793	0.196
794	0.196
794	0.195
794	0.195
795	0.196
795	0.196
796	0.196
796	0.197
797	0.196
797	0.197
797	0.197
798	0.197
798	0.197
799	0.197
799	0.197
800	0.197
800	0.197
801	0.197
801	0.197
801	0.197
802	0.197
802	0.198
803	0.198
803	0.198
804	0.199
804	0.2
804	0.2
805	0.2
805	0.2
806	0.2
806	0.2
807	0.2
807	0.2
807	0.2
808	0.2
808	0.199
809	0.199
809	0.199
810	0.199
810	0.199
810	0.199
811	0.199
811	0.2
812	0.2
812	0.201
813	0.201
813	0.202
813	0.202
814	0.203
814	0.204
815	0.205
815	0.205
816	0.205
816	0.204
817	0.204
817	0.203
817	0.203
818	0.202
818	0.202
819	0.202
819	0.201
820	0.2
820	0.2
820	0.2
821	0.2
821	0.2
822	0.2
822	0.201
823	0.201
823	0.202
823	0.202
824	0.204
824	0.205
825	0.206
825	0.207
826	0.208
826	0.208
826	0.208
827	0.209
827	0.21
828	0.21
828	0.21
829	0.21
829	0.211
829	0.211
830	0.211
830	0.211
831	0.212
831	0.212
832	0.211
832	0.211
832	0.211
833	0.211
833	0.211
834	0.211
834	0.211
835	0.21
835	0.21
835	0.209
836	0.209
836	0.209
837	0.208
837	0.208
838	0.207
838	0.206
839	0.205
839	0.204
839	0.203
840	0.202
840	0.201
841	0.201
841	0.2
842	0.199
842	0.199
842	0.199
843	0.199
843	0.198
844	0.198
844	0.198
845	0.198
845	0.199
845	0.199
846	0.199
846	0.199
847	0.2
847	0.2
848	0.2
848	0.201
848	0.201
849	0.201
849	0.201
850	0.201
850	0.2
851	0.2
851	0.2
851	0.2
852	0.199
852	0.199
853	0.199
853	0.199
854	0.199
854	0.2
854	0.201
855	0.202
855	0.203
856	0.203
856	0.204
857	0.206
857	0.206
857	0.207
858	0.208
858	0.208
859	0.208
859	0.208
860	0.208
860	0.208
860	0.208
861	0.208
861	0.207
862	0.206
862	0.205
863	0.204
863	0.204
863	0.203
864	0.203
864	0.203
865	0.203
865	0.203
866	0.203
866	0.203
866	0.203
867	0.204
867	0.204
868	0.205
868	0.205
869	0.205
869	0.204
869	0.204
870	0.203
870	0.203
871	0.202
871	0.202
872	0.202
872	0.202
872	0.201
873	0.201
873	0.201
874	0.2
874	0.2
875	0.2
875	0.2
875	0.2
876	0.2
876	0.199
877	0.199
877	0.198
878	0.198
878	0.198
878	0.199
879	0.199
879	0.199
880	0.199
880	0.199
881	0.2
881	0.2
881	0.2
882	0.2
882	0.201
883	0.201
883	0.201
884	0.201
884	0.202
884	0.202
885	0.202
885	0.201
886	0.201
886	0.201
887	0.201
887	0.2
887	0.199
888	0.199
888	0.198
889	0.197
889	0.197
890	0.197
890	0.197
890	0.197
891	0.197
891	0.197
892	0.197
892	0.197
893	0.197
893	0.197
893	0.197
894	0.197
894	0.197
895	0.196
895	0.196
895	0.196
896	0.196
896	0.196
897	0.196
897	0.195
898	0.195
898	0.194
898	0.194
899	0.193
899	0.193
900	0.192
900	0.191
901	0.191
901	0.191
901	0.19
902	0.19
902	0.19
903	0.189
903	0.189
904	0.189
904	0.189
904	0.189
905	0.189
905	0.189
906	0.189
906	0.189
907	0.189
907	0.189
907	0.189
908	0.189
908	0.189
909	0.189
909	0.189
910	0.188
910	0.188
910	0.188
911	0.187
911	0.187
912	0.186
912	0.186
913	0.185
913	0.185
913	0.185
914	0.185
914	0.185
915	0.184
915	0.184
916	0.185
916	0.185
916	0.184
917	0.184
917	0.184
918	0.184
918	0.184
918	0.183
919	0.183
919	0.183
920	0.182
920	0.182
921	0.181
921	0.181
921	0.181
922	0.18
922	0.18
923	0.18
923	0.18
924	0.18
924	0.18
924	0.18
925	0.181
925	0.181
926	0.181
926	0.181
927	0.182
927	0.182
927	0.182
928	0.183
928	0.183
929	0.183
929	0.183
930	0.183
930	0.183
930	0.183
931	0.182
931	0.182
932	0.181
932	0.181
933	0.181
933	0.18
933	0.179
934	0.179
934	0.178
935	0.178
935	0.177
935	0.177
936	0.177
936	0.176
937	0.176
937	0.175
938	0.175
938	0.174
938	0.173
939	0.173
939	0.172
940	0.172
940	0.172
941	0.172
941	0.172
941	0.172
942	0.172
942	0.172
943	0.172
943	0.172
944	0.172
944	0.173
944	0.173
945	0.173
945	0.172
946	0.172
946	0.172
946	0.171
947	0.171
947	0.171
948	0.171
948	0.17
949	0.17
949	0.169
949	0.168
950	0.168
950	0.167
951	0.167
951	0.166
952	0.165
952	0.164
952	0.164
953	0.163
953	0.163
954	0.163
954	0.162
955	0.162
955	0.162
955	0.163
956	0.164
956	0.164
957	0.165
957	0.166
957	0.166
958	0.167
958	0.167
959	0.167
959	0.168
960	0.168
960	0.168
960	0.168
961	0.167
961	0.167
962	0.167
962	0.166
963	0.166
963	0.166
963	0.166
964	0.166
964	0.166
965	0.166
965	0.165
966	0.165
966	0.165
966	0.165
967	0.165
967	0.164
968	0.164
968	0.164
968	0.163
969	0.162
969	0.161
970	0.16
970	0.159
971	0.158
971	0.157
971	0.156
972	0.155
972	0.154
973	0.154
973	0.154
974	0.154
974	0.154
974	0.154
975	0.154
975	0.155
976	0.155
976	0.156
976	0.157
977	0.157
977	0.157
978	0.157
978	0.157
979	0.157
979	0.157
979	0.158
980	0.158
980	0.158
981	0.157
981	0.157
982	0.157
982	0.157
982	0.157
983	0.157
983	0.157
984	0.156
984	0.156
984	0.156
985	0.156
985	0.155
986	0.155
986	0.155
987	0.154
987	0.153
987	0.153
988	0.153
988	0.152
989	0.152
989	0.152
990	0.151
990	0.151
990	0.151
991	0.15
991	0.15
992	0.149
992	0.149
992	0.148
993	0.147
993	0.146
994	0.145
994	0.144
995	0.143
995	0.143
995	0.142
996	0.142
996	0.142
997	0.142
997	0.142
997	0.143
998	0.143
998	0.144
999	0.145
999	0.145
1000	0.146
1000	0.147
1000	0.147
1001	0.148
1001	0.148
1002	0.148
1002	0.148
1003	0.148
1003	0.148
1003	0.147
1004	0.147
1004	0.146
1005	0.145
1005	0.145
1005	0.144
1006	0.143
1006	0.143
1007	0.142
1007	0.142
1008	0.141
1008	0.141
1008	0.141
1009	0.141
1009	0.14
1010	0.14
1010	0.14
1010	0.14
1011	0.14
1011	0.139
1012	0.139
1012	0.138
1013	0.138
1013	0.137
1013	0.137
1014	0.136
1014	0.135
1015	0.135
1015	0.135
1016	0.134
1016	0.134
1016	0.134
1017	0.133
1017	0.133
1018	0.133
1018	0.132
1018	0.132
1019	0.132
1019	0.132
1020	0.132
1020	0.132
1021	0.132
1021	0.133
1021	0.133
1022	0.133
1022	0.133
1023	0.134
1023	0.134
1023	0.134
1024	0.134
1024	0.134
1025	0.135
1025	0.135
1026	0.135
1026	0.135
1026	0.135
1027	0.135
1027	0.135
1028	0.135
1028	0.135
1028	0.135
1029	0.135
1029	0.135
1030	0.135
1030	0.135
1031	0.135
1031	0.135
1031	0.135
1032	0.135
1032	0.135
1033	0.135
1033	0.135
1033	0.135
1034	0.135
1034	0.135
1035	0.134
1035	0.134
1036	0.134
1036	0.133
1036	0.133
1037	0.133
1037	0.132
1038	0.132
1038	0.132
1039	0.131
1039	0.131
1039	0.131
1040	0.13
1040	0.13
1041	0.13
1041	0.129
1041	0.129
1042	0.129
1042	0.128
1043	0.128
1043	0.128
1044	0.128
1044	0.128
1044	0.127
1045	0.127
1045	0.127
1046	0.126
1046	0.126
1046	0.126
1047	0.126
1047	0.125
1048	0.125
1048	0.125
1049	0.125
1049	0.125
1049	0.125
1050	0.125
1050	0.125
1051	0.125
1051	0.124
1051	0.124
1052	0.123
1052	0.123
1053	0.122
1053	0.121
1053	0.12
1054	0.12
1054	0.119
1055	0.119
1055	0.119
1056	0.118
1056	0.117
1056	0.116
1057	0.116
1057	0.115
1058	0.114
1058	0.113
1058	0.112
1059	0.111
1059	0.111
1060	0.11
1060	0.109
1061	0.109
1061	0.108
1061	0.108
1062	0.108
1062	0.108
1063	0.108
1063	0.108
1063	0.107
1064	0.107
1064	0.106
1065	0.106
1065	0.106
1066	0.106
1066	0.106
1066	0.106
1067	0.105
1067	0.105
1068	0.105
1068	0.105
1068	0.105
1069	0.105
1069	0.105
1070	0.105
1070	0.105
1071	0.104
1071	0.105
1071	0.104
1072	0.104
1072	0.104
1073	0.104
1073	0.103
1073	0.103
1074	0.104
1074	0.104
1075	0.104
1075	0.104
1076	0.105
1076	0.105
1076	0.105
1077	0.105
1077	0.105
1078	0.105
1078	0.105
1078	0.105
1079	0.105
1079	0.104
1080	0.104
1080	0.103
1080	0.103
1081	0.102
1081	0.102
1082	0.102
1082	0.103
1083	0.103
1083	0.102
1083	0.102
1084	0.102
1084	0.103
1085	0.103
1085	0.103
1085	0.103
1086	0.104
1086	0.103
1087	0.103
1087	0.103
1088	0.103
1088	0.103
1088	0.103
1089	0.103
1089	0.102
1090	0.101
1090	0.1
1090	0.099
1091	0.099
1091	0.099
1092	0.098
1092	0.098
1092	0.098
1093	0.098
1093	0.098
1094	0.097
1094	0.097
1095	0.097
1095	0.096
1095	0.096
1096	0.095
1096	0.094
1097	0.093
1097	0.092
1097	0.091
1098	0.09
1098	0.09
1099	0.088
1099	0.087
1100	0.087
1100	0.085
1100	0.085
1101	0.083
1101	0.083
1102	0.082
1102	0.082
1102	0.08
1103	0.079
1103	0.08
1104	0.079
1104	0.078
1104	0.078
1105	0.077
1105	0.077
1106	0.075
1106	0.074
1107	0.073
1107	0.074
1107	0.073
1108	0.072
1108	0.072
1109	0.071
1109	0.07
1109	0.071
1110	0.07
1110	0.07
1111	0.067
1111	0.069
