Data from reversibility-20sec_Absorbance__657__000000000000657.txt Node

Date: Tue Dec 05 15:52:05 CET 2023
User: Marek
Spectrometer: MAYP115816
Trigger mode: 0
Integration Time (sec): 2.000000E-1
Scans to average: 10
Electric dark correction enabled: true
Nonlinearity correction enabled: true
Boxcar width: 5
XAxis mode: Wavelengths
Number of Pixels in Spectrum: 2068
>>>>>Begin Spectral Data<<<<<
199	-0.202
199	-0.161
200	-0.095
200	-0.038
201	-0.009
201	0.005
202	0.017
202	0.026
203	0.038
203	0.043
204	0.055
204	0.068
205	0.078
205	0.083
205	0.079
206	0.08
206	0.08
207	0.084
207	0.083
208	0.077
208	0.077
209	0.078
209	0.074
210	0.073
210	0.075
211	0.074
211	0.074
212	0.072
212	0.075
213	0.079
213	0.084
213	0.081
214	0.088
214	0.093
215	0.096
215	0.097
216	0.1
216	0.101
217	0.105
217	0.104
218	0.103
218	0.104
219	0.11
219	0.108
220	0.111
220	0.113
221	0.115
221	0.117
221	0.122
222	0.126
222	0.13
223	0.138
223	0.143
224	0.149
224	0.157
225	0.164
225	0.172
226	0.179
226	0.19
227	0.202
227	0.211
228	0.226
228	0.237
229	0.256
229	0.277
229	0.301
230	0.325
230	0.355
231	0.385
231	0.423
232	0.457
232	0.503
233	0.544
233	0.593
234	0.639
234	0.69
235	0.738
235	0.791
236	0.843
236	0.896
236	0.947
237	0.998
237	1.046
238	1.094
238	1.138
239	1.187
239	1.227
240	1.268
240	1.305
241	1.339
241	1.371
242	1.403
242	1.435
243	1.464
243	1.491
243	1.518
244	1.54
244	1.562
245	1.581
245	1.603
246	1.62
246	1.639
247	1.652
247	1.667
248	1.679
248	1.69
249	1.698
249	1.703
250	1.709
250	1.716
250	1.718
251	1.72
251	1.72
252	1.723
252	1.72
253	1.72
253	1.715
254	1.713
254	1.713
255	1.71
255	1.709
256	1.709
256	1.708
257	1.706
257	1.705
258	1.705
258	1.704
258	1.706
259	1.706
259	1.705
260	1.705
260	1.705
261	1.704
261	1.707
262	1.709
262	1.711
263	1.713
263	1.716
264	1.717
264	1.719
265	1.72
265	1.721
265	1.723
266	1.723
266	1.722
267	1.719
267	1.719
268	1.718
268	1.718
269	1.721
269	1.72
270	1.72
270	1.719
271	1.716
271	1.714
272	1.709
272	1.707
272	1.703
273	1.696
273	1.688
274	1.68
274	1.672
275	1.664
275	1.657
276	1.65
276	1.643
277	1.636
277	1.627
278	1.615
278	1.603
278	1.589
279	1.571
279	1.55
280	1.524
280	1.492
281	1.454
281	1.413
282	1.37
282	1.327
283	1.284
283	1.243
284	1.205
284	1.167
285	1.132
285	1.1
285	1.073
286	1.048
286	1.027
287	1.009
287	0.993
288	0.98
288	0.969
289	0.96
289	0.952
290	0.945
290	0.939
291	0.934
291	0.93
292	0.926
292	0.923
292	0.92
293	0.917
293	0.914
294	0.911
294	0.909
295	0.907
295	0.905
296	0.903
296	0.9
297	0.898
297	0.896
298	0.894
298	0.892
298	0.89
299	0.888
299	0.886
300	0.884
300	0.882
301	0.88
301	0.878
302	0.877
302	0.875
303	0.873
303	0.871
304	0.87
304	0.868
305	0.866
305	0.864
305	0.862
306	0.861
306	0.858
307	0.857
307	0.854
308	0.852
308	0.85
309	0.848
309	0.846
310	0.843
310	0.84
311	0.838
311	0.835
311	0.832
312	0.829
312	0.826
313	0.822
313	0.819
314	0.816
314	0.812
315	0.808
315	0.804
316	0.8
316	0.796
317	0.792
317	0.787
318	0.783
318	0.778
318	0.773
319	0.768
319	0.763
320	0.757
320	0.752
321	0.747
321	0.741
322	0.735
322	0.729
323	0.723
323	0.717
324	0.711
324	0.705
324	0.699
325	0.692
325	0.686
326	0.679
326	0.673
327	0.666
327	0.66
328	0.653
328	0.647
329	0.64
329	0.633
330	0.626
330	0.619
330	0.613
331	0.606
331	0.599
332	0.593
332	0.586
333	0.579
333	0.572
334	0.566
334	0.559
335	0.552
335	0.546
336	0.539
336	0.533
336	0.526
337	0.52
337	0.514
338	0.508
338	0.502
339	0.496
339	0.491
340	0.485
340	0.48
341	0.474
341	0.469
342	0.464
342	0.459
342	0.454
343	0.448
343	0.444
344	0.439
344	0.434
345	0.43
345	0.425
346	0.421
346	0.417
347	0.413
347	0.409
348	0.405
348	0.401
348	0.398
349	0.394
349	0.39
350	0.387
350	0.384
351	0.38
351	0.377
352	0.374
352	0.371
353	0.369
353	0.366
354	0.363
354	0.36
354	0.357
355	0.354
355	0.352
356	0.349
356	0.346
357	0.343
357	0.34
358	0.338
358	0.336
359	0.333
359	0.331
360	0.329
360	0.327
360	0.326
361	0.324
361	0.322
362	0.321
362	0.319
363	0.318
363	0.316
364	0.314
364	0.312
365	0.31
365	0.309
366	0.307
366	0.305
366	0.304
367	0.302
367	0.301
368	0.299
368	0.298
369	0.296
369	0.295
370	0.293
370	0.292
371	0.291
371	0.29
372	0.288
372	0.287
372	0.286
373	0.285
373	0.284
374	0.283
374	0.282
375	0.281
375	0.28
376	0.279
376	0.279
377	0.278
377	0.277
378	0.276
378	0.275
378	0.274
379	0.273
379	0.272
380	0.272
380	0.271
381	0.27
381	0.269
382	0.269
382	0.268
383	0.268
383	0.267
383	0.266
384	0.266
384	0.265
385	0.265
385	0.264
386	0.264
386	0.263
387	0.263
387	0.262
388	0.262
388	0.261
389	0.261
389	0.26
389	0.26
390	0.26
390	0.259
391	0.259
391	0.258
392	0.258
392	0.258
393	0.257
393	0.257
394	0.256
394	0.256
394	0.255
395	0.255
395	0.255
396	0.254
396	0.254
397	0.253
397	0.253
398	0.253
398	0.252
399	0.252
399	0.252
400	0.251
400	0.251
400	0.251
401	0.25
401	0.25
402	0.25
402	0.249
403	0.249
403	0.249
404	0.248
404	0.248
405	0.248
405	0.248
405	0.248
406	0.247
406	0.247
407	0.247
407	0.247
408	0.246
408	0.246
409	0.245
409	0.245
410	0.245
410	0.244
411	0.244
411	0.244
411	0.244
412	0.243
412	0.243
413	0.243
413	0.242
414	0.242
414	0.242
415	0.241
415	0.241
416	0.241
416	0.241
416	0.241
417	0.24
417	0.24
418	0.24
418	0.24
419	0.239
419	0.239
420	0.239
420	0.238
421	0.238
421	0.238
421	0.238
422	0.238
422	0.237
423	0.237
423	0.237
424	0.236
424	0.236
425	0.236
425	0.236
426	0.235
426	0.235
427	0.235
427	0.234
427	0.234
428	0.234
428	0.234
429	0.234
429	0.233
430	0.233
430	0.233
431	0.233
431	0.233
432	0.233
432	0.233
432	0.233
433	0.232
433	0.232
434	0.232
434	0.232
435	0.232
435	0.232
436	0.232
436	0.231
437	0.231
437	0.231
437	0.231
438	0.231
438	0.231
439	0.23
439	0.23
440	0.23
440	0.23
441	0.23
441	0.229
442	0.229
442	0.229
442	0.229
443	0.229
443	0.229
444	0.229
444	0.229
445	0.229
445	0.228
446	0.228
446	0.228
447	0.228
447	0.228
447	0.227
448	0.227
448	0.227
449	0.227
449	0.227
450	0.227
450	0.227
451	0.227
451	0.226
452	0.226
452	0.226
452	0.226
453	0.226
453	0.226
454	0.226
454	0.226
455	0.226
455	0.225
456	0.225
456	0.225
457	0.225
457	0.225
458	0.225
458	0.225
458	0.225
459	0.224
459	0.224
460	0.224
460	0.224
461	0.224
461	0.224
462	0.223
462	0.223
463	0.223
463	0.223
463	0.223
464	0.223
464	0.223
465	0.223
465	0.223
466	0.223
466	0.223
467	0.223
467	0.223
467	0.223
468	0.223
468	0.223
469	0.223
469	0.223
470	0.223
470	0.223
471	0.223
471	0.223
472	0.223
472	0.223
472	0.223
473	0.223
473	0.224
474	0.224
474	0.224
475	0.224
475	0.224
476	0.224
476	0.224
477	0.225
477	0.225
477	0.225
478	0.225
478	0.226
479	0.226
479	0.226
480	0.226
480	0.226
481	0.227
481	0.227
482	0.227
482	0.227
482	0.228
483	0.228
483	0.228
484	0.229
484	0.229
485	0.229
485	0.229
486	0.23
486	0.23
487	0.23
487	0.23
487	0.231
488	0.231
488	0.232
489	0.232
489	0.233
490	0.234
490	0.235
491	0.236
491	0.236
492	0.237
492	0.238
492	0.238
493	0.239
493	0.24
494	0.24
494	0.241
495	0.241
495	0.242
496	0.243
496	0.244
496	0.245
497	0.245
497	0.246
498	0.247
498	0.247
499	0.248
499	0.249
500	0.25
500	0.251
501	0.252
501	0.252
501	0.252
502	0.253
502	0.254
503	0.254
503	0.255
504	0.256
504	0.256
505	0.257
505	0.257
506	0.258
506	0.259
506	0.259
507	0.26
507	0.261
508	0.262
508	0.263
509	0.263
509	0.264
510	0.265
510	0.265
511	0.266
511	0.267
511	0.268
512	0.269
512	0.269
513	0.27
513	0.27
514	0.271
514	0.272
515	0.273
515	0.273
515	0.273
516	0.274
516	0.274
517	0.275
517	0.275
518	0.275
518	0.276
519	0.276
519	0.276
520	0.277
520	0.277
520	0.277
521	0.277
521	0.278
522	0.278
522	0.278
523	0.279
523	0.279
524	0.279
524	0.279
524	0.279
525	0.28
525	0.279
526	0.279
526	0.279
527	0.279
527	0.279
528	0.279
528	0.279
529	0.279
529	0.279
529	0.278
530	0.278
530	0.278
531	0.278
531	0.277
532	0.277
532	0.276
533	0.276
533	0.276
533	0.276
534	0.275
534	0.275
535	0.275
535	0.275
536	0.274
536	0.274
537	0.274
537	0.273
538	0.273
538	0.272
538	0.272
539	0.271
539	0.271
540	0.27
540	0.269
541	0.268
541	0.268
542	0.267
542	0.266
542	0.265
543	0.265
543	0.264
544	0.263
544	0.262
545	0.262
545	0.262
546	0.261
546	0.26
547	0.26
547	0.259
547	0.258
548	0.258
548	0.257
549	0.256
549	0.256
550	0.255
550	0.254
551	0.253
551	0.252
551	0.251
552	0.25
552	0.249
553	0.248
553	0.248
554	0.247
554	0.245
555	0.245
555	0.244
556	0.243
556	0.242
556	0.242
557	0.242
557	0.241
558	0.241
558	0.241
559	0.24
559	0.24
560	0.239
560	0.239
560	0.239
561	0.238
561	0.238
562	0.237
562	0.236
563	0.234
563	0.233
564	0.233
564	0.232
564	0.231
565	0.23
565	0.23
566	0.229
566	0.228
567	0.228
567	0.227
568	0.227
568	0.227
568	0.226
569	0.226
569	0.225
570	0.224
570	0.223
571	0.223
571	0.222
572	0.222
572	0.221
573	0.22
573	0.22
573	0.219
574	0.219
574	0.218
575	0.218
575	0.218
576	0.217
576	0.216
577	0.216
577	0.215
577	0.215
578	0.214
578	0.213
579	0.213
579	0.213
580	0.212
580	0.211
581	0.21
581	0.21
581	0.21
582	0.21
582	0.209
583	0.209
583	0.209
584	0.208
584	0.207
585	0.206
585	0.206
585	0.205
586	0.204
586	0.204
587	0.202
587	0.202
588	0.201
588	0.2
589	0.2
589	0.2
590	0.199
590	0.199
590	0.199
591	0.199
591	0.199
592	0.198
592	0.198
593	0.198
593	0.197
594	0.197
594	0.196
594	0.195
595	0.195
595	0.194
596	0.194
596	0.194
597	0.194
597	0.194
598	0.193
598	0.193
598	0.193
599	0.192
599	0.192
600	0.191
600	0.191
601	0.19
601	0.19
602	0.189
602	0.189
602	0.189
603	0.188
603	0.188
604	0.188
604	0.188
605	0.188
605	0.188
606	0.188
606	0.187
606	0.186
607	0.186
607	0.186
608	0.185
608	0.184
609	0.184
609	0.184
610	0.183
610	0.183
610	0.183
611	0.183
611	0.183
612	0.183
612	0.183
613	0.183
613	0.183
614	0.182
614	0.182
614	0.182
615	0.181
615	0.181
616	0.181
616	0.18
617	0.18
617	0.18
618	0.179
618	0.179
618	0.179
619	0.179
619	0.179
620	0.179
620	0.179
621	0.179
621	0.178
622	0.178
622	0.178
622	0.177
623	0.177
623	0.177
624	0.176
624	0.176
625	0.176
625	0.175
626	0.175
626	0.175
626	0.175
627	0.175
627	0.174
628	0.174
628	0.174
629	0.173
629	0.173
630	0.173
630	0.173
630	0.173
631	0.172
631	0.172
632	0.172
632	0.172
633	0.172
633	0.172
634	0.172
634	0.172
634	0.172
635	0.172
635	0.171
636	0.171
636	0.171
637	0.171
637	0.17
638	0.17
638	0.17
638	0.17
639	0.169
639	0.169
640	0.169
640	0.169
641	0.169
641	0.169
642	0.169
642	0.169
642	0.169
643	0.169
643	0.168
644	0.168
644	0.168
645	0.168
645	0.168
646	0.168
646	0.168
646	0.168
647	0.168
647	0.168
648	0.167
648	0.167
649	0.167
649	0.167
650	0.167
650	0.167
650	0.167
651	0.167
651	0.167
652	0.167
652	0.167
653	0.168
653	0.169
653	0.175
654	0.138
654	0.111
655	0.112
655	0.112
656	0.112
656	0.113
657	0.113
657	0.113
657	0.113
658	0.112
658	0.102
659	0.129
659	0.165
660	0.168
660	0.168
661	0.168
661	0.168
661	0.168
662	0.168
662	0.168
663	0.167
663	0.167
664	0.167
664	0.167
665	0.167
665	0.166
665	0.166
666	0.166
666	0.166
667	0.166
667	0.166
668	0.166
668	0.166
669	0.166
669	0.166
669	0.166
670	0.166
670	0.166
671	0.166
671	0.166
672	0.166
672	0.166
672	0.166
673	0.166
673	0.166
674	0.166
674	0.166
675	0.166
675	0.166
676	0.167
676	0.167
676	0.167
677	0.168
677	0.168
678	0.168
678	0.168
679	0.168
679	0.168
680	0.168
680	0.168
680	0.167
681	0.167
681	0.167
682	0.167
682	0.168
683	0.168
683	0.169
684	0.17
684	0.17
684	0.17
685	0.17
685	0.171
686	0.171
686	0.17
687	0.17
687	0.17
687	0.17
688	0.169
688	0.169
689	0.169
689	0.169
690	0.169
690	0.169
691	0.17
691	0.17
691	0.171
692	0.171
692	0.172
693	0.172
693	0.173
694	0.173
694	0.173
695	0.174
695	0.174
695	0.175
696	0.175
696	0.175
697	0.175
697	0.174
698	0.174
698	0.174
698	0.174
699	0.174
699	0.173
700	0.173
700	0.173
701	0.173
701	0.173
702	0.173
702	0.173
702	0.174
703	0.174
703	0.174
704	0.174
704	0.174
705	0.174
705	0.174
705	0.174
706	0.174
706	0.174
707	0.174
707	0.174
708	0.174
708	0.174
709	0.174
709	0.174
709	0.174
710	0.174
710	0.174
711	0.174
711	0.174
712	0.174
712	0.175
713	0.175
713	0.175
713	0.175
714	0.175
714	0.174
715	0.174
715	0.174
716	0.174
716	0.174
716	0.173
717	0.173
717	0.173
718	0.173
718	0.173
719	0.174
719	0.174
720	0.175
720	0.175
720	0.176
721	0.176
721	0.177
722	0.177
722	0.177
723	0.178
723	0.178
723	0.178
724	0.178
724	0.177
725	0.176
725	0.176
726	0.175
726	0.175
727	0.174
727	0.174
727	0.174
728	0.174
728	0.174
729	0.174
729	0.174
730	0.175
730	0.175
730	0.176
731	0.176
731	0.176
732	0.177
732	0.177
733	0.176
733	0.176
734	0.176
734	0.176
734	0.176
735	0.176
735	0.176
736	0.176
736	0.175
737	0.175
737	0.175
737	0.176
738	0.175
738	0.175
739	0.175
739	0.175
740	0.175
740	0.175
741	0.175
741	0.175
741	0.175
742	0.175
742	0.176
743	0.177
743	0.177
744	0.178
744	0.178
744	0.179
745	0.179
745	0.179
746	0.179
746	0.179
747	0.179
747	0.179
748	0.179
748	0.179
748	0.178
749	0.178
749	0.178
750	0.178
750	0.177
751	0.177
751	0.177
751	0.177
752	0.177
752	0.177
753	0.177
753	0.177
754	0.178
754	0.178
754	0.178
755	0.179
755	0.179
756	0.178
756	0.178
757	0.177
757	0.177
758	0.176
758	0.176
758	0.176
759	0.176
759	0.176
760	0.176
760	0.176
761	0.177
761	0.178
761	0.179
762	0.179
762	0.18
763	0.18
763	0.18
764	0.18
764	0.18
764	0.18
765	0.18
765	0.179
766	0.179
766	0.178
767	0.177
767	0.176
768	0.176
768	0.175
768	0.175
769	0.175
769	0.175
770	0.175
770	0.175
771	0.176
771	0.176
771	0.177
772	0.177
772	0.178
773	0.179
773	0.179
774	0.18
774	0.18
775	0.181
775	0.181
775	0.182
776	0.182
776	0.182
777	0.182
777	0.182
778	0.182
778	0.182
778	0.182
779	0.181
779	0.181
780	0.18
780	0.18
781	0.179
781	0.179
781	0.178
782	0.178
782	0.178
783	0.178
783	0.178
784	0.178
784	0.178
784	0.178
785	0.178
785	0.178
786	0.179
786	0.179
787	0.18
787	0.18
788	0.18
788	0.18
788	0.18
789	0.18
789	0.18
790	0.18
790	0.18
791	0.18
791	0.179
791	0.179
792	0.18
792	0.18
793	0.179
793	0.179
794	0.179
794	0.178
794	0.178
795	0.178
795	0.178
796	0.178
796	0.178
797	0.178
797	0.178
797	0.178
798	0.178
798	0.179
799	0.179
799	0.179
800	0.179
800	0.179
801	0.179
801	0.179
801	0.179
802	0.179
802	0.179
803	0.179
803	0.179
804	0.179
804	0.18
804	0.18
805	0.181
805	0.181
806	0.181
806	0.181
807	0.181
807	0.181
807	0.181
808	0.181
808	0.182
809	0.181
809	0.182
810	0.181
810	0.181
810	0.181
811	0.181
811	0.181
812	0.182
812	0.182
813	0.182
813	0.183
813	0.183
814	0.184
814	0.184
815	0.184
815	0.185
816	0.185
816	0.185
817	0.185
817	0.185
817	0.184
818	0.184
818	0.183
819	0.182
819	0.182
820	0.18
820	0.18
820	0.179
821	0.178
821	0.177
822	0.177
822	0.176
823	0.176
823	0.176
823	0.177
824	0.178
824	0.179
825	0.18
825	0.181
826	0.181
826	0.182
826	0.182
827	0.182
827	0.183
828	0.182
828	0.182
829	0.182
829	0.182
829	0.181
830	0.181
830	0.181
831	0.182
831	0.182
832	0.182
832	0.182
832	0.182
833	0.182
833	0.182
834	0.182
834	0.182
835	0.181
835	0.181
835	0.181
836	0.181
836	0.181
837	0.181
837	0.181
838	0.18
838	0.18
839	0.179
839	0.178
839	0.177
840	0.176
840	0.174
841	0.173
841	0.172
842	0.171
842	0.17
842	0.17
843	0.169
843	0.169
844	0.169
844	0.169
845	0.169
845	0.169
845	0.17
846	0.169
846	0.169
847	0.169
847	0.17
848	0.17
848	0.17
848	0.171
849	0.171
849	0.171
850	0.171
850	0.171
851	0.172
851	0.172
851	0.172
852	0.171
852	0.17
853	0.169
853	0.169
854	0.168
854	0.168
854	0.168
855	0.167
855	0.167
856	0.167
856	0.167
857	0.167
857	0.167
857	0.167
858	0.166
858	0.165
859	0.164
859	0.164
860	0.163
860	0.162
860	0.161
861	0.161
861	0.16
862	0.16
862	0.159
863	0.159
863	0.159
863	0.159
864	0.158
864	0.158
865	0.158
865	0.158
866	0.157
866	0.157
866	0.157
867	0.157
867	0.157
868	0.157
868	0.157
869	0.157
869	0.158
869	0.157
870	0.157
870	0.158
871	0.158
871	0.158
872	0.158
872	0.158
872	0.158
873	0.157
873	0.157
874	0.156
874	0.156
875	0.155
875	0.154
875	0.154
876	0.154
876	0.153
877	0.153
877	0.153
878	0.154
878	0.154
878	0.155
879	0.156
879	0.157
880	0.157
880	0.157
881	0.157
881	0.156
881	0.155
882	0.154
882	0.153
883	0.152
883	0.151
884	0.149
884	0.148
884	0.147
885	0.146
885	0.145
886	0.144
886	0.143
887	0.143
887	0.142
887	0.141
888	0.14
888	0.139
889	0.139
889	0.138
890	0.138
890	0.138
890	0.139
891	0.139
891	0.14
892	0.14
892	0.141
893	0.142
893	0.142
893	0.143
894	0.144
894	0.144
895	0.144
895	0.144
895	0.144
896	0.144
896	0.143
897	0.143
897	0.142
898	0.141
898	0.14
898	0.139
899	0.139
899	0.138
900	0.137
900	0.136
901	0.136
901	0.135
901	0.135
902	0.134
902	0.134
903	0.133
903	0.133
904	0.132
904	0.132
904	0.132
905	0.131
905	0.131
906	0.131
906	0.131
907	0.131
907	0.132
907	0.132
908	0.132
908	0.132
909	0.132
909	0.132
910	0.132
910	0.132
910	0.131
911	0.131
911	0.13
912	0.13
912	0.129
913	0.129
913	0.128
913	0.128
914	0.127
914	0.127
915	0.126
915	0.126
916	0.125
916	0.124
916	0.124
917	0.123
917	0.122
918	0.121
918	0.12
918	0.12
919	0.119
919	0.119
920	0.119
920	0.118
921	0.118
921	0.118
921	0.119
922	0.119
922	0.119
923	0.12
923	0.12
924	0.12
924	0.121
924	0.121
925	0.121
925	0.12
926	0.12
926	0.119
927	0.119
927	0.118
927	0.118
928	0.117
928	0.116
929	0.116
929	0.116
930	0.115
930	0.115
930	0.115
931	0.115
931	0.115
932	0.115
932	0.115
933	0.115
933	0.115
933	0.115
934	0.115
934	0.114
935	0.114
935	0.114
935	0.114
936	0.113
936	0.112
937	0.112
937	0.111
938	0.111
938	0.11
938	0.11
939	0.109
939	0.109
940	0.109
940	0.109
941	0.109
941	0.109
941	0.109
942	0.109
942	0.109
943	0.108
943	0.108
944	0.107
944	0.107
944	0.106
945	0.106
945	0.105
946	0.104
946	0.104
946	0.103
947	0.103
947	0.102
948	0.101
948	0.101
949	0.1
949	0.1
949	0.099
950	0.099
950	0.099
951	0.098
951	0.098
952	0.097
952	0.096
952	0.096
953	0.095
953	0.095
954	0.095
954	0.094
955	0.094
955	0.094
955	0.093
956	0.094
956	0.094
957	0.095
957	0.095
957	0.096
958	0.096
958	0.096
959	0.096
959	0.096
960	0.096
960	0.096
960	0.096
961	0.095
961	0.095
962	0.094
962	0.094
963	0.094
963	0.093
963	0.093
964	0.093
964	0.093
965	0.093
965	0.093
966	0.093
966	0.093
966	0.093
967	0.094
967	0.094
968	0.094
968	0.094
968	0.095
969	0.095
969	0.095
970	0.095
970	0.094
971	0.094
971	0.094
971	0.094
972	0.093
972	0.093
973	0.093
973	0.092
974	0.092
974	0.092
974	0.092
975	0.092
975	0.092
976	0.092
976	0.092
976	0.092
977	0.092
977	0.091
978	0.091
978	0.09
979	0.09
979	0.089
979	0.089
980	0.088
980	0.087
981	0.086
981	0.086
982	0.085
982	0.084
982	0.084
983	0.083
983	0.083
984	0.082
984	0.082
984	0.081
985	0.08
985	0.08
986	0.08
986	0.079
987	0.079
987	0.078
987	0.077
988	0.077
988	0.076
989	0.076
989	0.076
990	0.075
990	0.075
990	0.074
991	0.074
991	0.073
992	0.073
992	0.072
992	0.071
993	0.07
993	0.07
994	0.069
994	0.068
995	0.068
995	0.067
995	0.067
996	0.067
996	0.068
997	0.068
997	0.069
997	0.07
998	0.071
998	0.072
999	0.073
999	0.074
1000	0.075
1000	0.075
1000	0.076
1001	0.076
1001	0.077
1002	0.077
1002	0.077
1003	0.077
1003	0.076
1003	0.076
1004	0.076
1004	0.075
1005	0.075
1005	0.075
1005	0.074
1006	0.074
1006	0.074
1007	0.074
1007	0.073
1008	0.073
1008	0.073
1008	0.073
1009	0.073
1009	0.072
1010	0.072
1010	0.072
1010	0.072
1011	0.072
1011	0.072
1012	0.072
1012	0.072
1013	0.072
1013	0.071
1013	0.071
1014	0.071
1014	0.07
1015	0.07
1015	0.07
1016	0.069
1016	0.069
1016	0.069
1017	0.068
1017	0.068
1018	0.067
1018	0.067
1018	0.067
1019	0.066
1019	0.066
1020	0.066
1020	0.065
1021	0.065
1021	0.065
1021	0.065
1022	0.065
1022	0.064
1023	0.064
1023	0.064
1023	0.064
1024	0.063
1024	0.063
1025	0.062
1025	0.062
1026	0.061
1026	0.061
1026	0.06
1027	0.06
1027	0.059
1028	0.059
1028	0.059
1028	0.058
1029	0.058
1029	0.058
1030	0.058
1030	0.058
1031	0.058
1031	0.058
1031	0.058
1032	0.058
1032	0.058
1033	0.058
1033	0.058
1033	0.058
1034	0.058
1034	0.058
1035	0.057
1035	0.057
1036	0.057
1036	0.057
1036	0.057
1037	0.057
1037	0.058
1038	0.057
1038	0.058
1039	0.057
1039	0.057
1039	0.058
1040	0.058
1040	0.057
1041	0.057
1041	0.057
1041	0.057
1042	0.057
1042	0.057
1043	0.057
1043	0.057
1044	0.057
1044	0.057
1044	0.057
1045	0.058
1045	0.058
1046	0.058
1046	0.059
1046	0.059
1047	0.06
1047	0.061
1048	0.061
1048	0.062
1049	0.062
1049	0.062
1049	0.062
1050	0.062
1050	0.061
1051	0.061
1051	0.06
1051	0.06
1052	0.059
1052	0.058
1053	0.057
1053	0.056
1053	0.054
1054	0.053
1054	0.053
1055	0.052
1055	0.051
1056	0.05
1056	0.049
1056	0.048
1057	0.048
1057	0.047
1058	0.046
1058	0.045
1058	0.045
1059	0.044
1059	0.044
1060	0.043
1060	0.043
1061	0.042
1061	0.042
1061	0.042
1062	0.041
1062	0.041
1063	0.041
1063	0.041
1063	0.04
1064	0.04
1064	0.04
1065	0.04
1065	0.04
1066	0.04
1066	0.039
1066	0.039
1067	0.039
1067	0.039
1068	0.039
1068	0.039
1068	0.038
1069	0.038
1069	0.038
1070	0.037
1070	0.036
1071	0.036
1071	0.035
1071	0.034
1072	0.034
1072	0.033
1073	0.032
1073	0.032
1073	0.031
1074	0.032
1074	0.032
1075	0.032
1075	0.032
1076	0.033
1076	0.034
1076	0.034
1077	0.035
1077	0.036
1078	0.036
1078	0.036
1078	0.036
1079	0.037
1079	0.037
1080	0.037
1080	0.037
1080	0.037
1081	0.038
1081	0.038
1082	0.039
1082	0.039
1083	0.039
1083	0.039
1083	0.039
1084	0.039
1084	0.039
1085	0.038
1085	0.038
1085	0.038
1086	0.037
1086	0.036
1087	0.036
1087	0.035
1088	0.035
1088	0.035
1088	0.035
1089	0.034
1089	0.034
1090	0.034
1090	0.033
1090	0.032
1091	0.032
1091	0.031
1092	0.031
1092	0.032
1092	0.031
1093	0.031
1093	0.031
1094	0.031
1094	0.031
1095	0.03
1095	0.03
1095	0.03
1096	0.03
1096	0.029
1097	0.028
1097	0.028
1097	0.027
1098	0.027
1098	0.025
1099	0.025
1099	0.024
1100	0.023
1100	0.022
1100	0.02
1101	0.019
1101	0.018
1102	0.017
1102	0.017
1102	0.015
1103	0.014
1103	0.013
1104	0.013
1104	0.013
1104	0.012
1105	0.012
1105	0.011
1106	0.011
1106	0.01
1107	0.008
1107	0.008
1107	0.008
1108	0.008
1108	0.007
1109	0.006
1109	0.005
1109	0.005
1110	0.006
1110	0.004
1111	0.004
1111	0.005
