Data from reversibility-20sec_Absorbance__7841__000000000007841.txt Node

Date: Thu Dec 07 07:46:46 CET 2023
User: Marek
Spectrometer: MAYP115816
Trigger mode: 0
Integration Time (sec): 2.000000E-1
Scans to average: 10
Electric dark correction enabled: true
Nonlinearity correction enabled: true
Boxcar width: 5
XAxis mode: Wavelengths
Number of Pixels in Spectrum: 2068
>>>>>Begin Spectral Data<<<<<
199	-0.07
199	-0.058
200	0.002
200	0.051
201	0.079
201	0.098
202	0.105
202	0.109
203	0.116
203	0.12
204	0.131
204	0.146
205	0.158
205	0.163
205	0.162
206	0.161
206	0.161
207	0.162
207	0.165
208	0.163
208	0.162
209	0.167
209	0.163
210	0.165
210	0.163
211	0.165
211	0.17
212	0.166
212	0.171
213	0.173
213	0.176
213	0.174
214	0.176
214	0.18
215	0.181
215	0.182
216	0.184
216	0.18
217	0.184
217	0.183
218	0.183
218	0.184
219	0.192
219	0.19
220	0.193
220	0.193
221	0.194
221	0.194
221	0.199
222	0.207
222	0.211
223	0.216
223	0.22
224	0.226
224	0.234
225	0.24
225	0.254
226	0.263
226	0.277
227	0.286
227	0.295
228	0.314
228	0.33
229	0.347
229	0.37
229	0.394
230	0.419
230	0.446
231	0.479
231	0.513
232	0.553
232	0.597
233	0.638
233	0.684
234	0.736
234	0.788
235	0.84
235	0.895
236	0.944
236	0.997
236	1.049
237	1.101
237	1.148
238	1.192
238	1.239
239	1.283
239	1.322
240	1.362
240	1.398
241	1.432
241	1.463
242	1.494
242	1.524
243	1.554
243	1.578
243	1.602
244	1.622
244	1.644
245	1.659
245	1.677
246	1.696
246	1.712
247	1.725
247	1.738
248	1.75
248	1.763
249	1.773
249	1.779
250	1.784
250	1.792
250	1.796
251	1.799
251	1.801
252	1.804
252	1.803
253	1.803
253	1.801
254	1.798
254	1.801
255	1.799
255	1.799
256	1.799
256	1.798
257	1.798
257	1.795
258	1.796
258	1.796
258	1.796
259	1.797
259	1.796
260	1.797
260	1.798
261	1.798
261	1.801
262	1.803
262	1.805
263	1.808
263	1.808
264	1.81
264	1.81
265	1.81
265	1.809
265	1.81
266	1.809
266	1.811
267	1.81
267	1.811
268	1.809
268	1.811
269	1.812
269	1.813
270	1.811
270	1.811
271	1.809
271	1.808
272	1.803
272	1.801
272	1.797
273	1.792
273	1.785
274	1.777
274	1.771
275	1.764
275	1.756
276	1.749
276	1.74
277	1.732
277	1.721
278	1.709
278	1.697
278	1.681
279	1.664
279	1.642
280	1.615
280	1.582
281	1.543
281	1.5
282	1.455
282	1.41
283	1.366
283	1.322
284	1.28
284	1.24
285	1.202
285	1.168
285	1.138
286	1.112
286	1.089
287	1.068
287	1.051
288	1.036
288	1.024
289	1.013
289	1.004
290	0.996
290	0.989
291	0.983
291	0.978
292	0.973
292	0.969
292	0.964
293	0.961
293	0.957
294	0.954
294	0.95
295	0.947
295	0.945
296	0.941
296	0.938
297	0.935
297	0.932
298	0.929
298	0.926
298	0.923
299	0.921
299	0.918
300	0.915
300	0.913
301	0.91
301	0.907
302	0.905
302	0.902
303	0.9
303	0.898
304	0.895
304	0.893
305	0.891
305	0.889
305	0.886
306	0.884
306	0.882
307	0.879
307	0.877
308	0.874
308	0.872
309	0.869
309	0.866
310	0.864
310	0.86
311	0.857
311	0.854
311	0.851
312	0.847
312	0.844
313	0.84
313	0.836
314	0.832
314	0.828
315	0.824
315	0.82
316	0.816
316	0.811
317	0.807
317	0.802
318	0.797
318	0.792
318	0.787
319	0.781
319	0.776
320	0.77
320	0.764
321	0.758
321	0.752
322	0.745
322	0.739
323	0.733
323	0.726
324	0.719
324	0.713
324	0.705
325	0.698
325	0.692
326	0.684
326	0.677
327	0.67
327	0.663
328	0.656
328	0.648
329	0.641
329	0.634
330	0.626
330	0.619
330	0.612
331	0.605
331	0.598
332	0.591
332	0.584
333	0.577
333	0.57
334	0.562
334	0.555
335	0.548
335	0.541
336	0.535
336	0.528
336	0.521
337	0.514
337	0.508
338	0.502
338	0.495
339	0.489
339	0.483
340	0.477
340	0.472
341	0.466
341	0.46
342	0.455
342	0.449
342	0.444
343	0.438
343	0.433
344	0.428
344	0.423
345	0.418
345	0.413
346	0.408
346	0.404
347	0.399
347	0.395
348	0.39
348	0.386
348	0.383
349	0.379
349	0.375
350	0.371
350	0.368
351	0.365
351	0.361
352	0.358
352	0.355
353	0.352
353	0.349
354	0.346
354	0.343
354	0.341
355	0.338
355	0.335
356	0.332
356	0.329
357	0.326
357	0.324
358	0.321
358	0.318
359	0.316
359	0.314
360	0.312
360	0.31
360	0.308
361	0.306
361	0.305
362	0.303
362	0.301
363	0.299
363	0.297
364	0.295
364	0.293
365	0.291
365	0.29
366	0.288
366	0.286
366	0.285
367	0.283
367	0.282
368	0.28
368	0.279
369	0.277
369	0.276
370	0.275
370	0.273
371	0.272
371	0.271
372	0.27
372	0.269
372	0.268
373	0.267
373	0.266
374	0.265
374	0.264
375	0.263
375	0.262
376	0.261
376	0.26
377	0.26
377	0.259
378	0.258
378	0.257
378	0.256
379	0.256
379	0.255
380	0.254
380	0.253
381	0.253
381	0.252
382	0.252
382	0.251
383	0.251
383	0.25
383	0.25
384	0.249
384	0.249
385	0.249
385	0.248
386	0.248
386	0.248
387	0.247
387	0.247
388	0.247
388	0.246
389	0.246
389	0.246
389	0.246
390	0.245
390	0.245
391	0.245
391	0.244
392	0.244
392	0.244
393	0.243
393	0.243
394	0.243
394	0.242
394	0.242
395	0.241
395	0.241
396	0.241
396	0.241
397	0.24
397	0.24
398	0.24
398	0.24
399	0.239
399	0.239
400	0.239
400	0.238
400	0.238
401	0.238
401	0.238
402	0.237
402	0.237
403	0.237
403	0.237
404	0.237
404	0.236
405	0.236
405	0.236
405	0.236
406	0.236
406	0.235
407	0.235
407	0.235
408	0.235
408	0.235
409	0.234
409	0.234
410	0.234
410	0.234
411	0.233
411	0.233
411	0.233
412	0.233
412	0.232
413	0.232
413	0.232
414	0.232
414	0.231
415	0.231
415	0.231
416	0.23
416	0.23
416	0.23
417	0.229
417	0.229
418	0.229
418	0.228
419	0.228
419	0.227
420	0.227
420	0.226
421	0.226
421	0.226
421	0.225
422	0.225
422	0.225
423	0.224
423	0.224
424	0.223
424	0.223
425	0.223
425	0.223
426	0.223
426	0.223
427	0.222
427	0.222
427	0.222
428	0.221
428	0.221
429	0.22
429	0.22
430	0.219
430	0.219
431	0.219
431	0.219
432	0.219
432	0.219
432	0.218
433	0.218
433	0.218
434	0.218
434	0.218
435	0.218
435	0.218
436	0.217
436	0.217
437	0.217
437	0.216
437	0.216
438	0.216
438	0.215
439	0.215
439	0.215
440	0.214
440	0.214
441	0.214
441	0.213
442	0.213
442	0.213
442	0.213
443	0.212
443	0.212
444	0.212
444	0.212
445	0.212
445	0.212
446	0.211
446	0.211
447	0.211
447	0.211
447	0.211
448	0.211
448	0.21
449	0.21
449	0.21
450	0.21
450	0.21
451	0.21
451	0.209
452	0.209
452	0.209
452	0.209
453	0.209
453	0.208
454	0.208
454	0.208
455	0.207
455	0.207
456	0.207
456	0.207
457	0.206
457	0.206
458	0.206
458	0.205
458	0.205
459	0.205
459	0.205
460	0.204
460	0.204
461	0.204
461	0.204
462	0.204
462	0.203
463	0.203
463	0.203
463	0.203
464	0.202
464	0.202
465	0.202
465	0.201
466	0.201
466	0.201
467	0.201
467	0.201
467	0.201
468	0.201
468	0.201
469	0.201
469	0.201
470	0.201
470	0.201
471	0.201
471	0.201
472	0.201
472	0.201
472	0.201
473	0.201
473	0.2
474	0.2
474	0.2
475	0.199
475	0.199
476	0.199
476	0.199
477	0.199
477	0.199
477	0.199
478	0.198
478	0.198
479	0.198
479	0.198
480	0.198
480	0.198
481	0.198
481	0.198
482	0.198
482	0.198
482	0.198
483	0.198
483	0.199
484	0.199
484	0.198
485	0.198
485	0.198
486	0.197
486	0.197
487	0.197
487	0.197
487	0.197
488	0.197
488	0.197
489	0.197
489	0.198
490	0.198
490	0.199
491	0.199
491	0.199
492	0.2
492	0.2
492	0.201
493	0.201
493	0.201
494	0.201
494	0.201
495	0.201
495	0.202
496	0.202
496	0.202
496	0.203
497	0.203
497	0.203
498	0.203
498	0.203
499	0.204
499	0.204
500	0.204
500	0.205
501	0.205
501	0.205
501	0.205
502	0.205
502	0.205
503	0.206
503	0.206
504	0.206
504	0.207
505	0.207
505	0.207
506	0.208
506	0.208
506	0.208
507	0.209
507	0.209
508	0.209
508	0.209
509	0.21
509	0.21
510	0.21
510	0.21
511	0.211
511	0.211
511	0.211
512	0.212
512	0.212
513	0.212
513	0.213
514	0.213
514	0.213
515	0.214
515	0.214
515	0.214
516	0.215
516	0.215
517	0.215
517	0.216
518	0.216
518	0.216
519	0.216
519	0.216
520	0.216
520	0.217
520	0.217
521	0.217
521	0.217
522	0.217
522	0.218
523	0.218
523	0.219
524	0.219
524	0.219
524	0.22
525	0.22
525	0.22
526	0.22
526	0.22
527	0.22
527	0.221
528	0.22
528	0.221
529	0.22
529	0.22
529	0.22
530	0.22
530	0.22
531	0.22
531	0.22
532	0.219
532	0.219
533	0.219
533	0.219
533	0.219
534	0.219
534	0.219
535	0.219
535	0.219
536	0.219
536	0.22
537	0.219
537	0.219
538	0.219
538	0.219
538	0.219
539	0.219
539	0.219
540	0.219
540	0.219
541	0.219
541	0.219
542	0.219
542	0.219
542	0.219
543	0.219
543	0.219
544	0.219
544	0.219
545	0.219
545	0.219
546	0.219
546	0.218
547	0.218
547	0.217
547	0.217
548	0.217
548	0.216
549	0.216
549	0.216
550	0.216
550	0.216
551	0.216
551	0.216
551	0.216
552	0.216
552	0.216
553	0.215
553	0.215
554	0.215
554	0.214
555	0.214
555	0.213
556	0.213
556	0.212
556	0.213
557	0.213
557	0.213
558	0.213
558	0.213
559	0.214
559	0.214
560	0.214
560	0.214
560	0.214
561	0.214
561	0.213
562	0.213
562	0.212
563	0.211
563	0.21
564	0.209
564	0.209
564	0.209
565	0.209
565	0.209
566	0.209
566	0.208
567	0.209
567	0.209
568	0.209
568	0.209
568	0.208
569	0.208
569	0.207
570	0.207
570	0.206
571	0.205
571	0.205
572	0.204
572	0.204
573	0.204
573	0.204
573	0.203
574	0.203
574	0.203
575	0.203
575	0.203
576	0.203
576	0.202
577	0.202
577	0.201
577	0.201
578	0.2
578	0.2
579	0.2
579	0.2
580	0.2
580	0.199
581	0.199
581	0.199
581	0.199
582	0.2
582	0.2
583	0.2
583	0.199
584	0.199
584	0.198
585	0.197
585	0.198
585	0.197
586	0.197
586	0.197
587	0.196
587	0.196
588	0.196
588	0.195
589	0.195
589	0.195
590	0.195
590	0.195
590	0.195
591	0.195
591	0.195
592	0.194
592	0.194
593	0.193
593	0.193
594	0.193
594	0.192
594	0.192
595	0.191
595	0.191
596	0.191
596	0.191
597	0.192
597	0.192
598	0.192
598	0.192
598	0.192
599	0.192
599	0.191
600	0.191
600	0.191
601	0.19
601	0.19
602	0.19
602	0.189
602	0.189
603	0.189
603	0.189
604	0.189
604	0.189
605	0.189
605	0.189
606	0.188
606	0.188
606	0.187
607	0.187
607	0.186
608	0.186
608	0.185
609	0.185
609	0.185
610	0.184
610	0.184
610	0.184
611	0.184
611	0.184
612	0.184
612	0.185
613	0.185
613	0.185
614	0.185
614	0.185
614	0.185
615	0.185
615	0.185
616	0.185
616	0.185
617	0.185
617	0.185
618	0.185
618	0.185
618	0.185
619	0.185
619	0.185
620	0.185
620	0.185
621	0.184
621	0.184
622	0.184
622	0.183
622	0.183
623	0.183
623	0.183
624	0.182
624	0.182
625	0.182
625	0.182
626	0.182
626	0.182
626	0.182
627	0.182
627	0.182
628	0.182
628	0.182
629	0.181
629	0.181
630	0.181
630	0.181
630	0.181
631	0.181
631	0.18
632	0.18
632	0.18
633	0.18
633	0.18
634	0.18
634	0.18
634	0.18
635	0.179
635	0.179
636	0.179
636	0.179
637	0.179
637	0.179
638	0.179
638	0.178
638	0.178
639	0.178
639	0.177
640	0.177
640	0.177
641	0.176
641	0.176
642	0.176
642	0.176
642	0.176
643	0.176
643	0.176
644	0.176
644	0.177
645	0.177
645	0.178
646	0.178
646	0.178
646	0.179
647	0.179
647	0.179
648	0.178
648	0.177
649	0.177
649	0.177
650	0.177
650	0.177
650	0.176
651	0.176
651	0.176
652	0.176
652	0.176
653	0.177
653	0.179
653	0.184
654	0.145
654	0.116
655	0.116
655	0.117
656	0.117
656	0.117
657	0.117
657	0.118
657	0.118
658	0.117
658	0.107
659	0.135
659	0.173
660	0.178
660	0.178
661	0.177
661	0.176
661	0.176
662	0.175
662	0.175
663	0.174
663	0.174
664	0.174
664	0.173
665	0.173
665	0.173
665	0.173
666	0.174
666	0.174
667	0.174
667	0.174
668	0.174
668	0.174
669	0.175
669	0.175
669	0.176
670	0.176
670	0.176
671	0.176
671	0.176
672	0.176
672	0.175
672	0.175
673	0.175
673	0.174
674	0.174
674	0.174
675	0.174
675	0.174
676	0.174
676	0.174
676	0.174
677	0.174
677	0.175
678	0.175
678	0.174
679	0.174
679	0.174
680	0.174
680	0.174
680	0.174
681	0.174
681	0.175
682	0.175
682	0.175
683	0.175
683	0.176
684	0.176
684	0.176
684	0.175
685	0.175
685	0.176
686	0.176
686	0.175
687	0.175
687	0.175
687	0.175
688	0.175
688	0.175
689	0.176
689	0.176
690	0.176
690	0.176
691	0.176
691	0.176
691	0.176
692	0.176
692	0.176
693	0.176
693	0.177
694	0.177
694	0.177
695	0.178
695	0.179
695	0.179
696	0.179
696	0.179
697	0.179
697	0.179
698	0.179
698	0.179
698	0.179
699	0.179
699	0.178
700	0.178
700	0.178
701	0.178
701	0.177
702	0.177
702	0.176
702	0.176
703	0.176
703	0.175
704	0.175
704	0.175
705	0.175
705	0.175
705	0.175
706	0.174
706	0.175
707	0.175
707	0.175
708	0.175
708	0.175
709	0.175
709	0.175
709	0.175
710	0.175
710	0.175
711	0.176
711	0.176
712	0.177
712	0.177
713	0.177
713	0.177
713	0.177
714	0.177
714	0.178
715	0.178
715	0.177
716	0.177
716	0.176
716	0.176
717	0.175
717	0.175
718	0.174
718	0.175
719	0.175
719	0.176
720	0.177
720	0.177
720	0.178
721	0.179
721	0.18
722	0.181
722	0.181
723	0.181
723	0.181
723	0.181
724	0.181
724	0.18
725	0.179
725	0.178
726	0.178
726	0.177
727	0.177
727	0.176
727	0.176
728	0.176
728	0.176
729	0.176
729	0.176
730	0.177
730	0.177
730	0.178
731	0.178
731	0.179
732	0.18
732	0.18
733	0.18
733	0.181
734	0.181
734	0.181
734	0.181
735	0.182
735	0.181
736	0.181
736	0.18
737	0.18
737	0.18
737	0.179
738	0.179
738	0.178
739	0.178
739	0.178
740	0.178
740	0.178
741	0.179
741	0.179
741	0.18
742	0.18
742	0.181
743	0.182
743	0.183
744	0.183
744	0.184
744	0.184
745	0.184
745	0.184
746	0.184
746	0.184
747	0.184
747	0.184
748	0.183
748	0.184
748	0.183
749	0.183
749	0.184
750	0.184
750	0.184
751	0.185
751	0.185
751	0.185
752	0.185
752	0.185
753	0.185
753	0.185
754	0.184
754	0.184
754	0.184
755	0.183
755	0.183
756	0.183
756	0.182
757	0.182
757	0.182
758	0.182
758	0.182
758	0.182
759	0.182
759	0.181
760	0.181
760	0.181
761	0.181
761	0.182
761	0.182
762	0.182
762	0.182
763	0.183
763	0.182
764	0.182
764	0.183
764	0.183
765	0.183
765	0.182
766	0.183
766	0.183
767	0.183
767	0.182
768	0.182
768	0.182
768	0.182
769	0.182
769	0.182
770	0.183
770	0.183
771	0.184
771	0.184
771	0.184
772	0.185
772	0.185
773	0.186
773	0.186
774	0.186
774	0.187
775	0.187
775	0.187
775	0.188
776	0.188
776	0.189
777	0.19
777	0.191
778	0.191
778	0.191
778	0.191
779	0.191
779	0.191
780	0.189
780	0.188
781	0.187
781	0.186
781	0.185
782	0.184
782	0.184
783	0.184
783	0.184
784	0.184
784	0.184
784	0.185
785	0.186
785	0.186
786	0.187
786	0.187
787	0.188
787	0.188
788	0.188
788	0.188
788	0.188
789	0.188
789	0.189
790	0.189
790	0.189
791	0.189
791	0.189
791	0.189
792	0.19
792	0.189
793	0.189
793	0.189
794	0.188
794	0.188
794	0.187
795	0.187
795	0.187
796	0.187
796	0.187
797	0.186
797	0.186
797	0.186
798	0.187
798	0.187
799	0.187
799	0.187
800	0.188
800	0.188
801	0.189
801	0.189
801	0.19
802	0.191
802	0.191
803	0.192
803	0.192
804	0.193
804	0.193
804	0.193
805	0.193
805	0.193
806	0.193
806	0.193
807	0.192
807	0.192
807	0.192
808	0.191
808	0.191
809	0.191
809	0.191
810	0.191
810	0.191
810	0.191
811	0.191
811	0.192
812	0.193
812	0.193
813	0.194
813	0.195
813	0.195
814	0.196
814	0.197
815	0.198
815	0.198
816	0.198
816	0.197
817	0.197
817	0.196
817	0.196
818	0.195
818	0.195
819	0.194
819	0.194
820	0.193
820	0.192
820	0.192
821	0.192
821	0.192
822	0.192
822	0.192
823	0.192
823	0.192
823	0.193
824	0.194
824	0.195
825	0.196
825	0.197
826	0.198
826	0.199
826	0.2
827	0.2
827	0.201
828	0.202
828	0.202
829	0.203
829	0.203
829	0.203
830	0.204
830	0.204
831	0.204
831	0.204
832	0.204
832	0.203
832	0.203
833	0.203
833	0.202
834	0.202
834	0.201
835	0.2
835	0.2
835	0.199
836	0.199
836	0.198
837	0.198
837	0.198
838	0.197
838	0.197
839	0.196
839	0.195
839	0.194
840	0.193
840	0.193
841	0.192
841	0.191
842	0.19
842	0.189
842	0.189
843	0.188
843	0.188
844	0.188
844	0.188
845	0.187
845	0.188
845	0.188
846	0.188
846	0.188
847	0.189
847	0.189
848	0.19
848	0.19
848	0.19
849	0.19
849	0.19
850	0.19
850	0.19
851	0.189
851	0.189
851	0.189
852	0.188
852	0.188
853	0.188
853	0.188
854	0.189
854	0.189
854	0.19
855	0.191
855	0.192
856	0.193
856	0.194
857	0.195
857	0.196
857	0.197
858	0.197
858	0.198
859	0.198
859	0.198
860	0.198
860	0.198
860	0.198
861	0.198
861	0.198
862	0.197
862	0.197
863	0.196
863	0.196
863	0.196
864	0.196
864	0.196
865	0.196
865	0.196
866	0.196
866	0.196
866	0.196
867	0.196
867	0.196
868	0.196
868	0.196
869	0.196
869	0.195
869	0.195
870	0.194
870	0.194
871	0.194
871	0.194
872	0.194
872	0.194
872	0.193
873	0.193
873	0.193
874	0.192
874	0.192
875	0.192
875	0.192
875	0.192
876	0.191
876	0.191
877	0.19
877	0.19
878	0.19
878	0.19
878	0.19
879	0.19
879	0.19
880	0.19
880	0.19
881	0.19
881	0.19
881	0.191
882	0.191
882	0.191
883	0.191
883	0.191
884	0.191
884	0.191
884	0.191
885	0.191
885	0.191
886	0.191
886	0.19
887	0.19
887	0.19
887	0.19
888	0.19
888	0.19
889	0.19
889	0.19
890	0.19
890	0.191
890	0.191
891	0.191
891	0.191
892	0.191
892	0.19
893	0.19
893	0.189
893	0.189
894	0.188
894	0.187
895	0.187
895	0.186
895	0.186
896	0.186
896	0.186
897	0.186
897	0.185
898	0.185
898	0.185
898	0.185
899	0.185
899	0.185
900	0.185
900	0.185
901	0.185
901	0.185
901	0.184
902	0.184
902	0.184
903	0.183
903	0.183
904	0.183
904	0.182
904	0.182
905	0.182
905	0.181
906	0.181
906	0.181
907	0.182
907	0.182
907	0.182
908	0.181
908	0.181
909	0.181
909	0.181
910	0.18
910	0.18
910	0.179
911	0.179
911	0.178
912	0.177
912	0.177
913	0.176
913	0.175
913	0.175
914	0.175
914	0.174
915	0.174
915	0.173
916	0.173
916	0.173
916	0.172
917	0.172
917	0.172
918	0.171
918	0.171
918	0.17
919	0.17
919	0.17
920	0.17
920	0.17
921	0.17
921	0.17
921	0.171
922	0.171
922	0.171
923	0.172
923	0.173
924	0.173
924	0.174
924	0.174
925	0.174
925	0.174
926	0.174
926	0.174
927	0.174
927	0.174
927	0.174
928	0.173
928	0.173
929	0.173
929	0.173
930	0.173
930	0.172
930	0.172
931	0.172
931	0.172
932	0.171
932	0.171
933	0.171
933	0.171
933	0.17
934	0.17
934	0.169
935	0.169
935	0.169
935	0.168
936	0.168
936	0.167
937	0.166
937	0.166
938	0.165
938	0.164
938	0.164
939	0.163
939	0.162
940	0.162
940	0.162
941	0.162
941	0.162
941	0.162
942	0.163
942	0.163
943	0.163
943	0.164
944	0.164
944	0.164
944	0.165
945	0.165
945	0.165
946	0.166
946	0.166
946	0.166
947	0.166
947	0.165
948	0.165
948	0.165
949	0.164
949	0.163
949	0.162
950	0.161
950	0.161
951	0.16
951	0.159
952	0.158
952	0.157
952	0.156
953	0.156
953	0.155
954	0.155
954	0.154
955	0.154
955	0.153
955	0.153
956	0.154
956	0.154
957	0.155
957	0.156
957	0.156
958	0.157
958	0.158
959	0.158
959	0.159
960	0.16
960	0.16
960	0.16
961	0.16
961	0.16
962	0.16
962	0.159
963	0.159
963	0.158
963	0.158
964	0.158
964	0.157
965	0.157
965	0.157
966	0.157
966	0.156
966	0.157
967	0.157
967	0.157
968	0.157
968	0.157
968	0.157
969	0.156
969	0.156
970	0.155
970	0.154
971	0.153
971	0.152
971	0.151
972	0.15
972	0.149
973	0.148
973	0.147
974	0.147
974	0.147
974	0.147
975	0.148
975	0.148
976	0.148
976	0.149
976	0.149
977	0.149
977	0.149
978	0.149
978	0.149
979	0.149
979	0.149
979	0.149
980	0.149
980	0.149
981	0.149
981	0.149
982	0.149
982	0.148
982	0.148
983	0.148
983	0.149
984	0.149
984	0.149
984	0.149
985	0.149
985	0.149
986	0.148
986	0.148
987	0.148
987	0.147
987	0.147
988	0.147
988	0.146
989	0.145
989	0.145
990	0.144
990	0.144
990	0.144
991	0.143
991	0.143
992	0.142
992	0.141
992	0.14
993	0.139
993	0.138
994	0.137
994	0.137
995	0.136
995	0.135
995	0.135
996	0.135
996	0.135
997	0.135
997	0.136
997	0.137
998	0.138
998	0.138
999	0.139
999	0.14
1000	0.141
1000	0.142
1000	0.142
1001	0.143
1001	0.143
1002	0.143
1002	0.143
1003	0.143
1003	0.143
1003	0.143
1004	0.143
1004	0.142
1005	0.142
1005	0.142
1005	0.142
1006	0.141
1006	0.141
1007	0.14
1007	0.14
1008	0.139
1008	0.139
1008	0.139
1009	0.138
1009	0.138
1010	0.137
1010	0.137
1010	0.137
1011	0.136
1011	0.135
1012	0.135
1012	0.134
1013	0.134
1013	0.134
1013	0.133
1014	0.133
1014	0.132
1015	0.132
1015	0.132
1016	0.132
1016	0.132
1016	0.132
1017	0.132
1017	0.132
1018	0.132
1018	0.131
1018	0.131
1019	0.131
1019	0.131
1020	0.131
1020	0.131
1021	0.131
1021	0.131
1021	0.131
1022	0.132
1022	0.132
1023	0.132
1023	0.132
1023	0.132
1024	0.132
1024	0.132
1025	0.131
1025	0.131
1026	0.131
1026	0.131
1026	0.13
1027	0.13
1027	0.13
1028	0.13
1028	0.13
1028	0.13
1029	0.13
1029	0.13
1030	0.13
1030	0.13
1031	0.13
1031	0.13
1031	0.13
1032	0.13
1032	0.13
1033	0.13
1033	0.13
1033	0.13
1034	0.13
1034	0.13
1035	0.13
1035	0.129
1036	0.129
1036	0.129
1036	0.129
1037	0.129
1037	0.128
1038	0.128
1038	0.128
1039	0.128
1039	0.127
1039	0.127
1040	0.127
1040	0.127
1041	0.127
1041	0.127
1041	0.127
1042	0.127
1042	0.126
1043	0.126
1043	0.126
1044	0.126
1044	0.126
1044	0.126
1045	0.125
1045	0.125
1046	0.125
1046	0.125
1046	0.125
1047	0.125
1047	0.124
1048	0.124
1048	0.124
1049	0.124
1049	0.124
1049	0.123
1050	0.123
1050	0.123
1051	0.122
1051	0.122
1051	0.122
1052	0.121
1052	0.121
1053	0.12
1053	0.119
1053	0.119
1054	0.118
1054	0.118
1055	0.117
1055	0.117
1056	0.116
1056	0.116
1056	0.115
1057	0.115
1057	0.114
1058	0.113
1058	0.112
1058	0.111
1059	0.111
1059	0.11
1060	0.11
1060	0.109
1061	0.109
1061	0.108
1061	0.108
1062	0.108
1062	0.108
1063	0.108
1063	0.108
1063	0.108
1064	0.107
1064	0.108
1065	0.108
1065	0.107
1066	0.108
1066	0.107
1066	0.107
1067	0.107
1067	0.107
1068	0.107
1068	0.107
1068	0.106
1069	0.106
1069	0.106
1070	0.106
1070	0.105
1071	0.105
1071	0.105
1071	0.105
1072	0.105
1072	0.104
1073	0.104
1073	0.104
1073	0.104
1074	0.105
1074	0.105
1075	0.106
1075	0.106
1076	0.107
1076	0.107
1076	0.108
1077	0.108
1077	0.109
1078	0.109
1078	0.108
1078	0.108
1079	0.108
1079	0.108
1080	0.107
1080	0.106
1080	0.106
1081	0.106
1081	0.106
1082	0.106
1082	0.106
1083	0.106
1083	0.106
1083	0.106
1084	0.106
1084	0.106
1085	0.106
1085	0.106
1085	0.106
1086	0.106
1086	0.105
1087	0.105
1087	0.105
1088	0.104
1088	0.104
1088	0.104
1089	0.103
1089	0.102
1090	0.101
1090	0.101
1090	0.099
1091	0.099
1091	0.098
1092	0.098
1092	0.098
1092	0.098
1093	0.097
1093	0.097
1094	0.097
1094	0.096
1095	0.096
1095	0.095
1095	0.095
1096	0.095
1096	0.093
1097	0.093
1097	0.093
1097	0.093
1098	0.092
1098	0.091
1099	0.09
1099	0.089
1100	0.089
1100	0.088
1100	0.086
1101	0.086
1101	0.085
1102	0.084
1102	0.083
1102	0.082
1103	0.081
1103	0.082
1104	0.082
1104	0.081
1104	0.08
1105	0.079
1105	0.078
1106	0.076
1106	0.075
1107	0.075
1107	0.075
1107	0.075
1108	0.074
1108	0.073
1109	0.072
1109	0.072
1109	0.072
1110	0.074
1110	0.074
1111	0.072
1111	0.07
