Data from reversibility-20sec_Absorbance__313__000000000000313.txt Node

Date: Tue Dec 05 13:57:25 CET 2023
User: Marek
Spectrometer: MAYP115816
Trigger mode: 0
Integration Time (sec): 2.000000E-1
Scans to average: 10
Electric dark correction enabled: true
Nonlinearity correction enabled: true
Boxcar width: 5
XAxis mode: Wavelengths
Number of Pixels in Spectrum: 2068
>>>>>Begin Spectral Data<<<<<
199	-0.251
199	-0.215
200	-0.143
200	-0.087
201	-0.057
201	-0.043
202	-0.029
202	-0.023
203	-0.013
203	-0.007
204	0.006
204	0.021
205	0.034
205	0.039
205	0.037
206	0.037
206	0.037
207	0.038
207	0.04
208	0.038
208	0.035
209	0.037
209	0.034
210	0.031
210	0.031
211	0.031
211	0.032
212	0.032
212	0.034
213	0.036
213	0.036
213	0.037
214	0.04
214	0.04
215	0.045
215	0.047
216	0.049
216	0.051
217	0.054
217	0.055
218	0.055
218	0.06
219	0.064
219	0.066
220	0.071
220	0.072
221	0.072
221	0.074
221	0.078
222	0.084
222	0.087
223	0.095
223	0.097
224	0.104
224	0.115
225	0.123
225	0.132
226	0.141
226	0.153
227	0.162
227	0.169
228	0.184
228	0.198
229	0.218
229	0.24
229	0.262
230	0.286
230	0.315
231	0.348
231	0.384
232	0.423
232	0.469
233	0.516
233	0.564
234	0.61
234	0.66
235	0.71
235	0.759
236	0.809
236	0.859
236	0.91
237	0.961
237	1.009
238	1.055
238	1.101
239	1.149
239	1.194
240	1.234
240	1.272
241	1.31
241	1.344
242	1.377
242	1.407
243	1.435
243	1.462
243	1.486
244	1.509
244	1.527
245	1.544
245	1.566
246	1.583
246	1.6
247	1.611
247	1.627
248	1.64
248	1.652
249	1.663
249	1.669
250	1.678
250	1.687
250	1.691
251	1.696
251	1.699
252	1.703
252	1.704
253	1.705
253	1.703
254	1.703
254	1.706
255	1.704
255	1.704
256	1.704
256	1.705
257	1.704
257	1.704
258	1.703
258	1.703
258	1.703
259	1.702
259	1.7
260	1.699
260	1.699
261	1.699
261	1.7
262	1.701
262	1.702
263	1.703
263	1.702
264	1.702
264	1.702
265	1.704
265	1.704
265	1.704
266	1.703
266	1.702
267	1.701
267	1.701
268	1.7
268	1.7
269	1.703
269	1.702
270	1.701
270	1.7
271	1.697
271	1.696
272	1.693
272	1.691
272	1.687
273	1.683
273	1.68
274	1.675
274	1.671
275	1.666
275	1.661
276	1.655
276	1.648
277	1.641
277	1.632
278	1.624
278	1.613
278	1.6
279	1.587
279	1.57
280	1.551
280	1.527
281	1.499
281	1.468
282	1.435
282	1.4
283	1.365
283	1.33
284	1.296
284	1.262
285	1.23
285	1.2
285	1.173
286	1.149
286	1.128
287	1.109
287	1.093
288	1.079
288	1.067
289	1.056
289	1.048
290	1.04
290	1.033
291	1.027
291	1.022
292	1.017
292	1.013
292	1.009
293	1.005
293	1.002
294	0.999
294	0.995
295	0.993
295	0.99
296	0.987
296	0.984
297	0.981
297	0.978
298	0.976
298	0.973
298	0.971
299	0.968
299	0.966
300	0.963
300	0.96
301	0.958
301	0.956
302	0.953
302	0.951
303	0.948
303	0.946
304	0.944
304	0.942
305	0.939
305	0.937
305	0.935
306	0.932
306	0.93
307	0.928
307	0.925
308	0.923
308	0.921
309	0.918
309	0.915
310	0.912
310	0.91
311	0.907
311	0.903
311	0.9
312	0.896
312	0.893
313	0.889
313	0.885
314	0.882
314	0.878
315	0.873
315	0.869
316	0.865
316	0.861
317	0.856
317	0.852
318	0.847
318	0.842
318	0.837
319	0.832
319	0.827
320	0.821
320	0.816
321	0.81
321	0.804
322	0.798
322	0.792
323	0.786
323	0.78
324	0.774
324	0.767
324	0.761
325	0.754
325	0.748
326	0.741
326	0.735
327	0.728
327	0.722
328	0.715
328	0.709
329	0.702
329	0.695
330	0.688
330	0.682
330	0.675
331	0.668
331	0.661
332	0.655
332	0.648
333	0.642
333	0.635
334	0.628
334	0.622
335	0.616
335	0.609
336	0.602
336	0.596
336	0.59
337	0.584
337	0.577
338	0.571
338	0.565
339	0.56
339	0.554
340	0.548
340	0.543
341	0.538
341	0.532
342	0.527
342	0.522
342	0.517
343	0.512
343	0.507
344	0.502
344	0.497
345	0.493
345	0.488
346	0.484
346	0.479
347	0.475
347	0.471
348	0.467
348	0.463
348	0.46
349	0.456
349	0.452
350	0.449
350	0.446
351	0.442
351	0.439
352	0.436
352	0.433
353	0.43
353	0.427
354	0.424
354	0.421
354	0.418
355	0.415
355	0.412
356	0.409
356	0.407
357	0.403
357	0.4
358	0.398
358	0.395
359	0.393
359	0.39
360	0.388
360	0.386
360	0.384
361	0.382
361	0.381
362	0.379
362	0.378
363	0.376
363	0.374
364	0.372
364	0.37
365	0.368
365	0.366
366	0.364
366	0.363
366	0.361
367	0.359
367	0.357
368	0.355
368	0.354
369	0.352
369	0.351
370	0.349
370	0.347
371	0.346
371	0.344
372	0.343
372	0.342
372	0.34
373	0.339
373	0.338
374	0.337
374	0.336
375	0.335
375	0.333
376	0.332
376	0.331
377	0.33
377	0.329
378	0.328
378	0.327
378	0.326
379	0.325
379	0.323
380	0.322
380	0.321
381	0.32
381	0.319
382	0.319
382	0.318
383	0.317
383	0.316
383	0.315
384	0.315
384	0.314
385	0.313
385	0.313
386	0.312
386	0.311
387	0.311
387	0.31
388	0.309
388	0.309
389	0.308
389	0.307
389	0.307
390	0.306
390	0.305
391	0.305
391	0.304
392	0.304
392	0.303
393	0.303
393	0.302
394	0.302
394	0.301
394	0.3
395	0.3
395	0.299
396	0.298
396	0.298
397	0.297
397	0.297
398	0.296
398	0.296
399	0.295
399	0.295
400	0.294
400	0.294
400	0.293
401	0.293
401	0.292
402	0.292
402	0.291
403	0.291
403	0.29
404	0.29
404	0.29
405	0.289
405	0.289
405	0.289
406	0.288
406	0.288
407	0.287
407	0.287
408	0.286
408	0.286
409	0.285
409	0.285
410	0.285
410	0.284
411	0.284
411	0.283
411	0.283
412	0.283
412	0.283
413	0.282
413	0.282
414	0.282
414	0.281
415	0.281
415	0.281
416	0.28
416	0.28
416	0.279
417	0.279
417	0.279
418	0.278
418	0.278
419	0.277
419	0.277
420	0.277
420	0.277
421	0.276
421	0.276
421	0.276
422	0.276
422	0.275
423	0.275
423	0.275
424	0.274
424	0.274
425	0.274
425	0.274
426	0.274
426	0.273
427	0.273
427	0.273
427	0.273
428	0.272
428	0.272
429	0.272
429	0.272
430	0.272
430	0.272
431	0.272
431	0.271
432	0.271
432	0.271
432	0.271
433	0.271
433	0.271
434	0.27
434	0.27
435	0.27
435	0.27
436	0.27
436	0.27
437	0.27
437	0.27
437	0.27
438	0.269
438	0.269
439	0.269
439	0.269
440	0.269
440	0.269
441	0.269
441	0.269
442	0.268
442	0.268
442	0.268
443	0.268
443	0.268
444	0.268
444	0.268
445	0.268
445	0.268
446	0.268
446	0.267
447	0.267
447	0.267
447	0.267
448	0.267
448	0.267
449	0.267
449	0.267
450	0.268
450	0.268
451	0.268
451	0.268
452	0.268
452	0.268
452	0.268
453	0.268
453	0.268
454	0.268
454	0.268
455	0.268
455	0.268
456	0.268
456	0.269
457	0.269
457	0.269
458	0.269
458	0.269
458	0.269
459	0.269
459	0.269
460	0.27
460	0.27
461	0.27
461	0.27
462	0.27
462	0.27
463	0.271
463	0.271
463	0.271
464	0.271
464	0.271
465	0.271
465	0.272
466	0.272
466	0.272
467	0.273
467	0.273
467	0.273
468	0.274
468	0.274
469	0.275
469	0.275
470	0.276
470	0.276
471	0.276
471	0.277
472	0.277
472	0.278
472	0.279
473	0.279
473	0.28
474	0.281
474	0.281
475	0.282
475	0.283
476	0.283
476	0.284
477	0.285
477	0.285
477	0.286
478	0.287
478	0.287
479	0.288
479	0.289
480	0.29
480	0.29
481	0.291
481	0.292
482	0.293
482	0.294
482	0.295
483	0.296
483	0.297
484	0.298
484	0.299
485	0.3
485	0.301
486	0.302
486	0.303
487	0.304
487	0.305
487	0.306
488	0.307
488	0.309
489	0.31
489	0.312
490	0.314
490	0.315
491	0.317
491	0.319
492	0.32
492	0.321
492	0.323
493	0.324
493	0.326
494	0.328
494	0.329
495	0.331
495	0.332
496	0.334
496	0.336
496	0.337
497	0.339
497	0.34
498	0.342
498	0.343
499	0.345
499	0.347
500	0.349
500	0.351
501	0.352
501	0.354
501	0.355
502	0.357
502	0.358
503	0.36
503	0.362
504	0.364
504	0.365
505	0.367
505	0.368
506	0.369
506	0.371
506	0.372
507	0.374
507	0.375
508	0.377
508	0.378
509	0.379
509	0.381
510	0.382
510	0.384
511	0.385
511	0.387
511	0.388
512	0.389
512	0.391
513	0.392
513	0.393
514	0.394
514	0.395
515	0.396
515	0.397
515	0.398
516	0.398
516	0.399
517	0.4
517	0.401
518	0.401
518	0.402
519	0.402
519	0.402
520	0.402
520	0.402
520	0.403
521	0.402
521	0.402
522	0.402
522	0.402
523	0.402
523	0.402
524	0.402
524	0.402
524	0.402
525	0.401
525	0.4
526	0.4
526	0.399
527	0.399
527	0.398
528	0.397
528	0.396
529	0.394
529	0.393
529	0.392
530	0.391
530	0.39
531	0.388
531	0.387
532	0.385
532	0.383
533	0.382
533	0.38
533	0.379
534	0.377
534	0.375
535	0.374
535	0.372
536	0.37
536	0.368
537	0.366
537	0.363
538	0.361
538	0.359
538	0.357
539	0.354
539	0.352
540	0.35
540	0.347
541	0.345
541	0.342
542	0.34
542	0.337
542	0.335
543	0.332
543	0.33
544	0.327
544	0.325
545	0.322
545	0.32
546	0.317
546	0.315
547	0.312
547	0.31
547	0.307
548	0.305
548	0.302
549	0.299
549	0.297
550	0.294
550	0.291
551	0.288
551	0.285
551	0.282
552	0.279
552	0.277
553	0.274
553	0.271
554	0.269
554	0.266
555	0.264
555	0.261
556	0.258
556	0.256
556	0.253
557	0.251
557	0.249
558	0.247
558	0.245
559	0.242
559	0.24
560	0.237
560	0.235
560	0.233
561	0.231
561	0.228
562	0.225
562	0.223
563	0.22
563	0.218
564	0.215
564	0.213
564	0.211
565	0.209
565	0.206
566	0.204
566	0.202
567	0.2
567	0.198
568	0.196
568	0.194
568	0.192
569	0.191
569	0.189
570	0.187
570	0.185
571	0.183
571	0.181
572	0.179
572	0.177
573	0.176
573	0.174
573	0.172
574	0.171
574	0.169
575	0.168
575	0.167
576	0.165
576	0.163
577	0.162
577	0.16
577	0.159
578	0.158
578	0.156
579	0.155
579	0.154
580	0.152
580	0.15
581	0.148
581	0.147
581	0.146
582	0.145
582	0.144
583	0.143
583	0.141
584	0.14
584	0.138
585	0.136
585	0.135
585	0.133
586	0.131
586	0.13
587	0.128
587	0.127
588	0.126
588	0.124
589	0.123
589	0.122
590	0.122
590	0.121
590	0.12
591	0.12
591	0.118
592	0.117
592	0.116
593	0.115
593	0.114
594	0.113
594	0.112
594	0.111
595	0.11
595	0.109
596	0.108
596	0.107
597	0.107
597	0.106
598	0.106
598	0.105
598	0.104
599	0.103
599	0.102
600	0.102
600	0.101
601	0.1
601	0.1
602	0.098
602	0.097
602	0.097
603	0.096
603	0.095
604	0.095
604	0.094
605	0.094
605	0.093
606	0.092
606	0.091
606	0.091
607	0.09
607	0.089
608	0.088
608	0.087
609	0.086
609	0.086
610	0.085
610	0.084
610	0.083
611	0.082
611	0.082
612	0.081
612	0.081
613	0.08
613	0.08
614	0.079
614	0.078
614	0.078
615	0.078
615	0.077
616	0.077
616	0.076
617	0.076
617	0.075
618	0.074
618	0.074
618	0.074
619	0.073
619	0.073
620	0.073
620	0.073
621	0.072
621	0.071
622	0.071
622	0.07
622	0.07
623	0.069
623	0.069
624	0.068
624	0.067
625	0.067
625	0.066
626	0.066
626	0.065
626	0.065
627	0.064
627	0.064
628	0.063
628	0.062
629	0.062
629	0.061
630	0.06
630	0.06
630	0.059
631	0.059
631	0.059
632	0.059
632	0.058
633	0.058
633	0.058
634	0.059
634	0.059
634	0.059
635	0.059
635	0.058
636	0.058
636	0.058
637	0.058
637	0.057
638	0.057
638	0.056
638	0.055
639	0.055
639	0.054
640	0.054
640	0.053
641	0.053
641	0.052
642	0.052
642	0.051
642	0.051
643	0.051
643	0.051
644	0.05
644	0.05
645	0.05
645	0.05
646	0.049
646	0.049
646	0.049
647	0.049
647	0.049
648	0.048
648	0.047
649	0.047
649	0.046
650	0.046
650	0.046
650	0.045
651	0.045
651	0.045
652	0.044
652	0.044
653	0.044
653	0.046
653	0.051
654	0.042
654	0.035
655	0.033
655	0.033
656	0.033
656	0.033
657	0.034
657	0.034
657	0.034
658	0.033
658	0.028
659	0.034
659	0.042
660	0.045
660	0.044
661	0.044
661	0.043
661	0.043
662	0.042
662	0.042
663	0.041
663	0.041
664	0.04
664	0.04
665	0.04
665	0.04
665	0.039
666	0.039
666	0.039
667	0.039
667	0.038
668	0.038
668	0.038
669	0.038
669	0.038
669	0.038
670	0.037
670	0.037
671	0.036
671	0.036
672	0.035
672	0.035
672	0.034
673	0.034
673	0.034
674	0.034
674	0.033
675	0.033
675	0.033
676	0.034
676	0.034
676	0.034
677	0.034
677	0.034
678	0.034
678	0.033
679	0.033
679	0.033
680	0.033
680	0.033
680	0.033
681	0.033
681	0.034
682	0.034
682	0.034
683	0.034
683	0.035
684	0.035
684	0.035
684	0.034
685	0.034
685	0.034
686	0.034
686	0.033
687	0.033
687	0.032
687	0.032
688	0.031
688	0.031
689	0.031
689	0.031
690	0.031
690	0.031
691	0.031
691	0.031
691	0.032
692	0.032
692	0.032
693	0.032
693	0.032
694	0.032
694	0.032
695	0.032
695	0.033
695	0.033
696	0.032
696	0.032
697	0.032
697	0.032
698	0.031
698	0.031
698	0.031
699	0.031
699	0.031
700	0.03
700	0.031
701	0.031
701	0.03
702	0.03
702	0.03
702	0.03
703	0.029
703	0.028
704	0.028
704	0.027
705	0.027
705	0.026
705	0.026
706	0.026
706	0.026
707	0.026
707	0.026
708	0.027
708	0.027
709	0.027
709	0.027
709	0.027
710	0.027
710	0.027
711	0.027
711	0.027
712	0.027
712	0.027
713	0.026
713	0.026
713	0.026
714	0.026
714	0.026
715	0.025
715	0.025
716	0.025
716	0.024
716	0.024
717	0.023
717	0.023
718	0.022
718	0.022
719	0.022
719	0.022
720	0.022
720	0.022
720	0.022
721	0.023
721	0.023
722	0.024
722	0.024
723	0.024
723	0.025
723	0.025
724	0.024
724	0.024
725	0.023
725	0.022
726	0.022
726	0.021
727	0.021
727	0.02
727	0.02
728	0.019
728	0.019
729	0.019
729	0.019
730	0.019
730	0.019
730	0.02
731	0.02
731	0.02
732	0.02
732	0.02
733	0.02
733	0.02
734	0.019
734	0.02
734	0.02
735	0.02
735	0.019
736	0.019
736	0.019
737	0.018
737	0.018
737	0.018
738	0.018
738	0.017
739	0.016
739	0.016
740	0.015
740	0.015
741	0.015
741	0.015
741	0.015
742	0.015
742	0.015
743	0.016
743	0.017
744	0.017
744	0.018
744	0.018
745	0.018
745	0.018
746	0.018
746	0.019
747	0.019
747	0.019
748	0.018
748	0.018
748	0.018
749	0.017
749	0.017
750	0.017
750	0.016
751	0.016
751	0.015
751	0.015
752	0.015
752	0.014
753	0.014
753	0.014
754	0.014
754	0.014
754	0.015
755	0.015
755	0.015
756	0.015
756	0.014
757	0.013
757	0.013
758	0.013
758	0.013
758	0.013
759	0.013
759	0.013
760	0.013
760	0.013
761	0.013
761	0.014
761	0.015
762	0.015
762	0.015
763	0.016
763	0.015
764	0.015
764	0.015
764	0.014
765	0.014
765	0.013
766	0.013
766	0.012
767	0.012
767	0.011
768	0.01
768	0.01
768	0.01
769	0.01
769	0.01
770	0.01
770	0.01
771	0.01
771	0.01
771	0.01
772	0.01
772	0.01
773	0.01
773	0.01
774	0.01
774	0.01
775	0.01
775	0.01
775	0.01
776	0.01
776	0.01
777	0.01
777	0.01
778	0.01
778	0.01
778	0.01
779	0.01
779	0.01
780	0.009
780	0.009
781	0.009
781	0.009
781	0.009
782	0.009
782	0.009
783	0.01
783	0.01
784	0.01
784	0.01
784	0.01
785	0.01
785	0.01
786	0.01
786	0.011
787	0.011
787	0.011
788	0.01
788	0.01
788	0.01
789	0.01
789	0.01
790	0.01
790	0.009
791	0.009
791	0.008
791	0.008
792	0.008
792	0.008
793	0.007
793	0.007
794	0.006
794	0.005
794	0.004
795	0.004
795	0.004
796	0.004
796	0.004
797	0.004
797	0.004
797	0.005
798	0.005
798	0.005
799	0.006
799	0.006
800	0.005
800	0.005
801	0.005
801	0.005
801	0.005
802	0.004
802	0.004
803	0.004
803	0.004
804	0.005
804	0.005
804	0.006
805	0.006
805	0.007
806	0.007
806	0.007
807	0.008
807	0.008
807	0.008
808	0.008
808	0.009
809	0.009
809	0.009
810	0.009
810	0.009
810	0.009
811	0.009
811	0.009
812	0.009
812	0.009
813	0.009
813	0.009
813	0.009
814	0.009
814	0.009
815	0.009
815	0.009
816	0.009
816	0.009
817	0.009
817	0.008
817	0.008
818	0.008
818	0.008
819	0.008
819	0.007
820	0.007
820	0.007
820	0.007
821	0.007
821	0.006
822	0.006
822	0.006
823	0.006
823	0.006
823	0.006
824	0.007
824	0.008
825	0.009
825	0.009
826	0.01
826	0.01
826	0.01
827	0.01
827	0.01
828	0.01
828	0.01
829	0.009
829	0.009
829	0.009
830	0.009
830	0.009
831	0.009
831	0.01
832	0.009
832	0.01
832	0.009
833	0.009
833	0.009
834	0.008
834	0.008
835	0.008
835	0.007
835	0.007
836	0.007
836	0.007
837	0.007
837	0.007
838	0.007
838	0.007
839	0.007
839	0.006
839	0.005
840	0.004
840	0.003
841	0.002
841	0.001
842	0
842	0
842	-0
843	-0
843	-0
844	-0
844	-0
845	-0
845	-0
845	-0
846	-0
846	-0
847	-0
847	0
848	0.001
848	0.002
848	0.002
849	0.003
849	0.004
850	0.004
850	0.005
851	0.005
851	0.005
851	0.005
852	0.004
852	0.004
853	0.003
853	0.003
854	0.003
854	0.003
854	0.004
855	0.004
855	0.005
856	0.005
856	0.005
857	0.006
857	0.006
857	0.006
858	0.006
858	0.005
859	0.005
859	0.004
860	0.003
860	0.002
860	0.002
861	0.001
861	0
862	-0
862	-0.001
863	-0.001
863	-0.001
863	-0.001
864	-0.001
864	-0.001
865	-0.001
865	-0.001
866	-0.001
866	-0.001
866	-0.001
867	-0
867	-0
868	0
868	0
869	0
869	0
869	0
870	0
870	0.001
871	0.001
871	0.002
872	0.002
872	0.003
872	0.003
873	0.003
873	0.003
874	0.003
874	0.003
875	0.003
875	0.003
875	0.003
876	0.003
876	0.003
877	0.002
877	0.002
878	0.002
878	0.003
878	0.003
879	0.004
879	0.004
880	0.004
880	0.004
881	0.004
881	0.004
881	0.004
882	0.004
882	0.003
883	0.002
883	0.002
884	0.001
884	-0
884	-0.001
885	-0.002
885	-0.003
886	-0.004
886	-0.004
887	-0.005
887	-0.006
887	-0.006
888	-0.007
888	-0.007
889	-0.007
889	-0.007
890	-0.007
890	-0.007
890	-0.007
891	-0.006
891	-0.005
892	-0.005
892	-0.004
893	-0.003
893	-0.002
893	-0.001
894	-0.001
894	-0
895	0
895	0
895	0
896	-0
896	-0
897	-0.001
897	-0.002
898	-0.002
898	-0.003
898	-0.003
899	-0.003
899	-0.003
900	-0.003
900	-0.003
901	-0.003
901	-0.003
901	-0.003
902	-0.003
902	-0.003
903	-0.003
903	-0.003
904	-0.003
904	-0.004
904	-0.004
905	-0.004
905	-0.004
906	-0.004
906	-0.004
907	-0.004
907	-0.003
907	-0.003
908	-0.003
908	-0.002
909	-0.002
909	-0.002
910	-0.001
910	-0.001
910	-0.001
911	-0.001
911	-0.001
912	-0.002
912	-0.002
913	-0.001
913	-0.001
913	-0.001
914	-0.001
914	-0.001
915	-0.001
915	-0.002
916	-0.002
916	-0.002
916	-0.003
917	-0.004
917	-0.004
918	-0.005
918	-0.006
918	-0.006
919	-0.006
919	-0.006
920	-0.005
920	-0.005
921	-0.004
921	-0.003
921	-0.002
922	-0.001
922	-0
923	0.001
923	0.001
924	0.002
924	0.002
924	0.003
925	0.003
925	0.003
926	0.003
926	0.003
927	0.003
927	0.003
927	0.002
928	0.002
928	0.002
929	0.002
929	0.001
930	0.001
930	0.001
930	0
931	-0
931	-0
932	-0
932	-0.001
933	-0.001
933	-0.002
933	-0.002
934	-0.002
934	-0.003
935	-0.003
935	-0.003
935	-0.003
936	-0.003
936	-0.003
937	-0.003
937	-0.003
938	-0.003
938	-0.003
938	-0.002
939	-0.002
939	-0.002
940	-0.002
940	-0.001
941	-0.001
941	0
941	0.001
942	0.001
942	0.002
943	0.002
943	0.003
944	0.003
944	0.004
944	0.005
945	0.005
945	0.005
946	0.006
946	0.006
946	0.006
947	0.006
947	0.006
948	0.006
948	0.006
949	0.005
949	0.005
949	0.005
950	0.004
950	0.004
951	0.003
951	0.003
952	0.002
952	0.001
952	0.001
953	-0
953	-0.001
954	-0.002
954	-0.002
955	-0.003
955	-0.004
955	-0.004
956	-0.004
956	-0.004
957	-0.004
957	-0.004
957	-0.004
958	-0.004
958	-0.003
959	-0.003
959	-0.003
960	-0.002
960	-0.002
960	-0.001
961	-0.001
961	-0.001
962	-0.001
962	-0.001
963	-0
963	-0
963	-0
964	0
964	0
965	0.001
965	0.001
966	0.002
966	0.002
966	0.003
967	0.003
967	0.004
968	0.005
968	0.005
968	0.005
969	0.005
969	0.005
970	0.005
970	0.004
971	0.004
971	0.003
971	0.003
972	0.002
972	0.002
973	0.001
973	0.001
974	0.001
974	0.001
974	0.001
975	0.001
975	0.002
976	0.002
976	0.002
976	0.002
977	0.002
977	0.002
978	0.002
978	0.002
979	0.001
979	0.001
979	0
980	-0
980	-0.001
981	-0.002
981	-0.002
982	-0.003
982	-0.003
982	-0.004
983	-0.004
983	-0.005
984	-0.005
984	-0.005
984	-0.006
985	-0.006
985	-0.006
986	-0.006
986	-0.006
987	-0.006
987	-0.006
987	-0.007
988	-0.007
988	-0.007
989	-0.007
989	-0.008
990	-0.008
990	-0.008
990	-0.008
991	-0.008
991	-0.008
992	-0.008
992	-0.008
992	-0.008
993	-0.008
993	-0.008
994	-0.008
994	-0.008
995	-0.008
995	-0.008
995	-0.008
996	-0.007
996	-0.007
997	-0.006
997	-0.005
997	-0.004
998	-0.003
998	-0.002
999	-0.001
999	0
1000	0.001
1000	0.002
1000	0.002
1001	0.002
1001	0.002
1002	0.002
1002	0.001
1003	0.001
1003	0.001
1003	-0
1004	-0.001
1004	-0.002
1005	-0.002
1005	-0.003
1005	-0.003
1006	-0.004
1006	-0.004
1007	-0.004
1007	-0.005
1008	-0.005
1008	-0.004
1008	-0.004
1009	-0.004
1009	-0.004
1010	-0.004
1010	-0.003
1010	-0.003
1011	-0.003
1011	-0.003
1012	-0.003
1012	-0.003
1013	-0.003
1013	-0.003
1013	-0.003
1014	-0.003
1014	-0.003
1015	-0.003
1015	-0.003
1016	-0.003
1016	-0.003
1016	-0.004
1017	-0.004
1017	-0.004
1018	-0.004
1018	-0.004
1018	-0.004
1019	-0.004
1019	-0.004
1020	-0.004
1020	-0.004
1021	-0.004
1021	-0.004
1021	-0.004
1022	-0.004
1022	-0.004
1023	-0.005
1023	-0.005
1023	-0.005
1024	-0.005
1024	-0.006
1025	-0.006
1025	-0.007
1026	-0.007
1026	-0.008
1026	-0.009
1027	-0.009
1027	-0.01
1028	-0.01
1028	-0.01
1028	-0.011
1029	-0.011
1029	-0.011
1030	-0.011
1030	-0.011
1031	-0.011
1031	-0.011
1031	-0.01
1032	-0.01
1032	-0.01
1033	-0.01
1033	-0.01
1033	-0.01
1034	-0.011
1034	-0.011
1035	-0.011
1035	-0.012
1036	-0.012
1036	-0.012
1036	-0.012
1037	-0.013
1037	-0.013
1038	-0.013
1038	-0.013
1039	-0.013
1039	-0.013
1039	-0.013
1040	-0.013
1040	-0.012
1041	-0.012
1041	-0.012
1041	-0.011
1042	-0.011
1042	-0.01
1043	-0.01
1043	-0.01
1044	-0.009
1044	-0.009
1044	-0.008
1045	-0.008
1045	-0.007
1046	-0.007
1046	-0.006
1046	-0.006
1047	-0.005
1047	-0.005
1048	-0.004
1048	-0.003
1049	-0.003
1049	-0.003
1049	-0.003
1050	-0.003
1050	-0.003
1051	-0.004
1051	-0.004
1051	-0.004
1052	-0.005
1052	-0.006
1053	-0.006
1053	-0.007
1053	-0.008
1054	-0.008
1054	-0.009
1055	-0.009
1055	-0.009
1056	-0.01
1056	-0.01
1056	-0.011
1057	-0.011
1057	-0.011
1058	-0.011
1058	-0.012
1058	-0.012
1059	-0.013
1059	-0.013
1060	-0.013
1060	-0.014
1061	-0.014
1061	-0.014
1061	-0.014
1062	-0.015
1062	-0.015
1063	-0.015
1063	-0.015
1063	-0.015
1064	-0.016
1064	-0.016
1065	-0.017
1065	-0.017
1066	-0.017
1066	-0.017
1066	-0.017
1067	-0.018
1067	-0.018
1068	-0.018
1068	-0.018
1068	-0.018
1069	-0.018
1069	-0.018
1070	-0.019
1070	-0.019
1071	-0.02
1071	-0.02
1071	-0.021
1072	-0.021
1072	-0.021
1073	-0.022
1073	-0.022
1073	-0.022
1074	-0.022
1074	-0.022
1075	-0.022
1075	-0.021
1076	-0.021
1076	-0.02
1076	-0.02
1077	-0.019
1077	-0.019
1078	-0.018
1078	-0.018
1078	-0.017
1079	-0.017
1079	-0.017
1080	-0.017
1080	-0.016
1080	-0.016
1081	-0.016
1081	-0.016
1082	-0.015
1082	-0.015
1083	-0.015
1083	-0.015
1083	-0.016
1084	-0.016
1084	-0.016
1085	-0.016
1085	-0.017
1085	-0.017
1086	-0.017
1086	-0.018
1087	-0.019
1087	-0.02
1088	-0.02
1088	-0.02
1088	-0.02
1089	-0.02
1089	-0.021
1090	-0.021
1090	-0.022
1090	-0.022
1091	-0.022
1091	-0.022
1092	-0.021
1092	-0.021
1092	-0.021
1093	-0.022
1093	-0.021
1094	-0.021
1094	-0.021
1095	-0.021
1095	-0.021
1095	-0.021
1096	-0.022
1096	-0.023
1097	-0.023
1097	-0.023
1097	-0.023
1098	-0.024
1098	-0.024
1099	-0.025
1099	-0.026
1100	-0.027
1100	-0.028
1100	-0.029
1101	-0.029
1101	-0.031
1102	-0.031
1102	-0.032
1102	-0.033
1103	-0.034
1103	-0.033
1104	-0.034
1104	-0.034
1104	-0.035
1105	-0.036
1105	-0.037
1106	-0.038
1106	-0.039
1107	-0.039
1107	-0.04
1107	-0.041
1108	-0.043
1108	-0.044
1109	-0.045
1109	-0.045
1109	-0.044
1110	-0.042
1110	-0.042
1111	-0.043
1111	-0.046
