Data from reversibility-20sec_Absorbance__2499__000000000002499.txt Node

Date: Wed Dec 06 02:06:06 CET 2023
User: Marek
Spectrometer: MAYP115816
Trigger mode: 0
Integration Time (sec): 2.000000E-1
Scans to average: 10
Electric dark correction enabled: true
Nonlinearity correction enabled: true
Boxcar width: 5
XAxis mode: Wavelengths
Number of Pixels in Spectrum: 2068
>>>>>Begin Spectral Data<<<<<
199	-0.195
199	-0.17
200	-0.093
200	-0.038
201	-0.008
201	0.007
202	0.022
202	0.031
203	0.039
203	0.043
204	0.056
204	0.07
205	0.086
205	0.093
205	0.091
206	0.091
206	0.094
207	0.095
207	0.094
208	0.092
208	0.093
209	0.097
209	0.095
210	0.094
210	0.093
211	0.093
211	0.096
212	0.091
212	0.095
213	0.099
213	0.103
213	0.101
214	0.103
214	0.105
215	0.106
215	0.106
216	0.109
216	0.11
217	0.115
217	0.114
218	0.111
218	0.114
219	0.12
219	0.117
220	0.119
220	0.12
221	0.12
221	0.12
221	0.123
222	0.128
222	0.133
223	0.139
223	0.144
224	0.149
224	0.16
225	0.169
225	0.18
226	0.192
226	0.202
227	0.215
227	0.223
228	0.238
228	0.255
229	0.269
229	0.291
229	0.314
230	0.341
230	0.369
231	0.401
231	0.441
232	0.478
232	0.525
233	0.571
233	0.622
234	0.673
234	0.727
235	0.781
235	0.832
236	0.887
236	0.941
236	0.995
237	1.046
237	1.095
238	1.144
238	1.193
239	1.242
239	1.287
240	1.33
240	1.372
241	1.411
241	1.448
242	1.48
242	1.519
243	1.553
243	1.582
243	1.607
244	1.634
244	1.659
245	1.679
245	1.703
246	1.725
246	1.744
247	1.761
247	1.776
248	1.793
248	1.811
249	1.825
249	1.835
250	1.847
250	1.859
250	1.868
251	1.876
251	1.882
252	1.892
252	1.897
253	1.901
253	1.903
254	1.904
254	1.91
255	1.908
255	1.911
256	1.911
256	1.914
257	1.916
257	1.918
258	1.917
258	1.919
258	1.918
259	1.92
259	1.92
260	1.921
260	1.924
261	1.926
261	1.93
262	1.932
262	1.934
263	1.941
263	1.943
264	1.945
264	1.949
265	1.952
265	1.954
265	1.956
266	1.956
266	1.957
267	1.956
267	1.956
268	1.955
268	1.957
269	1.961
269	1.96
270	1.959
270	1.959
271	1.956
271	1.957
272	1.954
272	1.953
272	1.95
273	1.945
273	1.94
274	1.934
274	1.929
275	1.922
275	1.916
276	1.91
276	1.904
277	1.897
277	1.888
278	1.876
278	1.865
278	1.85
279	1.835
279	1.815
280	1.792
280	1.763
281	1.727
281	1.687
282	1.645
282	1.602
283	1.561
283	1.519
284	1.479
284	1.441
285	1.404
285	1.369
285	1.338
286	1.311
286	1.288
287	1.267
287	1.249
288	1.233
288	1.219
289	1.208
289	1.197
290	1.188
290	1.181
291	1.174
291	1.168
292	1.162
292	1.157
292	1.152
293	1.147
293	1.143
294	1.139
294	1.135
295	1.132
295	1.128
296	1.124
296	1.12
297	1.117
297	1.114
298	1.111
298	1.107
298	1.104
299	1.101
299	1.098
300	1.095
300	1.091
301	1.088
301	1.086
302	1.082
302	1.08
303	1.077
303	1.074
304	1.072
304	1.069
305	1.066
305	1.063
305	1.061
306	1.058
306	1.055
307	1.052
307	1.049
308	1.046
308	1.043
309	1.039
309	1.036
310	1.033
310	1.029
311	1.026
311	1.022
311	1.019
312	1.015
312	1.011
313	1.007
313	1.003
314	0.999
314	0.995
315	0.991
315	0.986
316	0.981
316	0.977
317	0.972
317	0.967
318	0.962
318	0.956
318	0.95
319	0.945
319	0.939
320	0.933
320	0.927
321	0.921
321	0.915
322	0.908
322	0.902
323	0.895
323	0.889
324	0.883
324	0.876
324	0.869
325	0.862
325	0.855
326	0.848
326	0.841
327	0.834
327	0.827
328	0.82
328	0.813
329	0.806
329	0.799
330	0.791
330	0.785
330	0.777
331	0.771
331	0.763
332	0.756
332	0.749
333	0.742
333	0.735
334	0.728
334	0.721
335	0.714
335	0.707
336	0.7
336	0.693
336	0.687
337	0.68
337	0.674
338	0.667
338	0.661
339	0.655
339	0.649
340	0.643
340	0.638
341	0.632
341	0.626
342	0.621
342	0.615
342	0.61
343	0.605
343	0.599
344	0.594
344	0.589
345	0.584
345	0.579
346	0.575
346	0.57
347	0.566
347	0.562
348	0.557
348	0.553
348	0.549
349	0.546
349	0.542
350	0.538
350	0.534
351	0.531
351	0.527
352	0.524
352	0.521
353	0.517
353	0.514
354	0.511
354	0.508
354	0.505
355	0.502
355	0.499
356	0.496
356	0.493
357	0.489
357	0.486
358	0.484
358	0.481
359	0.478
359	0.476
360	0.473
360	0.471
360	0.469
361	0.467
361	0.464
362	0.463
362	0.461
363	0.459
363	0.457
364	0.455
364	0.453
365	0.451
365	0.449
366	0.447
366	0.445
366	0.444
367	0.442
367	0.44
368	0.438
368	0.436
369	0.434
369	0.433
370	0.431
370	0.429
371	0.428
371	0.426
372	0.424
372	0.423
372	0.422
373	0.42
373	0.419
374	0.418
374	0.417
375	0.416
375	0.414
376	0.413
376	0.412
377	0.41
377	0.409
378	0.408
378	0.406
378	0.405
379	0.404
379	0.403
380	0.402
380	0.401
381	0.4
381	0.399
382	0.398
382	0.398
383	0.397
383	0.396
383	0.395
384	0.394
384	0.393
385	0.392
385	0.392
386	0.391
386	0.39
387	0.389
387	0.389
388	0.388
388	0.387
389	0.387
389	0.386
389	0.385
390	0.385
390	0.384
391	0.384
391	0.383
392	0.383
392	0.382
393	0.381
393	0.381
394	0.38
394	0.379
394	0.379
395	0.378
395	0.378
396	0.377
396	0.377
397	0.376
397	0.375
398	0.375
398	0.374
399	0.374
399	0.373
400	0.373
400	0.372
400	0.371
401	0.371
401	0.37
402	0.37
402	0.369
403	0.368
403	0.368
404	0.367
404	0.367
405	0.367
405	0.366
405	0.366
406	0.365
406	0.365
407	0.364
407	0.364
408	0.363
408	0.363
409	0.363
409	0.362
410	0.362
410	0.361
411	0.361
411	0.36
411	0.36
412	0.359
412	0.359
413	0.358
413	0.358
414	0.357
414	0.357
415	0.356
415	0.356
416	0.356
416	0.356
416	0.355
417	0.355
417	0.355
418	0.355
418	0.354
419	0.354
419	0.353
420	0.353
420	0.352
421	0.352
421	0.351
421	0.351
422	0.351
422	0.35
423	0.35
423	0.35
424	0.349
424	0.349
425	0.348
425	0.348
426	0.348
426	0.347
427	0.347
427	0.346
427	0.346
428	0.346
428	0.345
429	0.345
429	0.345
430	0.344
430	0.344
431	0.344
431	0.344
432	0.344
432	0.344
432	0.343
433	0.343
433	0.343
434	0.343
434	0.343
435	0.343
435	0.343
436	0.343
436	0.342
437	0.342
437	0.342
437	0.342
438	0.342
438	0.341
439	0.341
439	0.341
440	0.341
440	0.34
441	0.34
441	0.34
442	0.34
442	0.339
442	0.339
443	0.339
443	0.339
444	0.339
444	0.338
445	0.339
445	0.338
446	0.338
446	0.338
447	0.338
447	0.338
447	0.338
448	0.338
448	0.337
449	0.337
449	0.337
450	0.337
450	0.337
451	0.337
451	0.337
452	0.337
452	0.337
452	0.337
453	0.338
453	0.338
454	0.337
454	0.337
455	0.337
455	0.337
456	0.337
456	0.337
457	0.337
457	0.337
458	0.337
458	0.337
458	0.337
459	0.337
459	0.337
460	0.338
460	0.338
461	0.338
461	0.338
462	0.338
462	0.338
463	0.338
463	0.338
463	0.338
464	0.338
464	0.338
465	0.338
465	0.338
466	0.338
466	0.339
467	0.339
467	0.339
467	0.339
468	0.34
468	0.34
469	0.341
469	0.341
470	0.342
470	0.343
471	0.343
471	0.343
472	0.344
472	0.344
472	0.345
473	0.346
473	0.346
474	0.346
474	0.347
475	0.347
475	0.348
476	0.348
476	0.349
477	0.349
477	0.35
477	0.35
478	0.351
478	0.351
479	0.352
479	0.353
480	0.353
480	0.354
481	0.355
481	0.355
482	0.356
482	0.357
482	0.358
483	0.359
483	0.36
484	0.361
484	0.362
485	0.363
485	0.364
486	0.365
486	0.366
487	0.366
487	0.368
487	0.369
488	0.369
488	0.37
489	0.371
489	0.373
490	0.374
490	0.376
491	0.377
491	0.379
492	0.38
492	0.381
492	0.383
493	0.384
493	0.386
494	0.388
494	0.389
495	0.391
495	0.392
496	0.394
496	0.395
496	0.397
497	0.398
497	0.399
498	0.401
498	0.402
499	0.404
499	0.405
500	0.407
500	0.409
501	0.411
501	0.412
501	0.414
502	0.415
502	0.417
503	0.418
503	0.42
504	0.422
504	0.423
505	0.424
505	0.426
506	0.427
506	0.428
506	0.43
507	0.431
507	0.432
508	0.433
508	0.435
509	0.436
509	0.437
510	0.438
510	0.44
511	0.441
511	0.443
511	0.444
512	0.445
512	0.446
513	0.447
513	0.448
514	0.449
514	0.451
515	0.452
515	0.453
515	0.453
516	0.454
516	0.455
517	0.456
517	0.456
518	0.457
518	0.457
519	0.457
519	0.457
520	0.457
520	0.457
520	0.457
521	0.457
521	0.457
522	0.457
522	0.457
523	0.457
523	0.456
524	0.456
524	0.456
524	0.456
525	0.455
525	0.455
526	0.454
526	0.454
527	0.453
527	0.452
528	0.451
528	0.45
529	0.449
529	0.448
529	0.447
530	0.446
530	0.444
531	0.443
531	0.441
532	0.44
532	0.438
533	0.437
533	0.435
533	0.433
534	0.431
534	0.43
535	0.428
535	0.426
536	0.424
536	0.422
537	0.42
537	0.418
538	0.416
538	0.414
538	0.412
539	0.41
539	0.408
540	0.406
540	0.403
541	0.401
541	0.399
542	0.397
542	0.394
542	0.392
543	0.389
543	0.387
544	0.384
544	0.382
545	0.379
545	0.377
546	0.375
546	0.372
547	0.369
547	0.366
547	0.363
548	0.361
548	0.359
549	0.356
549	0.354
550	0.351
550	0.348
551	0.346
551	0.343
551	0.341
552	0.339
552	0.336
553	0.334
553	0.331
554	0.329
554	0.326
555	0.324
555	0.321
556	0.318
556	0.315
556	0.313
557	0.311
557	0.309
558	0.306
558	0.304
559	0.301
559	0.299
560	0.297
560	0.295
560	0.293
561	0.291
561	0.289
562	0.286
562	0.283
563	0.281
563	0.279
564	0.276
564	0.274
564	0.272
565	0.27
565	0.268
566	0.266
566	0.263
567	0.262
567	0.26
568	0.258
568	0.256
568	0.254
569	0.252
569	0.25
570	0.248
570	0.246
571	0.245
571	0.243
572	0.241
572	0.239
573	0.238
573	0.236
573	0.234
574	0.233
574	0.231
575	0.23
575	0.229
576	0.227
576	0.225
577	0.223
577	0.222
577	0.221
578	0.219
578	0.218
579	0.217
579	0.216
580	0.214
580	0.212
581	0.21
581	0.209
581	0.208
582	0.207
582	0.206
583	0.205
583	0.204
584	0.202
584	0.2
585	0.198
585	0.197
585	0.196
586	0.195
586	0.193
587	0.192
587	0.191
588	0.189
588	0.188
589	0.187
589	0.187
590	0.186
590	0.185
590	0.184
591	0.183
591	0.182
592	0.181
592	0.179
593	0.178
593	0.177
594	0.176
594	0.175
594	0.174
595	0.173
595	0.172
596	0.171
596	0.17
597	0.17
597	0.17
598	0.169
598	0.168
598	0.168
599	0.167
599	0.166
600	0.165
600	0.164
601	0.164
601	0.163
602	0.162
602	0.161
602	0.16
603	0.159
603	0.158
604	0.158
604	0.157
605	0.157
605	0.156
606	0.155
606	0.154
606	0.153
607	0.153
607	0.152
608	0.151
608	0.15
609	0.15
609	0.149
610	0.148
610	0.147
610	0.147
611	0.146
611	0.146
612	0.145
612	0.145
613	0.145
613	0.145
614	0.144
614	0.143
614	0.142
615	0.142
615	0.141
616	0.141
616	0.141
617	0.14
617	0.139
618	0.139
618	0.138
618	0.138
619	0.138
619	0.138
620	0.138
620	0.138
621	0.137
621	0.136
622	0.136
622	0.135
622	0.134
623	0.133
623	0.133
624	0.132
624	0.131
625	0.13
625	0.129
626	0.129
626	0.128
626	0.128
627	0.128
627	0.127
628	0.127
628	0.126
629	0.126
629	0.126
630	0.125
630	0.125
630	0.125
631	0.125
631	0.124
632	0.124
632	0.123
633	0.123
633	0.123
634	0.122
634	0.122
634	0.122
635	0.121
635	0.121
636	0.121
636	0.12
637	0.12
637	0.119
638	0.119
638	0.119
638	0.118
639	0.117
639	0.116
640	0.116
640	0.116
641	0.115
641	0.115
642	0.115
642	0.114
642	0.114
643	0.114
643	0.114
644	0.114
644	0.114
645	0.114
645	0.114
646	0.114
646	0.114
646	0.113
647	0.113
647	0.113
648	0.112
648	0.111
649	0.111
649	0.111
650	0.111
650	0.11
650	0.11
651	0.11
651	0.11
652	0.11
652	0.11
653	0.11
653	0.112
653	0.118
654	0.094
654	0.077
655	0.075
655	0.074
656	0.075
656	0.075
657	0.075
657	0.075
657	0.075
658	0.074
658	0.066
659	0.082
659	0.103
660	0.109
660	0.109
661	0.108
661	0.107
661	0.106
662	0.105
662	0.105
663	0.104
663	0.103
664	0.102
664	0.102
665	0.101
665	0.101
665	0.101
666	0.101
666	0.101
667	0.101
667	0.102
668	0.102
668	0.102
669	0.103
669	0.103
669	0.103
670	0.103
670	0.103
671	0.103
671	0.102
672	0.102
672	0.101
672	0.1
673	0.1
673	0.099
674	0.099
674	0.098
675	0.098
675	0.098
676	0.098
676	0.098
676	0.098
677	0.098
677	0.098
678	0.098
678	0.097
679	0.097
679	0.097
680	0.097
680	0.097
680	0.096
681	0.096
681	0.096
682	0.096
682	0.096
683	0.096
683	0.096
684	0.096
684	0.096
684	0.095
685	0.095
685	0.095
686	0.095
686	0.095
687	0.095
687	0.095
687	0.094
688	0.094
688	0.094
689	0.094
689	0.094
690	0.094
690	0.094
691	0.094
691	0.094
691	0.094
692	0.094
692	0.094
693	0.094
693	0.094
694	0.093
694	0.093
695	0.093
695	0.093
695	0.093
696	0.092
696	0.092
697	0.092
697	0.092
698	0.091
698	0.091
698	0.091
699	0.091
699	0.09
700	0.09
700	0.09
701	0.09
701	0.09
702	0.089
702	0.089
702	0.089
703	0.089
703	0.088
704	0.088
704	0.088
705	0.088
705	0.087
705	0.087
706	0.087
706	0.087
707	0.086
707	0.086
708	0.086
708	0.086
709	0.086
709	0.086
709	0.085
710	0.085
710	0.085
711	0.085
711	0.085
712	0.084
712	0.084
713	0.084
713	0.084
713	0.084
714	0.084
714	0.084
715	0.083
715	0.083
716	0.082
716	0.082
716	0.082
717	0.081
717	0.08
718	0.08
718	0.079
719	0.079
719	0.079
720	0.079
720	0.08
720	0.08
721	0.08
721	0.08
722	0.08
722	0.08
723	0.081
723	0.081
723	0.081
724	0.081
724	0.081
725	0.08
725	0.08
726	0.079
726	0.079
727	0.078
727	0.078
727	0.077
728	0.077
728	0.076
729	0.077
729	0.076
730	0.077
730	0.077
730	0.077
731	0.078
731	0.078
732	0.079
732	0.079
733	0.079
733	0.079
734	0.079
734	0.079
734	0.078
735	0.078
735	0.077
736	0.076
736	0.076
737	0.075
737	0.074
737	0.073
738	0.072
738	0.071
739	0.071
739	0.071
740	0.07
740	0.07
741	0.07
741	0.07
741	0.071
742	0.071
742	0.071
743	0.072
743	0.072
744	0.073
744	0.073
744	0.072
745	0.072
745	0.072
746	0.072
746	0.072
747	0.072
747	0.072
748	0.072
748	0.072
748	0.073
749	0.073
749	0.073
750	0.074
750	0.074
751	0.074
751	0.074
751	0.074
752	0.073
752	0.073
753	0.072
753	0.072
754	0.071
754	0.07
754	0.07
755	0.07
755	0.069
756	0.068
756	0.067
757	0.067
757	0.067
758	0.067
758	0.067
758	0.067
759	0.067
759	0.067
760	0.067
760	0.067
761	0.068
761	0.068
761	0.069
762	0.069
762	0.069
763	0.069
763	0.069
764	0.069
764	0.069
764	0.068
765	0.068
765	0.068
766	0.068
766	0.068
767	0.067
767	0.066
768	0.066
768	0.066
768	0.065
769	0.065
769	0.065
770	0.065
770	0.065
771	0.065
771	0.065
771	0.065
772	0.065
772	0.065
773	0.066
773	0.066
774	0.066
774	0.066
775	0.067
775	0.067
775	0.067
776	0.067
776	0.067
777	0.067
777	0.067
778	0.067
778	0.066
778	0.066
779	0.065
779	0.065
780	0.064
780	0.063
781	0.063
781	0.063
781	0.062
782	0.062
782	0.062
783	0.062
783	0.063
784	0.062
784	0.062
784	0.063
785	0.063
785	0.063
786	0.063
786	0.063
787	0.063
787	0.062
788	0.062
788	0.062
788	0.061
789	0.061
789	0.061
790	0.061
790	0.061
791	0.061
791	0.061
791	0.061
792	0.062
792	0.062
793	0.061
793	0.061
794	0.061
794	0.061
794	0.061
795	0.061
795	0.061
796	0.061
796	0.061
797	0.061
797	0.061
797	0.061
798	0.061
798	0.061
799	0.061
799	0.061
800	0.06
800	0.059
801	0.058
801	0.058
801	0.057
802	0.057
802	0.057
803	0.056
803	0.056
804	0.056
804	0.056
804	0.056
805	0.057
805	0.057
806	0.057
806	0.057
807	0.057
807	0.057
807	0.057
808	0.057
808	0.058
809	0.057
809	0.058
810	0.058
810	0.058
810	0.059
811	0.059
811	0.059
812	0.06
812	0.06
813	0.06
813	0.061
813	0.061
814	0.061
814	0.061
815	0.061
815	0.061
816	0.061
816	0.06
817	0.06
817	0.059
817	0.059
818	0.059
818	0.059
819	0.059
819	0.058
820	0.058
820	0.058
820	0.057
821	0.058
821	0.057
822	0.057
822	0.057
823	0.057
823	0.057
823	0.057
824	0.058
824	0.059
825	0.06
825	0.06
826	0.061
826	0.06
826	0.061
827	0.061
827	0.061
828	0.061
828	0.06
829	0.06
829	0.06
829	0.059
830	0.059
830	0.059
831	0.059
831	0.059
832	0.059
832	0.059
832	0.059
833	0.059
833	0.059
834	0.058
834	0.058
835	0.058
835	0.058
835	0.058
836	0.058
836	0.058
837	0.059
837	0.059
838	0.059
838	0.059
839	0.059
839	0.059
839	0.058
840	0.058
840	0.057
841	0.056
841	0.054
842	0.054
842	0.053
842	0.052
843	0.051
843	0.051
844	0.051
844	0.051
845	0.051
845	0.051
845	0.051
846	0.052
846	0.052
847	0.052
847	0.053
848	0.053
848	0.054
848	0.054
849	0.054
849	0.054
850	0.055
850	0.055
851	0.055
851	0.054
851	0.054
852	0.053
852	0.053
853	0.053
853	0.052
854	0.052
854	0.053
854	0.053
855	0.054
855	0.055
856	0.056
856	0.057
857	0.058
857	0.058
857	0.059
858	0.059
858	0.059
859	0.059
859	0.058
860	0.058
860	0.057
860	0.056
861	0.055
861	0.054
862	0.053
862	0.052
863	0.052
863	0.051
863	0.051
864	0.05
864	0.05
865	0.05
865	0.05
866	0.05
866	0.05
866	0.05
867	0.05
867	0.05
868	0.05
868	0.05
869	0.05
869	0.05
869	0.05
870	0.05
870	0.05
871	0.05
871	0.051
872	0.051
872	0.051
872	0.051
873	0.051
873	0.05
874	0.05
874	0.05
875	0.049
875	0.049
875	0.049
876	0.049
876	0.048
877	0.048
877	0.049
878	0.049
878	0.05
878	0.051
879	0.051
879	0.052
880	0.053
880	0.053
881	0.054
881	0.054
881	0.054
882	0.054
882	0.054
883	0.053
883	0.053
884	0.053
884	0.052
884	0.052
885	0.051
885	0.05
886	0.05
886	0.049
887	0.049
887	0.049
887	0.048
888	0.048
888	0.047
889	0.047
889	0.047
890	0.048
890	0.048
890	0.048
891	0.048
891	0.048
892	0.049
892	0.049
893	0.049
893	0.05
893	0.05
894	0.05
894	0.05
895	0.05
895	0.05
895	0.05
896	0.049
896	0.049
897	0.048
897	0.048
898	0.047
898	0.047
898	0.046
899	0.046
899	0.046
900	0.046
900	0.046
901	0.047
901	0.047
901	0.047
902	0.048
902	0.048
903	0.048
903	0.048
904	0.048
904	0.048
904	0.048
905	0.048
905	0.048
906	0.048
906	0.049
907	0.049
907	0.049
907	0.05
908	0.05
908	0.05
909	0.05
909	0.05
910	0.05
910	0.05
910	0.05
911	0.049
911	0.049
912	0.049
912	0.049
913	0.049
913	0.049
913	0.049
914	0.049
914	0.049
915	0.05
915	0.05
916	0.05
916	0.049
916	0.049
917	0.048
917	0.048
918	0.048
918	0.047
918	0.046
919	0.046
919	0.045
920	0.045
920	0.044
921	0.043
921	0.043
921	0.042
922	0.042
922	0.041
923	0.041
923	0.041
924	0.041
924	0.042
924	0.042
925	0.043
925	0.043
926	0.044
926	0.045
927	0.045
927	0.046
927	0.046
928	0.046
928	0.047
929	0.047
929	0.047
930	0.047
930	0.047
930	0.047
931	0.048
931	0.048
932	0.048
932	0.049
933	0.049
933	0.05
933	0.05
934	0.05
934	0.05
935	0.05
935	0.05
935	0.049
936	0.049
936	0.049
937	0.048
937	0.048
938	0.048
938	0.047
938	0.047
939	0.047
939	0.046
940	0.046
940	0.047
941	0.047
941	0.047
941	0.047
942	0.047
942	0.047
943	0.047
943	0.047
944	0.047
944	0.048
944	0.048
945	0.048
945	0.049
946	0.049
946	0.049
946	0.049
947	0.05
947	0.05
948	0.05
948	0.05
949	0.05
949	0.051
949	0.051
950	0.05
950	0.05
951	0.05
951	0.049
952	0.049
952	0.048
952	0.047
953	0.046
953	0.046
954	0.045
954	0.044
955	0.044
955	0.043
955	0.042
956	0.042
956	0.042
957	0.042
957	0.042
957	0.043
958	0.043
958	0.043
959	0.044
959	0.044
960	0.044
960	0.045
960	0.045
961	0.045
961	0.046
962	0.046
962	0.046
963	0.046
963	0.046
963	0.046
964	0.047
964	0.047
965	0.048
965	0.048
966	0.049
966	0.049
966	0.05
967	0.051
967	0.052
968	0.053
968	0.053
968	0.053
969	0.054
969	0.054
970	0.054
970	0.053
971	0.053
971	0.053
971	0.052
972	0.052
972	0.052
973	0.051
973	0.051
974	0.051
974	0.051
974	0.052
975	0.052
975	0.052
976	0.052
976	0.053
976	0.053
977	0.053
977	0.053
978	0.053
978	0.053
979	0.053
979	0.053
979	0.053
980	0.053
980	0.053
981	0.052
981	0.052
982	0.052
982	0.052
982	0.052
983	0.051
983	0.051
984	0.05
984	0.05
984	0.049
985	0.049
985	0.048
986	0.048
986	0.047
987	0.046
987	0.046
987	0.045
988	0.045
988	0.044
989	0.044
989	0.044
990	0.043
990	0.043
990	0.042
991	0.041
991	0.041
992	0.04
992	0.04
992	0.039
993	0.038
993	0.038
994	0.037
994	0.037
995	0.037
995	0.037
995	0.037
996	0.038
996	0.038
997	0.039
997	0.04
997	0.041
998	0.041
998	0.042
999	0.043
999	0.044
1000	0.045
1000	0.046
1000	0.046
1001	0.046
1001	0.046
1002	0.046
1002	0.046
1003	0.046
1003	0.045
1003	0.044
1004	0.043
1004	0.042
1005	0.042
1005	0.041
1005	0.04
1006	0.04
1006	0.039
1007	0.039
1007	0.039
1008	0.039
1008	0.039
1008	0.039
1009	0.039
1009	0.039
1010	0.039
1010	0.039
1010	0.04
1011	0.04
1011	0.04
1012	0.04
1012	0.04
1013	0.04
1013	0.04
1013	0.04
1014	0.039
1014	0.039
1015	0.039
1015	0.039
1016	0.039
1016	0.039
1016	0.038
1017	0.038
1017	0.038
1018	0.038
1018	0.038
1018	0.037
1019	0.037
1019	0.037
1020	0.037
1020	0.037
1021	0.038
1021	0.038
1021	0.038
1022	0.038
1022	0.038
1023	0.039
1023	0.039
1023	0.039
1024	0.039
1024	0.039
1025	0.039
1025	0.039
1026	0.039
1026	0.038
1026	0.038
1027	0.037
1027	0.037
1028	0.037
1028	0.036
1028	0.036
1029	0.036
1029	0.036
1030	0.036
1030	0.036
1031	0.036
1031	0.037
1031	0.037
1032	0.037
1032	0.037
1033	0.038
1033	0.038
1033	0.038
1034	0.038
1034	0.038
1035	0.038
1035	0.037
1036	0.037
1036	0.037
1036	0.037
1037	0.037
1037	0.037
1038	0.037
1038	0.037
1039	0.037
1039	0.037
1039	0.038
1040	0.038
1040	0.039
1041	0.039
1041	0.04
1041	0.04
1042	0.041
1042	0.041
1043	0.041
1043	0.042
1044	0.042
1044	0.042
1044	0.043
1045	0.043
1045	0.043
1046	0.044
1046	0.044
1046	0.044
1047	0.045
1047	0.045
1048	0.046
1048	0.047
1049	0.047
1049	0.048
1049	0.048
1050	0.048
1050	0.049
1051	0.049
1051	0.049
1051	0.049
1052	0.048
1052	0.048
1053	0.047
1053	0.047
1053	0.046
1054	0.045
1054	0.045
1055	0.044
1055	0.044
1056	0.043
1056	0.042
1056	0.042
1057	0.041
1057	0.04
1058	0.039
1058	0.038
1058	0.037
1059	0.036
1059	0.035
1060	0.035
1060	0.034
1061	0.033
1061	0.033
1061	0.032
1062	0.032
1062	0.032
1063	0.032
1063	0.032
1063	0.031
1064	0.031
1064	0.031
1065	0.031
1065	0.031
1066	0.031
1066	0.031
1066	0.031
1067	0.031
1067	0.031
1068	0.031
1068	0.031
1068	0.031
1069	0.031
1069	0.03
1070	0.03
1070	0.029
1071	0.028
1071	0.028
1071	0.027
1072	0.027
1072	0.026
1073	0.026
1073	0.025
1073	0.024
1074	0.025
1074	0.025
1075	0.025
1075	0.026
1076	0.026
1076	0.027
1076	0.027
1077	0.027
1077	0.028
1078	0.028
1078	0.029
1078	0.029
1079	0.029
1079	0.029
1080	0.03
1080	0.03
1080	0.03
1081	0.03
1081	0.03
1082	0.031
1082	0.031
1083	0.031
1083	0.031
1083	0.031
1084	0.031
1084	0.031
1085	0.031
1085	0.03
1085	0.03
1086	0.031
1086	0.03
1087	0.03
1087	0.029
1088	0.029
1088	0.029
1088	0.029
1089	0.028
1089	0.028
1090	0.027
1090	0.026
1090	0.025
1091	0.025
1091	0.024
1092	0.024
1092	0.024
1092	0.024
1093	0.023
1093	0.023
1094	0.023
1094	0.023
1095	0.022
1095	0.022
1095	0.022
1096	0.021
1096	0.021
1097	0.02
1097	0.02
1097	0.02
1098	0.02
1098	0.019
1099	0.018
1099	0.018
1100	0.017
1100	0.016
1100	0.015
1101	0.014
1101	0.014
1102	0.014
1102	0.013
1102	0.011
1103	0.011
1103	0.01
1104	0.011
1104	0.011
1104	0.01
1105	0.009
1105	0.008
1106	0.006
1106	0.004
1107	0.003
1107	0.002
1107	0.002
1108	0.001
1108	-0.001
1109	-0.003
1109	-0.004
1109	-0.005
1110	-0.005
1110	-0.006
1111	-0.007
1111	-0.005
