Data from reversibility-20sec_Absorbance__6750__000000000006750.txt Node

Date: Thu Dec 07 01:43:06 CET 2023
User: Marek
Spectrometer: MAYP115816
Trigger mode: 0
Integration Time (sec): 2.000000E-1
Scans to average: 10
Electric dark correction enabled: true
Nonlinearity correction enabled: true
Boxcar width: 5
XAxis mode: Wavelengths
Number of Pixels in Spectrum: 2068
>>>>>Begin Spectral Data<<<<<
199	-0.175
199	-0.153
200	-0.082
200	-0.028
201	0.006
201	0.022
202	0.031
202	0.039
203	0.047
203	0.052
204	0.067
204	0.08
205	0.095
205	0.099
205	0.097
206	0.096
206	0.096
207	0.098
207	0.101
208	0.101
208	0.1
209	0.102
209	0.102
210	0.101
210	0.102
211	0.108
211	0.11
212	0.107
212	0.107
213	0.108
213	0.11
213	0.11
214	0.113
214	0.112
215	0.112
215	0.111
216	0.106
216	0.107
217	0.111
217	0.115
218	0.114
218	0.116
219	0.118
219	0.118
220	0.124
220	0.126
221	0.128
221	0.136
221	0.138
222	0.145
222	0.148
223	0.154
223	0.159
224	0.165
224	0.171
225	0.177
225	0.189
226	0.2
226	0.208
227	0.219
227	0.228
228	0.241
228	0.258
229	0.274
229	0.296
229	0.321
230	0.349
230	0.378
231	0.409
231	0.444
232	0.483
232	0.53
233	0.575
233	0.623
234	0.673
234	0.727
235	0.779
235	0.833
236	0.881
236	0.934
236	0.988
237	1.039
237	1.086
238	1.133
238	1.18
239	1.231
239	1.272
240	1.312
240	1.345
241	1.381
241	1.416
242	1.45
242	1.483
243	1.51
243	1.536
243	1.557
244	1.576
244	1.597
245	1.616
245	1.639
246	1.658
246	1.676
247	1.687
247	1.7
248	1.713
248	1.727
249	1.739
249	1.746
250	1.755
250	1.763
250	1.769
251	1.774
251	1.775
252	1.782
252	1.784
253	1.787
253	1.785
254	1.787
254	1.79
255	1.788
255	1.789
256	1.786
256	1.786
257	1.786
257	1.785
258	1.785
258	1.786
258	1.785
259	1.784
259	1.784
260	1.784
260	1.784
261	1.785
261	1.788
262	1.789
262	1.79
263	1.792
263	1.79
264	1.792
264	1.793
265	1.794
265	1.794
265	1.796
266	1.795
266	1.795
267	1.793
267	1.793
268	1.791
268	1.793
269	1.795
269	1.794
270	1.793
270	1.792
271	1.788
271	1.788
272	1.786
272	1.786
272	1.784
273	1.78
273	1.774
274	1.768
274	1.763
275	1.758
275	1.752
276	1.746
276	1.739
277	1.731
277	1.722
278	1.713
278	1.701
278	1.689
279	1.675
279	1.659
280	1.639
280	1.615
281	1.586
281	1.553
282	1.517
282	1.481
283	1.443
283	1.406
284	1.37
284	1.334
285	1.299
285	1.267
285	1.238
286	1.212
286	1.19
287	1.169
287	1.152
288	1.136
288	1.123
289	1.112
289	1.102
290	1.093
290	1.085
291	1.078
291	1.072
292	1.067
292	1.062
292	1.057
293	1.053
293	1.048
294	1.044
294	1.04
295	1.037
295	1.033
296	1.03
296	1.026
297	1.023
297	1.02
298	1.016
298	1.013
298	1.01
299	1.006
299	1.003
300	1
300	0.997
301	0.994
301	0.991
302	0.988
302	0.986
303	0.983
303	0.98
304	0.977
304	0.975
305	0.972
305	0.969
305	0.967
306	0.964
306	0.961
307	0.958
307	0.955
308	0.952
308	0.949
309	0.946
309	0.943
310	0.939
310	0.936
311	0.933
311	0.929
311	0.926
312	0.922
312	0.919
313	0.915
313	0.911
314	0.907
314	0.902
315	0.898
315	0.894
316	0.889
316	0.884
317	0.88
317	0.875
318	0.87
318	0.864
318	0.859
319	0.853
319	0.848
320	0.842
320	0.836
321	0.83
321	0.824
322	0.817
322	0.811
323	0.805
323	0.798
324	0.792
324	0.785
324	0.778
325	0.772
325	0.765
326	0.758
326	0.751
327	0.745
327	0.737
328	0.73
328	0.723
329	0.716
329	0.709
330	0.702
330	0.695
330	0.688
331	0.681
331	0.674
332	0.666
332	0.66
333	0.653
333	0.646
334	0.639
334	0.632
335	0.625
335	0.619
336	0.612
336	0.605
336	0.599
337	0.593
337	0.586
338	0.58
338	0.574
339	0.568
339	0.562
340	0.556
340	0.55
341	0.544
341	0.539
342	0.533
342	0.528
342	0.522
343	0.517
343	0.512
344	0.507
344	0.502
345	0.497
345	0.492
346	0.488
346	0.483
347	0.479
347	0.475
348	0.471
348	0.467
348	0.463
349	0.459
349	0.455
350	0.452
350	0.448
351	0.445
351	0.442
352	0.438
352	0.435
353	0.432
353	0.429
354	0.426
354	0.423
354	0.42
355	0.416
355	0.413
356	0.41
356	0.407
357	0.404
357	0.401
358	0.398
358	0.396
359	0.393
359	0.391
360	0.389
360	0.387
360	0.385
361	0.383
361	0.381
362	0.38
362	0.378
363	0.376
363	0.374
364	0.372
364	0.37
365	0.368
365	0.366
366	0.364
366	0.362
366	0.36
367	0.359
367	0.357
368	0.355
368	0.353
369	0.352
369	0.35
370	0.349
370	0.347
371	0.346
371	0.345
372	0.343
372	0.342
372	0.341
373	0.34
373	0.339
374	0.337
374	0.336
375	0.335
375	0.334
376	0.333
376	0.332
377	0.331
377	0.33
378	0.329
378	0.328
378	0.327
379	0.326
379	0.325
380	0.324
380	0.323
381	0.322
381	0.321
382	0.321
382	0.32
383	0.319
383	0.319
383	0.318
384	0.317
384	0.317
385	0.316
385	0.315
386	0.315
386	0.314
387	0.314
387	0.313
388	0.313
388	0.312
389	0.312
389	0.311
389	0.311
390	0.31
390	0.31
391	0.309
391	0.309
392	0.308
392	0.308
393	0.307
393	0.307
394	0.306
394	0.306
394	0.305
395	0.305
395	0.304
396	0.304
396	0.303
397	0.303
397	0.302
398	0.302
398	0.301
399	0.301
399	0.301
400	0.3
400	0.3
400	0.299
401	0.299
401	0.299
402	0.298
402	0.298
403	0.297
403	0.297
404	0.297
404	0.296
405	0.296
405	0.295
405	0.295
406	0.295
406	0.294
407	0.294
407	0.293
408	0.293
408	0.293
409	0.292
409	0.292
410	0.292
410	0.291
411	0.291
411	0.291
411	0.291
412	0.29
412	0.29
413	0.289
413	0.289
414	0.289
414	0.288
415	0.288
415	0.288
416	0.287
416	0.287
416	0.286
417	0.286
417	0.286
418	0.285
418	0.285
419	0.285
419	0.284
420	0.283
420	0.283
421	0.283
421	0.282
421	0.282
422	0.282
422	0.282
423	0.281
423	0.281
424	0.28
424	0.28
425	0.28
425	0.28
426	0.279
426	0.279
427	0.278
427	0.278
427	0.278
428	0.277
428	0.277
429	0.277
429	0.276
430	0.276
430	0.276
431	0.276
431	0.275
432	0.275
432	0.275
432	0.275
433	0.275
433	0.275
434	0.275
434	0.275
435	0.275
435	0.275
436	0.274
436	0.274
437	0.274
437	0.274
437	0.273
438	0.273
438	0.273
439	0.273
439	0.272
440	0.272
440	0.272
441	0.272
441	0.271
442	0.271
442	0.271
442	0.271
443	0.271
443	0.271
444	0.27
444	0.27
445	0.27
445	0.27
446	0.27
446	0.27
447	0.27
447	0.269
447	0.269
448	0.269
448	0.269
449	0.269
449	0.269
450	0.269
450	0.269
451	0.269
451	0.269
452	0.269
452	0.269
452	0.269
453	0.269
453	0.269
454	0.269
454	0.269
455	0.268
455	0.268
456	0.268
456	0.268
457	0.268
457	0.268
458	0.268
458	0.268
458	0.268
459	0.268
459	0.268
460	0.268
460	0.268
461	0.268
461	0.268
462	0.268
462	0.268
463	0.268
463	0.268
463	0.268
464	0.268
464	0.268
465	0.268
465	0.268
466	0.268
466	0.268
467	0.268
467	0.269
467	0.269
468	0.269
468	0.27
469	0.27
469	0.271
470	0.271
470	0.272
471	0.272
471	0.272
472	0.272
472	0.273
472	0.273
473	0.274
473	0.274
474	0.274
474	0.274
475	0.274
475	0.275
476	0.275
476	0.276
477	0.276
477	0.276
477	0.277
478	0.277
478	0.277
479	0.278
479	0.278
480	0.279
480	0.279
481	0.28
481	0.28
482	0.28
482	0.281
482	0.282
483	0.282
483	0.283
484	0.284
484	0.284
485	0.285
485	0.285
486	0.286
486	0.287
487	0.287
487	0.288
487	0.289
488	0.289
488	0.29
489	0.291
489	0.293
490	0.294
490	0.295
491	0.296
491	0.298
492	0.299
492	0.3
492	0.301
493	0.302
493	0.303
494	0.304
494	0.305
495	0.306
495	0.307
496	0.308
496	0.309
496	0.31
497	0.311
497	0.312
498	0.313
498	0.314
499	0.315
499	0.316
500	0.318
500	0.319
501	0.321
501	0.322
501	0.323
502	0.324
502	0.325
503	0.326
503	0.327
504	0.328
504	0.329
505	0.331
505	0.332
506	0.333
506	0.334
506	0.335
507	0.336
507	0.337
508	0.338
508	0.339
509	0.34
509	0.341
510	0.342
510	0.343
511	0.345
511	0.346
511	0.346
512	0.347
512	0.348
513	0.349
513	0.35
514	0.351
514	0.352
515	0.353
515	0.353
515	0.354
516	0.354
516	0.355
517	0.356
517	0.356
518	0.356
518	0.357
519	0.357
519	0.357
520	0.357
520	0.357
520	0.358
521	0.358
521	0.358
522	0.358
522	0.358
523	0.357
523	0.357
524	0.357
524	0.356
524	0.356
525	0.356
525	0.355
526	0.355
526	0.354
527	0.353
527	0.353
528	0.352
528	0.352
529	0.351
529	0.35
529	0.349
530	0.348
530	0.347
531	0.346
531	0.345
532	0.344
532	0.343
533	0.342
533	0.34
533	0.339
534	0.338
534	0.337
535	0.336
535	0.335
536	0.334
536	0.332
537	0.331
537	0.33
538	0.328
538	0.327
538	0.325
539	0.324
539	0.322
540	0.321
540	0.319
541	0.318
541	0.316
542	0.314
542	0.312
542	0.31
543	0.309
543	0.307
544	0.305
544	0.303
545	0.301
545	0.299
546	0.297
546	0.295
547	0.293
547	0.291
547	0.289
548	0.287
548	0.285
549	0.284
549	0.282
550	0.28
550	0.278
551	0.276
551	0.274
551	0.273
552	0.271
552	0.269
553	0.267
553	0.265
554	0.263
554	0.261
555	0.259
555	0.257
556	0.255
556	0.253
556	0.251
557	0.249
557	0.248
558	0.247
558	0.245
559	0.244
559	0.242
560	0.241
560	0.239
560	0.238
561	0.237
561	0.235
562	0.233
562	0.231
563	0.229
563	0.227
564	0.225
564	0.224
564	0.222
565	0.221
565	0.219
566	0.217
566	0.215
567	0.214
567	0.213
568	0.211
568	0.21
568	0.209
569	0.207
569	0.205
570	0.204
570	0.202
571	0.2
571	0.199
572	0.198
572	0.196
573	0.195
573	0.194
573	0.193
574	0.191
574	0.19
575	0.19
575	0.189
576	0.188
576	0.186
577	0.185
577	0.183
577	0.182
578	0.181
578	0.18
579	0.179
579	0.178
580	0.177
580	0.175
581	0.174
581	0.173
581	0.173
582	0.172
582	0.172
583	0.171
583	0.17
584	0.169
584	0.167
585	0.166
585	0.165
585	0.164
586	0.163
586	0.162
587	0.161
587	0.16
588	0.159
588	0.158
589	0.158
589	0.157
590	0.157
590	0.156
590	0.156
591	0.155
591	0.154
592	0.153
592	0.152
593	0.151
593	0.151
594	0.15
594	0.148
594	0.148
595	0.147
595	0.146
596	0.145
596	0.145
597	0.145
597	0.145
598	0.144
598	0.144
598	0.143
599	0.143
599	0.142
600	0.141
600	0.141
601	0.14
601	0.139
602	0.138
602	0.137
602	0.137
603	0.136
603	0.136
604	0.135
604	0.135
605	0.134
605	0.134
606	0.133
606	0.132
606	0.132
607	0.131
607	0.131
608	0.13
608	0.129
609	0.128
609	0.128
610	0.127
610	0.126
610	0.126
611	0.126
611	0.126
612	0.125
612	0.125
613	0.125
613	0.125
614	0.125
614	0.124
614	0.124
615	0.124
615	0.123
616	0.123
616	0.123
617	0.123
617	0.122
618	0.122
618	0.121
618	0.121
619	0.121
619	0.121
620	0.121
620	0.12
621	0.119
621	0.119
622	0.118
622	0.118
622	0.117
623	0.116
623	0.116
624	0.116
624	0.115
625	0.114
625	0.114
626	0.114
626	0.114
626	0.114
627	0.114
627	0.114
628	0.113
628	0.113
629	0.113
629	0.113
630	0.112
630	0.112
630	0.112
631	0.112
631	0.111
632	0.111
632	0.11
633	0.11
633	0.11
634	0.11
634	0.11
634	0.109
635	0.109
635	0.108
636	0.108
636	0.108
637	0.107
637	0.107
638	0.106
638	0.106
638	0.105
639	0.105
639	0.104
640	0.104
640	0.104
641	0.104
641	0.104
642	0.103
642	0.104
642	0.104
643	0.104
643	0.104
644	0.104
644	0.103
645	0.103
645	0.103
646	0.103
646	0.103
646	0.103
647	0.102
647	0.102
648	0.101
648	0.101
649	0.1
649	0.1
650	0.1
650	0.099
650	0.099
651	0.099
651	0.099
652	0.099
652	0.099
653	0.1
653	0.101
653	0.107
654	0.086
654	0.07
655	0.068
655	0.068
656	0.068
656	0.068
657	0.068
657	0.068
657	0.068
658	0.067
658	0.06
659	0.074
659	0.094
660	0.099
660	0.099
661	0.099
661	0.099
661	0.098
662	0.098
662	0.098
663	0.097
663	0.097
664	0.097
664	0.097
665	0.096
665	0.096
665	0.096
666	0.096
666	0.096
667	0.096
667	0.096
668	0.096
668	0.096
669	0.097
669	0.097
669	0.097
670	0.098
670	0.097
671	0.097
671	0.096
672	0.096
672	0.095
672	0.094
673	0.093
673	0.093
674	0.092
674	0.091
675	0.091
675	0.091
676	0.091
676	0.091
676	0.091
677	0.092
677	0.092
678	0.092
678	0.092
679	0.091
679	0.091
680	0.091
680	0.091
680	0.09
681	0.09
681	0.09
682	0.09
682	0.09
683	0.09
683	0.091
684	0.091
684	0.091
684	0.091
685	0.091
685	0.091
686	0.092
686	0.092
687	0.092
687	0.092
687	0.092
688	0.091
688	0.091
689	0.092
689	0.092
690	0.092
690	0.091
691	0.091
691	0.091
691	0.091
692	0.091
692	0.091
693	0.091
693	0.091
694	0.091
694	0.09
695	0.091
695	0.092
695	0.092
696	0.092
696	0.092
697	0.092
697	0.092
698	0.092
698	0.091
698	0.091
699	0.091
699	0.09
700	0.09
700	0.09
701	0.09
701	0.089
702	0.089
702	0.088
702	0.088
703	0.087
703	0.087
704	0.086
704	0.086
705	0.086
705	0.085
705	0.085
706	0.085
706	0.084
707	0.084
707	0.084
708	0.084
708	0.084
709	0.085
709	0.085
709	0.084
710	0.084
710	0.085
711	0.085
711	0.086
712	0.086
712	0.087
713	0.087
713	0.087
713	0.087
714	0.087
714	0.087
715	0.087
715	0.086
716	0.086
716	0.085
716	0.084
717	0.083
717	0.083
718	0.082
718	0.082
719	0.082
719	0.082
720	0.082
720	0.083
720	0.083
721	0.084
721	0.085
722	0.085
722	0.086
723	0.086
723	0.086
723	0.086
724	0.086
724	0.086
725	0.085
725	0.084
726	0.083
726	0.082
727	0.082
727	0.081
727	0.08
728	0.08
728	0.08
729	0.08
729	0.08
730	0.08
730	0.08
730	0.08
731	0.081
731	0.081
732	0.082
732	0.082
733	0.082
733	0.083
734	0.083
734	0.083
734	0.083
735	0.083
735	0.083
736	0.082
736	0.082
737	0.082
737	0.082
737	0.082
738	0.081
738	0.08
739	0.08
739	0.08
740	0.079
740	0.079
741	0.079
741	0.079
741	0.079
742	0.079
742	0.08
743	0.081
743	0.081
744	0.082
744	0.082
744	0.082
745	0.082
745	0.082
746	0.082
746	0.082
747	0.081
747	0.081
748	0.081
748	0.08
748	0.08
749	0.08
749	0.081
750	0.081
750	0.081
751	0.081
751	0.081
751	0.081
752	0.081
752	0.081
753	0.08
753	0.08
754	0.079
754	0.079
754	0.078
755	0.078
755	0.078
756	0.077
756	0.076
757	0.075
757	0.075
758	0.075
758	0.075
758	0.075
759	0.075
759	0.075
760	0.075
760	0.074
761	0.075
761	0.075
761	0.076
762	0.075
762	0.075
763	0.075
763	0.074
764	0.074
764	0.074
764	0.074
765	0.073
765	0.072
766	0.072
766	0.072
767	0.071
767	0.07
768	0.069
768	0.069
768	0.07
769	0.07
769	0.07
770	0.07
770	0.07
771	0.071
771	0.071
771	0.072
772	0.073
772	0.073
773	0.074
773	0.074
774	0.074
774	0.074
775	0.075
775	0.075
775	0.075
776	0.075
776	0.075
777	0.075
777	0.075
778	0.074
778	0.074
778	0.074
779	0.073
779	0.072
780	0.071
780	0.071
781	0.07
781	0.069
781	0.069
782	0.069
782	0.069
783	0.069
783	0.069
784	0.069
784	0.069
784	0.069
785	0.07
785	0.07
786	0.07
786	0.07
787	0.07
787	0.069
788	0.069
788	0.068
788	0.067
789	0.067
789	0.067
790	0.066
790	0.066
791	0.066
791	0.065
791	0.065
792	0.065
792	0.065
793	0.064
793	0.064
794	0.063
794	0.063
794	0.063
795	0.063
795	0.063
796	0.064
796	0.064
797	0.063
797	0.064
797	0.064
798	0.065
798	0.065
799	0.065
799	0.065
800	0.064
800	0.064
801	0.063
801	0.064
801	0.063
802	0.064
802	0.064
803	0.064
803	0.064
804	0.064
804	0.065
804	0.065
805	0.065
805	0.065
806	0.064
806	0.064
807	0.063
807	0.063
807	0.063
808	0.063
808	0.063
809	0.063
809	0.063
810	0.063
810	0.063
810	0.063
811	0.063
811	0.064
812	0.065
812	0.065
813	0.065
813	0.065
813	0.065
814	0.066
814	0.066
815	0.066
815	0.066
816	0.066
816	0.065
817	0.064
817	0.064
817	0.063
818	0.062
818	0.062
819	0.061
819	0.06
820	0.059
820	0.059
820	0.058
821	0.058
821	0.059
822	0.059
822	0.059
823	0.059
823	0.059
823	0.06
824	0.061
824	0.062
825	0.063
825	0.064
826	0.064
826	0.064
826	0.065
827	0.065
827	0.066
828	0.066
828	0.066
829	0.066
829	0.066
829	0.066
830	0.066
830	0.066
831	0.067
831	0.067
832	0.067
832	0.067
832	0.066
833	0.066
833	0.066
834	0.066
834	0.065
835	0.065
835	0.064
835	0.064
836	0.063
836	0.063
837	0.063
837	0.062
838	0.062
838	0.061
839	0.061
839	0.06
839	0.06
840	0.059
840	0.058
841	0.057
841	0.056
842	0.056
842	0.055
842	0.054
843	0.053
843	0.052
844	0.052
844	0.051
845	0.05
845	0.05
845	0.05
846	0.05
846	0.05
847	0.05
847	0.05
848	0.05
848	0.05
848	0.051
849	0.051
849	0.052
850	0.052
850	0.052
851	0.052
851	0.052
851	0.052
852	0.051
852	0.051
853	0.051
853	0.05
854	0.051
854	0.051
854	0.052
855	0.052
855	0.053
856	0.054
856	0.055
857	0.056
857	0.057
857	0.058
858	0.058
858	0.058
859	0.059
859	0.058
860	0.059
860	0.058
860	0.058
861	0.057
861	0.057
862	0.055
862	0.054
863	0.053
863	0.053
863	0.052
864	0.052
864	0.051
865	0.051
865	0.051
866	0.051
866	0.051
866	0.052
867	0.052
867	0.052
868	0.053
868	0.053
869	0.053
869	0.053
869	0.053
870	0.053
870	0.053
871	0.053
871	0.053
872	0.053
872	0.053
872	0.053
873	0.053
873	0.052
874	0.052
874	0.052
875	0.052
875	0.052
875	0.052
876	0.052
876	0.051
877	0.051
877	0.051
878	0.051
878	0.051
878	0.052
879	0.052
879	0.052
880	0.052
880	0.052
881	0.053
881	0.053
881	0.053
882	0.053
882	0.053
883	0.053
883	0.054
884	0.054
884	0.054
884	0.054
885	0.053
885	0.053
886	0.053
886	0.053
887	0.052
887	0.051
887	0.051
888	0.05
888	0.05
889	0.049
889	0.049
890	0.049
890	0.049
890	0.049
891	0.048
891	0.048
892	0.048
892	0.048
893	0.048
893	0.048
893	0.047
894	0.047
894	0.047
895	0.046
895	0.046
895	0.046
896	0.047
896	0.047
897	0.047
897	0.047
898	0.047
898	0.047
898	0.047
899	0.046
899	0.046
900	0.046
900	0.046
901	0.045
901	0.045
901	0.045
902	0.045
902	0.045
903	0.045
903	0.045
904	0.045
904	0.045
904	0.044
905	0.044
905	0.044
906	0.044
906	0.044
907	0.045
907	0.045
907	0.046
908	0.046
908	0.046
909	0.046
909	0.046
910	0.046
910	0.046
910	0.046
911	0.045
911	0.045
912	0.044
912	0.043
913	0.043
913	0.043
913	0.042
914	0.042
914	0.042
915	0.042
915	0.042
916	0.042
916	0.042
916	0.043
917	0.043
917	0.043
918	0.043
918	0.042
918	0.042
919	0.042
919	0.042
920	0.042
920	0.041
921	0.041
921	0.041
921	0.041
922	0.041
922	0.041
923	0.042
923	0.042
924	0.042
924	0.042
924	0.042
925	0.042
925	0.042
926	0.042
926	0.043
927	0.043
927	0.043
927	0.043
928	0.043
928	0.044
929	0.044
929	0.045
930	0.045
930	0.045
930	0.045
931	0.046
931	0.046
932	0.046
932	0.046
933	0.046
933	0.046
933	0.046
934	0.045
934	0.045
935	0.045
935	0.044
935	0.044
936	0.043
936	0.043
937	0.042
937	0.042
938	0.041
938	0.041
938	0.041
939	0.04
939	0.04
940	0.04
940	0.04
941	0.041
941	0.041
941	0.042
942	0.042
942	0.042
943	0.042
943	0.043
944	0.043
944	0.043
944	0.043
945	0.043
945	0.043
946	0.043
946	0.043
946	0.043
947	0.043
947	0.043
948	0.043
948	0.043
949	0.043
949	0.043
949	0.042
950	0.042
950	0.042
951	0.042
951	0.041
952	0.041
952	0.041
952	0.04
953	0.04
953	0.04
954	0.04
954	0.04
955	0.04
955	0.04
955	0.04
956	0.04
956	0.041
957	0.042
957	0.042
957	0.043
958	0.044
958	0.044
959	0.044
959	0.045
960	0.045
960	0.045
960	0.045
961	0.045
961	0.045
962	0.045
962	0.045
963	0.045
963	0.045
963	0.045
964	0.045
964	0.044
965	0.044
965	0.044
966	0.044
966	0.044
966	0.044
967	0.044
967	0.044
968	0.044
968	0.044
968	0.044
969	0.044
969	0.043
970	0.042
970	0.041
971	0.041
971	0.04
971	0.039
972	0.038
972	0.038
973	0.037
973	0.037
974	0.037
974	0.038
974	0.038
975	0.039
975	0.04
976	0.04
976	0.041
976	0.042
977	0.042
977	0.042
978	0.042
978	0.042
979	0.042
979	0.042
979	0.042
980	0.042
980	0.042
981	0.041
981	0.041
982	0.041
982	0.041
982	0.042
983	0.042
983	0.042
984	0.042
984	0.042
984	0.042
985	0.042
985	0.042
986	0.042
986	0.042
987	0.042
987	0.042
987	0.042
988	0.042
988	0.042
989	0.042
989	0.042
990	0.042
990	0.042
990	0.042
991	0.042
991	0.042
992	0.042
992	0.041
992	0.041
993	0.04
993	0.039
994	0.038
994	0.037
995	0.037
995	0.036
995	0.035
996	0.035
996	0.035
997	0.035
997	0.035
997	0.035
998	0.035
998	0.036
999	0.037
999	0.037
1000	0.038
1000	0.039
1000	0.039
1001	0.04
1001	0.04
1002	0.04
1002	0.04
1003	0.04
1003	0.039
1003	0.039
1004	0.038
1004	0.037
1005	0.036
1005	0.035
1005	0.034
1006	0.033
1006	0.033
1007	0.032
1007	0.031
1008	0.031
1008	0.031
1008	0.031
1009	0.031
1009	0.031
1010	0.031
1010	0.032
1010	0.032
1011	0.032
1011	0.032
1012	0.032
1012	0.032
1013	0.032
1013	0.032
1013	0.032
1014	0.031
1014	0.031
1015	0.03
1015	0.03
1016	0.03
1016	0.03
1016	0.03
1017	0.03
1017	0.029
1018	0.029
1018	0.029
1018	0.029
1019	0.03
1019	0.03
1020	0.03
1020	0.03
1021	0.031
1021	0.031
1021	0.032
1022	0.032
1022	0.032
1023	0.032
1023	0.033
1023	0.033
1024	0.033
1024	0.034
1025	0.034
1025	0.034
1026	0.034
1026	0.034
1026	0.034
1027	0.035
1027	0.035
1028	0.035
1028	0.035
1028	0.035
1029	0.035
1029	0.035
1030	0.035
1030	0.036
1031	0.036
1031	0.036
1031	0.036
1032	0.036
1032	0.037
1033	0.037
1033	0.037
1033	0.038
1034	0.038
1034	0.038
1035	0.038
1035	0.038
1036	0.038
1036	0.038
1036	0.038
1037	0.038
1037	0.038
1038	0.038
1038	0.038
1039	0.038
1039	0.038
1039	0.038
1040	0.038
1040	0.038
1041	0.037
1041	0.037
1041	0.037
1042	0.036
1042	0.036
1043	0.036
1043	0.036
1044	0.035
1044	0.035
1044	0.034
1045	0.034
1045	0.033
1046	0.033
1046	0.033
1046	0.033
1047	0.033
1047	0.033
1048	0.033
1048	0.033
1049	0.033
1049	0.033
1049	0.033
1050	0.033
1050	0.033
1051	0.033
1051	0.033
1051	0.033
1052	0.033
1052	0.033
1053	0.032
1053	0.031
1053	0.031
1054	0.03
1054	0.03
1055	0.03
1055	0.029
1056	0.028
1056	0.028
1056	0.027
1057	0.027
1057	0.027
1058	0.026
1058	0.025
1058	0.025
1059	0.024
1059	0.024
1060	0.024
1060	0.024
1061	0.024
1061	0.024
1061	0.024
1062	0.024
1062	0.024
1063	0.024
1063	0.024
1063	0.024
1064	0.024
1064	0.024
1065	0.024
1065	0.024
1066	0.024
1066	0.024
1066	0.024
1067	0.024
1067	0.025
1068	0.025
1068	0.025
1068	0.025
1069	0.025
1069	0.024
1070	0.024
1070	0.024
1071	0.024
1071	0.024
1071	0.023
1072	0.023
1072	0.023
1073	0.023
1073	0.023
1073	0.022
1074	0.023
1074	0.023
1075	0.023
1075	0.023
1076	0.024
1076	0.025
1076	0.024
1077	0.024
1077	0.024
1078	0.024
1078	0.024
1078	0.024
1079	0.024
1079	0.023
1080	0.022
1080	0.022
1080	0.021
1081	0.021
1081	0.021
1082	0.021
1082	0.021
1083	0.021
1083	0.021
1083	0.021
1084	0.021
1084	0.022
1085	0.022
1085	0.022
1085	0.022
1086	0.022
1086	0.022
1087	0.022
1087	0.023
1088	0.023
1088	0.023
1088	0.023
1089	0.023
1089	0.022
1090	0.022
1090	0.021
1090	0.02
1091	0.02
1091	0.02
1092	0.02
1092	0.02
1092	0.02
1093	0.02
1093	0.02
1094	0.021
1094	0.02
1095	0.02
1095	0.02
1095	0.02
1096	0.019
1096	0.018
1097	0.018
1097	0.017
1097	0.016
1098	0.015
1098	0.014
1099	0.013
1099	0.012
1100	0.012
1100	0.01
1100	0.009
1101	0.009
1101	0.008
1102	0.007
1102	0.007
1102	0.006
1103	0.006
1103	0.007
1104	0.007
1104	0.006
1104	0.005
1105	0.004
1105	0.002
1106	0.001
1106	0
1107	-0
1107	-0.002
1107	-0.002
1108	-0.004
1108	-0.006
1109	-0.007
1109	-0.008
1109	-0.007
1110	-0.006
1110	-0.008
1111	-0.009
1111	-0.011
