Data from reversibility-20sec_Absorbance__2651__000000000002651.txt Node

Date: Wed Dec 06 02:56:46 CET 2023
User: Marek
Spectrometer: MAYP115816
Trigger mode: 0
Integration Time (sec): 2.000000E-1
Scans to average: 10
Electric dark correction enabled: true
Nonlinearity correction enabled: true
Boxcar width: 5
XAxis mode: Wavelengths
Number of Pixels in Spectrum: 2068
>>>>>Begin Spectral Data<<<<<
199	-0.193
199	-0.145
200	-0.076
200	-0.028
201	0.005
201	0.017
202	0.031
202	0.038
203	0.047
203	0.049
204	0.061
204	0.075
205	0.085
205	0.089
205	0.089
206	0.086
206	0.089
207	0.092
207	0.091
208	0.09
208	0.088
209	0.093
209	0.092
210	0.092
210	0.095
211	0.097
211	0.098
212	0.094
212	0.095
213	0.101
213	0.101
213	0.105
214	0.107
214	0.11
215	0.112
215	0.111
216	0.112
216	0.113
217	0.12
217	0.121
218	0.119
218	0.125
219	0.13
219	0.132
220	0.133
220	0.133
221	0.134
221	0.138
221	0.144
222	0.149
222	0.153
223	0.16
223	0.16
224	0.166
224	0.175
225	0.183
225	0.194
226	0.205
226	0.217
227	0.226
227	0.236
228	0.25
228	0.265
229	0.283
229	0.305
229	0.327
230	0.354
230	0.383
231	0.412
231	0.448
232	0.483
232	0.525
233	0.57
233	0.621
234	0.672
234	0.726
235	0.778
235	0.833
236	0.886
236	0.943
236	0.995
237	1.053
237	1.104
238	1.153
238	1.199
239	1.25
239	1.293
240	1.338
240	1.377
241	1.417
241	1.453
242	1.488
242	1.523
243	1.557
243	1.588
243	1.618
244	1.643
244	1.668
245	1.689
245	1.712
246	1.731
246	1.752
247	1.77
247	1.79
248	1.809
248	1.827
249	1.838
249	1.847
250	1.86
250	1.872
250	1.881
251	1.89
251	1.896
252	1.904
252	1.904
253	1.904
253	1.903
254	1.906
254	1.909
255	1.909
255	1.913
256	1.913
256	1.914
257	1.913
257	1.913
258	1.916
258	1.918
258	1.922
259	1.922
259	1.922
260	1.921
260	1.922
261	1.924
261	1.927
262	1.934
262	1.936
263	1.941
263	1.943
264	1.943
264	1.947
265	1.95
265	1.954
265	1.955
266	1.956
266	1.959
267	1.958
267	1.96
268	1.961
268	1.963
269	1.968
269	1.968
270	1.969
270	1.968
271	1.967
271	1.969
272	1.966
272	1.966
272	1.963
273	1.958
273	1.951
274	1.944
274	1.937
275	1.93
275	1.924
276	1.917
276	1.908
277	1.899
277	1.889
278	1.878
278	1.866
278	1.852
279	1.836
279	1.816
280	1.791
280	1.761
281	1.725
281	1.686
282	1.644
282	1.601
283	1.559
283	1.518
284	1.478
284	1.439
285	1.402
285	1.369
285	1.339
286	1.311
286	1.288
287	1.266
287	1.249
288	1.233
288	1.219
289	1.207
289	1.197
290	1.188
290	1.18
291	1.173
291	1.167
292	1.16
292	1.155
292	1.15
293	1.145
293	1.141
294	1.137
294	1.133
295	1.129
295	1.126
296	1.122
296	1.118
297	1.115
297	1.112
298	1.109
298	1.106
298	1.102
299	1.099
299	1.096
300	1.093
300	1.09
301	1.087
301	1.084
302	1.081
302	1.078
303	1.075
303	1.072
304	1.069
304	1.066
305	1.063
305	1.06
305	1.058
306	1.055
306	1.052
307	1.049
307	1.046
308	1.043
308	1.04
309	1.037
309	1.034
310	1.03
310	1.028
311	1.024
311	1.02
311	1.017
312	1.013
312	1.009
313	1.005
313	1.001
314	0.997
314	0.993
315	0.988
315	0.983
316	0.979
316	0.974
317	0.969
317	0.964
318	0.959
318	0.954
318	0.949
319	0.943
319	0.937
320	0.931
320	0.925
321	0.919
321	0.913
322	0.907
322	0.9
323	0.893
323	0.886
324	0.88
324	0.873
324	0.866
325	0.859
325	0.852
326	0.845
326	0.838
327	0.831
327	0.824
328	0.818
328	0.811
329	0.803
329	0.796
330	0.789
330	0.782
330	0.775
331	0.768
331	0.761
332	0.754
332	0.747
333	0.74
333	0.732
334	0.726
334	0.719
335	0.712
335	0.705
336	0.698
336	0.691
336	0.685
337	0.678
337	0.672
338	0.665
338	0.659
339	0.653
339	0.647
340	0.641
340	0.635
341	0.63
341	0.624
342	0.618
342	0.613
342	0.607
343	0.602
343	0.597
344	0.592
344	0.587
345	0.582
345	0.577
346	0.573
346	0.568
347	0.564
347	0.559
348	0.555
348	0.551
348	0.547
349	0.543
349	0.539
350	0.536
350	0.532
351	0.528
351	0.525
352	0.521
352	0.518
353	0.515
353	0.512
354	0.509
354	0.506
354	0.503
355	0.5
355	0.497
356	0.494
356	0.492
357	0.489
357	0.486
358	0.483
358	0.48
359	0.477
359	0.475
360	0.472
360	0.47
360	0.467
361	0.465
361	0.463
362	0.461
362	0.459
363	0.457
363	0.455
364	0.453
364	0.451
365	0.449
365	0.447
366	0.445
366	0.443
366	0.441
367	0.44
367	0.438
368	0.436
368	0.434
369	0.432
369	0.431
370	0.429
370	0.428
371	0.426
371	0.424
372	0.423
372	0.421
372	0.42
373	0.419
373	0.417
374	0.416
374	0.415
375	0.413
375	0.412
376	0.411
376	0.41
377	0.409
377	0.408
378	0.406
378	0.405
378	0.404
379	0.403
379	0.402
380	0.401
380	0.4
381	0.399
381	0.397
382	0.397
382	0.396
383	0.395
383	0.394
383	0.394
384	0.393
384	0.392
385	0.391
385	0.39
386	0.39
386	0.389
387	0.388
387	0.387
388	0.386
388	0.386
389	0.385
389	0.385
389	0.384
390	0.383
390	0.383
391	0.382
391	0.381
392	0.381
392	0.38
393	0.38
393	0.379
394	0.378
394	0.378
394	0.377
395	0.377
395	0.376
396	0.376
396	0.375
397	0.374
397	0.373
398	0.373
398	0.373
399	0.372
399	0.371
400	0.371
400	0.37
400	0.37
401	0.369
401	0.369
402	0.368
402	0.367
403	0.367
403	0.366
404	0.366
404	0.365
405	0.364
405	0.364
405	0.364
406	0.363
406	0.363
407	0.362
407	0.362
408	0.361
408	0.361
409	0.36
409	0.36
410	0.36
410	0.359
411	0.359
411	0.359
411	0.358
412	0.358
412	0.357
413	0.357
413	0.356
414	0.356
414	0.356
415	0.355
415	0.355
416	0.355
416	0.354
416	0.354
417	0.353
417	0.353
418	0.353
418	0.353
419	0.352
419	0.352
420	0.351
420	0.35
421	0.35
421	0.35
421	0.349
422	0.349
422	0.348
423	0.348
423	0.347
424	0.347
424	0.346
425	0.346
425	0.346
426	0.346
426	0.345
427	0.345
427	0.345
427	0.344
428	0.344
428	0.344
429	0.344
429	0.343
430	0.343
430	0.343
431	0.342
431	0.342
432	0.342
432	0.342
432	0.342
433	0.342
433	0.341
434	0.341
434	0.341
435	0.341
435	0.341
436	0.341
436	0.341
437	0.34
437	0.34
437	0.34
438	0.34
438	0.34
439	0.339
439	0.339
440	0.339
440	0.339
441	0.339
441	0.338
442	0.338
442	0.338
442	0.338
443	0.338
443	0.337
444	0.337
444	0.337
445	0.337
445	0.336
446	0.336
446	0.336
447	0.336
447	0.336
447	0.336
448	0.336
448	0.335
449	0.335
449	0.335
450	0.335
450	0.335
451	0.335
451	0.335
452	0.335
452	0.335
452	0.335
453	0.335
453	0.335
454	0.335
454	0.335
455	0.335
455	0.335
456	0.335
456	0.335
457	0.335
457	0.336
458	0.336
458	0.335
458	0.335
459	0.336
459	0.336
460	0.336
460	0.336
461	0.337
461	0.337
462	0.337
462	0.337
463	0.337
463	0.337
463	0.337
464	0.337
464	0.337
465	0.337
465	0.337
466	0.337
466	0.338
467	0.338
467	0.338
467	0.338
468	0.338
468	0.339
469	0.339
469	0.34
470	0.341
470	0.341
471	0.341
471	0.342
472	0.342
472	0.343
472	0.344
473	0.344
473	0.345
474	0.345
474	0.345
475	0.346
475	0.346
476	0.346
476	0.347
477	0.348
477	0.348
477	0.349
478	0.349
478	0.35
479	0.351
479	0.351
480	0.352
480	0.353
481	0.354
481	0.354
482	0.355
482	0.356
482	0.357
483	0.358
483	0.359
484	0.36
484	0.36
485	0.361
485	0.362
486	0.363
486	0.363
487	0.364
487	0.365
487	0.366
488	0.367
488	0.368
489	0.369
489	0.371
490	0.373
490	0.374
491	0.376
491	0.377
492	0.379
492	0.38
492	0.382
493	0.383
493	0.385
494	0.386
494	0.387
495	0.389
495	0.39
496	0.392
496	0.393
496	0.395
497	0.396
497	0.398
498	0.399
498	0.4
499	0.402
499	0.404
500	0.406
500	0.408
501	0.409
501	0.411
501	0.412
502	0.413
502	0.415
503	0.417
503	0.418
504	0.419
504	0.421
505	0.422
505	0.423
506	0.425
506	0.426
506	0.427
507	0.429
507	0.43
508	0.431
508	0.433
509	0.434
509	0.436
510	0.437
510	0.438
511	0.44
511	0.441
511	0.442
512	0.443
512	0.444
513	0.445
513	0.446
514	0.448
514	0.449
515	0.449
515	0.45
515	0.451
516	0.452
516	0.453
517	0.454
517	0.454
518	0.455
518	0.455
519	0.456
519	0.456
520	0.456
520	0.456
520	0.456
521	0.456
521	0.456
522	0.456
522	0.456
523	0.456
523	0.455
524	0.455
524	0.455
524	0.455
525	0.454
525	0.454
526	0.453
526	0.452
527	0.451
527	0.451
528	0.449
528	0.449
529	0.447
529	0.446
529	0.445
530	0.444
530	0.442
531	0.441
531	0.44
532	0.439
532	0.437
533	0.435
533	0.434
533	0.432
534	0.43
534	0.429
535	0.427
535	0.425
536	0.423
536	0.421
537	0.419
537	0.417
538	0.415
538	0.412
538	0.41
539	0.408
539	0.406
540	0.404
540	0.401
541	0.399
541	0.397
542	0.394
542	0.392
542	0.39
543	0.387
543	0.385
544	0.383
544	0.38
545	0.378
545	0.375
546	0.373
546	0.37
547	0.368
547	0.365
547	0.362
548	0.36
548	0.357
549	0.354
549	0.352
550	0.349
550	0.347
551	0.344
551	0.341
551	0.339
552	0.336
552	0.334
553	0.332
553	0.33
554	0.327
554	0.324
555	0.322
555	0.319
556	0.316
556	0.314
556	0.312
557	0.309
557	0.307
558	0.305
558	0.303
559	0.3
559	0.298
560	0.295
560	0.293
560	0.291
561	0.29
561	0.287
562	0.285
562	0.282
563	0.28
563	0.277
564	0.275
564	0.273
564	0.271
565	0.27
565	0.268
566	0.265
566	0.263
567	0.261
567	0.259
568	0.258
568	0.255
568	0.253
569	0.252
569	0.249
570	0.247
570	0.245
571	0.243
571	0.242
572	0.24
572	0.238
573	0.237
573	0.235
573	0.233
574	0.232
574	0.23
575	0.229
575	0.228
576	0.226
576	0.224
577	0.222
577	0.221
577	0.22
578	0.218
578	0.217
579	0.216
579	0.215
580	0.213
580	0.211
581	0.209
581	0.208
581	0.207
582	0.206
582	0.205
583	0.204
583	0.202
584	0.2
584	0.198
585	0.196
585	0.195
585	0.194
586	0.193
586	0.192
587	0.191
587	0.189
588	0.188
588	0.187
589	0.186
589	0.186
590	0.185
590	0.184
590	0.184
591	0.183
591	0.181
592	0.18
592	0.178
593	0.177
593	0.176
594	0.175
594	0.174
594	0.173
595	0.172
595	0.171
596	0.169
596	0.169
597	0.169
597	0.168
598	0.167
598	0.167
598	0.166
599	0.166
599	0.165
600	0.164
600	0.163
601	0.162
601	0.162
602	0.16
602	0.159
602	0.159
603	0.158
603	0.157
604	0.157
604	0.156
605	0.155
605	0.155
606	0.154
606	0.153
606	0.152
607	0.152
607	0.151
608	0.15
608	0.149
609	0.148
609	0.148
610	0.147
610	0.146
610	0.145
611	0.145
611	0.144
612	0.144
612	0.144
613	0.144
613	0.143
614	0.143
614	0.142
614	0.142
615	0.142
615	0.141
616	0.141
616	0.14
617	0.14
617	0.139
618	0.138
618	0.138
618	0.138
619	0.137
619	0.137
620	0.137
620	0.137
621	0.136
621	0.135
622	0.135
622	0.134
622	0.133
623	0.132
623	0.132
624	0.131
624	0.13
625	0.13
625	0.129
626	0.128
626	0.128
626	0.128
627	0.127
627	0.127
628	0.126
628	0.126
629	0.126
629	0.125
630	0.125
630	0.125
630	0.124
631	0.124
631	0.123
632	0.123
632	0.122
633	0.122
633	0.122
634	0.122
634	0.122
634	0.121
635	0.121
635	0.12
636	0.12
636	0.12
637	0.12
637	0.119
638	0.118
638	0.118
638	0.117
639	0.116
639	0.116
640	0.115
640	0.115
641	0.115
641	0.114
642	0.114
642	0.114
642	0.114
643	0.114
643	0.114
644	0.114
644	0.114
645	0.114
645	0.114
646	0.114
646	0.113
646	0.113
647	0.113
647	0.112
648	0.112
648	0.111
649	0.111
649	0.111
650	0.111
650	0.11
650	0.11
651	0.11
651	0.109
652	0.109
652	0.109
653	0.11
653	0.111
653	0.117
654	0.094
654	0.076
655	0.074
655	0.074
656	0.074
656	0.074
657	0.074
657	0.074
657	0.074
658	0.073
658	0.065
659	0.081
659	0.102
660	0.108
660	0.108
661	0.107
661	0.106
661	0.106
662	0.105
662	0.104
663	0.103
663	0.103
664	0.102
664	0.102
665	0.101
665	0.101
665	0.101
666	0.101
666	0.101
667	0.101
667	0.102
668	0.102
668	0.102
669	0.102
669	0.103
669	0.103
670	0.103
670	0.103
671	0.103
671	0.102
672	0.102
672	0.101
672	0.101
673	0.1
673	0.1
674	0.099
674	0.098
675	0.098
675	0.098
676	0.098
676	0.099
676	0.099
677	0.099
677	0.099
678	0.098
678	0.098
679	0.097
679	0.097
680	0.097
680	0.097
680	0.096
681	0.096
681	0.095
682	0.095
682	0.095
683	0.096
683	0.096
684	0.096
684	0.096
684	0.096
685	0.096
685	0.096
686	0.095
686	0.095
687	0.095
687	0.095
687	0.095
688	0.094
688	0.094
689	0.094
689	0.094
690	0.094
690	0.093
691	0.093
691	0.093
691	0.093
692	0.093
692	0.093
693	0.093
693	0.093
694	0.092
694	0.091
695	0.092
695	0.092
695	0.092
696	0.092
696	0.092
697	0.091
697	0.091
698	0.091
698	0.09
698	0.09
699	0.091
699	0.09
700	0.089
700	0.089
701	0.089
701	0.089
702	0.088
702	0.088
702	0.088
703	0.087
703	0.087
704	0.087
704	0.087
705	0.086
705	0.086
705	0.086
706	0.085
706	0.085
707	0.085
707	0.085
708	0.085
708	0.085
709	0.085
709	0.085
709	0.084
710	0.084
710	0.084
711	0.084
711	0.084
712	0.084
712	0.084
713	0.084
713	0.084
713	0.084
714	0.083
714	0.083
715	0.083
715	0.082
716	0.082
716	0.082
716	0.081
717	0.08
717	0.08
718	0.079
718	0.078
719	0.079
719	0.079
720	0.079
720	0.079
720	0.079
721	0.079
721	0.079
722	0.08
722	0.08
723	0.08
723	0.08
723	0.08
724	0.08
724	0.08
725	0.079
725	0.079
726	0.078
726	0.078
727	0.077
727	0.077
727	0.076
728	0.076
728	0.076
729	0.076
729	0.076
730	0.076
730	0.076
730	0.077
731	0.077
731	0.078
732	0.078
732	0.078
733	0.078
733	0.078
734	0.077
734	0.077
734	0.077
735	0.077
735	0.076
736	0.075
736	0.075
737	0.074
737	0.073
737	0.072
738	0.071
738	0.071
739	0.07
739	0.07
740	0.07
740	0.07
741	0.07
741	0.07
741	0.07
742	0.071
742	0.071
743	0.072
743	0.073
744	0.073
744	0.073
744	0.073
745	0.072
745	0.072
746	0.072
746	0.072
747	0.072
747	0.072
748	0.072
748	0.072
748	0.072
749	0.073
749	0.073
750	0.074
750	0.074
751	0.074
751	0.074
751	0.074
752	0.073
752	0.073
753	0.072
753	0.072
754	0.071
754	0.07
754	0.07
755	0.07
755	0.069
756	0.068
756	0.067
757	0.067
757	0.067
758	0.067
758	0.067
758	0.067
759	0.067
759	0.067
760	0.067
760	0.067
761	0.067
761	0.068
761	0.069
762	0.069
762	0.069
763	0.069
763	0.068
764	0.068
764	0.068
764	0.068
765	0.068
765	0.068
766	0.067
766	0.067
767	0.067
767	0.066
768	0.066
768	0.066
768	0.066
769	0.066
769	0.066
770	0.066
770	0.066
771	0.066
771	0.066
771	0.066
772	0.066
772	0.066
773	0.066
773	0.066
774	0.066
774	0.066
775	0.066
775	0.066
775	0.066
776	0.066
776	0.066
777	0.066
777	0.066
778	0.066
778	0.065
778	0.065
779	0.065
779	0.064
780	0.063
780	0.063
781	0.063
781	0.062
781	0.062
782	0.062
782	0.062
783	0.062
783	0.063
784	0.063
784	0.063
784	0.063
785	0.063
785	0.063
786	0.063
786	0.063
787	0.063
787	0.063
788	0.062
788	0.062
788	0.061
789	0.061
789	0.061
790	0.061
790	0.061
791	0.061
791	0.061
791	0.061
792	0.061
792	0.061
793	0.061
793	0.061
794	0.061
794	0.061
794	0.061
795	0.061
795	0.061
796	0.061
796	0.06
797	0.06
797	0.06
797	0.06
798	0.06
798	0.06
799	0.06
799	0.06
800	0.059
800	0.059
801	0.058
801	0.058
801	0.058
802	0.057
802	0.057
803	0.057
803	0.056
804	0.056
804	0.057
804	0.057
805	0.057
805	0.057
806	0.057
806	0.057
807	0.057
807	0.058
807	0.058
808	0.058
808	0.058
809	0.058
809	0.058
810	0.058
810	0.059
810	0.059
811	0.059
811	0.059
812	0.06
812	0.06
813	0.06
813	0.061
813	0.061
814	0.061
814	0.061
815	0.061
815	0.061
816	0.061
816	0.06
817	0.06
817	0.059
817	0.059
818	0.059
818	0.059
819	0.058
819	0.058
820	0.057
820	0.057
820	0.057
821	0.057
821	0.057
822	0.057
822	0.057
823	0.057
823	0.057
823	0.057
824	0.058
824	0.06
825	0.06
825	0.061
826	0.062
826	0.062
826	0.062
827	0.063
827	0.063
828	0.062
828	0.062
829	0.061
829	0.061
829	0.06
830	0.06
830	0.06
831	0.061
831	0.061
832	0.06
832	0.06
832	0.06
833	0.06
833	0.06
834	0.06
834	0.059
835	0.059
835	0.059
835	0.058
836	0.059
836	0.059
837	0.059
837	0.059
838	0.059
838	0.059
839	0.059
839	0.059
839	0.059
840	0.058
840	0.057
841	0.056
841	0.055
842	0.054
842	0.053
842	0.052
843	0.052
843	0.051
844	0.051
844	0.051
845	0.051
845	0.052
845	0.052
846	0.053
846	0.053
847	0.053
847	0.054
848	0.054
848	0.055
848	0.055
849	0.055
849	0.055
850	0.055
850	0.055
851	0.055
851	0.055
851	0.054
852	0.053
852	0.053
853	0.053
853	0.052
854	0.052
854	0.053
854	0.054
855	0.055
855	0.056
856	0.057
856	0.058
857	0.059
857	0.06
857	0.06
858	0.06
858	0.06
859	0.06
859	0.059
860	0.059
860	0.058
860	0.057
861	0.057
861	0.056
862	0.055
862	0.054
863	0.053
863	0.053
863	0.053
864	0.052
864	0.052
865	0.052
865	0.051
866	0.051
866	0.051
866	0.051
867	0.051
867	0.051
868	0.051
868	0.051
869	0.051
869	0.051
869	0.05
870	0.05
870	0.05
871	0.05
871	0.05
872	0.05
872	0.05
872	0.05
873	0.05
873	0.049
874	0.049
874	0.049
875	0.048
875	0.048
875	0.048
876	0.048
876	0.048
877	0.048
877	0.048
878	0.048
878	0.049
878	0.05
879	0.051
879	0.052
880	0.052
880	0.053
881	0.054
881	0.054
881	0.054
882	0.054
882	0.054
883	0.054
883	0.054
884	0.054
884	0.053
884	0.053
885	0.052
885	0.052
886	0.051
886	0.051
887	0.05
887	0.049
887	0.049
888	0.048
888	0.048
889	0.048
889	0.048
890	0.048
890	0.048
890	0.048
891	0.048
891	0.049
892	0.049
892	0.049
893	0.049
893	0.05
893	0.05
894	0.05
894	0.05
895	0.049
895	0.049
895	0.049
896	0.049
896	0.049
897	0.048
897	0.048
898	0.047
898	0.047
898	0.046
899	0.046
899	0.046
900	0.046
900	0.046
901	0.046
901	0.046
901	0.047
902	0.047
902	0.047
903	0.047
903	0.047
904	0.047
904	0.047
904	0.047
905	0.047
905	0.047
906	0.048
906	0.048
907	0.049
907	0.049
907	0.05
908	0.05
908	0.051
909	0.051
909	0.051
910	0.051
910	0.051
910	0.051
911	0.05
911	0.05
912	0.05
912	0.05
913	0.05
913	0.05
913	0.05
914	0.05
914	0.05
915	0.05
915	0.05
916	0.05
916	0.05
916	0.05
917	0.05
917	0.049
918	0.049
918	0.048
918	0.048
919	0.047
919	0.046
920	0.046
920	0.045
921	0.045
921	0.044
921	0.044
922	0.043
922	0.043
923	0.043
923	0.043
924	0.043
924	0.044
924	0.044
925	0.044
925	0.045
926	0.045
926	0.046
927	0.046
927	0.047
927	0.047
928	0.047
928	0.047
929	0.048
929	0.048
930	0.048
930	0.049
930	0.049
931	0.049
931	0.05
932	0.05
932	0.051
933	0.051
933	0.051
933	0.051
934	0.051
934	0.051
935	0.051
935	0.051
935	0.051
936	0.05
936	0.05
937	0.049
937	0.049
938	0.049
938	0.048
938	0.048
939	0.047
939	0.047
940	0.047
940	0.046
941	0.046
941	0.046
941	0.046
942	0.046
942	0.046
943	0.046
943	0.047
944	0.047
944	0.047
944	0.048
945	0.048
945	0.048
946	0.049
946	0.049
946	0.049
947	0.05
947	0.05
948	0.05
948	0.051
949	0.051
949	0.051
949	0.051
950	0.05
950	0.05
951	0.05
951	0.049
952	0.049
952	0.048
952	0.047
953	0.047
953	0.046
954	0.046
954	0.045
955	0.044
955	0.044
955	0.043
956	0.043
956	0.043
957	0.043
957	0.043
957	0.044
958	0.044
958	0.044
959	0.045
959	0.045
960	0.045
960	0.046
960	0.046
961	0.046
961	0.046
962	0.046
962	0.046
963	0.046
963	0.047
963	0.047
964	0.047
964	0.047
965	0.048
965	0.048
966	0.049
966	0.05
966	0.051
967	0.052
967	0.052
968	0.053
968	0.054
968	0.054
969	0.054
969	0.054
970	0.054
970	0.054
971	0.053
971	0.053
971	0.053
972	0.052
972	0.052
973	0.052
973	0.051
974	0.052
974	0.052
974	0.052
975	0.052
975	0.052
976	0.053
976	0.053
976	0.053
977	0.053
977	0.053
978	0.053
978	0.053
979	0.053
979	0.053
979	0.053
980	0.053
980	0.053
981	0.052
981	0.052
982	0.052
982	0.052
982	0.053
983	0.052
983	0.052
984	0.052
984	0.052
984	0.051
985	0.051
985	0.05
986	0.05
986	0.049
987	0.049
987	0.048
987	0.047
988	0.047
988	0.046
989	0.046
989	0.045
990	0.044
990	0.044
990	0.043
991	0.043
991	0.042
992	0.042
992	0.041
992	0.04
993	0.04
993	0.039
994	0.038
994	0.038
995	0.038
995	0.038
995	0.038
996	0.038
996	0.039
997	0.039
997	0.04
997	0.041
998	0.042
998	0.043
999	0.043
999	0.044
1000	0.045
1000	0.045
1000	0.045
1001	0.045
1001	0.045
1002	0.045
1002	0.045
1003	0.044
1003	0.043
1003	0.043
1004	0.042
1004	0.041
1005	0.04
1005	0.04
1005	0.039
1006	0.038
1006	0.038
1007	0.038
1007	0.038
1008	0.038
1008	0.038
1008	0.038
1009	0.038
1009	0.038
1010	0.039
1010	0.039
1010	0.039
1011	0.039
1011	0.039
1012	0.039
1012	0.04
1013	0.04
1013	0.04
1013	0.04
1014	0.039
1014	0.039
1015	0.039
1015	0.039
1016	0.039
1016	0.039
1016	0.039
1017	0.039
1017	0.038
1018	0.038
1018	0.038
1018	0.038
1019	0.038
1019	0.038
1020	0.038
1020	0.038
1021	0.038
1021	0.038
1021	0.038
1022	0.038
1022	0.038
1023	0.039
1023	0.039
1023	0.039
1024	0.039
1024	0.039
1025	0.039
1025	0.039
1026	0.038
1026	0.038
1026	0.038
1027	0.038
1027	0.038
1028	0.038
1028	0.037
1028	0.037
1029	0.037
1029	0.037
1030	0.037
1030	0.038
1031	0.038
1031	0.038
1031	0.038
1032	0.038
1032	0.039
1033	0.039
1033	0.039
1033	0.039
1034	0.039
1034	0.038
1035	0.038
1035	0.038
1036	0.038
1036	0.038
1036	0.037
1037	0.037
1037	0.037
1038	0.037
1038	0.037
1039	0.037
1039	0.037
1039	0.038
1040	0.038
1040	0.039
1041	0.039
1041	0.04
1041	0.04
1042	0.041
1042	0.041
1043	0.042
1043	0.042
1044	0.042
1044	0.043
1044	0.043
1045	0.043
1045	0.044
1046	0.044
1046	0.044
1046	0.045
1047	0.045
1047	0.046
1048	0.047
1048	0.047
1049	0.048
1049	0.048
1049	0.049
1050	0.049
1050	0.049
1051	0.05
1051	0.05
1051	0.05
1052	0.049
1052	0.049
1053	0.048
1053	0.048
1053	0.047
1054	0.047
1054	0.046
1055	0.046
1055	0.045
1056	0.044
1056	0.044
1056	0.043
1057	0.042
1057	0.041
1058	0.04
1058	0.039
1058	0.038
1059	0.037
1059	0.036
1060	0.036
1060	0.035
1061	0.034
1061	0.034
1061	0.034
1062	0.033
1062	0.033
1063	0.033
1063	0.033
1063	0.033
1064	0.032
1064	0.032
1065	0.032
1065	0.032
1066	0.032
1066	0.032
1066	0.032
1067	0.032
1067	0.032
1068	0.032
1068	0.032
1068	0.032
1069	0.032
1069	0.032
1070	0.031
1070	0.031
1071	0.03
1071	0.03
1071	0.029
1072	0.029
1072	0.029
1073	0.028
1073	0.028
1073	0.028
1074	0.028
1074	0.028
1075	0.028
1075	0.029
1076	0.029
1076	0.029
1076	0.03
1077	0.03
1077	0.03
1078	0.03
1078	0.03
1078	0.03
1079	0.03
1079	0.031
1080	0.03
1080	0.031
1080	0.031
1081	0.031
1081	0.031
1082	0.032
1082	0.032
1083	0.032
1083	0.032
1083	0.033
1084	0.032
1084	0.033
1085	0.032
1085	0.032
1085	0.032
1086	0.032
1086	0.031
1087	0.031
1087	0.03
1088	0.03
1088	0.03
1088	0.03
1089	0.029
1089	0.029
1090	0.028
1090	0.027
1090	0.027
1091	0.026
1091	0.026
1092	0.026
1092	0.026
1092	0.026
1093	0.025
1093	0.025
1094	0.025
1094	0.025
1095	0.025
1095	0.025
1095	0.025
1096	0.024
1096	0.024
1097	0.024
1097	0.023
1097	0.023
1098	0.023
1098	0.022
1099	0.022
1099	0.021
1100	0.02
1100	0.019
1100	0.019
1101	0.018
1101	0.017
1102	0.017
1102	0.016
1102	0.015
1103	0.015
1103	0.014
1104	0.014
1104	0.014
1104	0.013
1105	0.013
1105	0.012
1106	0.011
1106	0.01
1107	0.009
1107	0.009
1107	0.008
1108	0.007
1108	0.006
1109	0.005
1109	0.005
1109	0.005
1110	0.007
1110	0.006
1111	0.006
1111	0.007
