Data from reversibility-20sec_Absorbance__7815__000000000007815.txt Node

Date: Thu Dec 07 07:38:06 CET 2023
User: Marek
Spectrometer: MAYP115816
Trigger mode: 0
Integration Time (sec): 2.000000E-1
Scans to average: 10
Electric dark correction enabled: true
Nonlinearity correction enabled: true
Boxcar width: 5
XAxis mode: Wavelengths
Number of Pixels in Spectrum: 2068
>>>>>Begin Spectral Data<<<<<
199	-0.119
199	-0.098
200	-0.034
200	0.016
201	0.05
201	0.071
202	0.082
202	0.09
203	0.099
203	0.101
204	0.112
204	0.126
205	0.14
205	0.146
205	0.147
206	0.144
206	0.142
207	0.142
207	0.141
208	0.138
208	0.139
209	0.143
209	0.142
210	0.143
210	0.144
211	0.145
211	0.148
212	0.144
212	0.146
213	0.147
213	0.151
213	0.15
214	0.153
214	0.154
215	0.155
215	0.153
216	0.153
216	0.152
217	0.159
217	0.161
218	0.16
218	0.164
219	0.167
219	0.169
220	0.171
220	0.171
221	0.174
221	0.175
221	0.181
222	0.186
222	0.189
223	0.198
223	0.2
224	0.207
224	0.211
225	0.221
225	0.235
226	0.244
226	0.255
227	0.265
227	0.275
228	0.29
228	0.307
229	0.323
229	0.346
229	0.368
230	0.392
230	0.418
231	0.451
231	0.49
232	0.526
232	0.569
233	0.614
233	0.657
234	0.71
234	0.763
235	0.817
235	0.873
236	0.927
236	0.976
236	1.029
237	1.082
237	1.13
238	1.177
238	1.226
239	1.269
239	1.309
240	1.349
240	1.383
241	1.417
241	1.451
242	1.481
242	1.514
243	1.542
243	1.569
243	1.593
244	1.617
244	1.638
245	1.656
245	1.677
246	1.694
246	1.711
247	1.724
247	1.738
248	1.751
248	1.762
249	1.77
249	1.779
250	1.784
250	1.791
250	1.794
251	1.798
251	1.801
252	1.805
252	1.805
253	1.806
253	1.804
254	1.805
254	1.805
255	1.806
255	1.806
256	1.805
256	1.806
257	1.806
257	1.804
258	1.804
258	1.804
258	1.805
259	1.804
259	1.803
260	1.803
260	1.803
261	1.803
261	1.804
262	1.807
262	1.807
263	1.81
263	1.812
264	1.811
264	1.812
265	1.814
265	1.815
265	1.814
266	1.815
266	1.815
267	1.812
267	1.814
268	1.813
268	1.813
269	1.814
269	1.813
270	1.812
270	1.811
271	1.81
271	1.809
272	1.807
272	1.807
272	1.803
273	1.797
273	1.792
274	1.787
274	1.782
275	1.776
275	1.771
276	1.763
276	1.755
277	1.747
277	1.736
278	1.723
278	1.712
278	1.698
279	1.682
279	1.663
280	1.638
280	1.609
281	1.575
281	1.536
282	1.495
282	1.453
283	1.412
283	1.371
284	1.331
284	1.292
285	1.255
285	1.222
285	1.191
286	1.164
286	1.141
287	1.121
287	1.103
288	1.088
288	1.075
289	1.064
289	1.054
290	1.046
290	1.039
291	1.032
291	1.027
292	1.021
292	1.017
292	1.012
293	1.008
293	1.004
294	1.001
294	0.997
295	0.994
295	0.991
296	0.987
296	0.984
297	0.98
297	0.977
298	0.974
298	0.971
298	0.967
299	0.964
299	0.961
300	0.958
300	0.955
301	0.952
301	0.949
302	0.947
302	0.944
303	0.941
303	0.939
304	0.937
304	0.934
305	0.932
305	0.929
305	0.927
306	0.924
306	0.922
307	0.919
307	0.916
308	0.914
308	0.911
309	0.908
309	0.905
310	0.902
310	0.899
311	0.895
311	0.892
311	0.888
312	0.885
312	0.882
313	0.878
313	0.874
314	0.87
314	0.866
315	0.861
315	0.857
316	0.853
316	0.848
317	0.843
317	0.838
318	0.833
318	0.828
318	0.823
319	0.817
319	0.811
320	0.806
320	0.8
321	0.794
321	0.787
322	0.781
322	0.774
323	0.768
323	0.761
324	0.755
324	0.748
324	0.741
325	0.734
325	0.727
326	0.72
326	0.713
327	0.706
327	0.699
328	0.692
328	0.684
329	0.677
329	0.67
330	0.662
330	0.655
330	0.648
331	0.641
331	0.634
332	0.627
332	0.62
333	0.613
333	0.606
334	0.599
334	0.592
335	0.585
335	0.578
336	0.571
336	0.564
336	0.557
337	0.551
337	0.544
338	0.538
338	0.532
339	0.525
339	0.519
340	0.513
340	0.507
341	0.501
341	0.496
342	0.49
342	0.485
342	0.479
343	0.474
343	0.468
344	0.463
344	0.458
345	0.453
345	0.449
346	0.444
346	0.439
347	0.435
347	0.431
348	0.426
348	0.423
348	0.419
349	0.415
349	0.411
350	0.407
350	0.404
351	0.4
351	0.397
352	0.394
352	0.391
353	0.387
353	0.384
354	0.381
354	0.378
354	0.375
355	0.372
355	0.369
356	0.366
356	0.364
357	0.36
357	0.357
358	0.355
358	0.352
359	0.349
359	0.347
360	0.345
360	0.343
360	0.341
361	0.339
361	0.337
362	0.336
362	0.334
363	0.333
363	0.331
364	0.329
364	0.327
365	0.325
365	0.323
366	0.321
366	0.32
366	0.318
367	0.316
367	0.315
368	0.313
368	0.311
369	0.31
369	0.308
370	0.307
370	0.306
371	0.304
371	0.303
372	0.302
372	0.3
372	0.299
373	0.298
373	0.297
374	0.296
374	0.295
375	0.294
375	0.293
376	0.292
376	0.291
377	0.29
377	0.289
378	0.288
378	0.288
378	0.287
379	0.286
379	0.285
380	0.284
380	0.283
381	0.282
381	0.282
382	0.281
382	0.281
383	0.28
383	0.279
383	0.279
384	0.278
384	0.278
385	0.277
385	0.277
386	0.277
386	0.276
387	0.275
387	0.275
388	0.275
388	0.274
389	0.274
389	0.274
389	0.273
390	0.273
390	0.272
391	0.272
391	0.272
392	0.271
392	0.271
393	0.271
393	0.27
394	0.27
394	0.269
394	0.269
395	0.268
395	0.268
396	0.268
396	0.267
397	0.267
397	0.266
398	0.266
398	0.266
399	0.265
399	0.265
400	0.265
400	0.265
400	0.264
401	0.264
401	0.264
402	0.263
402	0.263
403	0.262
403	0.262
404	0.262
404	0.262
405	0.261
405	0.261
405	0.261
406	0.261
406	0.26
407	0.26
407	0.26
408	0.259
408	0.259
409	0.259
409	0.258
410	0.258
410	0.258
411	0.257
411	0.257
411	0.257
412	0.257
412	0.256
413	0.256
413	0.256
414	0.256
414	0.255
415	0.255
415	0.255
416	0.254
416	0.254
416	0.254
417	0.253
417	0.253
418	0.253
418	0.252
419	0.252
419	0.251
420	0.251
420	0.25
421	0.25
421	0.249
421	0.249
422	0.249
422	0.248
423	0.248
423	0.248
424	0.248
424	0.247
425	0.247
425	0.247
426	0.247
426	0.247
427	0.246
427	0.246
427	0.246
428	0.245
428	0.245
429	0.244
429	0.244
430	0.243
430	0.243
431	0.243
431	0.243
432	0.243
432	0.242
432	0.242
433	0.242
433	0.242
434	0.242
434	0.242
435	0.242
435	0.241
436	0.241
436	0.241
437	0.241
437	0.24
437	0.24
438	0.24
438	0.24
439	0.239
439	0.239
440	0.239
440	0.239
441	0.238
441	0.238
442	0.237
442	0.237
442	0.237
443	0.237
443	0.237
444	0.237
444	0.236
445	0.236
445	0.236
446	0.236
446	0.236
447	0.235
447	0.235
447	0.235
448	0.235
448	0.235
449	0.235
449	0.235
450	0.235
450	0.235
451	0.235
451	0.235
452	0.235
452	0.234
452	0.234
453	0.234
453	0.234
454	0.234
454	0.233
455	0.233
455	0.232
456	0.232
456	0.232
457	0.232
457	0.232
458	0.232
458	0.231
458	0.231
459	0.231
459	0.231
460	0.231
460	0.231
461	0.231
461	0.231
462	0.231
462	0.231
463	0.231
463	0.23
463	0.23
464	0.23
464	0.23
465	0.23
465	0.23
466	0.229
466	0.23
467	0.23
467	0.23
467	0.23
468	0.23
468	0.23
469	0.23
469	0.231
470	0.231
470	0.231
471	0.231
471	0.231
472	0.231
472	0.231
472	0.231
473	0.231
473	0.231
474	0.231
474	0.231
475	0.231
475	0.231
476	0.23
476	0.231
477	0.231
477	0.231
477	0.231
478	0.231
478	0.231
479	0.232
479	0.231
480	0.232
480	0.232
481	0.232
481	0.232
482	0.233
482	0.233
482	0.233
483	0.233
483	0.234
484	0.234
484	0.234
485	0.234
485	0.234
486	0.234
486	0.234
487	0.234
487	0.235
487	0.235
488	0.235
488	0.235
489	0.236
489	0.237
490	0.238
490	0.238
491	0.239
491	0.24
492	0.24
492	0.241
492	0.241
493	0.242
493	0.243
494	0.243
494	0.244
495	0.244
495	0.245
496	0.245
496	0.246
496	0.247
497	0.247
497	0.248
498	0.249
498	0.249
499	0.25
499	0.251
500	0.252
500	0.253
501	0.253
501	0.254
501	0.254
502	0.255
502	0.255
503	0.256
503	0.257
504	0.257
504	0.258
505	0.258
505	0.259
506	0.259
506	0.26
506	0.261
507	0.261
507	0.262
508	0.262
508	0.263
509	0.263
509	0.264
510	0.264
510	0.265
511	0.265
511	0.266
511	0.266
512	0.267
512	0.268
513	0.268
513	0.269
514	0.269
514	0.27
515	0.27
515	0.271
515	0.271
516	0.272
516	0.272
517	0.273
517	0.273
518	0.273
518	0.273
519	0.274
519	0.274
520	0.274
520	0.274
520	0.274
521	0.274
521	0.274
522	0.275
522	0.275
523	0.275
523	0.275
524	0.275
524	0.275
524	0.275
525	0.276
525	0.275
526	0.275
526	0.275
527	0.275
527	0.275
528	0.275
528	0.275
529	0.274
529	0.274
529	0.273
530	0.273
530	0.273
531	0.272
531	0.272
532	0.271
532	0.27
533	0.27
533	0.269
533	0.269
534	0.268
534	0.267
535	0.267
535	0.267
536	0.266
536	0.265
537	0.265
537	0.264
538	0.263
538	0.263
538	0.262
539	0.261
539	0.261
540	0.26
540	0.259
541	0.259
541	0.258
542	0.257
542	0.257
542	0.256
543	0.255
543	0.255
544	0.254
544	0.253
545	0.252
545	0.251
546	0.25
546	0.249
547	0.248
547	0.247
547	0.246
548	0.245
548	0.244
549	0.244
549	0.243
550	0.242
550	0.241
551	0.24
551	0.239
551	0.239
552	0.238
552	0.237
553	0.236
553	0.236
554	0.235
554	0.234
555	0.233
555	0.231
556	0.231
556	0.23
556	0.229
557	0.229
557	0.228
558	0.228
558	0.227
559	0.227
559	0.226
560	0.225
560	0.225
560	0.224
561	0.224
561	0.222
562	0.221
562	0.22
563	0.219
563	0.218
564	0.216
564	0.216
564	0.215
565	0.214
565	0.213
566	0.212
566	0.212
567	0.211
567	0.211
568	0.21
568	0.21
568	0.209
569	0.208
569	0.207
570	0.206
570	0.205
571	0.204
571	0.203
572	0.202
572	0.201
573	0.201
573	0.2
573	0.199
574	0.199
574	0.198
575	0.198
575	0.197
576	0.197
576	0.195
577	0.194
577	0.194
577	0.193
578	0.192
578	0.192
579	0.192
579	0.192
580	0.191
580	0.19
581	0.19
581	0.189
581	0.189
582	0.189
582	0.189
583	0.188
583	0.188
584	0.187
584	0.185
585	0.184
585	0.184
585	0.184
586	0.183
586	0.183
587	0.182
587	0.181
588	0.181
588	0.18
589	0.18
589	0.18
590	0.18
590	0.179
590	0.179
591	0.179
591	0.178
592	0.178
592	0.177
593	0.176
593	0.176
594	0.175
594	0.175
594	0.174
595	0.174
595	0.173
596	0.172
596	0.172
597	0.173
597	0.173
598	0.173
598	0.173
598	0.172
599	0.172
599	0.171
600	0.171
600	0.17
601	0.17
601	0.17
602	0.169
602	0.168
602	0.168
603	0.167
603	0.167
604	0.167
604	0.167
605	0.167
605	0.167
606	0.166
606	0.166
606	0.165
607	0.165
607	0.164
608	0.164
608	0.163
609	0.162
609	0.162
610	0.161
610	0.161
610	0.161
611	0.161
611	0.161
612	0.161
612	0.161
613	0.161
613	0.161
614	0.161
614	0.161
614	0.161
615	0.161
615	0.161
616	0.161
616	0.16
617	0.16
617	0.16
618	0.16
618	0.16
618	0.159
619	0.159
619	0.159
620	0.159
620	0.159
621	0.158
621	0.157
622	0.157
622	0.156
622	0.156
623	0.155
623	0.155
624	0.155
624	0.155
625	0.154
625	0.155
626	0.154
626	0.154
626	0.155
627	0.155
627	0.155
628	0.154
628	0.154
629	0.154
629	0.154
630	0.154
630	0.153
630	0.154
631	0.153
631	0.153
632	0.153
632	0.152
633	0.152
633	0.152
634	0.152
634	0.152
634	0.151
635	0.151
635	0.15
636	0.15
636	0.15
637	0.15
637	0.149
638	0.149
638	0.149
638	0.148
639	0.148
639	0.148
640	0.148
640	0.148
641	0.147
641	0.147
642	0.147
642	0.147
642	0.147
643	0.147
643	0.147
644	0.147
644	0.148
645	0.148
645	0.148
646	0.148
646	0.148
646	0.148
647	0.148
647	0.148
648	0.147
648	0.147
649	0.146
649	0.146
650	0.146
650	0.146
650	0.146
651	0.146
651	0.146
652	0.146
652	0.146
653	0.147
653	0.148
653	0.153
654	0.122
654	0.098
655	0.098
655	0.098
656	0.098
656	0.098
657	0.098
657	0.099
657	0.099
658	0.098
658	0.089
659	0.112
659	0.142
660	0.147
660	0.147
661	0.146
661	0.145
661	0.145
662	0.144
662	0.144
663	0.144
663	0.144
664	0.143
664	0.143
665	0.143
665	0.143
665	0.144
666	0.144
666	0.144
667	0.144
667	0.144
668	0.144
668	0.144
669	0.144
669	0.144
669	0.145
670	0.145
670	0.145
671	0.144
671	0.144
672	0.144
672	0.143
672	0.143
673	0.142
673	0.142
674	0.142
674	0.141
675	0.141
675	0.141
676	0.142
676	0.142
676	0.142
677	0.143
677	0.143
678	0.143
678	0.143
679	0.143
679	0.143
680	0.143
680	0.142
680	0.142
681	0.142
681	0.142
682	0.142
682	0.142
683	0.142
683	0.142
684	0.142
684	0.142
684	0.142
685	0.142
685	0.142
686	0.142
686	0.142
687	0.142
687	0.143
687	0.143
688	0.143
688	0.144
689	0.144
689	0.145
690	0.145
690	0.145
691	0.145
691	0.145
691	0.145
692	0.145
692	0.145
693	0.145
693	0.146
694	0.145
694	0.145
695	0.146
695	0.147
695	0.147
696	0.147
696	0.147
697	0.147
697	0.147
698	0.147
698	0.146
698	0.146
699	0.146
699	0.145
700	0.144
700	0.144
701	0.144
701	0.143
702	0.142
702	0.142
702	0.141
703	0.141
703	0.14
704	0.14
704	0.14
705	0.14
705	0.14
705	0.14
706	0.14
706	0.14
707	0.14
707	0.14
708	0.14
708	0.141
709	0.141
709	0.141
709	0.141
710	0.142
710	0.142
711	0.143
711	0.143
712	0.144
712	0.144
713	0.144
713	0.144
713	0.144
714	0.144
714	0.144
715	0.144
715	0.143
716	0.143
716	0.143
716	0.142
717	0.141
717	0.141
718	0.141
718	0.141
719	0.142
719	0.142
720	0.143
720	0.143
720	0.144
721	0.145
721	0.146
722	0.146
722	0.147
723	0.147
723	0.147
723	0.146
724	0.146
724	0.145
725	0.144
725	0.144
726	0.143
726	0.142
727	0.142
727	0.141
727	0.141
728	0.14
728	0.14
729	0.14
729	0.14
730	0.14
730	0.14
730	0.141
731	0.141
731	0.141
732	0.142
732	0.142
733	0.143
733	0.143
734	0.144
734	0.144
734	0.145
735	0.146
735	0.146
736	0.146
736	0.146
737	0.146
737	0.146
737	0.146
738	0.145
738	0.145
739	0.144
739	0.144
740	0.144
740	0.144
741	0.145
741	0.145
741	0.145
742	0.146
742	0.147
743	0.148
743	0.148
744	0.149
744	0.15
744	0.15
745	0.15
745	0.15
746	0.15
746	0.149
747	0.149
747	0.149
748	0.149
748	0.148
748	0.148
749	0.148
749	0.148
750	0.148
750	0.148
751	0.149
751	0.149
751	0.149
752	0.149
752	0.149
753	0.148
753	0.148
754	0.148
754	0.147
754	0.147
755	0.147
755	0.147
756	0.146
756	0.145
757	0.145
757	0.145
758	0.145
758	0.145
758	0.145
759	0.145
759	0.145
760	0.145
760	0.144
761	0.145
761	0.145
761	0.146
762	0.145
762	0.146
763	0.146
763	0.146
764	0.145
764	0.145
764	0.145
765	0.145
765	0.144
766	0.144
766	0.144
767	0.144
767	0.143
768	0.143
768	0.143
768	0.143
769	0.143
769	0.143
770	0.143
770	0.144
771	0.144
771	0.144
771	0.144
772	0.145
772	0.145
773	0.145
773	0.146
774	0.146
774	0.146
775	0.146
775	0.146
775	0.146
776	0.146
776	0.147
777	0.147
777	0.148
778	0.148
778	0.147
778	0.147
779	0.147
779	0.146
780	0.145
780	0.144
781	0.143
781	0.143
781	0.142
782	0.141
782	0.141
783	0.141
783	0.141
784	0.141
784	0.142
784	0.142
785	0.143
785	0.143
786	0.143
786	0.144
787	0.144
787	0.144
788	0.144
788	0.144
788	0.143
789	0.143
789	0.143
790	0.143
790	0.143
791	0.143
791	0.143
791	0.143
792	0.144
792	0.144
793	0.143
793	0.143
794	0.143
794	0.143
794	0.143
795	0.142
795	0.143
796	0.143
796	0.142
797	0.142
797	0.142
797	0.142
798	0.141
798	0.141
799	0.141
799	0.141
800	0.141
800	0.14
801	0.14
801	0.14
801	0.14
802	0.14
802	0.141
803	0.141
803	0.141
804	0.141
804	0.142
804	0.142
805	0.142
805	0.141
806	0.141
806	0.141
807	0.141
807	0.141
807	0.141
808	0.141
808	0.14
809	0.14
809	0.14
810	0.141
810	0.141
810	0.141
811	0.141
811	0.142
812	0.142
812	0.142
813	0.143
813	0.143
813	0.144
814	0.144
814	0.145
815	0.145
815	0.145
816	0.145
816	0.145
817	0.144
817	0.144
817	0.144
818	0.144
818	0.143
819	0.142
819	0.141
820	0.14
820	0.14
820	0.139
821	0.139
821	0.139
822	0.138
822	0.138
823	0.138
823	0.138
823	0.138
824	0.139
824	0.14
825	0.141
825	0.142
826	0.143
826	0.143
826	0.144
827	0.145
827	0.145
828	0.146
828	0.146
829	0.146
829	0.147
829	0.147
830	0.147
830	0.147
831	0.147
831	0.147
832	0.146
832	0.146
832	0.146
833	0.146
833	0.145
834	0.145
834	0.144
835	0.143
835	0.143
835	0.142
836	0.142
836	0.142
837	0.141
837	0.141
838	0.14
838	0.139
839	0.139
839	0.138
839	0.137
840	0.136
840	0.135
841	0.134
841	0.133
842	0.133
842	0.132
842	0.131
843	0.131
843	0.13
844	0.13
844	0.129
845	0.129
845	0.129
845	0.129
846	0.129
846	0.129
847	0.129
847	0.129
848	0.129
848	0.129
848	0.129
849	0.129
849	0.128
850	0.128
850	0.127
851	0.127
851	0.127
851	0.127
852	0.126
852	0.126
853	0.126
853	0.126
854	0.126
854	0.127
854	0.128
855	0.129
855	0.13
856	0.131
856	0.132
857	0.133
857	0.134
857	0.135
858	0.135
858	0.135
859	0.135
859	0.135
860	0.135
860	0.134
860	0.134
861	0.133
861	0.133
862	0.132
862	0.131
863	0.13
863	0.13
863	0.13
864	0.13
864	0.13
865	0.13
865	0.13
866	0.13
866	0.13
866	0.13
867	0.13
867	0.13
868	0.131
868	0.13
869	0.13
869	0.13
869	0.129
870	0.129
870	0.129
871	0.129
871	0.129
872	0.128
872	0.128
872	0.128
873	0.128
873	0.127
874	0.126
874	0.126
875	0.126
875	0.125
875	0.125
876	0.125
876	0.124
877	0.124
877	0.124
878	0.124
878	0.124
878	0.124
879	0.125
879	0.125
880	0.125
880	0.125
881	0.125
881	0.125
881	0.125
882	0.125
882	0.125
883	0.125
883	0.125
884	0.125
884	0.125
884	0.124
885	0.124
885	0.124
886	0.123
886	0.123
887	0.123
887	0.123
887	0.123
888	0.122
888	0.122
889	0.122
889	0.122
890	0.122
890	0.123
890	0.123
891	0.124
891	0.124
892	0.124
892	0.124
893	0.124
893	0.124
893	0.123
894	0.123
894	0.122
895	0.121
895	0.121
895	0.12
896	0.12
896	0.12
897	0.119
897	0.119
898	0.118
898	0.118
898	0.118
899	0.118
899	0.118
900	0.118
900	0.117
901	0.117
901	0.117
901	0.117
902	0.117
902	0.117
903	0.117
903	0.117
904	0.117
904	0.117
904	0.116
905	0.116
905	0.115
906	0.115
906	0.115
907	0.114
907	0.114
907	0.114
908	0.114
908	0.114
909	0.113
909	0.113
910	0.113
910	0.113
910	0.112
911	0.112
911	0.111
912	0.111
912	0.111
913	0.11
913	0.11
913	0.109
914	0.109
914	0.109
915	0.108
915	0.108
916	0.108
916	0.108
916	0.108
917	0.108
917	0.108
918	0.108
918	0.108
918	0.107
919	0.107
919	0.107
920	0.107
920	0.107
921	0.107
921	0.107
921	0.107
922	0.107
922	0.107
923	0.107
923	0.107
924	0.108
924	0.108
924	0.108
925	0.108
925	0.108
926	0.108
926	0.108
927	0.108
927	0.108
927	0.108
928	0.108
928	0.109
929	0.109
929	0.109
930	0.109
930	0.109
930	0.109
931	0.109
931	0.109
932	0.109
932	0.109
933	0.109
933	0.108
933	0.108
934	0.108
934	0.107
935	0.107
935	0.106
935	0.106
936	0.105
936	0.105
937	0.104
937	0.103
938	0.103
938	0.102
938	0.101
939	0.1
939	0.1
940	0.099
940	0.099
941	0.099
941	0.1
941	0.1
942	0.1
942	0.101
943	0.102
943	0.102
944	0.103
944	0.103
944	0.104
945	0.104
945	0.104
946	0.104
946	0.104
946	0.104
947	0.104
947	0.103
948	0.103
948	0.102
949	0.102
949	0.101
949	0.1
950	0.1
950	0.099
951	0.099
951	0.098
952	0.097
952	0.096
952	0.096
953	0.095
953	0.095
954	0.095
954	0.095
955	0.095
955	0.095
955	0.095
956	0.096
956	0.097
957	0.098
957	0.099
957	0.1
958	0.101
958	0.101
959	0.102
959	0.103
960	0.104
960	0.104
960	0.105
961	0.105
961	0.105
962	0.105
962	0.104
963	0.104
963	0.104
963	0.103
964	0.103
964	0.103
965	0.102
965	0.102
966	0.101
966	0.101
966	0.101
967	0.101
967	0.101
968	0.1
968	0.1
968	0.1
969	0.099
969	0.098
970	0.098
970	0.097
971	0.096
971	0.096
971	0.095
972	0.094
972	0.094
973	0.093
973	0.093
974	0.092
974	0.092
974	0.093
975	0.093
975	0.093
976	0.093
976	0.093
976	0.093
977	0.093
977	0.093
978	0.093
978	0.093
979	0.093
979	0.093
979	0.093
980	0.093
980	0.093
981	0.093
981	0.094
982	0.094
982	0.094
982	0.095
983	0.095
983	0.095
984	0.096
984	0.096
984	0.095
985	0.095
985	0.095
986	0.095
986	0.094
987	0.094
987	0.093
987	0.093
988	0.092
988	0.092
989	0.092
989	0.092
990	0.092
990	0.091
990	0.092
991	0.092
991	0.092
992	0.091
992	0.091
992	0.09
993	0.09
993	0.089
994	0.088
994	0.088
995	0.087
995	0.087
995	0.087
996	0.087
996	0.086
997	0.086
997	0.087
997	0.087
998	0.087
998	0.088
999	0.088
999	0.089
1000	0.089
1000	0.09
1000	0.09
1001	0.09
1001	0.091
1002	0.091
1002	0.091
1003	0.091
1003	0.091
1003	0.09
1004	0.09
1004	0.089
1005	0.089
1005	0.089
1005	0.088
1006	0.088
1006	0.088
1007	0.087
1007	0.087
1008	0.086
1008	0.086
1008	0.085
1009	0.085
1009	0.085
1010	0.085
1010	0.084
1010	0.084
1011	0.084
1011	0.083
1012	0.083
1012	0.082
1013	0.082
1013	0.082
1013	0.081
1014	0.081
1014	0.08
1015	0.08
1015	0.08
1016	0.08
1016	0.08
1016	0.08
1017	0.08
1017	0.079
1018	0.079
1018	0.079
1018	0.079
1019	0.079
1019	0.079
1020	0.079
1020	0.079
1021	0.08
1021	0.08
1021	0.081
1022	0.081
1022	0.081
1023	0.081
1023	0.082
1023	0.083
1024	0.083
1024	0.083
1025	0.083
1025	0.083
1026	0.083
1026	0.082
1026	0.082
1027	0.082
1027	0.082
1028	0.082
1028	0.082
1028	0.082
1029	0.082
1029	0.081
1030	0.081
1030	0.081
1031	0.081
1031	0.081
1031	0.081
1032	0.081
1032	0.081
1033	0.081
1033	0.081
1033	0.081
1034	0.081
1034	0.081
1035	0.081
1035	0.081
1036	0.081
1036	0.081
1036	0.081
1037	0.081
1037	0.081
1038	0.081
1038	0.08
1039	0.08
1039	0.08
1039	0.08
1040	0.08
1040	0.08
1041	0.08
1041	0.079
1041	0.079
1042	0.078
1042	0.078
1043	0.077
1043	0.077
1044	0.077
1044	0.076
1044	0.076
1045	0.076
1045	0.075
1046	0.075
1046	0.075
1046	0.075
1047	0.075
1047	0.074
1048	0.074
1048	0.074
1049	0.074
1049	0.074
1049	0.074
1050	0.074
1050	0.073
1051	0.073
1051	0.073
1051	0.073
1052	0.072
1052	0.072
1053	0.072
1053	0.071
1053	0.071
1054	0.071
1054	0.07
1055	0.07
1055	0.07
1056	0.069
1056	0.069
1056	0.068
1057	0.068
1057	0.068
1058	0.067
1058	0.067
1058	0.067
1059	0.066
1059	0.066
1060	0.066
1060	0.066
1061	0.066
1061	0.066
1061	0.066
1062	0.066
1062	0.066
1063	0.066
1063	0.066
1063	0.066
1064	0.065
1064	0.065
1065	0.065
1065	0.065
1066	0.065
1066	0.065
1066	0.065
1067	0.065
1067	0.065
1068	0.065
1068	0.066
1068	0.066
1069	0.066
1069	0.065
1070	0.065
1070	0.065
1071	0.065
1071	0.064
1071	0.064
1072	0.064
1072	0.063
1073	0.063
1073	0.062
1073	0.062
1074	0.062
1074	0.062
1075	0.062
1075	0.062
1076	0.063
1076	0.064
1076	0.064
1077	0.065
1077	0.065
1078	0.065
1078	0.065
1078	0.065
1079	0.065
1079	0.065
1080	0.064
1080	0.064
1080	0.063
1081	0.063
1081	0.063
1082	0.063
1082	0.063
1083	0.062
1083	0.062
1083	0.062
1084	0.062
1084	0.062
1085	0.062
1085	0.062
1085	0.062
1086	0.062
1086	0.061
1087	0.061
1087	0.061
1088	0.061
1088	0.061
1088	0.061
1089	0.061
1089	0.06
1090	0.06
1090	0.059
1090	0.058
1091	0.059
1091	0.059
1092	0.059
1092	0.059
1092	0.059
1093	0.058
1093	0.058
1094	0.058
1094	0.058
1095	0.058
1095	0.058
1095	0.057
1096	0.056
1096	0.056
1097	0.055
1097	0.054
1097	0.053
1098	0.053
1098	0.051
1099	0.051
1099	0.05
1100	0.05
1100	0.049
1100	0.048
1101	0.047
1101	0.047
1102	0.047
1102	0.046
1102	0.046
1103	0.045
1103	0.045
1104	0.044
1104	0.045
1104	0.045
1105	0.044
1105	0.043
1106	0.043
1106	0.042
1107	0.042
1107	0.043
1107	0.043
1108	0.042
1108	0.041
1109	0.039
1109	0.039
1109	0.039
1110	0.041
1110	0.041
1111	0.043
1111	0.038
