Data from reversibility-20sec_Absorbance__5646__000000000005646.txt Node

Date: Wed Dec 06 19:35:05 CET 2023
User: Marek
Spectrometer: MAYP115816
Trigger mode: 0
Integration Time (sec): 2.000000E-1
Scans to average: 10
Electric dark correction enabled: true
Nonlinearity correction enabled: true
Boxcar width: 5
XAxis mode: Wavelengths
Number of Pixels in Spectrum: 2068
>>>>>Begin Spectral Data<<<<<
199	-0.145
199	-0.124
200	-0.055
200	0
201	0.031
201	0.051
202	0.061
202	0.064
203	0.071
203	0.075
204	0.087
204	0.102
205	0.116
205	0.12
205	0.116
206	0.117
206	0.116
207	0.119
207	0.12
208	0.119
208	0.117
209	0.119
209	0.114
210	0.114
210	0.115
211	0.115
211	0.113
212	0.11
212	0.11
213	0.112
213	0.114
213	0.118
214	0.123
214	0.125
215	0.125
215	0.125
216	0.127
216	0.13
217	0.135
217	0.138
218	0.137
218	0.141
219	0.143
219	0.141
220	0.142
220	0.142
221	0.143
221	0.147
221	0.151
222	0.155
222	0.157
223	0.165
223	0.168
224	0.173
224	0.181
225	0.191
225	0.205
226	0.215
226	0.229
227	0.237
227	0.243
228	0.258
228	0.27
229	0.283
229	0.309
229	0.334
230	0.355
230	0.381
231	0.411
231	0.444
232	0.482
232	0.527
233	0.57
233	0.622
234	0.676
234	0.727
235	0.778
235	0.831
236	0.883
236	0.934
236	0.987
237	1.039
237	1.089
238	1.138
238	1.186
239	1.23
239	1.269
240	1.308
240	1.346
241	1.384
241	1.418
242	1.45
242	1.483
243	1.511
243	1.535
243	1.557
244	1.58
244	1.601
245	1.619
245	1.641
246	1.659
246	1.676
247	1.689
247	1.702
248	1.717
248	1.73
249	1.741
249	1.744
250	1.754
250	1.76
250	1.762
251	1.766
251	1.767
252	1.77
252	1.771
253	1.771
253	1.766
254	1.763
254	1.766
255	1.762
255	1.765
256	1.763
256	1.763
257	1.763
257	1.761
258	1.761
258	1.761
258	1.763
259	1.764
259	1.764
260	1.764
260	1.765
261	1.766
261	1.769
262	1.772
262	1.774
263	1.776
263	1.777
264	1.779
264	1.78
265	1.78
265	1.782
265	1.781
266	1.782
266	1.78
267	1.777
267	1.779
268	1.779
268	1.78
269	1.781
269	1.781
270	1.78
270	1.779
271	1.778
271	1.778
272	1.776
272	1.776
272	1.77
273	1.764
273	1.757
274	1.749
274	1.741
275	1.733
275	1.726
276	1.717
276	1.709
277	1.701
277	1.689
278	1.678
278	1.665
278	1.65
279	1.633
279	1.612
280	1.584
280	1.551
281	1.512
281	1.47
282	1.424
282	1.379
283	1.336
283	1.293
284	1.252
284	1.213
285	1.177
285	1.144
285	1.115
286	1.089
286	1.066
287	1.047
287	1.031
288	1.017
288	1.005
289	0.995
289	0.987
290	0.979
290	0.973
291	0.967
291	0.962
292	0.958
292	0.954
292	0.95
293	0.947
293	0.944
294	0.941
294	0.938
295	0.936
295	0.933
296	0.93
296	0.927
297	0.924
297	0.922
298	0.919
298	0.916
298	0.913
299	0.911
299	0.908
300	0.905
300	0.903
301	0.9
301	0.898
302	0.895
302	0.893
303	0.891
303	0.889
304	0.887
304	0.885
305	0.883
305	0.881
305	0.878
306	0.876
306	0.874
307	0.872
307	0.87
308	0.868
308	0.865
309	0.863
309	0.86
310	0.857
310	0.855
311	0.852
311	0.849
311	0.846
312	0.842
312	0.839
313	0.835
313	0.832
314	0.828
314	0.824
315	0.82
315	0.816
316	0.812
316	0.807
317	0.803
317	0.798
318	0.793
318	0.788
318	0.783
319	0.778
319	0.773
320	0.767
320	0.762
321	0.756
321	0.75
322	0.743
322	0.737
323	0.731
323	0.725
324	0.718
324	0.712
324	0.705
325	0.699
325	0.692
326	0.685
326	0.678
327	0.672
327	0.665
328	0.658
328	0.651
329	0.644
329	0.637
330	0.63
330	0.623
330	0.616
331	0.609
331	0.602
332	0.596
332	0.589
333	0.582
333	0.575
334	0.568
334	0.561
335	0.555
335	0.548
336	0.541
336	0.535
336	0.529
337	0.522
337	0.516
338	0.51
338	0.504
339	0.498
339	0.492
340	0.486
340	0.48
341	0.475
341	0.469
342	0.464
342	0.459
342	0.453
343	0.448
343	0.443
344	0.438
344	0.433
345	0.429
345	0.424
346	0.42
346	0.415
347	0.411
347	0.407
348	0.403
348	0.399
348	0.396
349	0.392
349	0.388
350	0.385
350	0.381
351	0.378
351	0.375
352	0.372
352	0.369
353	0.366
353	0.363
354	0.36
354	0.357
354	0.354
355	0.351
355	0.348
356	0.346
356	0.343
357	0.34
357	0.337
358	0.335
358	0.332
359	0.33
359	0.328
360	0.326
360	0.324
360	0.322
361	0.32
361	0.319
362	0.318
362	0.316
363	0.314
363	0.313
364	0.311
364	0.309
365	0.307
365	0.306
366	0.304
366	0.302
366	0.301
367	0.299
367	0.297
368	0.296
368	0.294
369	0.293
369	0.292
370	0.29
370	0.289
371	0.288
371	0.287
372	0.285
372	0.284
372	0.283
373	0.282
373	0.281
374	0.28
374	0.279
375	0.279
375	0.278
376	0.277
376	0.276
377	0.275
377	0.274
378	0.274
378	0.273
378	0.272
379	0.272
379	0.271
380	0.27
380	0.27
381	0.269
381	0.268
382	0.268
382	0.267
383	0.267
383	0.266
383	0.265
384	0.265
384	0.265
385	0.264
385	0.264
386	0.263
386	0.263
387	0.263
387	0.262
388	0.262
388	0.262
389	0.261
389	0.261
389	0.261
390	0.26
390	0.26
391	0.26
391	0.259
392	0.259
392	0.259
393	0.259
393	0.258
394	0.258
394	0.258
394	0.257
395	0.257
395	0.257
396	0.256
396	0.256
397	0.256
397	0.255
398	0.255
398	0.255
399	0.254
399	0.254
400	0.254
400	0.254
400	0.253
401	0.253
401	0.253
402	0.253
402	0.252
403	0.252
403	0.252
404	0.252
404	0.252
405	0.252
405	0.252
405	0.251
406	0.251
406	0.251
407	0.25
407	0.25
408	0.25
408	0.25
409	0.25
409	0.249
410	0.249
410	0.249
411	0.248
411	0.248
411	0.248
412	0.248
412	0.247
413	0.247
413	0.247
414	0.247
414	0.246
415	0.246
415	0.246
416	0.245
416	0.245
416	0.245
417	0.245
417	0.244
418	0.244
418	0.244
419	0.243
419	0.243
420	0.243
420	0.242
421	0.242
421	0.241
421	0.241
422	0.24
422	0.24
423	0.24
423	0.239
424	0.239
424	0.239
425	0.238
425	0.238
426	0.238
426	0.238
427	0.237
427	0.237
427	0.237
428	0.236
428	0.236
429	0.236
429	0.235
430	0.235
430	0.235
431	0.235
431	0.235
432	0.235
432	0.235
432	0.235
433	0.235
433	0.234
434	0.234
434	0.234
435	0.234
435	0.233
436	0.233
436	0.233
437	0.232
437	0.232
437	0.232
438	0.232
438	0.232
439	0.231
439	0.231
440	0.231
440	0.231
441	0.231
441	0.23
442	0.23
442	0.23
442	0.23
443	0.23
443	0.229
444	0.229
444	0.229
445	0.229
445	0.228
446	0.228
446	0.228
447	0.227
447	0.227
447	0.227
448	0.227
448	0.227
449	0.226
449	0.226
450	0.226
450	0.226
451	0.225
451	0.225
452	0.225
452	0.225
452	0.225
453	0.225
453	0.224
454	0.224
454	0.224
455	0.224
455	0.223
456	0.223
456	0.223
457	0.223
457	0.222
458	0.222
458	0.222
458	0.222
459	0.222
459	0.222
460	0.221
460	0.221
461	0.221
461	0.221
462	0.22
462	0.22
463	0.22
463	0.219
463	0.219
464	0.218
464	0.218
465	0.218
465	0.217
466	0.217
466	0.217
467	0.217
467	0.217
467	0.217
468	0.217
468	0.217
469	0.217
469	0.217
470	0.217
470	0.217
471	0.217
471	0.217
472	0.217
472	0.217
472	0.217
473	0.217
473	0.217
474	0.217
474	0.216
475	0.216
475	0.216
476	0.216
476	0.216
477	0.216
477	0.216
477	0.216
478	0.216
478	0.216
479	0.216
479	0.216
480	0.215
480	0.215
481	0.215
481	0.215
482	0.215
482	0.215
482	0.215
483	0.215
483	0.215
484	0.215
484	0.215
485	0.215
485	0.215
486	0.215
486	0.215
487	0.215
487	0.215
487	0.215
488	0.215
488	0.215
489	0.215
489	0.216
490	0.216
490	0.217
491	0.217
491	0.218
492	0.218
492	0.218
492	0.218
493	0.219
493	0.219
494	0.219
494	0.22
495	0.22
495	0.22
496	0.221
496	0.221
496	0.222
497	0.222
497	0.222
498	0.222
498	0.222
499	0.223
499	0.223
500	0.224
500	0.224
501	0.224
501	0.224
501	0.224
502	0.225
502	0.225
503	0.225
503	0.226
504	0.226
504	0.226
505	0.226
505	0.227
506	0.227
506	0.227
506	0.228
507	0.228
507	0.228
508	0.228
508	0.229
509	0.229
509	0.23
510	0.23
510	0.231
511	0.231
511	0.232
511	0.232
512	0.233
512	0.233
513	0.234
513	0.234
514	0.234
514	0.235
515	0.235
515	0.235
515	0.236
516	0.236
516	0.236
517	0.237
517	0.237
518	0.238
518	0.238
519	0.239
519	0.239
520	0.239
520	0.239
520	0.24
521	0.24
521	0.24
522	0.24
522	0.24
523	0.24
523	0.241
524	0.241
524	0.241
524	0.241
525	0.242
525	0.241
526	0.241
526	0.242
527	0.242
527	0.242
528	0.242
528	0.242
529	0.242
529	0.242
529	0.242
530	0.242
530	0.242
531	0.242
531	0.242
532	0.242
532	0.242
533	0.242
533	0.242
533	0.242
534	0.242
534	0.242
535	0.242
535	0.242
536	0.242
536	0.242
537	0.242
537	0.242
538	0.243
538	0.243
538	0.242
539	0.242
539	0.242
540	0.242
540	0.242
541	0.242
541	0.242
542	0.241
542	0.241
542	0.241
543	0.241
543	0.241
544	0.241
544	0.241
545	0.241
545	0.241
546	0.241
546	0.241
547	0.24
547	0.24
547	0.24
548	0.24
548	0.24
549	0.24
549	0.239
550	0.239
550	0.239
551	0.239
551	0.238
551	0.238
552	0.238
552	0.237
553	0.237
553	0.237
554	0.236
554	0.236
555	0.235
555	0.235
556	0.234
556	0.234
556	0.234
557	0.234
557	0.234
558	0.235
558	0.235
559	0.235
559	0.235
560	0.235
560	0.235
560	0.235
561	0.235
561	0.234
562	0.234
562	0.233
563	0.233
563	0.232
564	0.231
564	0.231
564	0.231
565	0.231
565	0.23
566	0.23
566	0.23
567	0.23
567	0.23
568	0.23
568	0.23
568	0.23
569	0.23
569	0.229
570	0.228
570	0.228
571	0.227
571	0.227
572	0.226
572	0.226
573	0.225
573	0.225
573	0.225
574	0.224
574	0.224
575	0.224
575	0.224
576	0.224
576	0.223
577	0.223
577	0.222
577	0.222
578	0.222
578	0.222
579	0.222
579	0.222
580	0.222
580	0.221
581	0.22
581	0.22
581	0.22
582	0.221
582	0.221
583	0.221
583	0.221
584	0.22
584	0.219
585	0.219
585	0.219
585	0.219
586	0.218
586	0.218
587	0.217
587	0.216
588	0.216
588	0.215
589	0.215
589	0.215
590	0.215
590	0.215
590	0.216
591	0.216
591	0.216
592	0.215
592	0.215
593	0.215
593	0.215
594	0.214
594	0.214
594	0.213
595	0.213
595	0.212
596	0.212
596	0.212
597	0.213
597	0.213
598	0.213
598	0.213
598	0.213
599	0.212
599	0.212
600	0.212
600	0.211
601	0.211
601	0.211
602	0.21
602	0.21
602	0.209
603	0.209
603	0.209
604	0.209
604	0.209
605	0.209
605	0.209
606	0.209
606	0.208
606	0.208
607	0.208
607	0.208
608	0.208
608	0.207
609	0.207
609	0.207
610	0.206
610	0.206
610	0.206
611	0.206
611	0.206
612	0.206
612	0.206
613	0.206
613	0.206
614	0.206
614	0.205
614	0.206
615	0.206
615	0.205
616	0.206
616	0.205
617	0.205
617	0.205
618	0.205
618	0.205
618	0.205
619	0.206
619	0.206
620	0.206
620	0.206
621	0.205
621	0.205
622	0.205
622	0.204
622	0.204
623	0.203
623	0.203
624	0.202
624	0.202
625	0.201
625	0.201
626	0.201
626	0.2
626	0.2
627	0.2
627	0.2
628	0.2
628	0.199
629	0.199
629	0.198
630	0.198
630	0.198
630	0.198
631	0.198
631	0.197
632	0.197
632	0.197
633	0.197
633	0.197
634	0.198
634	0.199
634	0.199
635	0.199
635	0.199
636	0.199
636	0.199
637	0.199
637	0.199
638	0.198
638	0.198
638	0.198
639	0.197
639	0.197
640	0.197
640	0.197
641	0.196
641	0.196
642	0.196
642	0.196
642	0.196
643	0.196
643	0.196
644	0.196
644	0.196
645	0.195
645	0.195
646	0.196
646	0.196
646	0.196
647	0.196
647	0.195
648	0.195
648	0.194
649	0.194
649	0.194
650	0.194
650	0.194
650	0.194
651	0.194
651	0.194
652	0.194
652	0.194
653	0.194
653	0.196
653	0.203
654	0.159
654	0.127
655	0.128
655	0.128
656	0.129
656	0.129
657	0.129
657	0.13
657	0.13
658	0.128
658	0.118
659	0.149
659	0.192
660	0.196
660	0.196
661	0.196
661	0.195
661	0.195
662	0.195
662	0.194
663	0.194
663	0.194
664	0.193
664	0.193
665	0.193
665	0.193
665	0.194
666	0.194
666	0.194
667	0.194
667	0.195
668	0.195
668	0.195
669	0.196
669	0.196
669	0.197
670	0.197
670	0.197
671	0.197
671	0.197
672	0.197
672	0.197
672	0.196
673	0.196
673	0.196
674	0.195
674	0.194
675	0.194
675	0.194
676	0.194
676	0.193
676	0.193
677	0.194
677	0.193
678	0.193
678	0.193
679	0.192
679	0.192
680	0.193
680	0.193
680	0.193
681	0.193
681	0.194
682	0.194
682	0.194
683	0.195
683	0.196
684	0.197
684	0.197
684	0.197
685	0.197
685	0.197
686	0.197
686	0.197
687	0.197
687	0.197
687	0.197
688	0.196
688	0.196
689	0.197
689	0.197
690	0.196
690	0.196
691	0.196
691	0.196
691	0.196
692	0.196
692	0.196
693	0.196
693	0.196
694	0.196
694	0.196
695	0.197
695	0.198
695	0.198
696	0.197
696	0.197
697	0.197
697	0.197
698	0.197
698	0.196
698	0.196
699	0.196
699	0.196
700	0.196
700	0.196
701	0.196
701	0.196
702	0.197
702	0.197
702	0.197
703	0.198
703	0.198
704	0.198
704	0.199
705	0.199
705	0.199
705	0.199
706	0.199
706	0.2
707	0.2
707	0.2
708	0.2
708	0.2
709	0.2
709	0.2
709	0.2
710	0.2
710	0.2
711	0.2
711	0.2
712	0.2
712	0.2
713	0.2
713	0.2
713	0.2
714	0.199
714	0.199
715	0.199
715	0.198
716	0.198
716	0.198
716	0.197
717	0.197
717	0.197
718	0.196
718	0.196
719	0.197
719	0.197
720	0.197
720	0.198
720	0.198
721	0.198
721	0.199
722	0.2
722	0.2
723	0.2
723	0.201
723	0.201
724	0.202
724	0.201
725	0.201
725	0.201
726	0.2
726	0.2
727	0.2
727	0.2
727	0.2
728	0.199
728	0.199
729	0.199
729	0.199
730	0.199
730	0.199
730	0.2
731	0.2
731	0.201
732	0.201
732	0.202
733	0.202
733	0.202
734	0.202
734	0.203
734	0.203
735	0.204
735	0.204
736	0.204
736	0.204
737	0.204
737	0.204
737	0.204
738	0.203
738	0.203
739	0.202
739	0.202
740	0.202
740	0.202
741	0.202
741	0.203
741	0.203
742	0.203
742	0.203
743	0.205
743	0.205
744	0.206
744	0.207
744	0.207
745	0.207
745	0.207
746	0.207
746	0.207
747	0.207
747	0.207
748	0.207
748	0.207
748	0.207
749	0.207
749	0.207
750	0.206
750	0.206
751	0.206
751	0.206
751	0.205
752	0.205
752	0.204
753	0.203
753	0.203
754	0.203
754	0.202
754	0.203
755	0.203
755	0.203
756	0.203
756	0.203
757	0.203
757	0.203
758	0.204
758	0.204
758	0.205
759	0.205
759	0.205
760	0.205
760	0.205
761	0.206
761	0.206
761	0.206
762	0.206
762	0.207
763	0.207
763	0.206
764	0.206
764	0.206
764	0.206
765	0.206
765	0.206
766	0.206
766	0.206
767	0.205
767	0.205
768	0.204
768	0.204
768	0.204
769	0.204
769	0.205
770	0.205
770	0.206
771	0.206
771	0.206
771	0.207
772	0.208
772	0.209
773	0.209
773	0.21
774	0.21
774	0.211
775	0.211
775	0.211
775	0.211
776	0.211
776	0.212
777	0.212
777	0.212
778	0.212
778	0.211
778	0.211
779	0.211
779	0.211
780	0.211
780	0.21
781	0.21
781	0.21
781	0.21
782	0.21
782	0.21
783	0.211
783	0.212
784	0.212
784	0.212
784	0.213
785	0.214
785	0.214
786	0.214
786	0.214
787	0.214
787	0.214
788	0.213
788	0.212
788	0.211
789	0.211
789	0.21
790	0.21
790	0.209
791	0.209
791	0.208
791	0.208
792	0.209
792	0.21
793	0.21
793	0.21
794	0.21
794	0.21
794	0.21
795	0.211
795	0.211
796	0.212
796	0.212
797	0.212
797	0.212
797	0.213
798	0.213
798	0.213
799	0.213
799	0.213
800	0.213
800	0.213
801	0.213
801	0.213
801	0.213
802	0.213
802	0.213
803	0.213
803	0.213
804	0.214
804	0.214
804	0.214
805	0.214
805	0.213
806	0.213
806	0.213
807	0.212
807	0.212
807	0.212
808	0.212
808	0.212
809	0.212
809	0.213
810	0.213
810	0.214
810	0.214
811	0.215
811	0.216
812	0.217
812	0.217
813	0.218
813	0.218
813	0.219
814	0.22
814	0.221
815	0.222
815	0.222
816	0.222
816	0.222
817	0.222
817	0.222
817	0.221
818	0.221
818	0.221
819	0.221
819	0.22
820	0.219
820	0.219
820	0.219
821	0.219
821	0.219
822	0.219
822	0.219
823	0.219
823	0.219
823	0.219
824	0.22
824	0.221
825	0.222
825	0.222
826	0.222
826	0.222
826	0.223
827	0.223
827	0.223
828	0.224
828	0.223
829	0.224
829	0.224
829	0.224
830	0.224
830	0.224
831	0.225
831	0.225
832	0.225
832	0.225
832	0.225
833	0.225
833	0.225
834	0.225
834	0.224
835	0.224
835	0.224
835	0.224
836	0.224
836	0.224
837	0.224
837	0.224
838	0.224
838	0.224
839	0.223
839	0.223
839	0.222
840	0.221
840	0.22
841	0.219
841	0.218
842	0.217
842	0.216
842	0.216
843	0.215
843	0.214
844	0.214
844	0.213
845	0.213
845	0.213
845	0.213
846	0.213
846	0.213
847	0.213
847	0.214
848	0.214
848	0.215
848	0.216
849	0.217
849	0.217
850	0.218
850	0.218
851	0.219
851	0.219
851	0.219
852	0.219
852	0.219
853	0.219
853	0.218
854	0.218
854	0.219
854	0.219
855	0.22
855	0.22
856	0.221
856	0.221
857	0.222
857	0.223
857	0.223
858	0.223
858	0.223
859	0.222
859	0.221
860	0.22
860	0.22
860	0.219
861	0.218
861	0.218
862	0.217
862	0.216
863	0.216
863	0.216
863	0.216
864	0.216
864	0.217
865	0.217
865	0.217
866	0.217
866	0.218
866	0.218
867	0.219
867	0.22
868	0.22
868	0.221
869	0.221
869	0.222
869	0.222
870	0.222
870	0.222
871	0.222
871	0.223
872	0.223
872	0.223
872	0.222
873	0.222
873	0.222
874	0.221
874	0.221
875	0.22
875	0.22
875	0.219
876	0.219
876	0.218
877	0.218
877	0.217
878	0.217
878	0.217
878	0.218
879	0.218
879	0.218
880	0.218
880	0.218
881	0.218
881	0.218
881	0.218
882	0.218
882	0.218
883	0.218
883	0.218
884	0.219
884	0.219
884	0.219
885	0.218
885	0.218
886	0.218
886	0.217
887	0.217
887	0.216
887	0.215
888	0.215
888	0.214
889	0.213
889	0.213
890	0.213
890	0.213
890	0.212
891	0.212
891	0.212
892	0.212
892	0.212
893	0.212
893	0.212
893	0.212
894	0.212
894	0.211
895	0.211
895	0.211
895	0.211
896	0.211
896	0.212
897	0.212
897	0.212
898	0.212
898	0.212
898	0.212
899	0.212
899	0.211
900	0.211
900	0.21
901	0.21
901	0.209
901	0.208
902	0.207
902	0.207
903	0.206
903	0.205
904	0.204
904	0.204
904	0.203
905	0.203
905	0.203
906	0.203
906	0.203
907	0.203
907	0.203
907	0.203
908	0.204
908	0.204
909	0.203
909	0.203
910	0.203
910	0.203
910	0.203
911	0.202
911	0.202
912	0.201
912	0.201
913	0.201
913	0.201
913	0.201
914	0.201
914	0.201
915	0.201
915	0.202
916	0.202
916	0.202
916	0.201
917	0.201
917	0.201
918	0.201
918	0.2
918	0.2
919	0.199
919	0.199
920	0.199
920	0.198
921	0.198
921	0.198
921	0.198
922	0.197
922	0.198
923	0.198
923	0.198
924	0.198
924	0.198
924	0.199
925	0.199
925	0.199
926	0.2
926	0.2
927	0.2
927	0.2
927	0.2
928	0.2
928	0.199
929	0.199
929	0.198
930	0.198
930	0.197
930	0.196
931	0.196
931	0.195
932	0.194
932	0.194
933	0.193
933	0.193
933	0.193
934	0.192
934	0.192
935	0.192
935	0.191
935	0.191
936	0.191
936	0.191
937	0.191
937	0.19
938	0.19
938	0.19
938	0.189
939	0.189
939	0.188
940	0.187
940	0.187
941	0.186
941	0.186
941	0.185
942	0.185
942	0.184
943	0.184
943	0.184
944	0.184
944	0.184
944	0.184
945	0.184
945	0.184
946	0.184
946	0.184
946	0.184
947	0.184
947	0.185
948	0.185
948	0.184
949	0.184
949	0.183
949	0.183
950	0.182
950	0.182
951	0.181
951	0.18
952	0.18
952	0.179
952	0.179
953	0.179
953	0.179
954	0.178
954	0.178
955	0.178
955	0.178
955	0.178
956	0.178
956	0.178
957	0.177
957	0.177
957	0.177
958	0.177
958	0.176
959	0.176
959	0.175
960	0.175
960	0.174
960	0.174
961	0.173
961	0.173
962	0.172
962	0.172
963	0.172
963	0.172
963	0.172
964	0.172
964	0.173
965	0.173
965	0.173
966	0.174
966	0.174
966	0.174
967	0.174
967	0.173
968	0.173
968	0.173
968	0.172
969	0.172
969	0.171
970	0.17
970	0.169
971	0.169
971	0.168
971	0.168
972	0.168
972	0.167
973	0.167
973	0.167
974	0.167
974	0.167
974	0.167
975	0.167
975	0.167
976	0.168
976	0.168
976	0.168
977	0.168
977	0.168
978	0.168
978	0.167
979	0.167
979	0.167
979	0.166
980	0.166
980	0.165
981	0.164
981	0.163
982	0.163
982	0.162
982	0.162
983	0.161
983	0.161
984	0.161
984	0.16
984	0.16
985	0.16
985	0.16
986	0.16
986	0.16
987	0.16
987	0.16
987	0.16
988	0.159
988	0.159
989	0.158
989	0.157
990	0.157
990	0.156
990	0.155
991	0.155
991	0.154
992	0.153
992	0.152
992	0.151
993	0.15
993	0.149
994	0.148
994	0.148
995	0.147
995	0.146
995	0.146
996	0.146
996	0.146
997	0.147
997	0.147
997	0.147
998	0.148
998	0.149
999	0.15
999	0.151
1000	0.151
1000	0.152
1000	0.152
1001	0.152
1001	0.153
1002	0.152
1002	0.152
1003	0.152
1003	0.151
1003	0.15
1004	0.15
1004	0.149
1005	0.148
1005	0.147
1005	0.146
1006	0.145
1006	0.145
1007	0.145
1007	0.144
1008	0.144
1008	0.144
1008	0.144
1009	0.144
1009	0.145
1010	0.145
1010	0.145
1010	0.145
1011	0.145
1011	0.145
1012	0.145
1012	0.145
1013	0.144
1013	0.144
1013	0.144
1014	0.143
1014	0.143
1015	0.142
1015	0.142
1016	0.142
1016	0.142
1016	0.142
1017	0.141
1017	0.141
1018	0.14
1018	0.14
1018	0.14
1019	0.139
1019	0.139
1020	0.139
1020	0.139
1021	0.139
1021	0.139
1021	0.139
1022	0.14
1022	0.14
1023	0.14
1023	0.141
1023	0.141
1024	0.141
1024	0.141
1025	0.141
1025	0.141
1026	0.141
1026	0.141
1026	0.141
1027	0.141
1027	0.14
1028	0.14
1028	0.14
1028	0.14
1029	0.14
1029	0.14
1030	0.14
1030	0.14
1031	0.14
1031	0.14
1031	0.139
1032	0.139
1032	0.14
1033	0.14
1033	0.139
1033	0.139
1034	0.139
1034	0.138
1035	0.138
1035	0.138
1036	0.138
1036	0.137
1036	0.137
1037	0.137
1037	0.137
1038	0.136
1038	0.136
1039	0.136
1039	0.136
1039	0.136
1040	0.136
1040	0.136
1041	0.136
1041	0.135
1041	0.135
1042	0.135
1042	0.135
1043	0.135
1043	0.135
1044	0.134
1044	0.134
1044	0.134
1045	0.134
1045	0.134
1046	0.134
1046	0.133
1046	0.133
1047	0.134
1047	0.134
1048	0.134
1048	0.134
1049	0.134
1049	0.134
1049	0.133
1050	0.133
1050	0.133
1051	0.132
1051	0.132
1051	0.131
1052	0.13
1052	0.129
1053	0.128
1053	0.127
1053	0.126
1054	0.125
1054	0.125
1055	0.124
1055	0.124
1056	0.123
1056	0.123
1056	0.122
1057	0.121
1057	0.121
1058	0.12
1058	0.119
1058	0.119
1059	0.118
1059	0.118
1060	0.117
1060	0.116
1061	0.116
1061	0.115
1061	0.115
1062	0.114
1062	0.114
1063	0.114
1063	0.114
1063	0.113
1064	0.113
1064	0.113
1065	0.112
1065	0.112
1066	0.112
1066	0.111
1066	0.111
1067	0.11
1067	0.11
1068	0.11
1068	0.109
1068	0.109
1069	0.108
1069	0.108
1070	0.107
1070	0.107
1071	0.106
1071	0.105
1071	0.105
1072	0.104
1072	0.103
1073	0.102
1073	0.102
1073	0.101
1074	0.102
1074	0.102
1075	0.102
1075	0.102
1076	0.102
1076	0.103
1076	0.103
1077	0.103
1077	0.103
1078	0.103
1078	0.103
1078	0.102
1079	0.102
1079	0.102
1080	0.1
1080	0.1
1080	0.099
1081	0.099
1081	0.099
1082	0.099
1082	0.1
1083	0.099
1083	0.099
1083	0.099
1084	0.099
1084	0.099
1085	0.099
1085	0.099
1085	0.099
1086	0.099
1086	0.098
1087	0.098
1087	0.098
1088	0.097
1088	0.097
1088	0.097
1089	0.096
1089	0.095
1090	0.094
1090	0.093
1090	0.092
1091	0.092
1091	0.091
1092	0.091
1092	0.091
1092	0.091
1093	0.09
1093	0.091
1094	0.091
1094	0.09
1095	0.09
1095	0.089
1095	0.089
1096	0.088
1096	0.087
1097	0.086
1097	0.085
1097	0.085
1098	0.083
1098	0.082
1099	0.081
1099	0.079
1100	0.078
1100	0.077
1100	0.075
1101	0.074
1101	0.073
1102	0.072
1102	0.071
1102	0.069
1103	0.068
1103	0.068
1104	0.066
1104	0.066
1104	0.065
1105	0.064
1105	0.062
1106	0.06
1106	0.058
1107	0.057
1107	0.057
1107	0.056
1108	0.055
1108	0.054
1109	0.052
1109	0.051
1109	0.052
1110	0.053
1110	0.052
1111	0.054
1111	0.051
