Data from reversibility-20sec_Absorbance__4300__000000000004300.txt Node

Date: Wed Dec 06 12:06:25 CET 2023
User: Marek
Spectrometer: MAYP115816
Trigger mode: 0
Integration Time (sec): 2.000000E-1
Scans to average: 10
Electric dark correction enabled: true
Nonlinearity correction enabled: true
Boxcar width: 5
XAxis mode: Wavelengths
Number of Pixels in Spectrum: 2068
>>>>>Begin Spectral Data<<<<<
199	-0.203
199	-0.165
200	-0.096
200	-0.045
201	-0.018
201	0.003
202	0.017
202	0.024
203	0.031
203	0.034
204	0.048
204	0.061
205	0.073
205	0.078
205	0.077
206	0.077
206	0.075
207	0.077
207	0.078
208	0.076
208	0.076
209	0.077
209	0.074
210	0.075
210	0.074
211	0.075
211	0.076
212	0.074
212	0.073
213	0.075
213	0.077
213	0.074
214	0.077
214	0.078
215	0.078
215	0.078
216	0.082
216	0.081
217	0.084
217	0.085
218	0.085
218	0.088
219	0.095
219	0.096
220	0.099
220	0.099
221	0.1
221	0.1
221	0.105
222	0.111
222	0.117
223	0.123
223	0.128
224	0.134
224	0.143
225	0.153
225	0.163
226	0.173
226	0.182
227	0.192
227	0.202
228	0.216
228	0.229
229	0.244
229	0.264
229	0.286
230	0.312
230	0.343
231	0.376
231	0.415
232	0.451
232	0.496
233	0.539
233	0.589
234	0.64
234	0.693
235	0.744
235	0.792
236	0.842
236	0.893
236	0.944
237	0.998
237	1.046
238	1.092
238	1.139
239	1.188
239	1.231
240	1.272
240	1.313
241	1.348
241	1.382
242	1.416
242	1.447
243	1.478
243	1.504
243	1.529
244	1.549
244	1.569
245	1.586
245	1.608
246	1.628
246	1.647
247	1.66
247	1.676
248	1.689
248	1.706
249	1.715
249	1.724
250	1.735
250	1.745
250	1.749
251	1.754
251	1.757
252	1.762
252	1.763
253	1.765
253	1.762
254	1.761
254	1.763
255	1.76
255	1.761
256	1.761
256	1.758
257	1.758
257	1.756
258	1.756
258	1.756
258	1.758
259	1.758
259	1.757
260	1.757
260	1.758
261	1.757
261	1.761
262	1.764
262	1.765
263	1.768
263	1.769
264	1.769
264	1.772
265	1.773
265	1.773
265	1.774
266	1.774
266	1.775
267	1.772
267	1.774
268	1.773
268	1.773
269	1.774
269	1.774
270	1.772
270	1.772
271	1.767
271	1.766
272	1.762
272	1.76
272	1.757
273	1.751
273	1.745
274	1.741
274	1.735
275	1.729
275	1.724
276	1.718
276	1.712
277	1.705
277	1.696
278	1.686
278	1.674
278	1.662
279	1.647
279	1.63
280	1.609
280	1.582
281	1.55
281	1.514
282	1.477
282	1.439
283	1.4
283	1.362
284	1.325
284	1.289
285	1.255
285	1.223
285	1.194
286	1.169
286	1.147
287	1.128
287	1.111
288	1.097
288	1.085
289	1.074
289	1.065
290	1.057
290	1.051
291	1.045
291	1.039
292	1.034
292	1.03
292	1.025
293	1.021
293	1.018
294	1.014
294	1.011
295	1.008
295	1.004
296	1.001
296	0.998
297	0.995
297	0.992
298	0.99
298	0.987
298	0.984
299	0.981
299	0.978
300	0.975
300	0.973
301	0.97
301	0.968
302	0.965
302	0.963
303	0.961
303	0.958
304	0.956
304	0.953
305	0.951
305	0.948
305	0.946
306	0.944
306	0.941
307	0.939
307	0.936
308	0.933
308	0.931
309	0.928
309	0.925
310	0.922
310	0.92
311	0.917
311	0.913
311	0.91
312	0.907
312	0.903
313	0.9
313	0.896
314	0.892
314	0.888
315	0.884
315	0.88
316	0.875
316	0.871
317	0.866
317	0.861
318	0.857
318	0.852
318	0.847
319	0.841
319	0.836
320	0.831
320	0.825
321	0.819
321	0.814
322	0.808
322	0.802
323	0.796
323	0.789
324	0.783
324	0.777
324	0.77
325	0.763
325	0.757
326	0.75
326	0.743
327	0.736
327	0.729
328	0.723
328	0.716
329	0.709
329	0.702
330	0.695
330	0.688
330	0.681
331	0.674
331	0.668
332	0.661
332	0.654
333	0.647
333	0.64
334	0.634
334	0.627
335	0.621
335	0.614
336	0.607
336	0.601
336	0.594
337	0.588
337	0.582
338	0.576
338	0.57
339	0.564
339	0.558
340	0.552
340	0.547
341	0.541
341	0.536
342	0.53
342	0.525
342	0.52
343	0.515
343	0.51
344	0.505
344	0.501
345	0.496
345	0.491
346	0.487
346	0.482
347	0.478
347	0.474
348	0.47
348	0.466
348	0.462
349	0.458
349	0.455
350	0.451
350	0.448
351	0.444
351	0.441
352	0.438
352	0.435
353	0.432
353	0.429
354	0.426
354	0.423
354	0.42
355	0.417
355	0.414
356	0.411
356	0.409
357	0.406
357	0.403
358	0.4
358	0.398
359	0.395
359	0.393
360	0.391
360	0.389
360	0.387
361	0.385
361	0.384
362	0.382
362	0.38
363	0.378
363	0.377
364	0.375
364	0.373
365	0.371
365	0.369
366	0.367
366	0.366
366	0.364
367	0.362
367	0.36
368	0.359
368	0.357
369	0.356
369	0.354
370	0.353
370	0.351
371	0.35
371	0.349
372	0.347
372	0.346
372	0.345
373	0.344
373	0.343
374	0.342
374	0.34
375	0.34
375	0.339
376	0.338
376	0.337
377	0.336
377	0.335
378	0.334
378	0.333
378	0.332
379	0.331
379	0.33
380	0.329
380	0.329
381	0.328
381	0.327
382	0.326
382	0.325
383	0.325
383	0.324
383	0.324
384	0.323
384	0.322
385	0.322
385	0.321
386	0.321
386	0.32
387	0.32
387	0.319
388	0.319
388	0.318
389	0.318
389	0.318
389	0.317
390	0.316
390	0.316
391	0.315
391	0.315
392	0.315
392	0.314
393	0.314
393	0.313
394	0.313
394	0.312
394	0.312
395	0.311
395	0.311
396	0.31
396	0.31
397	0.31
397	0.309
398	0.309
398	0.308
399	0.308
399	0.308
400	0.307
400	0.307
400	0.306
401	0.306
401	0.306
402	0.305
402	0.305
403	0.305
403	0.305
404	0.304
404	0.304
405	0.304
405	0.303
405	0.303
406	0.303
406	0.302
407	0.302
407	0.301
408	0.301
408	0.301
409	0.3
409	0.3
410	0.299
410	0.299
411	0.299
411	0.299
411	0.298
412	0.298
412	0.298
413	0.298
413	0.297
414	0.297
414	0.297
415	0.296
415	0.296
416	0.296
416	0.295
416	0.295
417	0.294
417	0.294
418	0.294
418	0.293
419	0.293
419	0.292
420	0.292
420	0.292
421	0.291
421	0.291
421	0.291
422	0.29
422	0.29
423	0.289
423	0.289
424	0.289
424	0.289
425	0.288
425	0.288
426	0.288
426	0.288
427	0.287
427	0.287
427	0.287
428	0.286
428	0.286
429	0.286
429	0.285
430	0.285
430	0.285
431	0.285
431	0.285
432	0.284
432	0.284
432	0.284
433	0.284
433	0.283
434	0.283
434	0.283
435	0.283
435	0.282
436	0.282
436	0.282
437	0.282
437	0.282
437	0.282
438	0.281
438	0.281
439	0.281
439	0.281
440	0.281
440	0.281
441	0.281
441	0.281
442	0.281
442	0.28
442	0.28
443	0.28
443	0.28
444	0.279
444	0.279
445	0.279
445	0.279
446	0.279
446	0.279
447	0.279
447	0.278
447	0.278
448	0.278
448	0.278
449	0.278
449	0.278
450	0.278
450	0.278
451	0.277
451	0.277
452	0.277
452	0.277
452	0.277
453	0.277
453	0.277
454	0.277
454	0.277
455	0.277
455	0.276
456	0.276
456	0.276
457	0.276
457	0.276
458	0.276
458	0.276
458	0.276
459	0.276
459	0.276
460	0.276
460	0.276
461	0.276
461	0.275
462	0.276
462	0.275
463	0.275
463	0.275
463	0.275
464	0.275
464	0.274
465	0.274
465	0.274
466	0.274
466	0.274
467	0.274
467	0.274
467	0.274
468	0.274
468	0.275
469	0.275
469	0.275
470	0.276
470	0.276
471	0.276
471	0.276
472	0.276
472	0.277
472	0.277
473	0.278
473	0.278
474	0.278
474	0.278
475	0.278
475	0.279
476	0.279
476	0.279
477	0.28
477	0.28
477	0.281
478	0.281
478	0.281
479	0.282
479	0.282
480	0.282
480	0.283
481	0.283
481	0.283
482	0.284
482	0.284
482	0.285
483	0.285
483	0.286
484	0.287
484	0.286
485	0.287
485	0.287
486	0.288
486	0.288
487	0.289
487	0.289
487	0.29
488	0.29
488	0.291
489	0.292
489	0.293
490	0.294
490	0.295
491	0.297
491	0.297
492	0.298
492	0.299
492	0.3
493	0.301
493	0.302
494	0.303
494	0.304
495	0.305
495	0.306
496	0.307
496	0.308
496	0.309
497	0.31
497	0.311
498	0.312
498	0.313
499	0.313
499	0.315
500	0.316
500	0.317
501	0.318
501	0.319
501	0.319
502	0.32
502	0.321
503	0.322
503	0.323
504	0.324
504	0.324
505	0.325
505	0.326
506	0.327
506	0.327
506	0.329
507	0.33
507	0.331
508	0.332
508	0.333
509	0.334
509	0.335
510	0.336
510	0.337
511	0.338
511	0.339
511	0.34
512	0.34
512	0.341
513	0.342
513	0.343
514	0.343
514	0.344
515	0.345
515	0.345
515	0.345
516	0.346
516	0.347
517	0.347
517	0.348
518	0.348
518	0.349
519	0.349
519	0.349
520	0.349
520	0.349
520	0.349
521	0.349
521	0.349
522	0.349
522	0.349
523	0.349
523	0.349
524	0.349
524	0.349
524	0.349
525	0.349
525	0.349
526	0.348
526	0.348
527	0.348
527	0.348
528	0.347
528	0.347
529	0.346
529	0.346
529	0.345
530	0.344
530	0.343
531	0.343
531	0.342
532	0.341
532	0.34
533	0.34
533	0.339
533	0.338
534	0.337
534	0.336
535	0.335
535	0.334
536	0.333
536	0.332
537	0.331
537	0.33
538	0.329
538	0.328
538	0.327
539	0.326
539	0.325
540	0.324
540	0.323
541	0.321
541	0.32
542	0.319
542	0.317
542	0.316
543	0.315
543	0.314
544	0.312
544	0.311
545	0.31
545	0.308
546	0.307
546	0.306
547	0.304
547	0.303
547	0.301
548	0.3
548	0.299
549	0.297
549	0.296
550	0.294
550	0.293
551	0.291
551	0.29
551	0.289
552	0.287
552	0.285
553	0.284
553	0.282
554	0.281
554	0.279
555	0.278
555	0.276
556	0.275
556	0.274
556	0.273
557	0.272
557	0.272
558	0.271
558	0.27
559	0.269
559	0.268
560	0.267
560	0.265
560	0.264
561	0.263
561	0.262
562	0.26
562	0.258
563	0.257
563	0.255
564	0.253
564	0.252
564	0.251
565	0.25
565	0.249
566	0.247
566	0.246
567	0.245
567	0.244
568	0.244
568	0.243
568	0.242
569	0.241
569	0.24
570	0.239
570	0.237
571	0.236
571	0.235
572	0.234
572	0.233
573	0.232
573	0.231
573	0.23
574	0.229
574	0.228
575	0.228
575	0.227
576	0.227
576	0.226
577	0.224
577	0.223
577	0.222
578	0.222
578	0.221
579	0.22
579	0.22
580	0.219
580	0.217
581	0.216
581	0.215
581	0.214
582	0.214
582	0.214
583	0.214
583	0.213
584	0.212
584	0.21
585	0.209
585	0.209
585	0.208
586	0.207
586	0.207
587	0.205
587	0.204
588	0.203
588	0.202
589	0.201
589	0.201
590	0.201
590	0.2
590	0.2
591	0.2
591	0.199
592	0.199
592	0.198
593	0.198
593	0.197
594	0.196
594	0.195
594	0.195
595	0.194
595	0.193
596	0.192
596	0.192
597	0.193
597	0.193
598	0.192
598	0.192
598	0.191
599	0.19
599	0.19
600	0.189
600	0.188
601	0.188
601	0.187
602	0.186
602	0.185
602	0.185
603	0.184
603	0.184
604	0.184
604	0.184
605	0.184
605	0.184
606	0.183
606	0.182
606	0.182
607	0.181
607	0.181
608	0.18
608	0.179
609	0.178
609	0.178
610	0.177
610	0.177
610	0.176
611	0.176
611	0.176
612	0.176
612	0.176
613	0.175
613	0.175
614	0.175
614	0.174
614	0.174
615	0.174
615	0.173
616	0.173
616	0.173
617	0.173
617	0.172
618	0.172
618	0.172
618	0.172
619	0.173
619	0.173
620	0.173
620	0.173
621	0.172
621	0.172
622	0.171
622	0.171
622	0.17
623	0.169
623	0.169
624	0.168
624	0.168
625	0.167
625	0.167
626	0.166
626	0.166
626	0.166
627	0.166
627	0.165
628	0.165
628	0.164
629	0.163
629	0.162
630	0.162
630	0.162
630	0.162
631	0.162
631	0.161
632	0.162
632	0.161
633	0.161
633	0.162
634	0.162
634	0.163
634	0.163
635	0.162
635	0.162
636	0.161
636	0.161
637	0.161
637	0.16
638	0.16
638	0.16
638	0.159
639	0.159
639	0.159
640	0.159
640	0.159
641	0.159
641	0.159
642	0.159
642	0.159
642	0.159
643	0.159
643	0.159
644	0.159
644	0.159
645	0.159
645	0.159
646	0.159
646	0.159
646	0.158
647	0.158
647	0.158
648	0.157
648	0.157
649	0.157
649	0.157
650	0.157
650	0.157
650	0.156
651	0.156
651	0.156
652	0.155
652	0.155
653	0.155
653	0.157
653	0.164
654	0.13
654	0.104
655	0.103
655	0.103
656	0.103
656	0.104
657	0.104
657	0.105
657	0.105
658	0.103
658	0.093
659	0.117
659	0.15
660	0.156
660	0.155
661	0.155
661	0.154
661	0.154
662	0.153
662	0.152
663	0.152
663	0.151
664	0.151
664	0.151
665	0.151
665	0.151
665	0.151
666	0.151
666	0.151
667	0.152
667	0.152
668	0.152
668	0.152
669	0.152
669	0.153
669	0.153
670	0.153
670	0.153
671	0.153
671	0.152
672	0.152
672	0.152
672	0.151
673	0.151
673	0.151
674	0.151
674	0.15
675	0.149
675	0.149
676	0.15
676	0.15
676	0.15
677	0.15
677	0.15
678	0.15
678	0.149
679	0.149
679	0.149
680	0.149
680	0.149
680	0.148
681	0.148
681	0.149
682	0.149
682	0.149
683	0.15
683	0.151
684	0.151
684	0.151
684	0.151
685	0.151
685	0.152
686	0.152
686	0.152
687	0.151
687	0.151
687	0.151
688	0.151
688	0.151
689	0.151
689	0.152
690	0.151
690	0.151
691	0.151
691	0.151
691	0.151
692	0.151
692	0.151
693	0.151
693	0.152
694	0.151
694	0.152
695	0.153
695	0.154
695	0.154
696	0.154
696	0.154
697	0.153
697	0.153
698	0.153
698	0.152
698	0.152
699	0.152
699	0.152
700	0.151
700	0.151
701	0.152
701	0.152
702	0.151
702	0.151
702	0.152
703	0.151
703	0.151
704	0.151
704	0.151
705	0.151
705	0.15
705	0.15
706	0.15
706	0.15
707	0.151
707	0.151
708	0.151
708	0.151
709	0.152
709	0.152
709	0.151
710	0.151
710	0.151
711	0.151
711	0.151
712	0.151
712	0.151
713	0.151
713	0.151
713	0.151
714	0.151
714	0.151
715	0.151
715	0.151
716	0.151
716	0.151
716	0.151
717	0.151
717	0.15
718	0.15
718	0.15
719	0.15
719	0.151
720	0.151
720	0.151
720	0.152
721	0.152
721	0.153
722	0.153
722	0.153
723	0.154
723	0.155
723	0.155
724	0.155
724	0.155
725	0.154
725	0.153
726	0.153
726	0.152
727	0.152
727	0.152
727	0.151
728	0.151
728	0.15
729	0.151
729	0.151
730	0.151
730	0.151
730	0.151
731	0.151
731	0.151
732	0.152
732	0.152
733	0.152
733	0.152
734	0.152
734	0.153
734	0.153
735	0.154
735	0.153
736	0.153
736	0.153
737	0.154
737	0.154
737	0.154
738	0.154
738	0.153
739	0.153
739	0.153
740	0.152
740	0.152
741	0.152
741	0.152
741	0.152
742	0.151
742	0.152
743	0.153
743	0.153
744	0.153
744	0.154
744	0.154
745	0.154
745	0.154
746	0.154
746	0.155
747	0.155
747	0.155
748	0.155
748	0.155
748	0.154
749	0.154
749	0.154
750	0.154
750	0.153
751	0.153
751	0.153
751	0.152
752	0.152
752	0.151
753	0.151
753	0.151
754	0.151
754	0.151
754	0.152
755	0.152
755	0.153
756	0.153
756	0.152
757	0.152
757	0.152
758	0.152
758	0.152
758	0.152
759	0.152
759	0.151
760	0.151
760	0.151
761	0.151
761	0.152
761	0.152
762	0.152
762	0.153
763	0.153
763	0.153
764	0.153
764	0.153
764	0.153
765	0.152
765	0.152
766	0.152
766	0.152
767	0.151
767	0.15
768	0.149
768	0.149
768	0.149
769	0.148
769	0.148
770	0.148
770	0.149
771	0.149
771	0.148
771	0.149
772	0.149
772	0.15
773	0.15
773	0.15
774	0.151
774	0.151
775	0.151
775	0.151
775	0.151
776	0.151
776	0.151
777	0.151
777	0.151
778	0.151
778	0.15
778	0.15
779	0.15
779	0.149
780	0.148
780	0.148
781	0.148
781	0.147
781	0.147
782	0.147
782	0.148
783	0.148
783	0.149
784	0.149
784	0.149
784	0.149
785	0.15
785	0.149
786	0.15
786	0.15
787	0.15
787	0.149
788	0.149
788	0.148
788	0.148
789	0.147
789	0.147
790	0.147
790	0.147
791	0.146
791	0.146
791	0.145
792	0.146
792	0.145
793	0.145
793	0.144
794	0.144
794	0.143
794	0.143
795	0.143
795	0.143
796	0.143
796	0.143
797	0.142
797	0.142
797	0.143
798	0.143
798	0.143
799	0.143
799	0.142
800	0.142
800	0.142
801	0.141
801	0.141
801	0.141
802	0.141
802	0.141
803	0.142
803	0.142
804	0.142
804	0.143
804	0.144
805	0.144
805	0.144
806	0.144
806	0.144
807	0.144
807	0.143
807	0.143
808	0.143
808	0.142
809	0.142
809	0.141
810	0.141
810	0.14
810	0.139
811	0.139
811	0.139
812	0.139
812	0.139
813	0.139
813	0.139
813	0.139
814	0.14
814	0.14
815	0.141
815	0.142
816	0.142
816	0.142
817	0.141
817	0.141
817	0.141
818	0.141
818	0.14
819	0.14
819	0.139
820	0.138
820	0.137
820	0.137
821	0.136
821	0.136
822	0.136
822	0.136
823	0.136
823	0.136
823	0.136
824	0.137
824	0.138
825	0.139
825	0.139
826	0.138
826	0.138
826	0.138
827	0.137
827	0.137
828	0.136
828	0.135
829	0.134
829	0.134
829	0.133
830	0.133
830	0.133
831	0.133
831	0.133
832	0.133
832	0.133
832	0.133
833	0.132
833	0.132
834	0.132
834	0.132
835	0.132
835	0.131
835	0.132
836	0.132
836	0.132
837	0.133
837	0.133
838	0.133
838	0.133
839	0.132
839	0.132
839	0.131
840	0.129
840	0.128
841	0.126
841	0.125
842	0.123
842	0.122
842	0.121
843	0.12
843	0.119
844	0.119
844	0.119
845	0.119
845	0.119
845	0.119
846	0.119
846	0.119
847	0.119
847	0.119
848	0.12
848	0.12
848	0.121
849	0.121
849	0.121
850	0.122
850	0.122
851	0.122
851	0.123
851	0.122
852	0.122
852	0.121
853	0.12
853	0.12
854	0.119
854	0.119
854	0.119
855	0.119
855	0.119
856	0.119
856	0.119
857	0.119
857	0.119
857	0.118
858	0.118
858	0.117
859	0.116
859	0.114
860	0.113
860	0.111
860	0.109
861	0.108
861	0.107
862	0.106
862	0.105
863	0.104
863	0.104
863	0.104
864	0.104
864	0.104
865	0.104
865	0.105
866	0.105
866	0.105
866	0.105
867	0.105
867	0.105
868	0.105
868	0.105
869	0.105
869	0.104
869	0.104
870	0.104
870	0.104
871	0.104
871	0.104
872	0.105
872	0.105
872	0.105
873	0.105
873	0.105
874	0.105
874	0.105
875	0.105
875	0.105
875	0.105
876	0.105
876	0.104
877	0.104
877	0.105
878	0.105
878	0.105
878	0.106
879	0.106
879	0.106
880	0.106
880	0.106
881	0.106
881	0.106
881	0.106
882	0.105
882	0.104
883	0.103
883	0.103
884	0.102
884	0.102
884	0.101
885	0.101
885	0.1
886	0.1
886	0.099
887	0.099
887	0.098
887	0.098
888	0.097
888	0.096
889	0.095
889	0.095
890	0.095
890	0.095
890	0.095
891	0.094
891	0.095
892	0.095
892	0.095
893	0.095
893	0.096
893	0.096
894	0.096
894	0.096
895	0.096
895	0.096
895	0.096
896	0.096
896	0.096
897	0.095
897	0.095
898	0.094
898	0.093
898	0.092
899	0.092
899	0.091
900	0.091
900	0.091
901	0.091
901	0.091
901	0.091
902	0.092
902	0.092
903	0.092
903	0.092
904	0.093
904	0.093
904	0.093
905	0.092
905	0.092
906	0.092
906	0.092
907	0.092
907	0.092
907	0.092
908	0.091
908	0.091
909	0.091
909	0.09
910	0.09
910	0.09
910	0.089
911	0.089
911	0.088
912	0.088
912	0.088
913	0.088
913	0.088
913	0.089
914	0.089
914	0.089
915	0.089
915	0.089
916	0.089
916	0.088
916	0.087
917	0.087
917	0.086
918	0.085
918	0.084
918	0.084
919	0.083
919	0.083
920	0.083
920	0.083
921	0.083
921	0.083
921	0.084
922	0.084
922	0.085
923	0.085
923	0.085
924	0.086
924	0.086
924	0.086
925	0.087
925	0.087
926	0.087
926	0.087
927	0.087
927	0.086
927	0.086
928	0.085
928	0.085
929	0.085
929	0.084
930	0.084
930	0.083
930	0.083
931	0.083
931	0.083
932	0.082
932	0.082
933	0.081
933	0.081
933	0.08
934	0.079
934	0.079
935	0.078
935	0.077
935	0.077
936	0.076
936	0.076
937	0.076
937	0.076
938	0.076
938	0.076
938	0.076
939	0.076
939	0.076
940	0.076
940	0.077
941	0.077
941	0.077
941	0.078
942	0.078
942	0.078
943	0.078
943	0.078
944	0.078
944	0.077
944	0.077
945	0.077
945	0.076
946	0.076
946	0.076
946	0.075
947	0.075
947	0.075
948	0.075
948	0.076
949	0.076
949	0.076
949	0.076
950	0.076
950	0.077
951	0.077
951	0.077
952	0.076
952	0.076
952	0.076
953	0.076
953	0.076
954	0.076
954	0.075
955	0.075
955	0.075
955	0.075
956	0.075
956	0.075
957	0.076
957	0.076
957	0.076
958	0.076
958	0.076
959	0.076
959	0.076
960	0.076
960	0.076
960	0.076
961	0.076
961	0.075
962	0.075
962	0.075
963	0.074
963	0.074
963	0.074
964	0.074
964	0.074
965	0.073
965	0.073
966	0.073
966	0.073
966	0.073
967	0.073
967	0.073
968	0.073
968	0.073
968	0.072
969	0.072
969	0.072
970	0.072
970	0.071
971	0.071
971	0.07
971	0.07
972	0.07
972	0.07
973	0.069
973	0.069
974	0.069
974	0.07
974	0.07
975	0.07
975	0.07
976	0.07
976	0.07
976	0.07
977	0.07
977	0.07
978	0.07
978	0.069
979	0.069
979	0.069
979	0.069
980	0.069
980	0.068
981	0.068
981	0.067
982	0.067
982	0.067
982	0.067
983	0.066
983	0.066
984	0.065
984	0.064
984	0.064
985	0.063
985	0.062
986	0.061
986	0.06
987	0.058
987	0.057
987	0.056
988	0.055
988	0.055
989	0.054
989	0.053
990	0.052
990	0.052
990	0.052
991	0.052
991	0.052
992	0.052
992	0.052
992	0.052
993	0.052
993	0.052
994	0.052
994	0.052
995	0.052
995	0.053
995	0.053
996	0.054
996	0.054
997	0.055
997	0.056
997	0.057
998	0.058
998	0.059
999	0.06
999	0.06
1000	0.062
1000	0.062
1000	0.063
1001	0.063
1001	0.063
1002	0.063
1002	0.063
1003	0.063
1003	0.063
1003	0.062
1004	0.062
1004	0.062
1005	0.061
1005	0.061
1005	0.061
1006	0.061
1006	0.06
1007	0.06
1007	0.06
1008	0.06
1008	0.06
1008	0.06
1009	0.061
1009	0.06
1010	0.06
1010	0.06
1010	0.059
1011	0.059
1011	0.059
1012	0.058
1012	0.058
1013	0.058
1013	0.057
1013	0.057
1014	0.056
1014	0.056
1015	0.056
1015	0.057
1016	0.057
1016	0.057
1016	0.057
1017	0.057
1017	0.056
1018	0.056
1018	0.056
1018	0.056
1019	0.056
1019	0.056
1020	0.056
1020	0.056
1021	0.056
1021	0.056
1021	0.056
1022	0.056
1022	0.056
1023	0.056
1023	0.056
1023	0.056
1024	0.056
1024	0.056
1025	0.055
1025	0.055
1026	0.054
1026	0.053
1026	0.053
1027	0.052
1027	0.052
1028	0.051
1028	0.051
1028	0.05
1029	0.05
1029	0.05
1030	0.05
1030	0.049
1031	0.05
1031	0.049
1031	0.049
1032	0.049
1032	0.049
1033	0.049
1033	0.049
1033	0.049
1034	0.049
1034	0.049
1035	0.048
1035	0.048
1036	0.048
1036	0.048
1036	0.049
1037	0.049
1037	0.049
1038	0.049
1038	0.049
1039	0.049
1039	0.049
1039	0.05
1040	0.05
1040	0.05
1041	0.051
1041	0.051
1041	0.051
1042	0.052
1042	0.052
1043	0.052
1043	0.052
1044	0.053
1044	0.053
1044	0.053
1045	0.054
1045	0.054
1046	0.054
1046	0.054
1046	0.055
1047	0.055
1047	0.055
1048	0.055
1048	0.056
1049	0.055
1049	0.055
1049	0.055
1050	0.054
1050	0.053
1051	0.052
1051	0.052
1051	0.051
1052	0.051
1052	0.05
1053	0.049
1053	0.048
1053	0.048
1054	0.047
1054	0.047
1055	0.047
1055	0.047
1056	0.047
1056	0.046
1056	0.046
1057	0.046
1057	0.045
1058	0.045
1058	0.044
1058	0.043
1059	0.043
1059	0.042
1060	0.042
1060	0.041
1061	0.04
1061	0.04
1061	0.04
1062	0.04
1062	0.04
1063	0.041
1063	0.041
1063	0.041
1064	0.041
1064	0.04
1065	0.04
1065	0.04
1066	0.04
1066	0.04
1066	0.04
1067	0.04
1067	0.04
1068	0.04
1068	0.04
1068	0.04
1069	0.04
1069	0.039
1070	0.039
1070	0.039
1071	0.038
1071	0.038
1071	0.037
1072	0.037
1072	0.036
1073	0.036
1073	0.035
1073	0.035
1074	0.035
1074	0.035
1075	0.035
1075	0.035
1076	0.036
1076	0.036
1076	0.037
1077	0.037
1077	0.037
1078	0.038
1078	0.038
1078	0.038
1079	0.038
1079	0.038
1080	0.038
1080	0.038
1080	0.038
1081	0.038
1081	0.038
1082	0.038
1082	0.038
1083	0.038
1083	0.038
1083	0.037
1084	0.038
1084	0.038
1085	0.037
1085	0.037
1085	0.037
1086	0.036
1086	0.035
1087	0.035
1087	0.035
1088	0.034
1088	0.034
1088	0.034
1089	0.033
1089	0.032
1090	0.032
1090	0.031
1090	0.031
1091	0.03
1091	0.03
1092	0.03
1092	0.031
1092	0.03
1093	0.03
1093	0.03
1094	0.031
1094	0.031
1095	0.03
1095	0.031
1095	0.031
1096	0.031
1096	0.031
1097	0.03
1097	0.03
1097	0.029
1098	0.029
1098	0.028
1099	0.028
1099	0.026
1100	0.025
1100	0.024
1100	0.023
1101	0.022
1101	0.022
1102	0.021
1102	0.02
1102	0.02
1103	0.019
1103	0.019
1104	0.019
1104	0.017
1104	0.017
1105	0.016
1105	0.014
1106	0.013
1106	0.011
1107	0.009
1107	0.008
1107	0.007
1108	0.005
1108	0.003
1109	0.003
1109	0.002
1109	0.002
1110	0.002
1110	-0.001
1111	0.001
1111	0
