Data from reversibility-20sec_Absorbance__4087__000000000004087.txt Node

Date: Wed Dec 06 10:55:26 CET 2023
User: Marek
Spectrometer: MAYP115816
Trigger mode: 0
Integration Time (sec): 2.000000E-1
Scans to average: 10
Electric dark correction enabled: true
Nonlinearity correction enabled: true
Boxcar width: 5
XAxis mode: Wavelengths
Number of Pixels in Spectrum: 2068
>>>>>Begin Spectral Data<<<<<
199	-0.183
199	-0.142
200	-0.074
200	-0.017
201	0.01
201	0.027
202	0.04
202	0.053
203	0.062
203	0.066
204	0.083
204	0.096
205	0.107
205	0.113
205	0.109
206	0.108
206	0.11
207	0.112
207	0.11
208	0.106
208	0.107
209	0.111
209	0.112
210	0.111
210	0.111
211	0.114
211	0.118
212	0.115
212	0.117
213	0.119
213	0.122
213	0.122
214	0.122
214	0.122
215	0.126
215	0.128
216	0.128
216	0.126
217	0.132
217	0.131
218	0.131
218	0.136
219	0.141
219	0.143
220	0.146
220	0.145
221	0.147
221	0.152
221	0.161
222	0.167
222	0.173
223	0.182
223	0.184
224	0.189
224	0.198
225	0.207
225	0.217
226	0.227
226	0.238
227	0.246
227	0.255
228	0.27
228	0.282
229	0.299
229	0.322
229	0.344
230	0.371
230	0.4
231	0.431
231	0.468
232	0.506
232	0.549
233	0.593
233	0.643
234	0.692
234	0.747
235	0.799
235	0.851
236	0.905
236	0.958
236	1.009
237	1.062
237	1.113
238	1.159
238	1.205
239	1.252
239	1.291
240	1.333
240	1.37
241	1.404
241	1.437
242	1.468
242	1.498
243	1.525
243	1.551
243	1.577
244	1.599
244	1.619
245	1.637
245	1.658
246	1.675
246	1.695
247	1.707
247	1.721
248	1.735
248	1.75
249	1.757
249	1.762
250	1.77
250	1.778
250	1.781
251	1.787
251	1.788
252	1.795
252	1.795
253	1.796
253	1.795
254	1.796
254	1.798
255	1.797
255	1.798
256	1.798
256	1.795
257	1.795
257	1.794
258	1.795
258	1.794
258	1.793
259	1.794
259	1.794
260	1.794
260	1.794
261	1.794
261	1.795
262	1.797
262	1.796
263	1.798
263	1.798
264	1.798
264	1.798
265	1.799
265	1.799
265	1.799
266	1.798
266	1.798
267	1.795
267	1.797
268	1.795
268	1.794
269	1.796
269	1.795
270	1.793
270	1.792
271	1.79
271	1.789
272	1.787
272	1.785
272	1.781
273	1.777
273	1.774
274	1.77
274	1.764
275	1.759
275	1.753
276	1.746
276	1.739
277	1.732
277	1.724
278	1.713
278	1.701
278	1.687
279	1.673
279	1.656
280	1.635
280	1.611
281	1.583
281	1.55
282	1.516
282	1.48
283	1.445
283	1.409
284	1.374
284	1.339
285	1.306
285	1.276
285	1.248
286	1.223
286	1.201
287	1.181
287	1.164
288	1.149
288	1.136
289	1.125
289	1.116
290	1.107
290	1.1
291	1.093
291	1.087
292	1.082
292	1.077
292	1.072
293	1.068
293	1.064
294	1.06
294	1.056
295	1.053
295	1.049
296	1.046
296	1.042
297	1.039
297	1.036
298	1.033
298	1.029
298	1.027
299	1.024
299	1.021
300	1.017
300	1.014
301	1.012
301	1.009
302	1.006
302	1.003
303	1
303	0.997
304	0.994
304	0.992
305	0.989
305	0.986
305	0.983
306	0.981
306	0.978
307	0.976
307	0.973
308	0.97
308	0.967
309	0.964
309	0.961
310	0.958
310	0.955
311	0.952
311	0.948
311	0.945
312	0.941
312	0.938
313	0.934
313	0.93
314	0.926
314	0.922
315	0.918
315	0.913
316	0.909
316	0.904
317	0.899
317	0.895
318	0.89
318	0.885
318	0.88
319	0.874
319	0.869
320	0.863
320	0.858
321	0.852
321	0.846
322	0.84
322	0.833
323	0.827
323	0.821
324	0.814
324	0.808
324	0.801
325	0.795
325	0.788
326	0.781
326	0.775
327	0.768
327	0.762
328	0.755
328	0.748
329	0.741
329	0.734
330	0.727
330	0.721
330	0.713
331	0.707
331	0.7
332	0.693
332	0.687
333	0.68
333	0.673
334	0.666
334	0.66
335	0.653
335	0.647
336	0.641
336	0.634
336	0.628
337	0.621
337	0.615
338	0.609
338	0.603
339	0.597
339	0.591
340	0.586
340	0.58
341	0.574
341	0.569
342	0.564
342	0.559
342	0.553
343	0.548
343	0.543
344	0.538
344	0.533
345	0.529
345	0.524
346	0.519
346	0.515
347	0.51
347	0.506
348	0.502
348	0.498
348	0.494
349	0.491
349	0.487
350	0.483
350	0.48
351	0.476
351	0.473
352	0.47
352	0.467
353	0.464
353	0.461
354	0.458
354	0.455
354	0.452
355	0.449
355	0.446
356	0.443
356	0.44
357	0.437
357	0.435
358	0.432
358	0.429
359	0.427
359	0.424
360	0.422
360	0.421
360	0.419
361	0.417
361	0.415
362	0.413
362	0.411
363	0.409
363	0.408
364	0.406
364	0.404
365	0.402
365	0.4
366	0.398
366	0.396
366	0.394
367	0.392
367	0.39
368	0.389
368	0.387
369	0.385
369	0.384
370	0.382
370	0.381
371	0.379
371	0.378
372	0.376
372	0.375
372	0.373
373	0.372
373	0.371
374	0.37
374	0.369
375	0.368
375	0.367
376	0.366
376	0.364
377	0.363
377	0.362
378	0.361
378	0.36
378	0.359
379	0.358
379	0.357
380	0.356
380	0.355
381	0.354
381	0.353
382	0.353
382	0.352
383	0.351
383	0.35
383	0.35
384	0.349
384	0.348
385	0.348
385	0.347
386	0.346
386	0.346
387	0.345
387	0.345
388	0.344
388	0.343
389	0.343
389	0.342
389	0.341
390	0.341
390	0.34
391	0.339
391	0.339
392	0.338
392	0.338
393	0.338
393	0.337
394	0.337
394	0.336
394	0.336
395	0.335
395	0.335
396	0.334
396	0.334
397	0.333
397	0.333
398	0.332
398	0.332
399	0.331
399	0.33
400	0.33
400	0.33
400	0.329
401	0.329
401	0.328
402	0.328
402	0.327
403	0.326
403	0.326
404	0.325
404	0.325
405	0.325
405	0.324
405	0.324
406	0.324
406	0.323
407	0.323
407	0.323
408	0.322
408	0.322
409	0.322
409	0.321
410	0.321
410	0.321
411	0.32
411	0.32
411	0.32
412	0.319
412	0.319
413	0.318
413	0.318
414	0.318
414	0.317
415	0.317
415	0.316
416	0.316
416	0.316
416	0.315
417	0.315
417	0.315
418	0.314
418	0.314
419	0.314
419	0.313
420	0.313
420	0.312
421	0.312
421	0.311
421	0.311
422	0.311
422	0.31
423	0.31
423	0.31
424	0.309
424	0.309
425	0.309
425	0.309
426	0.309
426	0.308
427	0.308
427	0.307
427	0.307
428	0.307
428	0.306
429	0.306
429	0.305
430	0.305
430	0.305
431	0.305
431	0.304
432	0.304
432	0.304
432	0.304
433	0.304
433	0.304
434	0.304
434	0.303
435	0.303
435	0.303
436	0.303
436	0.303
437	0.302
437	0.303
437	0.302
438	0.302
438	0.302
439	0.302
439	0.302
440	0.301
440	0.301
441	0.301
441	0.301
442	0.301
442	0.301
442	0.301
443	0.3
443	0.3
444	0.3
444	0.3
445	0.3
445	0.3
446	0.3
446	0.3
447	0.299
447	0.299
447	0.299
448	0.299
448	0.299
449	0.299
449	0.299
450	0.299
450	0.299
451	0.299
451	0.299
452	0.299
452	0.299
452	0.299
453	0.299
453	0.299
454	0.299
454	0.299
455	0.299
455	0.299
456	0.299
456	0.299
457	0.299
457	0.299
458	0.299
458	0.299
458	0.299
459	0.299
459	0.299
460	0.3
460	0.3
461	0.3
461	0.3
462	0.3
462	0.3
463	0.3
463	0.3
463	0.301
464	0.301
464	0.301
465	0.301
465	0.301
466	0.301
466	0.301
467	0.301
467	0.302
467	0.302
468	0.302
468	0.303
469	0.303
469	0.304
470	0.304
470	0.305
471	0.305
471	0.306
472	0.306
472	0.306
472	0.306
473	0.307
473	0.307
474	0.307
474	0.308
475	0.308
475	0.308
476	0.309
476	0.31
477	0.31
477	0.311
477	0.311
478	0.312
478	0.312
479	0.313
479	0.314
480	0.315
480	0.315
481	0.316
481	0.317
482	0.317
482	0.318
482	0.319
483	0.32
483	0.321
484	0.322
484	0.323
485	0.323
485	0.324
486	0.325
486	0.326
487	0.326
487	0.327
487	0.328
488	0.329
488	0.33
489	0.331
489	0.333
490	0.334
490	0.335
491	0.337
491	0.338
492	0.34
492	0.341
492	0.343
493	0.344
493	0.345
494	0.347
494	0.348
495	0.35
495	0.351
496	0.352
496	0.354
496	0.355
497	0.356
497	0.358
498	0.359
498	0.36
499	0.361
499	0.363
500	0.364
500	0.366
501	0.368
501	0.369
501	0.37
502	0.371
502	0.373
503	0.374
503	0.375
504	0.377
504	0.378
505	0.379
505	0.381
506	0.382
506	0.384
506	0.385
507	0.386
507	0.388
508	0.389
508	0.39
509	0.391
509	0.393
510	0.394
510	0.395
511	0.397
511	0.398
511	0.399
512	0.4
512	0.401
513	0.402
513	0.403
514	0.404
514	0.404
515	0.405
515	0.405
515	0.405
516	0.406
516	0.407
517	0.408
517	0.408
518	0.409
518	0.409
519	0.41
519	0.41
520	0.411
520	0.411
520	0.411
521	0.411
521	0.411
522	0.411
522	0.411
523	0.411
523	0.411
524	0.411
524	0.411
524	0.411
525	0.41
525	0.41
526	0.409
526	0.408
527	0.407
527	0.407
528	0.406
528	0.405
529	0.404
529	0.403
529	0.402
530	0.401
530	0.4
531	0.399
531	0.397
532	0.396
532	0.394
533	0.393
533	0.392
533	0.39
534	0.388
534	0.387
535	0.385
535	0.384
536	0.382
536	0.38
537	0.378
537	0.376
538	0.374
538	0.372
538	0.37
539	0.368
539	0.367
540	0.365
540	0.363
541	0.361
541	0.358
542	0.356
542	0.354
542	0.352
543	0.349
543	0.347
544	0.345
544	0.342
545	0.34
545	0.338
546	0.336
546	0.334
547	0.331
547	0.329
547	0.326
548	0.324
548	0.322
549	0.32
549	0.318
550	0.316
550	0.313
551	0.311
551	0.308
551	0.306
552	0.303
552	0.301
553	0.299
553	0.297
554	0.294
554	0.292
555	0.29
555	0.287
556	0.285
556	0.283
556	0.281
557	0.279
557	0.277
558	0.275
558	0.273
559	0.271
559	0.269
560	0.267
560	0.265
560	0.263
561	0.261
561	0.259
562	0.257
562	0.254
563	0.252
563	0.25
564	0.247
564	0.245
564	0.243
565	0.242
565	0.24
566	0.238
566	0.236
567	0.234
567	0.232
568	0.23
568	0.229
568	0.227
569	0.225
569	0.223
570	0.221
570	0.219
571	0.218
571	0.216
572	0.215
572	0.214
573	0.212
573	0.211
573	0.209
574	0.208
574	0.207
575	0.205
575	0.204
576	0.203
576	0.201
577	0.199
577	0.198
577	0.196
578	0.195
578	0.193
579	0.193
579	0.192
580	0.19
580	0.188
581	0.187
581	0.186
581	0.185
582	0.184
582	0.183
583	0.182
583	0.181
584	0.179
584	0.177
585	0.176
585	0.175
585	0.173
586	0.172
586	0.171
587	0.17
587	0.169
588	0.168
588	0.167
589	0.166
589	0.165
590	0.165
590	0.164
590	0.164
591	0.163
591	0.161
592	0.16
592	0.159
593	0.158
593	0.157
594	0.156
594	0.154
594	0.153
595	0.152
595	0.151
596	0.15
596	0.149
597	0.149
597	0.149
598	0.149
598	0.148
598	0.148
599	0.147
599	0.146
600	0.146
600	0.145
601	0.144
601	0.143
602	0.142
602	0.141
602	0.14
603	0.139
603	0.139
604	0.138
604	0.138
605	0.138
605	0.137
606	0.137
606	0.136
606	0.135
607	0.135
607	0.134
608	0.134
608	0.133
609	0.132
609	0.131
610	0.131
610	0.13
610	0.129
611	0.129
611	0.128
612	0.128
612	0.128
613	0.128
613	0.127
614	0.126
614	0.125
614	0.125
615	0.125
615	0.124
616	0.124
616	0.123
617	0.123
617	0.122
618	0.121
618	0.121
618	0.121
619	0.121
619	0.121
620	0.121
620	0.12
621	0.12
621	0.119
622	0.119
622	0.118
622	0.117
623	0.117
623	0.116
624	0.116
624	0.115
625	0.114
625	0.114
626	0.113
626	0.113
626	0.113
627	0.112
627	0.112
628	0.112
628	0.111
629	0.111
629	0.11
630	0.11
630	0.109
630	0.109
631	0.109
631	0.108
632	0.108
632	0.107
633	0.107
633	0.107
634	0.107
634	0.108
634	0.108
635	0.107
635	0.107
636	0.107
636	0.107
637	0.106
637	0.106
638	0.105
638	0.105
638	0.104
639	0.103
639	0.102
640	0.102
640	0.102
641	0.101
641	0.101
642	0.101
642	0.101
642	0.101
643	0.101
643	0.101
644	0.101
644	0.101
645	0.1
645	0.1
646	0.1
646	0.1
646	0.1
647	0.1
647	0.099
648	0.099
648	0.098
649	0.098
649	0.097
650	0.097
650	0.097
650	0.097
651	0.097
651	0.097
652	0.096
652	0.096
653	0.097
653	0.098
653	0.103
654	0.083
654	0.068
655	0.066
655	0.065
656	0.065
656	0.066
657	0.066
657	0.066
657	0.066
658	0.065
658	0.057
659	0.071
659	0.089
660	0.094
660	0.094
661	0.094
661	0.093
661	0.093
662	0.092
662	0.092
663	0.091
663	0.091
664	0.09
664	0.09
665	0.089
665	0.089
665	0.089
666	0.089
666	0.088
667	0.089
667	0.089
668	0.089
668	0.089
669	0.089
669	0.089
669	0.09
670	0.09
670	0.09
671	0.09
671	0.089
672	0.088
672	0.087
672	0.087
673	0.087
673	0.086
674	0.086
674	0.085
675	0.085
675	0.085
676	0.085
676	0.085
676	0.086
677	0.086
677	0.086
678	0.086
678	0.085
679	0.085
679	0.085
680	0.085
680	0.084
680	0.084
681	0.083
681	0.083
682	0.083
682	0.083
683	0.084
683	0.084
684	0.084
684	0.084
684	0.083
685	0.083
685	0.084
686	0.084
686	0.084
687	0.084
687	0.084
687	0.084
688	0.084
688	0.084
689	0.085
689	0.085
690	0.085
690	0.085
691	0.085
691	0.085
691	0.084
692	0.084
692	0.084
693	0.084
693	0.084
694	0.083
694	0.082
695	0.083
695	0.084
695	0.083
696	0.083
696	0.083
697	0.083
697	0.083
698	0.082
698	0.082
698	0.082
699	0.082
699	0.082
700	0.081
700	0.081
701	0.081
701	0.081
702	0.08
702	0.08
702	0.08
703	0.079
703	0.079
704	0.078
704	0.078
705	0.078
705	0.078
705	0.078
706	0.078
706	0.078
707	0.078
707	0.078
708	0.077
708	0.077
709	0.077
709	0.077
709	0.076
710	0.076
710	0.076
711	0.076
711	0.076
712	0.075
712	0.075
713	0.075
713	0.075
713	0.075
714	0.074
714	0.074
715	0.074
715	0.073
716	0.073
716	0.072
716	0.072
717	0.071
717	0.071
718	0.07
718	0.07
719	0.071
719	0.071
720	0.071
720	0.072
720	0.072
721	0.072
721	0.073
722	0.074
722	0.074
723	0.074
723	0.074
723	0.074
724	0.073
724	0.073
725	0.072
725	0.07
726	0.07
726	0.069
727	0.068
727	0.068
727	0.068
728	0.068
728	0.067
729	0.068
729	0.068
730	0.069
730	0.069
730	0.069
731	0.07
731	0.07
732	0.07
732	0.07
733	0.07
733	0.07
734	0.07
734	0.07
734	0.07
735	0.07
735	0.069
736	0.069
736	0.068
737	0.067
737	0.067
737	0.066
738	0.065
738	0.064
739	0.064
739	0.063
740	0.063
740	0.063
741	0.064
741	0.064
741	0.064
742	0.064
742	0.065
743	0.065
743	0.066
744	0.066
744	0.066
744	0.066
745	0.066
745	0.065
746	0.065
746	0.065
747	0.065
747	0.065
748	0.065
748	0.065
748	0.065
749	0.065
749	0.065
750	0.065
750	0.064
751	0.064
751	0.064
751	0.064
752	0.064
752	0.063
753	0.063
753	0.063
754	0.062
754	0.062
754	0.062
755	0.062
755	0.062
756	0.061
756	0.06
757	0.06
757	0.06
758	0.06
758	0.06
758	0.06
759	0.06
759	0.06
760	0.059
760	0.059
761	0.059
761	0.06
761	0.06
762	0.06
762	0.06
763	0.059
763	0.059
764	0.058
764	0.058
764	0.058
765	0.057
765	0.057
766	0.057
766	0.056
767	0.056
767	0.055
768	0.055
768	0.055
768	0.055
769	0.055
769	0.055
770	0.056
770	0.056
771	0.056
771	0.056
771	0.057
772	0.057
772	0.057
773	0.057
773	0.057
774	0.057
774	0.057
775	0.057
775	0.057
775	0.057
776	0.058
776	0.058
777	0.059
777	0.059
778	0.059
778	0.059
778	0.059
779	0.059
779	0.059
780	0.058
780	0.058
781	0.058
781	0.057
781	0.057
782	0.056
782	0.056
783	0.056
783	0.057
784	0.056
784	0.056
784	0.057
785	0.057
785	0.057
786	0.057
786	0.057
787	0.057
787	0.057
788	0.057
788	0.056
788	0.056
789	0.055
789	0.055
790	0.055
790	0.054
791	0.053
791	0.052
791	0.051
792	0.051
792	0.051
793	0.05
793	0.05
794	0.049
794	0.049
794	0.049
795	0.049
795	0.049
796	0.049
796	0.049
797	0.049
797	0.049
797	0.05
798	0.051
798	0.051
799	0.051
799	0.051
800	0.051
800	0.051
801	0.051
801	0.05
801	0.05
802	0.05
802	0.05
803	0.049
803	0.049
804	0.05
804	0.05
804	0.051
805	0.051
805	0.051
806	0.051
806	0.051
807	0.051
807	0.051
807	0.051
808	0.051
808	0.052
809	0.051
809	0.052
810	0.052
810	0.052
810	0.052
811	0.052
811	0.052
812	0.053
812	0.053
813	0.052
813	0.053
813	0.052
814	0.053
814	0.053
815	0.053
815	0.052
816	0.052
816	0.052
817	0.051
817	0.051
817	0.05
818	0.05
818	0.05
819	0.049
819	0.048
820	0.048
820	0.047
820	0.047
821	0.047
821	0.047
822	0.047
822	0.047
823	0.047
823	0.046
823	0.047
824	0.048
824	0.049
825	0.05
825	0.051
826	0.051
826	0.051
826	0.052
827	0.052
827	0.052
828	0.052
828	0.052
829	0.052
829	0.052
829	0.051
830	0.051
830	0.052
831	0.053
831	0.053
832	0.053
832	0.053
832	0.053
833	0.053
833	0.053
834	0.052
834	0.052
835	0.051
835	0.05
835	0.05
836	0.049
836	0.049
837	0.049
837	0.048
838	0.048
838	0.048
839	0.047
839	0.047
839	0.047
840	0.046
840	0.046
841	0.045
841	0.045
842	0.044
842	0.044
842	0.044
843	0.044
843	0.044
844	0.044
844	0.044
845	0.045
845	0.045
845	0.045
846	0.045
846	0.046
847	0.046
847	0.046
848	0.046
848	0.046
848	0.046
849	0.046
849	0.045
850	0.045
850	0.045
851	0.045
851	0.045
851	0.045
852	0.044
852	0.044
853	0.043
853	0.043
854	0.043
854	0.044
854	0.044
855	0.045
855	0.046
856	0.046
856	0.047
857	0.047
857	0.048
857	0.049
858	0.049
858	0.049
859	0.048
859	0.048
860	0.048
860	0.047
860	0.047
861	0.046
861	0.046
862	0.045
862	0.044
863	0.044
863	0.043
863	0.043
864	0.043
864	0.043
865	0.042
865	0.043
866	0.042
866	0.042
866	0.042
867	0.042
867	0.042
868	0.042
868	0.042
869	0.042
869	0.041
869	0.04
870	0.04
870	0.04
871	0.04
871	0.04
872	0.04
872	0.04
872	0.04
873	0.04
873	0.04
874	0.04
874	0.04
875	0.04
875	0.04
875	0.04
876	0.04
876	0.039
877	0.039
877	0.039
878	0.04
878	0.04
878	0.04
879	0.041
879	0.041
880	0.042
880	0.042
881	0.042
881	0.042
881	0.042
882	0.042
882	0.042
883	0.041
883	0.041
884	0.041
884	0.041
884	0.041
885	0.041
885	0.041
886	0.041
886	0.041
887	0.04
887	0.04
887	0.04
888	0.04
888	0.039
889	0.039
889	0.04
890	0.04
890	0.04
890	0.04
891	0.039
891	0.04
892	0.039
892	0.04
893	0.04
893	0.039
893	0.039
894	0.039
894	0.038
895	0.037
895	0.037
895	0.037
896	0.036
896	0.036
897	0.035
897	0.035
898	0.035
898	0.034
898	0.034
899	0.034
899	0.034
900	0.034
900	0.034
901	0.035
901	0.035
901	0.036
902	0.036
902	0.036
903	0.036
903	0.037
904	0.037
904	0.037
904	0.037
905	0.037
905	0.038
906	0.038
906	0.038
907	0.039
907	0.039
907	0.04
908	0.04
908	0.041
909	0.041
909	0.041
910	0.041
910	0.041
910	0.041
911	0.041
911	0.041
912	0.041
912	0.041
913	0.041
913	0.041
913	0.04
914	0.04
914	0.04
915	0.039
915	0.039
916	0.039
916	0.038
916	0.038
917	0.037
917	0.037
918	0.036
918	0.036
918	0.036
919	0.036
919	0.036
920	0.035
920	0.035
921	0.035
921	0.036
921	0.035
922	0.036
922	0.036
923	0.036
923	0.037
924	0.037
924	0.038
924	0.038
925	0.039
925	0.039
926	0.039
926	0.04
927	0.04
927	0.039
927	0.039
928	0.039
928	0.039
929	0.039
929	0.039
930	0.039
930	0.039
930	0.039
931	0.039
931	0.04
932	0.04
932	0.041
933	0.041
933	0.041
933	0.042
934	0.042
934	0.042
935	0.042
935	0.042
935	0.042
936	0.042
936	0.042
937	0.042
937	0.042
938	0.041
938	0.041
938	0.04
939	0.04
939	0.039
940	0.038
940	0.038
941	0.037
941	0.037
941	0.037
942	0.036
942	0.036
943	0.037
943	0.037
944	0.037
944	0.037
944	0.037
945	0.037
945	0.037
946	0.037
946	0.037
946	0.037
947	0.037
947	0.038
948	0.038
948	0.038
949	0.038
949	0.038
949	0.039
950	0.039
950	0.039
951	0.039
951	0.039
952	0.039
952	0.039
952	0.038
953	0.038
953	0.037
954	0.037
954	0.036
955	0.035
955	0.035
955	0.034
956	0.034
956	0.033
957	0.033
957	0.033
957	0.033
958	0.034
958	0.034
959	0.034
959	0.035
960	0.035
960	0.036
960	0.036
961	0.036
961	0.037
962	0.037
962	0.037
963	0.037
963	0.037
963	0.037
964	0.037
964	0.038
965	0.038
965	0.039
966	0.039
966	0.04
966	0.04
967	0.041
967	0.042
968	0.042
968	0.043
968	0.043
969	0.043
969	0.042
970	0.042
970	0.041
971	0.041
971	0.04
971	0.039
972	0.039
972	0.038
973	0.037
973	0.037
974	0.036
974	0.036
974	0.036
975	0.036
975	0.036
976	0.036
976	0.037
976	0.037
977	0.037
977	0.037
978	0.037
978	0.037
979	0.037
979	0.037
979	0.037
980	0.037
980	0.036
981	0.036
981	0.036
982	0.036
982	0.036
982	0.036
983	0.036
983	0.036
984	0.036
984	0.036
984	0.036
985	0.036
985	0.036
986	0.036
986	0.036
987	0.036
987	0.036
987	0.036
988	0.036
988	0.036
989	0.036
989	0.036
990	0.035
990	0.035
990	0.035
991	0.035
991	0.034
992	0.034
992	0.034
992	0.033
993	0.033
993	0.032
994	0.032
994	0.032
995	0.032
995	0.032
995	0.033
996	0.033
996	0.033
997	0.034
997	0.034
997	0.034
998	0.035
998	0.035
999	0.036
999	0.036
1000	0.036
1000	0.037
1000	0.037
1001	0.036
1001	0.037
1002	0.036
1002	0.036
1003	0.036
1003	0.035
1003	0.035
1004	0.034
1004	0.034
1005	0.033
1005	0.032
1005	0.032
1006	0.031
1006	0.031
1007	0.031
1007	0.031
1008	0.03
1008	0.031
1008	0.031
1009	0.031
1009	0.031
1010	0.032
1010	0.032
1010	0.033
1011	0.033
1011	0.033
1012	0.033
1012	0.033
1013	0.033
1013	0.033
1013	0.033
1014	0.032
1014	0.032
1015	0.032
1015	0.031
1016	0.031
1016	0.03
1016	0.03
1017	0.03
1017	0.029
1018	0.029
1018	0.029
1018	0.029
1019	0.028
1019	0.028
1020	0.028
1020	0.028
1021	0.028
1021	0.028
1021	0.029
1022	0.029
1022	0.029
1023	0.029
1023	0.029
1023	0.029
1024	0.03
1024	0.03
1025	0.03
1025	0.03
1026	0.03
1026	0.03
1026	0.029
1027	0.03
1027	0.03
1028	0.029
1028	0.029
1028	0.03
1029	0.03
1029	0.03
1030	0.03
1030	0.03
1031	0.031
1031	0.031
1031	0.031
1032	0.031
1032	0.031
1033	0.031
1033	0.031
1033	0.031
1034	0.03
1034	0.03
1035	0.03
1035	0.029
1036	0.029
1036	0.028
1036	0.028
1037	0.027
1037	0.027
1038	0.026
1038	0.026
1039	0.026
1039	0.026
1039	0.026
1040	0.026
1040	0.027
1041	0.027
1041	0.027
1041	0.028
1042	0.028
1042	0.028
1043	0.029
1043	0.03
1044	0.03
1044	0.03
1044	0.031
1045	0.031
1045	0.032
1046	0.032
1046	0.033
1046	0.033
1047	0.034
1047	0.034
1048	0.034
1048	0.035
1049	0.035
1049	0.035
1049	0.035
1050	0.035
1050	0.035
1051	0.035
1051	0.035
1051	0.035
1052	0.035
1052	0.035
1053	0.034
1053	0.034
1053	0.034
1054	0.034
1054	0.033
1055	0.033
1055	0.033
1056	0.032
1056	0.032
1056	0.031
1057	0.031
1057	0.03
1058	0.029
1058	0.028
1058	0.028
1059	0.027
1059	0.027
1060	0.027
1060	0.026
1061	0.026
1061	0.026
1061	0.026
1062	0.026
1062	0.026
1063	0.027
1063	0.027
1063	0.027
1064	0.026
1064	0.026
1065	0.026
1065	0.026
1066	0.027
1066	0.026
1066	0.026
1067	0.026
1067	0.026
1068	0.026
1068	0.026
1068	0.026
1069	0.026
1069	0.026
1070	0.025
1070	0.025
1071	0.025
1071	0.024
1071	0.024
1072	0.024
1072	0.023
1073	0.023
1073	0.023
1073	0.023
1074	0.023
1074	0.023
1075	0.023
1075	0.024
1076	0.024
1076	0.025
1076	0.026
1077	0.026
1077	0.026
1078	0.026
1078	0.026
1078	0.026
1079	0.026
1079	0.026
1080	0.025
1080	0.025
1080	0.025
1081	0.024
1081	0.024
1082	0.025
1082	0.025
1083	0.025
1083	0.025
1083	0.025
1084	0.025
1084	0.025
1085	0.025
1085	0.025
1085	0.025
1086	0.025
1086	0.024
1087	0.024
1087	0.024
1088	0.024
1088	0.023
1088	0.023
1089	0.022
1089	0.022
1090	0.022
1090	0.022
1090	0.02
1091	0.021
1091	0.02
1092	0.021
1092	0.02
1092	0.02
1093	0.02
1093	0.021
1094	0.02
1094	0.02
1095	0.02
1095	0.02
1095	0.02
1096	0.02
1096	0.019
1097	0.019
1097	0.019
1097	0.019
1098	0.019
1098	0.018
1099	0.017
1099	0.017
1100	0.016
1100	0.015
1100	0.014
1101	0.014
1101	0.013
1102	0.013
1102	0.012
1102	0.012
1103	0.012
1103	0.012
1104	0.012
1104	0.012
1104	0.013
1105	0.012
1105	0.011
1106	0.009
1106	0.008
1107	0.007
1107	0.007
1107	0.006
1108	0.005
1108	0.004
1109	0.003
1109	0.002
1109	0.002
1110	0.002
1110	0.003
1111	0.002
1111	0.005
