Data from reversibility-20sec_Absorbance__6541__000000000006541.txt Node

Date: Thu Dec 07 00:33:26 CET 2023
User: Marek
Spectrometer: MAYP115816
Trigger mode: 0
Integration Time (sec): 2.000000E-1
Scans to average: 10
Electric dark correction enabled: true
Nonlinearity correction enabled: true
Boxcar width: 5
XAxis mode: Wavelengths
Number of Pixels in Spectrum: 2068
>>>>>Begin Spectral Data<<<<<
199	-0.106
199	-0.085
200	-0.03
200	0.023
201	0.052
201	0.067
202	0.076
202	0.085
203	0.091
203	0.094
204	0.105
204	0.118
205	0.129
205	0.137
205	0.134
206	0.134
206	0.135
207	0.137
207	0.137
208	0.136
208	0.136
209	0.141
209	0.138
210	0.14
210	0.142
211	0.144
211	0.148
212	0.144
212	0.147
213	0.146
213	0.147
213	0.146
214	0.146
214	0.147
215	0.145
215	0.144
216	0.145
216	0.139
217	0.142
217	0.143
218	0.144
218	0.149
219	0.154
219	0.158
220	0.16
220	0.161
221	0.16
221	0.162
221	0.167
222	0.173
222	0.176
223	0.182
223	0.184
224	0.19
224	0.196
225	0.206
225	0.216
226	0.228
226	0.237
227	0.249
227	0.26
228	0.276
228	0.291
229	0.311
229	0.334
229	0.354
230	0.378
230	0.408
231	0.438
231	0.478
232	0.514
232	0.558
233	0.602
233	0.649
234	0.696
234	0.749
235	0.803
235	0.858
236	0.912
236	0.966
236	1.015
237	1.066
237	1.112
238	1.157
238	1.207
239	1.255
239	1.296
240	1.334
240	1.367
241	1.401
241	1.432
242	1.464
242	1.5
243	1.529
243	1.555
243	1.577
244	1.598
244	1.618
245	1.636
245	1.659
246	1.676
246	1.695
247	1.707
247	1.717
248	1.733
248	1.747
249	1.757
249	1.763
250	1.771
250	1.78
250	1.783
251	1.788
251	1.788
252	1.793
252	1.795
253	1.794
253	1.791
254	1.789
254	1.788
255	1.788
255	1.786
256	1.785
256	1.784
257	1.784
257	1.782
258	1.781
258	1.781
258	1.78
259	1.779
259	1.781
260	1.779
260	1.779
261	1.78
261	1.783
262	1.785
262	1.786
263	1.79
263	1.79
264	1.792
264	1.794
265	1.794
265	1.796
265	1.796
266	1.796
266	1.794
267	1.793
267	1.794
268	1.792
268	1.794
269	1.796
269	1.795
270	1.795
270	1.794
271	1.793
271	1.791
272	1.791
272	1.788
272	1.784
273	1.779
273	1.771
274	1.764
274	1.758
275	1.75
275	1.744
276	1.735
276	1.728
277	1.719
277	1.71
278	1.698
278	1.684
278	1.67
279	1.652
279	1.629
280	1.602
280	1.569
281	1.531
281	1.488
282	1.444
282	1.399
283	1.355
283	1.313
284	1.272
284	1.233
285	1.196
285	1.162
285	1.132
286	1.106
286	1.083
287	1.063
287	1.046
288	1.032
288	1.02
289	1.009
289	1
290	0.992
290	0.986
291	0.98
291	0.975
292	0.97
292	0.966
292	0.962
293	0.958
293	0.955
294	0.952
294	0.949
295	0.946
295	0.943
296	0.94
296	0.937
297	0.934
297	0.932
298	0.929
298	0.926
298	0.923
299	0.921
299	0.918
300	0.915
300	0.912
301	0.91
301	0.907
302	0.905
302	0.902
303	0.9
303	0.898
304	0.895
304	0.893
305	0.89
305	0.888
305	0.886
306	0.884
306	0.882
307	0.88
307	0.877
308	0.875
308	0.872
309	0.87
309	0.868
310	0.865
310	0.862
311	0.859
311	0.856
311	0.853
312	0.849
312	0.846
313	0.842
313	0.839
314	0.835
314	0.83
315	0.826
315	0.822
316	0.818
316	0.814
317	0.809
317	0.804
318	0.799
318	0.794
318	0.789
319	0.784
319	0.779
320	0.773
320	0.767
321	0.762
321	0.756
322	0.749
322	0.743
323	0.736
323	0.73
324	0.723
324	0.717
324	0.71
325	0.703
325	0.696
326	0.689
326	0.683
327	0.676
327	0.669
328	0.662
328	0.656
329	0.649
329	0.642
330	0.634
330	0.628
330	0.621
331	0.614
331	0.606
332	0.599
332	0.592
333	0.585
333	0.578
334	0.571
334	0.564
335	0.557
335	0.55
336	0.544
336	0.537
336	0.531
337	0.524
337	0.518
338	0.512
338	0.506
339	0.5
339	0.494
340	0.488
340	0.482
341	0.477
341	0.471
342	0.466
342	0.46
342	0.455
343	0.449
343	0.444
344	0.439
344	0.435
345	0.43
345	0.425
346	0.421
346	0.416
347	0.412
347	0.408
348	0.404
348	0.4
348	0.396
349	0.392
349	0.388
350	0.385
350	0.381
351	0.378
351	0.375
352	0.372
352	0.369
353	0.366
353	0.363
354	0.36
354	0.357
354	0.354
355	0.351
355	0.348
356	0.346
356	0.343
357	0.34
357	0.337
358	0.334
358	0.332
359	0.33
359	0.328
360	0.326
360	0.324
360	0.322
361	0.32
361	0.318
362	0.317
362	0.315
363	0.314
363	0.312
364	0.31
364	0.308
365	0.306
365	0.304
366	0.303
366	0.301
366	0.3
367	0.298
367	0.297
368	0.295
368	0.294
369	0.292
369	0.291
370	0.289
370	0.288
371	0.287
371	0.285
372	0.284
372	0.283
372	0.282
373	0.281
373	0.28
374	0.279
374	0.278
375	0.277
375	0.276
376	0.275
376	0.275
377	0.274
377	0.273
378	0.272
378	0.271
378	0.271
379	0.27
379	0.269
380	0.269
380	0.268
381	0.267
381	0.267
382	0.266
382	0.266
383	0.265
383	0.264
383	0.264
384	0.263
384	0.263
385	0.263
385	0.262
386	0.262
386	0.261
387	0.261
387	0.26
388	0.26
388	0.26
389	0.259
389	0.259
389	0.259
390	0.259
390	0.258
391	0.258
391	0.258
392	0.257
392	0.257
393	0.257
393	0.256
394	0.256
394	0.255
394	0.255
395	0.255
395	0.255
396	0.254
396	0.254
397	0.254
397	0.253
398	0.253
398	0.253
399	0.253
399	0.252
400	0.252
400	0.252
400	0.251
401	0.251
401	0.251
402	0.251
402	0.251
403	0.25
403	0.25
404	0.25
404	0.25
405	0.249
405	0.249
405	0.249
406	0.248
406	0.248
407	0.248
407	0.248
408	0.247
408	0.247
409	0.247
409	0.246
410	0.246
410	0.246
411	0.246
411	0.246
411	0.245
412	0.245
412	0.245
413	0.244
413	0.244
414	0.244
414	0.244
415	0.243
415	0.243
416	0.243
416	0.242
416	0.242
417	0.242
417	0.242
418	0.241
418	0.241
419	0.24
419	0.24
420	0.24
420	0.239
421	0.239
421	0.238
421	0.238
422	0.238
422	0.237
423	0.237
423	0.237
424	0.237
424	0.236
425	0.236
425	0.236
426	0.236
426	0.235
427	0.235
427	0.234
427	0.234
428	0.234
428	0.233
429	0.233
429	0.233
430	0.233
430	0.232
431	0.232
431	0.232
432	0.232
432	0.232
432	0.231
433	0.231
433	0.231
434	0.231
434	0.231
435	0.23
435	0.23
436	0.23
436	0.23
437	0.23
437	0.229
437	0.229
438	0.229
438	0.229
439	0.229
439	0.228
440	0.228
440	0.228
441	0.227
441	0.227
442	0.227
442	0.226
442	0.226
443	0.226
443	0.226
444	0.225
444	0.225
445	0.225
445	0.225
446	0.225
446	0.225
447	0.224
447	0.224
447	0.224
448	0.224
448	0.223
449	0.223
449	0.223
450	0.223
450	0.222
451	0.222
451	0.222
452	0.222
452	0.222
452	0.222
453	0.222
453	0.222
454	0.222
454	0.221
455	0.221
455	0.22
456	0.22
456	0.22
457	0.22
457	0.22
458	0.219
458	0.219
458	0.219
459	0.219
459	0.219
460	0.219
460	0.219
461	0.218
461	0.218
462	0.218
462	0.218
463	0.217
463	0.217
463	0.217
464	0.217
464	0.216
465	0.216
465	0.215
466	0.215
466	0.215
467	0.215
467	0.215
467	0.215
468	0.215
468	0.215
469	0.215
469	0.216
470	0.216
470	0.216
471	0.216
471	0.215
472	0.215
472	0.215
472	0.215
473	0.215
473	0.215
474	0.215
474	0.215
475	0.215
475	0.215
476	0.215
476	0.215
477	0.215
477	0.214
477	0.214
478	0.214
478	0.214
479	0.214
479	0.214
480	0.214
480	0.214
481	0.214
481	0.214
482	0.214
482	0.214
482	0.214
483	0.214
483	0.214
484	0.215
484	0.214
485	0.214
485	0.214
486	0.214
486	0.214
487	0.214
487	0.214
487	0.215
488	0.215
488	0.215
489	0.215
489	0.216
490	0.216
490	0.216
491	0.217
491	0.217
492	0.218
492	0.218
492	0.219
493	0.219
493	0.22
494	0.22
494	0.22
495	0.22
495	0.22
496	0.22
496	0.221
496	0.221
497	0.221
497	0.221
498	0.221
498	0.222
499	0.222
499	0.222
500	0.223
500	0.224
501	0.224
501	0.225
501	0.225
502	0.225
502	0.226
503	0.226
503	0.226
504	0.227
504	0.227
505	0.228
505	0.228
506	0.228
506	0.228
506	0.229
507	0.229
507	0.229
508	0.23
508	0.23
509	0.23
509	0.231
510	0.231
510	0.232
511	0.232
511	0.233
511	0.233
512	0.234
512	0.234
513	0.235
513	0.235
514	0.236
514	0.236
515	0.236
515	0.237
515	0.237
516	0.237
516	0.237
517	0.238
517	0.238
518	0.238
518	0.238
519	0.238
519	0.238
520	0.239
520	0.239
520	0.24
521	0.24
521	0.24
522	0.24
522	0.241
523	0.241
523	0.241
524	0.241
524	0.241
524	0.242
525	0.242
525	0.242
526	0.242
526	0.242
527	0.242
527	0.242
528	0.242
528	0.242
529	0.242
529	0.242
529	0.242
530	0.242
530	0.242
531	0.242
531	0.242
532	0.242
532	0.242
533	0.241
533	0.241
533	0.241
534	0.241
534	0.241
535	0.241
535	0.241
536	0.241
536	0.241
537	0.241
537	0.241
538	0.241
538	0.241
538	0.24
539	0.24
539	0.24
540	0.24
540	0.239
541	0.239
541	0.239
542	0.239
542	0.238
542	0.238
543	0.238
543	0.238
544	0.238
544	0.238
545	0.237
545	0.237
546	0.237
546	0.237
547	0.236
547	0.236
547	0.235
548	0.235
548	0.235
549	0.235
549	0.234
550	0.234
550	0.234
551	0.233
551	0.233
551	0.233
552	0.232
552	0.232
553	0.232
553	0.231
554	0.231
554	0.23
555	0.229
555	0.228
556	0.228
556	0.227
556	0.227
557	0.227
557	0.227
558	0.227
558	0.227
559	0.227
559	0.227
560	0.227
560	0.227
560	0.227
561	0.227
561	0.227
562	0.226
562	0.225
563	0.224
563	0.224
564	0.223
564	0.223
564	0.222
565	0.222
565	0.221
566	0.221
566	0.221
567	0.221
567	0.221
568	0.22
568	0.22
568	0.22
569	0.219
569	0.219
570	0.218
570	0.217
571	0.217
571	0.216
572	0.215
572	0.215
573	0.215
573	0.214
573	0.214
574	0.214
574	0.214
575	0.214
575	0.214
576	0.214
576	0.213
577	0.212
577	0.212
577	0.211
578	0.211
578	0.21
579	0.21
579	0.21
580	0.21
580	0.209
581	0.208
581	0.208
581	0.208
582	0.208
582	0.208
583	0.209
583	0.208
584	0.208
584	0.207
585	0.207
585	0.207
585	0.206
586	0.206
586	0.206
587	0.205
587	0.204
588	0.203
588	0.203
589	0.203
589	0.203
590	0.203
590	0.203
590	0.203
591	0.203
591	0.202
592	0.202
592	0.202
593	0.201
593	0.201
594	0.201
594	0.2
594	0.2
595	0.199
595	0.199
596	0.198
596	0.199
597	0.199
597	0.2
598	0.199
598	0.199
598	0.199
599	0.199
599	0.199
600	0.199
600	0.198
601	0.198
601	0.198
602	0.197
602	0.196
602	0.196
603	0.195
603	0.195
604	0.195
604	0.195
605	0.195
605	0.195
606	0.195
606	0.194
606	0.194
607	0.194
607	0.194
608	0.194
608	0.193
609	0.193
609	0.193
610	0.192
610	0.192
610	0.192
611	0.192
611	0.192
612	0.192
612	0.192
613	0.192
613	0.192
614	0.191
614	0.191
614	0.191
615	0.191
615	0.191
616	0.191
616	0.191
617	0.191
617	0.191
618	0.191
618	0.191
618	0.191
619	0.191
619	0.191
620	0.192
620	0.191
621	0.191
621	0.19
622	0.19
622	0.189
622	0.189
623	0.188
623	0.188
624	0.188
624	0.187
625	0.187
625	0.186
626	0.186
626	0.186
626	0.186
627	0.186
627	0.186
628	0.185
628	0.185
629	0.185
629	0.185
630	0.185
630	0.184
630	0.184
631	0.184
631	0.184
632	0.183
632	0.183
633	0.183
633	0.183
634	0.183
634	0.183
634	0.183
635	0.183
635	0.183
636	0.183
636	0.183
637	0.183
637	0.183
638	0.183
638	0.183
638	0.182
639	0.182
639	0.182
640	0.182
640	0.182
641	0.182
641	0.182
642	0.181
642	0.182
642	0.182
643	0.182
643	0.182
644	0.182
644	0.182
645	0.182
645	0.182
646	0.182
646	0.182
646	0.182
647	0.182
647	0.181
648	0.181
648	0.18
649	0.18
649	0.18
650	0.179
650	0.179
650	0.179
651	0.179
651	0.179
652	0.18
652	0.18
653	0.18
653	0.182
653	0.188
654	0.148
654	0.118
655	0.119
655	0.119
656	0.119
656	0.12
657	0.12
657	0.12
657	0.12
658	0.119
658	0.109
659	0.138
659	0.177
660	0.182
660	0.182
661	0.182
661	0.181
661	0.181
662	0.181
662	0.181
663	0.18
663	0.18
664	0.18
664	0.18
665	0.18
665	0.179
665	0.179
666	0.179
666	0.179
667	0.179
667	0.18
668	0.18
668	0.18
669	0.18
669	0.181
669	0.181
670	0.182
670	0.182
671	0.182
671	0.182
672	0.181
672	0.181
672	0.18
673	0.18
673	0.179
674	0.179
674	0.178
675	0.178
675	0.178
676	0.178
676	0.178
676	0.178
677	0.178
677	0.178
678	0.178
678	0.178
679	0.178
679	0.178
680	0.178
680	0.178
680	0.178
681	0.178
681	0.178
682	0.178
682	0.179
683	0.179
683	0.179
684	0.179
684	0.179
684	0.178
685	0.179
685	0.179
686	0.179
686	0.179
687	0.179
687	0.179
687	0.179
688	0.179
688	0.179
689	0.18
689	0.181
690	0.18
690	0.18
691	0.18
691	0.18
691	0.18
692	0.18
692	0.18
693	0.181
693	0.181
694	0.181
694	0.18
695	0.181
695	0.182
695	0.183
696	0.183
696	0.183
697	0.183
697	0.182
698	0.182
698	0.182
698	0.182
699	0.182
699	0.181
700	0.181
700	0.181
701	0.181
701	0.181
702	0.181
702	0.181
702	0.181
703	0.181
703	0.181
704	0.181
704	0.181
705	0.181
705	0.181
705	0.181
706	0.181
706	0.181
707	0.181
707	0.181
708	0.181
708	0.181
709	0.181
709	0.181
709	0.181
710	0.181
710	0.182
711	0.182
711	0.182
712	0.183
712	0.183
713	0.183
713	0.184
713	0.184
714	0.184
714	0.184
715	0.183
715	0.183
716	0.183
716	0.182
716	0.182
717	0.181
717	0.181
718	0.18
718	0.18
719	0.18
719	0.18
720	0.18
720	0.181
720	0.181
721	0.182
721	0.183
722	0.184
722	0.184
723	0.184
723	0.185
723	0.185
724	0.185
724	0.185
725	0.185
725	0.184
726	0.183
726	0.183
727	0.182
727	0.182
727	0.181
728	0.181
728	0.181
729	0.181
729	0.181
730	0.182
730	0.182
730	0.183
731	0.183
731	0.184
732	0.185
732	0.186
733	0.186
733	0.186
734	0.186
734	0.187
734	0.187
735	0.187
735	0.187
736	0.186
736	0.186
737	0.186
737	0.186
737	0.186
738	0.185
738	0.185
739	0.184
739	0.184
740	0.184
740	0.184
741	0.184
741	0.184
741	0.184
742	0.184
742	0.184
743	0.186
743	0.186
744	0.187
744	0.188
744	0.188
745	0.189
745	0.189
746	0.189
746	0.189
747	0.189
747	0.189
748	0.189
748	0.189
748	0.188
749	0.188
749	0.188
750	0.188
750	0.188
751	0.188
751	0.188
751	0.188
752	0.188
752	0.188
753	0.188
753	0.188
754	0.187
754	0.187
754	0.187
755	0.187
755	0.187
756	0.186
756	0.186
757	0.185
757	0.185
758	0.185
758	0.185
758	0.186
759	0.186
759	0.186
760	0.186
760	0.186
761	0.187
761	0.187
761	0.188
762	0.188
762	0.188
763	0.188
763	0.188
764	0.188
764	0.188
764	0.188
765	0.188
765	0.188
766	0.188
766	0.188
767	0.188
767	0.187
768	0.186
768	0.187
768	0.187
769	0.187
769	0.187
770	0.188
770	0.189
771	0.189
771	0.19
771	0.19
772	0.191
772	0.192
773	0.193
773	0.193
774	0.193
774	0.194
775	0.194
775	0.194
775	0.194
776	0.195
776	0.195
777	0.196
777	0.196
778	0.196
778	0.196
778	0.196
779	0.196
779	0.196
780	0.195
780	0.195
781	0.194
781	0.194
781	0.193
782	0.193
782	0.193
783	0.194
783	0.194
784	0.194
784	0.195
784	0.195
785	0.195
785	0.196
786	0.196
786	0.196
787	0.196
787	0.195
788	0.195
788	0.194
788	0.194
789	0.193
789	0.193
790	0.193
790	0.192
791	0.192
791	0.192
791	0.192
792	0.193
792	0.194
793	0.194
793	0.194
794	0.194
794	0.194
794	0.195
795	0.195
795	0.196
796	0.196
796	0.196
797	0.196
797	0.196
797	0.196
798	0.196
798	0.197
799	0.197
799	0.196
800	0.196
800	0.195
801	0.195
801	0.195
801	0.195
802	0.196
802	0.196
803	0.196
803	0.197
804	0.197
804	0.198
804	0.198
805	0.198
805	0.198
806	0.198
806	0.198
807	0.198
807	0.197
807	0.197
808	0.197
808	0.197
809	0.196
809	0.196
810	0.196
810	0.197
810	0.197
811	0.197
811	0.198
812	0.198
812	0.199
813	0.199
813	0.2
813	0.2
814	0.201
814	0.202
815	0.202
815	0.203
816	0.203
816	0.202
817	0.202
817	0.201
817	0.201
818	0.2
818	0.2
819	0.199
819	0.199
820	0.198
820	0.197
820	0.197
821	0.198
821	0.198
822	0.198
822	0.199
823	0.199
823	0.2
823	0.2
824	0.202
824	0.203
825	0.204
825	0.205
826	0.205
826	0.205
826	0.205
827	0.206
827	0.206
828	0.206
828	0.206
829	0.206
829	0.206
829	0.207
830	0.207
830	0.208
831	0.209
831	0.209
832	0.209
832	0.209
832	0.209
833	0.209
833	0.208
834	0.208
834	0.207
835	0.207
835	0.206
835	0.206
836	0.205
836	0.205
837	0.205
837	0.204
838	0.204
838	0.203
839	0.203
839	0.202
839	0.201
840	0.2
840	0.2
841	0.199
841	0.198
842	0.197
842	0.196
842	0.195
843	0.195
843	0.194
844	0.194
844	0.193
845	0.193
845	0.193
845	0.193
846	0.193
846	0.193
847	0.193
847	0.194
848	0.194
848	0.194
848	0.195
849	0.196
849	0.196
850	0.197
850	0.197
851	0.197
851	0.198
851	0.197
852	0.197
852	0.197
853	0.196
853	0.196
854	0.196
854	0.196
854	0.197
855	0.197
855	0.198
856	0.199
856	0.199
857	0.2
857	0.201
857	0.202
858	0.203
858	0.203
859	0.202
859	0.202
860	0.202
860	0.201
860	0.2
861	0.2
861	0.199
862	0.197
862	0.196
863	0.195
863	0.195
863	0.194
864	0.194
864	0.194
865	0.194
865	0.194
866	0.194
866	0.194
866	0.195
867	0.195
867	0.196
868	0.197
868	0.197
869	0.197
869	0.197
869	0.196
870	0.196
870	0.196
871	0.196
871	0.196
872	0.196
872	0.196
872	0.196
873	0.196
873	0.195
874	0.194
874	0.194
875	0.194
875	0.193
875	0.193
876	0.192
876	0.192
877	0.191
877	0.191
878	0.191
878	0.191
878	0.192
879	0.192
879	0.192
880	0.193
880	0.193
881	0.194
881	0.194
881	0.194
882	0.195
882	0.195
883	0.195
883	0.195
884	0.195
884	0.195
884	0.195
885	0.194
885	0.194
886	0.194
886	0.193
887	0.193
887	0.192
887	0.191
888	0.19
888	0.189
889	0.189
889	0.188
890	0.188
890	0.188
890	0.188
891	0.187
891	0.187
892	0.187
892	0.187
893	0.187
893	0.187
893	0.187
894	0.187
894	0.187
895	0.187
895	0.187
895	0.187
896	0.187
896	0.187
897	0.187
897	0.187
898	0.186
898	0.186
898	0.185
899	0.185
899	0.184
900	0.183
900	0.182
901	0.181
901	0.181
901	0.18
902	0.18
902	0.179
903	0.179
903	0.179
904	0.179
904	0.179
904	0.179
905	0.179
905	0.179
906	0.179
906	0.179
907	0.179
907	0.18
907	0.18
908	0.18
908	0.18
909	0.18
909	0.18
910	0.18
910	0.18
910	0.18
911	0.179
911	0.179
912	0.179
912	0.178
913	0.178
913	0.178
913	0.177
914	0.177
914	0.177
915	0.177
915	0.177
916	0.177
916	0.177
916	0.177
917	0.176
917	0.176
918	0.175
918	0.175
918	0.174
919	0.173
919	0.173
920	0.172
920	0.171
921	0.171
921	0.17
921	0.17
922	0.169
922	0.169
923	0.17
923	0.17
924	0.17
924	0.171
924	0.171
925	0.172
925	0.172
926	0.172
926	0.173
927	0.173
927	0.174
927	0.174
928	0.174
928	0.174
929	0.174
929	0.174
930	0.174
930	0.174
930	0.173
931	0.173
931	0.172
932	0.172
932	0.171
933	0.171
933	0.17
933	0.17
934	0.169
934	0.169
935	0.168
935	0.168
935	0.167
936	0.167
936	0.166
937	0.166
937	0.165
938	0.165
938	0.165
938	0.164
939	0.164
939	0.163
940	0.163
940	0.163
941	0.163
941	0.164
941	0.164
942	0.164
942	0.164
943	0.165
943	0.165
944	0.165
944	0.165
944	0.165
945	0.165
945	0.164
946	0.164
946	0.163
946	0.163
947	0.163
947	0.162
948	0.162
948	0.162
949	0.161
949	0.161
949	0.16
950	0.16
950	0.159
951	0.159
951	0.158
952	0.158
952	0.157
952	0.156
953	0.156
953	0.155
954	0.155
954	0.155
955	0.155
955	0.155
955	0.155
956	0.155
956	0.156
957	0.156
957	0.156
957	0.156
958	0.156
958	0.156
959	0.156
959	0.156
960	0.156
960	0.155
960	0.155
961	0.155
961	0.155
962	0.155
962	0.154
963	0.154
963	0.154
963	0.154
964	0.155
964	0.155
965	0.155
965	0.155
966	0.155
966	0.155
966	0.154
967	0.154
967	0.153
968	0.153
968	0.152
968	0.151
969	0.151
969	0.149
970	0.149
970	0.148
971	0.147
971	0.146
971	0.146
972	0.145
972	0.144
973	0.144
973	0.144
974	0.144
974	0.144
974	0.144
975	0.145
975	0.145
976	0.146
976	0.147
976	0.147
977	0.147
977	0.148
978	0.148
978	0.148
979	0.148
979	0.147
979	0.147
980	0.147
980	0.147
981	0.146
981	0.146
982	0.146
982	0.146
982	0.146
983	0.146
983	0.146
984	0.145
984	0.145
984	0.145
985	0.145
985	0.145
986	0.145
986	0.144
987	0.144
987	0.144
987	0.143
988	0.143
988	0.143
989	0.143
989	0.142
990	0.142
990	0.142
990	0.142
991	0.142
991	0.141
992	0.14
992	0.14
992	0.139
993	0.138
993	0.136
994	0.135
994	0.134
995	0.133
995	0.132
995	0.132
996	0.131
996	0.131
997	0.131
997	0.132
997	0.132
998	0.132
998	0.133
999	0.134
999	0.134
1000	0.135
1000	0.136
1000	0.136
1001	0.136
1001	0.136
1002	0.136
1002	0.136
1003	0.136
1003	0.135
1003	0.135
1004	0.134
1004	0.133
1005	0.132
1005	0.131
1005	0.13
1006	0.129
1006	0.129
1007	0.129
1007	0.128
1008	0.128
1008	0.127
1008	0.127
1009	0.128
1009	0.128
1010	0.128
1010	0.128
1010	0.128
1011	0.128
1011	0.128
1012	0.127
1012	0.127
1013	0.127
1013	0.126
1013	0.126
1014	0.125
1014	0.125
1015	0.124
1015	0.124
1016	0.123
1016	0.123
1016	0.123
1017	0.122
1017	0.122
1018	0.121
1018	0.121
1018	0.121
1019	0.12
1019	0.12
1020	0.12
1020	0.12
1021	0.12
1021	0.12
1021	0.12
1022	0.12
1022	0.12
1023	0.121
1023	0.121
1023	0.122
1024	0.122
1024	0.122
1025	0.122
1025	0.123
1026	0.123
1026	0.123
1026	0.124
1027	0.124
1027	0.124
1028	0.124
1028	0.124
1028	0.124
1029	0.124
1029	0.124
1030	0.124
1030	0.124
1031	0.125
1031	0.125
1031	0.125
1032	0.125
1032	0.125
1033	0.125
1033	0.125
1033	0.124
1034	0.124
1034	0.124
1035	0.124
1035	0.124
1036	0.123
1036	0.123
1036	0.123
1037	0.123
1037	0.122
1038	0.122
1038	0.122
1039	0.121
1039	0.12
1039	0.12
1040	0.12
1040	0.119
1041	0.119
1041	0.119
1041	0.118
1042	0.118
1042	0.118
1043	0.118
1043	0.118
1044	0.118
1044	0.117
1044	0.117
1045	0.117
1045	0.117
1046	0.116
1046	0.116
1046	0.116
1047	0.116
1047	0.116
1048	0.116
1048	0.116
1049	0.116
1049	0.116
1049	0.116
1050	0.115
1050	0.115
1051	0.115
1051	0.114
1051	0.114
1052	0.114
1052	0.113
1053	0.112
1053	0.111
1053	0.111
1054	0.11
1054	0.11
1055	0.109
1055	0.109
1056	0.108
1056	0.107
1056	0.106
1057	0.106
1057	0.105
1058	0.104
1058	0.103
1058	0.102
1059	0.102
1059	0.102
1060	0.101
1060	0.1
1061	0.1
1061	0.1
1061	0.099
1062	0.099
1062	0.098
1063	0.098
1063	0.098
1063	0.098
1064	0.097
1064	0.097
1065	0.097
1065	0.096
1066	0.096
1066	0.096
1066	0.096
1067	0.096
1067	0.096
1068	0.096
1068	0.096
1068	0.096
1069	0.095
1069	0.095
1070	0.095
1070	0.095
1071	0.095
1071	0.094
1071	0.094
1072	0.093
1072	0.093
1073	0.093
1073	0.093
1073	0.092
1074	0.093
1074	0.093
1075	0.093
1075	0.093
1076	0.093
1076	0.094
1076	0.094
1077	0.094
1077	0.094
1078	0.094
1078	0.094
1078	0.094
1079	0.094
1079	0.093
1080	0.093
1080	0.092
1080	0.092
1081	0.091
1081	0.091
1082	0.091
1082	0.091
1083	0.091
1083	0.09
1083	0.09
1084	0.09
1084	0.091
1085	0.09
1085	0.09
1085	0.091
1086	0.091
1086	0.09
1087	0.09
1087	0.09
1088	0.089
1088	0.089
1088	0.089
1089	0.088
1089	0.088
1090	0.087
1090	0.087
1090	0.086
1091	0.086
1091	0.085
1092	0.085
1092	0.086
1092	0.085
1093	0.085
1093	0.085
1094	0.085
1094	0.085
1095	0.084
1095	0.084
1095	0.084
1096	0.083
1096	0.082
1097	0.081
1097	0.08
1097	0.08
1098	0.079
1098	0.077
1099	0.077
1099	0.076
1100	0.074
1100	0.073
1100	0.071
1101	0.07
1101	0.069
1102	0.068
1102	0.067
1102	0.066
1103	0.065
1103	0.065
1104	0.065
1104	0.064
1104	0.064
1105	0.064
1105	0.062
1106	0.06
1106	0.059
1107	0.059
1107	0.058
1107	0.058
1108	0.056
1108	0.055
1109	0.054
1109	0.053
1109	0.053
1110	0.055
1110	0.054
1111	0.058
1111	0.055
