Data from reversibility-20sec_Absorbance__7859__000000000007859.txt Node

Date: Thu Dec 07 07:52:46 CET 2023
User: Marek
Spectrometer: MAYP115816
Trigger mode: 0
Integration Time (sec): 2.000000E-1
Scans to average: 10
Electric dark correction enabled: true
Nonlinearity correction enabled: true
Boxcar width: 5
XAxis mode: Wavelengths
Number of Pixels in Spectrum: 2068
>>>>>Begin Spectral Data<<<<<
199	-0.126
199	-0.098
200	-0.028
200	0.015
201	0.04
201	0.054
202	0.063
202	0.072
203	0.08
203	0.083
204	0.096
204	0.107
205	0.118
205	0.119
205	0.119
206	0.118
206	0.12
207	0.121
207	0.122
208	0.12
208	0.121
209	0.124
209	0.121
210	0.12
210	0.123
211	0.125
211	0.13
212	0.128
212	0.13
213	0.133
213	0.134
213	0.133
214	0.135
214	0.14
215	0.14
215	0.141
216	0.141
216	0.139
217	0.144
217	0.146
218	0.148
218	0.152
219	0.158
219	0.161
220	0.165
220	0.167
221	0.169
221	0.174
221	0.18
222	0.185
222	0.19
223	0.195
223	0.197
224	0.201
224	0.206
225	0.213
225	0.225
226	0.235
226	0.242
227	0.252
227	0.261
228	0.275
228	0.292
229	0.311
229	0.333
229	0.356
230	0.38
230	0.407
231	0.439
231	0.477
232	0.514
232	0.558
233	0.599
233	0.645
234	0.695
234	0.748
235	0.804
235	0.857
236	0.911
236	0.962
236	1.013
237	1.064
237	1.109
238	1.157
238	1.201
239	1.246
239	1.285
240	1.322
240	1.359
241	1.391
241	1.425
242	1.458
242	1.492
243	1.521
243	1.548
243	1.576
244	1.598
244	1.622
245	1.638
245	1.659
246	1.678
246	1.695
247	1.708
247	1.719
248	1.732
248	1.743
249	1.752
249	1.758
250	1.766
250	1.775
250	1.779
251	1.785
251	1.788
252	1.793
252	1.795
253	1.799
253	1.798
254	1.799
254	1.802
255	1.8
255	1.8
256	1.8
256	1.799
257	1.797
257	1.797
258	1.795
258	1.795
258	1.793
259	1.79
259	1.791
260	1.79
260	1.79
261	1.79
261	1.791
262	1.792
262	1.793
263	1.797
263	1.797
264	1.799
264	1.8
265	1.8
265	1.802
265	1.802
266	1.801
266	1.8
267	1.798
267	1.798
268	1.797
268	1.796
269	1.797
269	1.796
270	1.793
270	1.792
271	1.791
271	1.791
272	1.789
272	1.788
272	1.787
273	1.782
273	1.778
274	1.774
274	1.77
275	1.765
275	1.758
276	1.75
276	1.744
277	1.736
277	1.728
278	1.716
278	1.704
278	1.691
279	1.677
279	1.659
280	1.639
280	1.615
281	1.585
281	1.55
282	1.514
282	1.475
283	1.437
283	1.399
284	1.362
284	1.325
285	1.29
285	1.257
285	1.228
286	1.201
286	1.178
287	1.157
287	1.139
288	1.124
288	1.11
289	1.099
289	1.088
290	1.08
290	1.072
291	1.065
291	1.059
292	1.053
292	1.048
292	1.043
293	1.038
293	1.034
294	1.029
294	1.026
295	1.022
295	1.018
296	1.014
296	1.011
297	1.008
297	1.004
298	1.001
298	0.998
298	0.995
299	0.992
299	0.988
300	0.986
300	0.983
301	0.979
301	0.976
302	0.973
302	0.97
303	0.967
303	0.964
304	0.962
304	0.959
305	0.956
305	0.953
305	0.95
306	0.948
306	0.945
307	0.942
307	0.939
308	0.936
308	0.933
309	0.93
309	0.927
310	0.924
310	0.921
311	0.917
311	0.914
311	0.91
312	0.907
312	0.903
313	0.9
313	0.896
314	0.892
314	0.888
315	0.883
315	0.879
316	0.874
316	0.869
317	0.865
317	0.86
318	0.854
318	0.849
318	0.843
319	0.838
319	0.832
320	0.826
320	0.82
321	0.814
321	0.808
322	0.801
322	0.795
323	0.789
323	0.782
324	0.775
324	0.768
324	0.761
325	0.755
325	0.748
326	0.741
326	0.734
327	0.727
327	0.72
328	0.713
328	0.705
329	0.698
329	0.691
330	0.684
330	0.677
330	0.669
331	0.662
331	0.655
332	0.648
332	0.641
333	0.634
333	0.627
334	0.62
334	0.613
335	0.606
335	0.599
336	0.592
336	0.585
336	0.579
337	0.572
337	0.566
338	0.559
338	0.553
339	0.547
339	0.541
340	0.535
340	0.529
341	0.523
341	0.518
342	0.512
342	0.506
342	0.501
343	0.496
343	0.49
344	0.485
344	0.48
345	0.475
345	0.47
346	0.466
346	0.461
347	0.457
347	0.452
348	0.448
348	0.444
348	0.44
349	0.436
349	0.433
350	0.429
350	0.425
351	0.422
351	0.418
352	0.415
352	0.412
353	0.409
353	0.406
354	0.403
354	0.4
354	0.397
355	0.394
355	0.391
356	0.388
356	0.385
357	0.382
357	0.38
358	0.377
358	0.374
359	0.372
359	0.369
360	0.367
360	0.365
360	0.363
361	0.361
361	0.359
362	0.357
362	0.355
363	0.353
363	0.351
364	0.349
364	0.347
365	0.345
365	0.343
366	0.341
366	0.34
366	0.338
367	0.336
367	0.334
368	0.332
368	0.331
369	0.329
369	0.328
370	0.326
370	0.325
371	0.323
371	0.322
372	0.321
372	0.32
372	0.318
373	0.317
373	0.316
374	0.315
374	0.314
375	0.313
375	0.312
376	0.311
376	0.31
377	0.309
377	0.308
378	0.307
378	0.306
378	0.305
379	0.304
379	0.303
380	0.302
380	0.301
381	0.301
381	0.3
382	0.299
382	0.298
383	0.298
383	0.297
383	0.297
384	0.296
384	0.295
385	0.295
385	0.294
386	0.294
386	0.293
387	0.293
387	0.292
388	0.291
388	0.291
389	0.291
389	0.29
389	0.29
390	0.289
390	0.289
391	0.288
391	0.288
392	0.287
392	0.287
393	0.287
393	0.286
394	0.286
394	0.285
394	0.285
395	0.285
395	0.284
396	0.284
396	0.283
397	0.283
397	0.282
398	0.282
398	0.282
399	0.281
399	0.281
400	0.281
400	0.28
400	0.28
401	0.279
401	0.279
402	0.279
402	0.278
403	0.278
403	0.277
404	0.277
404	0.276
405	0.276
405	0.276
405	0.276
406	0.275
406	0.275
407	0.275
407	0.275
408	0.274
408	0.274
409	0.274
409	0.274
410	0.273
410	0.273
411	0.273
411	0.272
411	0.272
412	0.272
412	0.271
413	0.271
413	0.271
414	0.271
414	0.27
415	0.27
415	0.269
416	0.269
416	0.269
416	0.268
417	0.268
417	0.268
418	0.267
418	0.267
419	0.266
419	0.266
420	0.265
420	0.265
421	0.264
421	0.263
421	0.263
422	0.263
422	0.262
423	0.262
423	0.262
424	0.261
424	0.261
425	0.261
425	0.261
426	0.261
426	0.261
427	0.261
427	0.26
427	0.26
428	0.259
428	0.259
429	0.259
429	0.258
430	0.258
430	0.257
431	0.257
431	0.257
432	0.257
432	0.256
432	0.256
433	0.256
433	0.256
434	0.256
434	0.256
435	0.256
435	0.256
436	0.256
436	0.255
437	0.255
437	0.255
437	0.255
438	0.254
438	0.254
439	0.254
439	0.254
440	0.253
440	0.253
441	0.253
441	0.253
442	0.253
442	0.253
442	0.252
443	0.252
443	0.252
444	0.252
444	0.251
445	0.251
445	0.251
446	0.251
446	0.251
447	0.25
447	0.25
447	0.25
448	0.25
448	0.25
449	0.25
449	0.25
450	0.25
450	0.25
451	0.25
451	0.25
452	0.25
452	0.25
452	0.25
453	0.25
453	0.25
454	0.25
454	0.249
455	0.249
455	0.249
456	0.249
456	0.249
457	0.249
457	0.249
458	0.249
458	0.249
458	0.248
459	0.248
459	0.248
460	0.249
460	0.249
461	0.248
461	0.248
462	0.248
462	0.248
463	0.248
463	0.248
463	0.248
464	0.248
464	0.248
465	0.247
465	0.247
466	0.247
466	0.248
467	0.248
467	0.248
467	0.248
468	0.248
468	0.248
469	0.248
469	0.249
470	0.249
470	0.249
471	0.25
471	0.25
472	0.25
472	0.25
472	0.25
473	0.251
473	0.251
474	0.251
474	0.251
475	0.251
475	0.251
476	0.252
476	0.252
477	0.252
477	0.253
477	0.253
478	0.253
478	0.253
479	0.254
479	0.254
480	0.254
480	0.255
481	0.255
481	0.255
482	0.256
482	0.256
482	0.257
483	0.257
483	0.258
484	0.258
484	0.258
485	0.259
485	0.259
486	0.259
486	0.259
487	0.26
487	0.26
487	0.261
488	0.261
488	0.262
489	0.263
489	0.264
490	0.265
490	0.266
491	0.267
491	0.268
492	0.269
492	0.27
492	0.271
493	0.272
493	0.272
494	0.273
494	0.274
495	0.275
495	0.276
496	0.276
496	0.278
496	0.279
497	0.279
497	0.28
498	0.281
498	0.282
499	0.283
499	0.284
500	0.285
500	0.286
501	0.287
501	0.288
501	0.289
502	0.289
502	0.29
503	0.291
503	0.292
504	0.293
504	0.294
505	0.295
505	0.296
506	0.297
506	0.298
506	0.299
507	0.299
507	0.3
508	0.301
508	0.302
509	0.302
509	0.303
510	0.304
510	0.304
511	0.305
511	0.306
511	0.307
512	0.308
512	0.308
513	0.309
513	0.31
514	0.31
514	0.311
515	0.311
515	0.312
515	0.312
516	0.313
516	0.313
517	0.314
517	0.314
518	0.314
518	0.315
519	0.315
519	0.315
520	0.315
520	0.316
520	0.316
521	0.316
521	0.316
522	0.316
522	0.316
523	0.316
523	0.316
524	0.316
524	0.316
524	0.316
525	0.316
525	0.315
526	0.315
526	0.315
527	0.314
527	0.314
528	0.313
528	0.313
529	0.312
529	0.311
529	0.31
530	0.31
530	0.309
531	0.309
531	0.308
532	0.307
532	0.306
533	0.305
533	0.304
533	0.304
534	0.303
534	0.302
535	0.301
535	0.3
536	0.299
536	0.298
537	0.297
537	0.296
538	0.295
538	0.293
538	0.292
539	0.291
539	0.29
540	0.289
540	0.288
541	0.286
541	0.285
542	0.284
542	0.282
542	0.281
543	0.279
543	0.278
544	0.276
544	0.275
545	0.273
545	0.272
546	0.27
546	0.269
547	0.267
547	0.266
547	0.264
548	0.263
548	0.262
549	0.26
549	0.259
550	0.258
550	0.256
551	0.255
551	0.253
551	0.252
552	0.251
552	0.249
553	0.248
553	0.247
554	0.245
554	0.244
555	0.242
555	0.241
556	0.24
556	0.238
556	0.237
557	0.236
557	0.235
558	0.234
558	0.233
559	0.232
559	0.231
560	0.229
560	0.228
560	0.227
561	0.226
561	0.225
562	0.223
562	0.222
563	0.22
563	0.218
564	0.217
564	0.216
564	0.214
565	0.213
565	0.212
566	0.211
566	0.21
567	0.209
567	0.208
568	0.207
568	0.206
568	0.205
569	0.204
569	0.203
570	0.201
570	0.199
571	0.198
571	0.197
572	0.195
572	0.194
573	0.193
573	0.192
573	0.191
574	0.19
574	0.189
575	0.189
575	0.188
576	0.188
576	0.186
577	0.185
577	0.184
577	0.183
578	0.183
578	0.182
579	0.182
579	0.181
580	0.18
580	0.179
581	0.177
581	0.177
581	0.176
582	0.176
582	0.175
583	0.175
583	0.174
584	0.173
584	0.171
585	0.17
585	0.17
585	0.169
586	0.169
586	0.168
587	0.167
587	0.167
588	0.166
588	0.165
589	0.165
589	0.164
590	0.164
590	0.163
590	0.163
591	0.162
591	0.161
592	0.161
592	0.159
593	0.159
593	0.158
594	0.157
594	0.156
594	0.155
595	0.155
595	0.154
596	0.153
596	0.153
597	0.153
597	0.153
598	0.153
598	0.152
598	0.152
599	0.152
599	0.151
600	0.15
600	0.15
601	0.149
601	0.149
602	0.148
602	0.147
602	0.147
603	0.147
603	0.147
604	0.147
604	0.146
605	0.146
605	0.146
606	0.145
606	0.144
606	0.144
607	0.143
607	0.143
608	0.142
608	0.141
609	0.141
609	0.14
610	0.14
610	0.139
610	0.139
611	0.139
611	0.138
612	0.138
612	0.138
613	0.138
613	0.138
614	0.138
614	0.137
614	0.138
615	0.138
615	0.137
616	0.137
616	0.137
617	0.137
617	0.137
618	0.136
618	0.136
618	0.136
619	0.136
619	0.136
620	0.136
620	0.135
621	0.134
621	0.134
622	0.133
622	0.133
622	0.132
623	0.131
623	0.131
624	0.131
624	0.13
625	0.13
625	0.13
626	0.13
626	0.129
626	0.129
627	0.129
627	0.129
628	0.129
628	0.129
629	0.128
629	0.128
630	0.128
630	0.127
630	0.127
631	0.127
631	0.126
632	0.126
632	0.125
633	0.125
633	0.125
634	0.125
634	0.125
634	0.125
635	0.125
635	0.124
636	0.124
636	0.124
637	0.124
637	0.124
638	0.124
638	0.123
638	0.123
639	0.122
639	0.122
640	0.122
640	0.121
641	0.121
641	0.121
642	0.121
642	0.121
642	0.12
643	0.12
643	0.121
644	0.121
644	0.121
645	0.121
645	0.121
646	0.121
646	0.121
646	0.121
647	0.121
647	0.121
648	0.12
648	0.119
649	0.119
649	0.118
650	0.118
650	0.118
650	0.118
651	0.118
651	0.118
652	0.118
652	0.118
653	0.119
653	0.12
653	0.126
654	0.101
654	0.082
655	0.08
655	0.08
656	0.08
656	0.08
657	0.081
657	0.081
657	0.081
658	0.08
658	0.072
659	0.09
659	0.114
660	0.119
660	0.119
661	0.119
661	0.118
661	0.117
662	0.117
662	0.116
663	0.115
663	0.115
664	0.114
664	0.114
665	0.114
665	0.114
665	0.114
666	0.114
666	0.114
667	0.114
667	0.115
668	0.115
668	0.115
669	0.116
669	0.116
669	0.116
670	0.117
670	0.116
671	0.116
671	0.116
672	0.115
672	0.115
672	0.114
673	0.114
673	0.114
674	0.114
674	0.113
675	0.113
675	0.113
676	0.113
676	0.113
676	0.113
677	0.114
677	0.114
678	0.114
678	0.113
679	0.113
679	0.113
680	0.113
680	0.113
680	0.113
681	0.113
681	0.114
682	0.114
682	0.114
683	0.114
683	0.114
684	0.114
684	0.114
684	0.113
685	0.114
685	0.114
686	0.113
686	0.113
687	0.113
687	0.113
687	0.112
688	0.112
688	0.112
689	0.113
689	0.114
690	0.113
690	0.113
691	0.113
691	0.113
691	0.114
692	0.114
692	0.114
693	0.114
693	0.115
694	0.114
694	0.114
695	0.115
695	0.116
695	0.116
696	0.116
696	0.116
697	0.116
697	0.115
698	0.115
698	0.115
698	0.115
699	0.115
699	0.115
700	0.114
700	0.114
701	0.114
701	0.114
702	0.113
702	0.113
702	0.112
703	0.111
703	0.111
704	0.11
704	0.11
705	0.11
705	0.109
705	0.109
706	0.109
706	0.11
707	0.11
707	0.11
708	0.11
708	0.11
709	0.111
709	0.111
709	0.11
710	0.11
710	0.111
711	0.111
711	0.111
712	0.111
712	0.111
713	0.111
713	0.111
713	0.111
714	0.111
714	0.111
715	0.11
715	0.11
716	0.109
716	0.109
716	0.108
717	0.108
717	0.107
718	0.107
718	0.107
719	0.108
719	0.109
720	0.109
720	0.11
720	0.11
721	0.111
721	0.112
722	0.113
722	0.113
723	0.113
723	0.113
723	0.113
724	0.113
724	0.112
725	0.111
725	0.11
726	0.11
726	0.109
727	0.108
727	0.108
727	0.107
728	0.107
728	0.107
729	0.108
729	0.108
730	0.108
730	0.108
730	0.108
731	0.109
731	0.109
732	0.11
732	0.11
733	0.11
733	0.11
734	0.11
734	0.11
734	0.11
735	0.11
735	0.11
736	0.11
736	0.11
737	0.109
737	0.109
737	0.109
738	0.109
738	0.108
739	0.108
739	0.108
740	0.108
740	0.109
741	0.109
741	0.11
741	0.11
742	0.11
742	0.111
743	0.112
743	0.112
744	0.112
744	0.112
744	0.112
745	0.111
745	0.111
746	0.11
746	0.11
747	0.11
747	0.109
748	0.109
748	0.109
748	0.109
749	0.109
749	0.11
750	0.11
750	0.11
751	0.11
751	0.11
751	0.11
752	0.11
752	0.11
753	0.109
753	0.109
754	0.108
754	0.107
754	0.107
755	0.106
755	0.106
756	0.105
756	0.104
757	0.104
757	0.104
758	0.103
758	0.103
758	0.104
759	0.104
759	0.104
760	0.103
760	0.103
761	0.104
761	0.105
761	0.105
762	0.105
762	0.106
763	0.106
763	0.105
764	0.105
764	0.105
764	0.105
765	0.104
765	0.104
766	0.104
766	0.103
767	0.103
767	0.102
768	0.101
768	0.101
768	0.101
769	0.101
769	0.102
770	0.102
770	0.102
771	0.102
771	0.102
771	0.103
772	0.103
772	0.104
773	0.104
773	0.104
774	0.104
774	0.104
775	0.105
775	0.105
775	0.105
776	0.106
776	0.107
777	0.108
777	0.108
778	0.108
778	0.108
778	0.107
779	0.107
779	0.106
780	0.105
780	0.103
781	0.102
781	0.101
781	0.1
782	0.099
782	0.098
783	0.098
783	0.099
784	0.098
784	0.098
784	0.099
785	0.099
785	0.1
786	0.1
786	0.1
787	0.1
787	0.1
788	0.1
788	0.099
788	0.099
789	0.099
789	0.099
790	0.099
790	0.098
791	0.098
791	0.098
791	0.097
792	0.098
792	0.097
793	0.097
793	0.096
794	0.096
794	0.096
794	0.095
795	0.095
795	0.095
796	0.095
796	0.094
797	0.094
797	0.094
797	0.095
798	0.095
798	0.095
799	0.095
799	0.095
800	0.095
800	0.095
801	0.095
801	0.096
801	0.096
802	0.097
802	0.097
803	0.098
803	0.098
804	0.099
804	0.099
804	0.099
805	0.099
805	0.099
806	0.099
806	0.098
807	0.098
807	0.098
807	0.097
808	0.097
808	0.097
809	0.096
809	0.096
810	0.096
810	0.096
810	0.096
811	0.096
811	0.096
812	0.096
812	0.096
813	0.096
813	0.096
813	0.096
814	0.097
814	0.097
815	0.097
815	0.096
816	0.096
816	0.096
817	0.095
817	0.095
817	0.094
818	0.094
818	0.094
819	0.094
819	0.093
820	0.092
820	0.092
820	0.092
821	0.092
821	0.092
822	0.092
822	0.092
823	0.091
823	0.091
823	0.092
824	0.092
824	0.093
825	0.094
825	0.095
826	0.096
826	0.096
826	0.097
827	0.097
827	0.098
828	0.098
828	0.099
829	0.099
829	0.099
829	0.099
830	0.1
830	0.1
831	0.1
831	0.1
832	0.1
832	0.1
832	0.1
833	0.1
833	0.099
834	0.098
834	0.098
835	0.097
835	0.096
835	0.095
836	0.095
836	0.094
837	0.093
837	0.093
838	0.092
838	0.092
839	0.091
839	0.09
839	0.089
840	0.088
840	0.087
841	0.087
841	0.086
842	0.085
842	0.084
842	0.083
843	0.083
843	0.082
844	0.081
844	0.081
845	0.08
845	0.08
845	0.08
846	0.08
846	0.08
847	0.08
847	0.081
848	0.081
848	0.081
848	0.082
849	0.082
849	0.082
850	0.082
850	0.081
851	0.081
851	0.081
851	0.081
852	0.08
852	0.08
853	0.08
853	0.08
854	0.081
854	0.082
854	0.083
855	0.084
855	0.085
856	0.085
856	0.086
857	0.088
857	0.088
857	0.089
858	0.089
858	0.089
859	0.088
859	0.088
860	0.087
860	0.087
860	0.086
861	0.086
861	0.085
862	0.084
862	0.083
863	0.083
863	0.083
863	0.083
864	0.083
864	0.083
865	0.084
865	0.084
866	0.084
866	0.084
866	0.084
867	0.084
867	0.085
868	0.085
868	0.085
869	0.085
869	0.085
869	0.084
870	0.084
870	0.084
871	0.084
871	0.084
872	0.084
872	0.083
872	0.083
873	0.083
873	0.082
874	0.082
874	0.081
875	0.081
875	0.081
875	0.081
876	0.08
876	0.08
877	0.08
877	0.08
878	0.08
878	0.08
878	0.081
879	0.081
879	0.081
880	0.081
880	0.081
881	0.081
881	0.081
881	0.081
882	0.081
882	0.081
883	0.081
883	0.08
884	0.08
884	0.08
884	0.08
885	0.08
885	0.079
886	0.079
886	0.079
887	0.079
887	0.079
887	0.078
888	0.078
888	0.078
889	0.078
889	0.078
890	0.079
890	0.079
890	0.079
891	0.079
891	0.079
892	0.079
892	0.079
893	0.079
893	0.079
893	0.078
894	0.078
894	0.077
895	0.077
895	0.076
895	0.076
896	0.077
896	0.077
897	0.077
897	0.078
898	0.078
898	0.078
898	0.078
899	0.078
899	0.078
900	0.078
900	0.078
901	0.078
901	0.077
901	0.077
902	0.076
902	0.076
903	0.076
903	0.076
904	0.075
904	0.075
904	0.075
905	0.075
905	0.074
906	0.074
906	0.074
907	0.074
907	0.074
907	0.074
908	0.074
908	0.073
909	0.073
909	0.072
910	0.072
910	0.072
910	0.072
911	0.071
911	0.07
912	0.07
912	0.069
913	0.069
913	0.069
913	0.068
914	0.068
914	0.067
915	0.067
915	0.067
916	0.066
916	0.066
916	0.066
917	0.065
917	0.065
918	0.065
918	0.064
918	0.064
919	0.063
919	0.063
920	0.063
920	0.063
921	0.063
921	0.063
921	0.063
922	0.063
922	0.063
923	0.063
923	0.064
924	0.065
924	0.065
924	0.066
925	0.066
925	0.067
926	0.067
926	0.068
927	0.068
927	0.068
927	0.068
928	0.068
928	0.069
929	0.069
929	0.069
930	0.069
930	0.07
930	0.07
931	0.07
931	0.07
932	0.07
932	0.07
933	0.07
933	0.07
933	0.069
934	0.069
934	0.068
935	0.068
935	0.068
935	0.067
936	0.066
936	0.066
937	0.065
937	0.064
938	0.064
938	0.063
938	0.062
939	0.061
939	0.061
940	0.06
940	0.06
941	0.06
941	0.06
941	0.061
942	0.061
942	0.062
943	0.062
943	0.063
944	0.064
944	0.065
944	0.065
945	0.066
945	0.066
946	0.067
946	0.067
946	0.067
947	0.068
947	0.068
948	0.067
948	0.067
949	0.067
949	0.066
949	0.066
950	0.065
950	0.064
951	0.063
951	0.063
952	0.062
952	0.061
952	0.061
953	0.06
953	0.06
954	0.06
954	0.06
955	0.06
955	0.06
955	0.06
956	0.061
956	0.061
957	0.062
957	0.063
957	0.063
958	0.064
958	0.064
959	0.065
959	0.065
960	0.065
960	0.066
960	0.066
961	0.066
961	0.065
962	0.065
962	0.064
963	0.064
963	0.063
963	0.063
964	0.063
964	0.062
965	0.062
965	0.062
966	0.062
966	0.062
966	0.063
967	0.063
967	0.063
968	0.064
968	0.064
968	0.064
969	0.063
969	0.063
970	0.062
970	0.062
971	0.061
971	0.06
971	0.06
972	0.059
972	0.058
973	0.057
973	0.057
974	0.057
974	0.057
974	0.057
975	0.057
975	0.058
976	0.058
976	0.059
976	0.059
977	0.059
977	0.059
978	0.06
978	0.06
979	0.06
979	0.06
979	0.061
980	0.061
980	0.061
981	0.061
981	0.061
982	0.06
982	0.06
982	0.06
983	0.06
983	0.06
984	0.06
984	0.059
984	0.059
985	0.059
985	0.059
986	0.059
986	0.058
987	0.058
987	0.058
987	0.058
988	0.058
988	0.057
989	0.057
989	0.057
990	0.057
990	0.056
990	0.056
991	0.056
991	0.055
992	0.055
992	0.054
992	0.053
993	0.053
993	0.052
994	0.051
994	0.051
995	0.05
995	0.049
995	0.049
996	0.049
996	0.049
997	0.049
997	0.05
997	0.05
998	0.05
998	0.051
999	0.051
999	0.051
1000	0.052
1000	0.052
1000	0.052
1001	0.052
1001	0.052
1002	0.052
1002	0.053
1003	0.053
1003	0.053
1003	0.052
1004	0.052
1004	0.052
1005	0.052
1005	0.051
1005	0.051
1006	0.051
1006	0.05
1007	0.05
1007	0.049
1008	0.049
1008	0.049
1008	0.048
1009	0.048
1009	0.048
1010	0.048
1010	0.047
1010	0.047
1011	0.047
1011	0.046
1012	0.046
1012	0.046
1013	0.046
1013	0.046
1013	0.046
1014	0.046
1014	0.046
1015	0.046
1015	0.046
1016	0.046
1016	0.046
1016	0.046
1017	0.046
1017	0.047
1018	0.047
1018	0.047
1018	0.047
1019	0.047
1019	0.047
1020	0.047
1020	0.048
1021	0.048
1021	0.049
1021	0.049
1022	0.049
1022	0.05
1023	0.05
1023	0.05
1023	0.051
1024	0.051
1024	0.051
1025	0.051
1025	0.05
1026	0.05
1026	0.05
1026	0.05
1027	0.05
1027	0.05
1028	0.05
1028	0.05
1028	0.05
1029	0.05
1029	0.05
1030	0.05
1030	0.05
1031	0.05
1031	0.05
1031	0.05
1032	0.05
1032	0.05
1033	0.051
1033	0.051
1033	0.051
1034	0.051
1034	0.051
1035	0.052
1035	0.051
1036	0.051
1036	0.051
1036	0.051
1037	0.051
1037	0.051
1038	0.051
1038	0.051
1039	0.051
1039	0.051
1039	0.051
1040	0.051
1040	0.051
1041	0.051
1041	0.051
1041	0.05
1042	0.05
1042	0.05
1043	0.05
1043	0.049
1044	0.049
1044	0.048
1044	0.048
1045	0.048
1045	0.047
1046	0.047
1046	0.047
1046	0.047
1047	0.046
1047	0.046
1048	0.047
1048	0.047
1049	0.047
1049	0.047
1049	0.047
1050	0.046
1050	0.046
1051	0.046
1051	0.045
1051	0.045
1052	0.044
1052	0.044
1053	0.043
1053	0.042
1053	0.041
1054	0.041
1054	0.04
1055	0.04
1055	0.039
1056	0.039
1056	0.039
1056	0.038
1057	0.038
1057	0.038
1058	0.038
1058	0.037
1058	0.037
1059	0.037
1059	0.036
1060	0.036
1060	0.036
1061	0.035
1061	0.036
1061	0.036
1062	0.036
1062	0.036
1063	0.037
1063	0.037
1063	0.037
1064	0.038
1064	0.038
1065	0.038
1065	0.038
1066	0.038
1066	0.038
1066	0.038
1067	0.038
1067	0.038
1068	0.038
1068	0.037
1068	0.037
1069	0.037
1069	0.037
1070	0.036
1070	0.036
1071	0.036
1071	0.036
1071	0.035
1072	0.035
1072	0.035
1073	0.035
1073	0.035
1073	0.035
1074	0.035
1074	0.035
1075	0.035
1075	0.035
1076	0.035
1076	0.036
1076	0.037
1077	0.037
1077	0.038
1078	0.038
1078	0.038
1078	0.038
1079	0.038
1079	0.039
1080	0.038
1080	0.038
1080	0.038
1081	0.037
1081	0.037
1082	0.038
1082	0.038
1083	0.038
1083	0.038
1083	0.038
1084	0.037
1084	0.038
1085	0.038
1085	0.038
1085	0.039
1086	0.039
1086	0.038
1087	0.038
1087	0.038
1088	0.038
1088	0.037
1088	0.037
1089	0.036
1089	0.035
1090	0.035
1090	0.034
1090	0.033
1091	0.033
1091	0.033
1092	0.033
1092	0.033
1092	0.033
1093	0.033
1093	0.034
1094	0.034
1094	0.034
1095	0.033
1095	0.033
1095	0.033
1096	0.033
1096	0.032
1097	0.031
1097	0.031
1097	0.031
1098	0.03
1098	0.029
1099	0.028
1099	0.027
1100	0.026
1100	0.025
1100	0.024
1101	0.023
1101	0.023
1102	0.021
1102	0.02
1102	0.019
1103	0.019
1103	0.019
1104	0.019
1104	0.02
1104	0.02
1105	0.019
1105	0.018
1106	0.016
1106	0.016
1107	0.015
1107	0.015
1107	0.015
1108	0.014
1108	0.015
1109	0.013
1109	0.012
1109	0.011
1110	0.012
1110	0.012
1111	0.012
1111	0.012
