Data from reversibility-20sec_Absorbance__7279__000000000007279.txt Node

Date: Thu Dec 07 04:39:27 CET 2023
User: Marek
Spectrometer: MAYP115816
Trigger mode: 0
Integration Time (sec): 2.000000E-1
Scans to average: 10
Electric dark correction enabled: true
Nonlinearity correction enabled: true
Boxcar width: 5
XAxis mode: Wavelengths
Number of Pixels in Spectrum: 2068
>>>>>Begin Spectral Data<<<<<
199	-0.142
199	-0.107
200	-0.049
200	-0.003
201	0.02
201	0.04
202	0.045
202	0.055
203	0.065
203	0.068
204	0.079
204	0.094
205	0.103
205	0.11
205	0.109
206	0.112
206	0.11
207	0.114
207	0.114
208	0.111
208	0.111
209	0.114
209	0.111
210	0.112
210	0.112
211	0.113
211	0.115
212	0.112
212	0.113
213	0.116
213	0.116
213	0.117
214	0.119
214	0.12
215	0.121
215	0.122
216	0.124
216	0.124
217	0.129
217	0.132
218	0.128
218	0.132
219	0.139
219	0.138
220	0.142
220	0.145
221	0.144
221	0.146
221	0.149
222	0.158
222	0.163
223	0.173
223	0.177
224	0.181
224	0.19
225	0.2
225	0.208
226	0.22
226	0.23
227	0.239
227	0.247
228	0.261
228	0.275
229	0.293
229	0.314
229	0.337
230	0.363
230	0.394
231	0.424
231	0.463
232	0.502
232	0.545
233	0.585
233	0.633
234	0.686
234	0.738
235	0.792
235	0.843
236	0.892
236	0.946
236	0.995
237	1.049
237	1.097
238	1.146
238	1.192
239	1.237
239	1.277
240	1.316
240	1.352
241	1.387
241	1.421
242	1.452
242	1.482
243	1.511
243	1.538
243	1.567
244	1.589
244	1.61
245	1.627
245	1.652
246	1.669
246	1.685
247	1.699
247	1.714
248	1.73
248	1.743
249	1.752
249	1.757
250	1.766
250	1.776
250	1.778
251	1.785
251	1.79
252	1.796
252	1.797
253	1.797
253	1.795
254	1.794
254	1.799
255	1.799
255	1.799
256	1.799
256	1.798
257	1.797
257	1.795
258	1.797
258	1.796
258	1.797
259	1.796
259	1.794
260	1.791
260	1.793
261	1.793
261	1.797
262	1.8
262	1.801
263	1.802
263	1.804
264	1.804
264	1.805
265	1.805
265	1.806
265	1.806
266	1.806
266	1.804
267	1.8
267	1.801
268	1.8
268	1.799
269	1.8
269	1.799
270	1.797
270	1.795
271	1.792
271	1.791
272	1.789
272	1.788
272	1.787
273	1.783
273	1.779
274	1.775
274	1.77
275	1.764
275	1.759
276	1.753
276	1.746
277	1.739
277	1.729
278	1.717
278	1.706
278	1.694
279	1.681
279	1.666
280	1.646
280	1.621
281	1.592
281	1.559
282	1.522
282	1.484
283	1.446
283	1.409
284	1.372
284	1.335
285	1.301
285	1.268
285	1.239
286	1.213
286	1.19
287	1.17
287	1.153
288	1.137
288	1.124
289	1.112
289	1.102
290	1.093
290	1.085
291	1.078
291	1.072
292	1.065
292	1.06
292	1.055
293	1.05
293	1.046
294	1.042
294	1.038
295	1.035
295	1.031
296	1.028
296	1.024
297	1.021
297	1.017
298	1.014
298	1.011
298	1.008
299	1.005
299	1.002
300	0.998
300	0.995
301	0.992
301	0.989
302	0.986
302	0.984
303	0.981
303	0.977
304	0.975
304	0.972
305	0.969
305	0.966
305	0.963
306	0.961
306	0.958
307	0.955
307	0.952
308	0.95
308	0.947
309	0.944
309	0.941
310	0.938
310	0.935
311	0.931
311	0.927
311	0.924
312	0.92
312	0.916
313	0.912
313	0.908
314	0.904
314	0.9
315	0.895
315	0.891
316	0.887
316	0.882
317	0.877
317	0.872
318	0.867
318	0.862
318	0.857
319	0.851
319	0.845
320	0.84
320	0.834
321	0.827
321	0.821
322	0.815
322	0.809
323	0.802
323	0.795
324	0.789
324	0.782
324	0.775
325	0.768
325	0.761
326	0.754
326	0.747
327	0.74
327	0.733
328	0.726
328	0.719
329	0.712
329	0.705
330	0.698
330	0.691
330	0.684
331	0.677
331	0.67
332	0.663
332	0.656
333	0.648
333	0.642
334	0.635
334	0.628
335	0.621
335	0.614
336	0.608
336	0.601
336	0.594
337	0.588
337	0.581
338	0.575
338	0.569
339	0.563
339	0.556
340	0.55
340	0.545
341	0.539
341	0.533
342	0.527
342	0.522
342	0.517
343	0.511
343	0.506
344	0.501
344	0.496
345	0.491
345	0.486
346	0.482
346	0.477
347	0.473
347	0.469
348	0.464
348	0.46
348	0.456
349	0.452
349	0.448
350	0.445
350	0.441
351	0.438
351	0.434
352	0.431
352	0.428
353	0.425
353	0.422
354	0.419
354	0.416
354	0.413
355	0.41
355	0.407
356	0.404
356	0.401
357	0.398
357	0.395
358	0.392
358	0.389
359	0.387
359	0.384
360	0.382
360	0.38
360	0.378
361	0.376
361	0.374
362	0.373
362	0.371
363	0.369
363	0.367
364	0.365
364	0.363
365	0.361
365	0.359
366	0.357
366	0.356
366	0.354
367	0.352
367	0.35
368	0.348
368	0.347
369	0.345
369	0.343
370	0.342
370	0.341
371	0.339
371	0.338
372	0.336
372	0.335
372	0.334
373	0.333
373	0.332
374	0.331
374	0.329
375	0.328
375	0.327
376	0.326
376	0.325
377	0.324
377	0.323
378	0.322
378	0.321
378	0.32
379	0.319
379	0.319
380	0.318
380	0.317
381	0.316
381	0.315
382	0.315
382	0.314
383	0.313
383	0.313
383	0.312
384	0.311
384	0.31
385	0.31
385	0.309
386	0.308
386	0.308
387	0.307
387	0.307
388	0.306
388	0.306
389	0.305
389	0.305
389	0.304
390	0.304
390	0.303
391	0.303
391	0.302
392	0.302
392	0.301
393	0.301
393	0.3
394	0.3
394	0.299
394	0.299
395	0.298
395	0.298
396	0.298
396	0.297
397	0.296
397	0.296
398	0.295
398	0.295
399	0.295
399	0.294
400	0.294
400	0.293
400	0.293
401	0.293
401	0.292
402	0.292
402	0.292
403	0.291
403	0.291
404	0.29
404	0.29
405	0.29
405	0.289
405	0.289
406	0.288
406	0.288
407	0.288
407	0.288
408	0.287
408	0.287
409	0.287
409	0.286
410	0.286
410	0.286
411	0.285
411	0.285
411	0.285
412	0.284
412	0.284
413	0.283
413	0.283
414	0.283
414	0.282
415	0.282
415	0.281
416	0.281
416	0.281
416	0.28
417	0.28
417	0.28
418	0.28
418	0.279
419	0.278
419	0.278
420	0.278
420	0.277
421	0.277
421	0.276
421	0.276
422	0.276
422	0.275
423	0.275
423	0.275
424	0.274
424	0.274
425	0.274
425	0.274
426	0.274
426	0.273
427	0.273
427	0.273
427	0.272
428	0.272
428	0.271
429	0.271
429	0.27
430	0.27
430	0.27
431	0.27
431	0.27
432	0.269
432	0.269
432	0.269
433	0.269
433	0.269
434	0.269
434	0.269
435	0.269
435	0.269
436	0.268
436	0.268
437	0.268
437	0.267
437	0.267
438	0.267
438	0.267
439	0.266
439	0.266
440	0.266
440	0.266
441	0.265
441	0.265
442	0.265
442	0.265
442	0.265
443	0.265
443	0.264
444	0.264
444	0.264
445	0.264
445	0.264
446	0.264
446	0.264
447	0.263
447	0.263
447	0.263
448	0.263
448	0.263
449	0.263
449	0.263
450	0.263
450	0.263
451	0.263
451	0.263
452	0.263
452	0.262
452	0.262
453	0.262
453	0.262
454	0.262
454	0.262
455	0.262
455	0.262
456	0.262
456	0.262
457	0.262
457	0.262
458	0.262
458	0.261
458	0.261
459	0.261
459	0.261
460	0.261
460	0.261
461	0.261
461	0.262
462	0.262
462	0.262
463	0.262
463	0.262
463	0.262
464	0.262
464	0.262
465	0.262
465	0.262
466	0.262
466	0.262
467	0.262
467	0.262
467	0.262
468	0.262
468	0.263
469	0.263
469	0.264
470	0.264
470	0.264
471	0.265
471	0.265
472	0.265
472	0.265
472	0.266
473	0.266
473	0.266
474	0.267
474	0.267
475	0.267
475	0.267
476	0.267
476	0.268
477	0.268
477	0.268
477	0.269
478	0.269
478	0.27
479	0.27
479	0.271
480	0.271
480	0.271
481	0.272
481	0.272
482	0.273
482	0.273
482	0.274
483	0.274
483	0.275
484	0.276
484	0.276
485	0.277
485	0.277
486	0.277
486	0.278
487	0.278
487	0.279
487	0.28
488	0.28
488	0.281
489	0.282
489	0.283
490	0.285
490	0.286
491	0.287
491	0.289
492	0.29
492	0.291
492	0.292
493	0.293
493	0.294
494	0.295
494	0.296
495	0.297
495	0.298
496	0.298
496	0.299
496	0.301
497	0.302
497	0.303
498	0.304
498	0.304
499	0.306
499	0.307
500	0.308
500	0.309
501	0.31
501	0.311
501	0.312
502	0.313
502	0.314
503	0.315
503	0.317
504	0.318
504	0.319
505	0.32
505	0.321
506	0.322
506	0.323
506	0.325
507	0.326
507	0.326
508	0.327
508	0.328
509	0.329
509	0.33
510	0.33
510	0.332
511	0.333
511	0.333
511	0.334
512	0.335
512	0.336
513	0.337
513	0.338
514	0.339
514	0.339
515	0.34
515	0.341
515	0.341
516	0.342
516	0.342
517	0.343
517	0.343
518	0.344
518	0.344
519	0.345
519	0.345
520	0.345
520	0.345
520	0.345
521	0.345
521	0.345
522	0.345
522	0.345
523	0.345
523	0.345
524	0.344
524	0.344
524	0.344
525	0.344
525	0.343
526	0.343
526	0.343
527	0.342
527	0.342
528	0.341
528	0.34
529	0.34
529	0.339
529	0.338
530	0.337
530	0.336
531	0.335
531	0.334
532	0.333
532	0.332
533	0.331
533	0.33
533	0.329
534	0.328
534	0.326
535	0.326
535	0.324
536	0.323
536	0.322
537	0.32
537	0.319
538	0.318
538	0.316
538	0.315
539	0.314
539	0.312
540	0.311
540	0.309
541	0.307
541	0.306
542	0.305
542	0.303
542	0.301
543	0.299
543	0.298
544	0.296
544	0.294
545	0.292
545	0.291
546	0.289
546	0.287
547	0.285
547	0.283
547	0.281
548	0.28
548	0.278
549	0.276
549	0.274
550	0.272
550	0.27
551	0.269
551	0.267
551	0.265
552	0.263
552	0.262
553	0.26
553	0.259
554	0.257
554	0.255
555	0.253
555	0.251
556	0.249
556	0.248
556	0.246
557	0.245
557	0.244
558	0.243
558	0.242
559	0.24
559	0.239
560	0.237
560	0.236
560	0.234
561	0.233
561	0.231
562	0.23
562	0.228
563	0.226
563	0.224
564	0.222
564	0.22
564	0.219
565	0.217
565	0.215
566	0.214
566	0.212
567	0.211
567	0.21
568	0.208
568	0.207
568	0.206
569	0.205
569	0.203
570	0.201
570	0.2
571	0.198
571	0.197
572	0.195
572	0.194
573	0.193
573	0.192
573	0.19
574	0.189
574	0.188
575	0.187
575	0.187
576	0.186
576	0.184
577	0.183
577	0.182
577	0.181
578	0.179
578	0.179
579	0.178
579	0.178
580	0.176
580	0.175
581	0.174
581	0.173
581	0.172
582	0.172
582	0.171
583	0.17
583	0.169
584	0.168
584	0.166
585	0.165
585	0.164
585	0.164
586	0.163
586	0.162
587	0.161
587	0.16
588	0.159
588	0.158
589	0.158
589	0.157
590	0.157
590	0.156
590	0.156
591	0.155
591	0.154
592	0.153
592	0.152
593	0.151
593	0.15
594	0.149
594	0.148
594	0.147
595	0.147
595	0.146
596	0.145
596	0.145
597	0.145
597	0.145
598	0.144
598	0.144
598	0.144
599	0.144
599	0.143
600	0.142
600	0.142
601	0.141
601	0.14
602	0.139
602	0.138
602	0.138
603	0.137
603	0.137
604	0.136
604	0.136
605	0.135
605	0.135
606	0.134
606	0.133
606	0.133
607	0.132
607	0.132
608	0.131
608	0.13
609	0.13
609	0.129
610	0.128
610	0.128
610	0.127
611	0.127
611	0.127
612	0.127
612	0.127
613	0.127
613	0.127
614	0.126
614	0.126
614	0.126
615	0.126
615	0.126
616	0.126
616	0.125
617	0.125
617	0.125
618	0.124
618	0.124
618	0.124
619	0.124
619	0.124
620	0.123
620	0.123
621	0.122
621	0.121
622	0.121
622	0.12
622	0.119
623	0.119
623	0.118
624	0.118
624	0.117
625	0.117
625	0.116
626	0.116
626	0.116
626	0.116
627	0.116
627	0.116
628	0.116
628	0.115
629	0.115
629	0.115
630	0.115
630	0.114
630	0.114
631	0.114
631	0.113
632	0.112
632	0.112
633	0.111
633	0.111
634	0.111
634	0.111
634	0.111
635	0.111
635	0.11
636	0.11
636	0.11
637	0.109
637	0.109
638	0.108
638	0.108
638	0.107
639	0.106
639	0.106
640	0.106
640	0.105
641	0.105
641	0.105
642	0.105
642	0.105
642	0.105
643	0.105
643	0.106
644	0.106
644	0.106
645	0.105
645	0.106
646	0.106
646	0.106
646	0.106
647	0.106
647	0.105
648	0.105
648	0.104
649	0.104
649	0.104
650	0.103
650	0.103
650	0.103
651	0.103
651	0.103
652	0.103
652	0.103
653	0.103
653	0.105
653	0.11
654	0.088
654	0.072
655	0.07
655	0.07
656	0.07
656	0.07
657	0.07
657	0.071
657	0.07
658	0.069
658	0.062
659	0.077
659	0.097
660	0.103
660	0.103
661	0.102
661	0.102
661	0.101
662	0.101
662	0.1
663	0.1
663	0.099
664	0.099
664	0.099
665	0.099
665	0.098
665	0.098
666	0.098
666	0.099
667	0.099
667	0.099
668	0.099
668	0.099
669	0.1
669	0.1
669	0.1
670	0.1
670	0.1
671	0.1
671	0.099
672	0.099
672	0.098
672	0.098
673	0.097
673	0.097
674	0.096
674	0.096
675	0.095
675	0.095
676	0.095
676	0.095
676	0.095
677	0.095
677	0.095
678	0.095
678	0.095
679	0.095
679	0.095
680	0.095
680	0.095
680	0.094
681	0.094
681	0.094
682	0.095
682	0.095
683	0.095
683	0.095
684	0.095
684	0.095
684	0.095
685	0.095
685	0.095
686	0.095
686	0.095
687	0.095
687	0.095
687	0.096
688	0.096
688	0.096
689	0.096
689	0.097
690	0.096
690	0.096
691	0.096
691	0.096
691	0.096
692	0.095
692	0.095
693	0.095
693	0.096
694	0.096
694	0.095
695	0.096
695	0.097
695	0.097
696	0.097
696	0.097
697	0.097
697	0.097
698	0.097
698	0.096
698	0.096
699	0.096
699	0.095
700	0.094
700	0.094
701	0.094
701	0.093
702	0.092
702	0.092
702	0.091
703	0.091
703	0.09
704	0.09
704	0.09
705	0.089
705	0.089
705	0.089
706	0.089
706	0.089
707	0.089
707	0.088
708	0.088
708	0.089
709	0.088
709	0.088
709	0.088
710	0.088
710	0.089
711	0.089
711	0.089
712	0.09
712	0.09
713	0.09
713	0.09
713	0.091
714	0.09
714	0.09
715	0.09
715	0.09
716	0.089
716	0.089
716	0.088
717	0.087
717	0.087
718	0.086
718	0.086
719	0.087
719	0.087
720	0.087
720	0.088
720	0.089
721	0.089
721	0.09
722	0.091
722	0.091
723	0.091
723	0.092
723	0.091
724	0.091
724	0.09
725	0.09
725	0.089
726	0.088
726	0.087
727	0.086
727	0.086
727	0.085
728	0.084
728	0.084
729	0.084
729	0.084
730	0.084
730	0.085
730	0.085
731	0.085
731	0.086
732	0.086
732	0.087
733	0.087
733	0.087
734	0.087
734	0.088
734	0.088
735	0.088
735	0.088
736	0.088
736	0.088
737	0.087
737	0.087
737	0.087
738	0.086
738	0.085
739	0.085
739	0.085
740	0.084
740	0.085
741	0.085
741	0.085
741	0.085
742	0.085
742	0.086
743	0.087
743	0.088
744	0.088
744	0.088
744	0.088
745	0.088
745	0.087
746	0.087
746	0.087
747	0.086
747	0.086
748	0.085
748	0.085
748	0.085
749	0.085
749	0.086
750	0.086
750	0.086
751	0.087
751	0.087
751	0.088
752	0.087
752	0.087
753	0.086
753	0.086
754	0.085
754	0.084
754	0.083
755	0.083
755	0.082
756	0.081
756	0.08
757	0.079
757	0.079
758	0.079
758	0.079
758	0.08
759	0.08
759	0.08
760	0.08
760	0.08
761	0.08
761	0.081
761	0.081
762	0.081
762	0.081
763	0.081
763	0.081
764	0.08
764	0.08
764	0.08
765	0.079
765	0.079
766	0.078
766	0.078
767	0.077
767	0.076
768	0.075
768	0.075
768	0.075
769	0.075
769	0.075
770	0.075
770	0.076
771	0.076
771	0.076
771	0.076
772	0.077
772	0.077
773	0.078
773	0.078
774	0.078
774	0.078
775	0.079
775	0.079
775	0.079
776	0.079
776	0.079
777	0.079
777	0.08
778	0.079
778	0.079
778	0.078
779	0.078
779	0.078
780	0.076
780	0.075
781	0.075
781	0.074
781	0.073
782	0.073
782	0.072
783	0.072
783	0.073
784	0.072
784	0.073
784	0.073
785	0.073
785	0.073
786	0.074
786	0.074
787	0.074
787	0.074
788	0.074
788	0.073
788	0.073
789	0.072
789	0.072
790	0.072
790	0.072
791	0.072
791	0.071
791	0.071
792	0.071
792	0.071
793	0.07
793	0.07
794	0.07
794	0.069
794	0.069
795	0.069
795	0.07
796	0.07
796	0.07
797	0.069
797	0.069
797	0.07
798	0.07
798	0.07
799	0.07
799	0.07
800	0.069
800	0.069
801	0.069
801	0.069
801	0.069
802	0.069
802	0.069
803	0.069
803	0.069
804	0.07
804	0.07
804	0.07
805	0.07
805	0.069
806	0.069
806	0.069
807	0.069
807	0.068
807	0.068
808	0.069
808	0.069
809	0.068
809	0.069
810	0.069
810	0.069
810	0.069
811	0.069
811	0.069
812	0.07
812	0.069
813	0.069
813	0.07
813	0.07
814	0.071
814	0.071
815	0.071
815	0.071
816	0.071
816	0.07
817	0.07
817	0.07
817	0.069
818	0.069
818	0.068
819	0.068
819	0.067
820	0.066
820	0.065
820	0.065
821	0.065
821	0.065
822	0.065
822	0.065
823	0.065
823	0.065
823	0.065
824	0.066
824	0.068
825	0.069
825	0.07
826	0.071
826	0.071
826	0.072
827	0.073
827	0.073
828	0.073
828	0.073
829	0.074
829	0.074
829	0.073
830	0.073
830	0.073
831	0.073
831	0.073
832	0.072
832	0.072
832	0.072
833	0.072
833	0.072
834	0.071
834	0.071
835	0.07
835	0.07
835	0.069
836	0.069
836	0.068
837	0.068
837	0.067
838	0.067
838	0.066
839	0.065
839	0.064
839	0.064
840	0.063
840	0.062
841	0.061
841	0.06
842	0.06
842	0.059
842	0.058
843	0.058
843	0.057
844	0.057
844	0.057
845	0.056
845	0.056
845	0.056
846	0.056
846	0.056
847	0.056
847	0.056
848	0.056
848	0.056
848	0.056
849	0.056
849	0.056
850	0.056
850	0.056
851	0.056
851	0.055
851	0.055
852	0.055
852	0.054
853	0.054
853	0.054
854	0.055
854	0.056
854	0.056
855	0.057
855	0.058
856	0.059
856	0.061
857	0.062
857	0.063
857	0.064
858	0.065
858	0.065
859	0.065
859	0.065
860	0.065
860	0.065
860	0.064
861	0.063
861	0.063
862	0.062
862	0.061
863	0.06
863	0.059
863	0.059
864	0.059
864	0.058
865	0.058
865	0.058
866	0.058
866	0.058
866	0.059
867	0.059
867	0.06
868	0.06
868	0.06
869	0.06
869	0.06
869	0.06
870	0.059
870	0.059
871	0.059
871	0.059
872	0.059
872	0.059
872	0.058
873	0.058
873	0.057
874	0.057
874	0.057
875	0.056
875	0.056
875	0.056
876	0.056
876	0.056
877	0.056
877	0.056
878	0.056
878	0.056
878	0.057
879	0.057
879	0.057
880	0.057
880	0.057
881	0.057
881	0.057
881	0.057
882	0.057
882	0.057
883	0.057
883	0.057
884	0.057
884	0.057
884	0.057
885	0.057
885	0.056
886	0.056
886	0.056
887	0.056
887	0.056
887	0.055
888	0.055
888	0.055
889	0.055
889	0.055
890	0.055
890	0.056
890	0.056
891	0.056
891	0.056
892	0.056
892	0.056
893	0.056
893	0.056
893	0.055
894	0.055
894	0.054
895	0.053
895	0.053
895	0.052
896	0.052
896	0.052
897	0.051
897	0.051
898	0.051
898	0.051
898	0.05
899	0.05
899	0.051
900	0.051
900	0.051
901	0.051
901	0.051
901	0.051
902	0.051
902	0.051
903	0.052
903	0.052
904	0.052
904	0.052
904	0.052
905	0.051
905	0.051
906	0.051
906	0.051
907	0.051
907	0.051
907	0.05
908	0.05
908	0.05
909	0.05
909	0.05
910	0.049
910	0.049
910	0.049
911	0.048
911	0.048
912	0.048
912	0.047
913	0.047
913	0.046
913	0.046
914	0.046
914	0.046
915	0.046
915	0.046
916	0.046
916	0.046
916	0.046
917	0.046
917	0.046
918	0.046
918	0.046
918	0.046
919	0.046
919	0.046
920	0.046
920	0.046
921	0.046
921	0.046
921	0.047
922	0.047
922	0.047
923	0.047
923	0.047
924	0.047
924	0.047
924	0.047
925	0.047
925	0.047
926	0.047
926	0.048
927	0.048
927	0.048
927	0.048
928	0.048
928	0.049
929	0.05
929	0.05
930	0.051
930	0.051
930	0.051
931	0.051
931	0.051
932	0.051
932	0.051
933	0.051
933	0.051
933	0.051
934	0.05
934	0.049
935	0.049
935	0.048
935	0.048
936	0.047
936	0.047
937	0.046
937	0.045
938	0.045
938	0.044
938	0.044
939	0.043
939	0.043
940	0.042
940	0.043
941	0.043
941	0.043
941	0.044
942	0.044
942	0.045
943	0.045
943	0.046
944	0.046
944	0.047
944	0.047
945	0.047
945	0.047
946	0.047
946	0.047
946	0.047
947	0.047
947	0.047
948	0.047
948	0.046
949	0.046
949	0.046
949	0.045
950	0.045
950	0.045
951	0.045
951	0.044
952	0.044
952	0.044
952	0.043
953	0.043
953	0.043
954	0.043
954	0.043
955	0.043
955	0.043
955	0.043
956	0.044
956	0.044
957	0.045
957	0.046
957	0.047
958	0.048
958	0.049
959	0.049
959	0.05
960	0.051
960	0.051
960	0.051
961	0.051
961	0.051
962	0.051
962	0.051
963	0.05
963	0.05
963	0.049
964	0.049
964	0.049
965	0.049
965	0.048
966	0.048
966	0.048
966	0.048
967	0.048
967	0.048
968	0.049
968	0.049
968	0.048
969	0.048
969	0.047
970	0.047
970	0.046
971	0.045
971	0.044
971	0.043
972	0.043
972	0.042
973	0.042
973	0.041
974	0.041
974	0.042
974	0.042
975	0.043
975	0.043
976	0.044
976	0.045
976	0.045
977	0.045
977	0.045
978	0.045
978	0.045
979	0.045
979	0.045
979	0.045
980	0.046
980	0.045
981	0.045
981	0.046
982	0.046
982	0.046
982	0.047
983	0.047
983	0.047
984	0.047
984	0.047
984	0.047
985	0.047
985	0.047
986	0.047
986	0.046
987	0.046
987	0.045
987	0.045
988	0.045
988	0.045
989	0.044
989	0.044
990	0.044
990	0.044
990	0.044
991	0.044
991	0.044
992	0.043
992	0.043
992	0.042
993	0.041
993	0.041
994	0.04
994	0.039
995	0.038
995	0.038
995	0.038
996	0.037
996	0.037
997	0.037
997	0.038
997	0.038
998	0.038
998	0.039
999	0.039
999	0.04
1000	0.041
1000	0.042
1000	0.042
1001	0.043
1001	0.043
1002	0.043
1002	0.043
1003	0.043
1003	0.043
1003	0.043
1004	0.042
1004	0.042
1005	0.041
1005	0.041
1005	0.04
1006	0.039
1006	0.039
1007	0.039
1007	0.039
1008	0.038
1008	0.038
1008	0.038
1009	0.038
1009	0.038
1010	0.038
1010	0.038
1010	0.038
1011	0.038
1011	0.037
1012	0.037
1012	0.036
1013	0.036
1013	0.036
1013	0.035
1014	0.035
1014	0.035
1015	0.034
1015	0.034
1016	0.034
1016	0.034
1016	0.034
1017	0.034
1017	0.034
1018	0.034
1018	0.034
1018	0.034
1019	0.034
1019	0.034
1020	0.034
1020	0.035
1021	0.035
1021	0.036
1021	0.036
1022	0.037
1022	0.037
1023	0.037
1023	0.037
1023	0.037
1024	0.037
1024	0.037
1025	0.037
1025	0.038
1026	0.037
1026	0.037
1026	0.037
1027	0.037
1027	0.038
1028	0.038
1028	0.038
1028	0.038
1029	0.038
1029	0.038
1030	0.039
1030	0.039
1031	0.039
1031	0.039
1031	0.039
1032	0.04
1032	0.04
1033	0.04
1033	0.04
1033	0.04
1034	0.041
1034	0.04
1035	0.041
1035	0.041
1036	0.041
1036	0.041
1036	0.041
1037	0.041
1037	0.04
1038	0.04
1038	0.04
1039	0.04
1039	0.04
1039	0.04
1040	0.04
1040	0.039
1041	0.039
1041	0.039
1041	0.038
1042	0.038
1042	0.038
1043	0.037
1043	0.037
1044	0.036
1044	0.036
1044	0.036
1045	0.035
1045	0.035
1046	0.035
1046	0.035
1046	0.035
1047	0.035
1047	0.035
1048	0.035
1048	0.035
1049	0.035
1049	0.035
1049	0.034
1050	0.034
1050	0.034
1051	0.033
1051	0.033
1051	0.033
1052	0.032
1052	0.032
1053	0.031
1053	0.031
1053	0.03
1054	0.03
1054	0.03
1055	0.03
1055	0.029
1056	0.029
1056	0.028
1056	0.028
1057	0.028
1057	0.028
1058	0.028
1058	0.027
1058	0.027
1059	0.026
1059	0.026
1060	0.026
1060	0.026
1061	0.026
1061	0.026
1061	0.026
1062	0.026
1062	0.026
1063	0.027
1063	0.027
1063	0.027
1064	0.027
1064	0.027
1065	0.027
1065	0.027
1066	0.027
1066	0.027
1066	0.027
1067	0.027
1067	0.027
1068	0.027
1068	0.027
1068	0.028
1069	0.028
1069	0.028
1070	0.028
1070	0.028
1071	0.028
1071	0.028
1071	0.027
1072	0.027
1072	0.027
1073	0.026
1073	0.026
1073	0.026
1074	0.026
1074	0.026
1075	0.026
1075	0.026
1076	0.027
1076	0.027
1076	0.027
1077	0.027
1077	0.028
1078	0.028
1078	0.028
1078	0.027
1079	0.027
1079	0.027
1080	0.026
1080	0.026
1080	0.026
1081	0.025
1081	0.025
1082	0.025
1082	0.025
1083	0.025
1083	0.025
1083	0.025
1084	0.025
1084	0.026
1085	0.025
1085	0.026
1085	0.027
1086	0.027
1086	0.027
1087	0.027
1087	0.027
1088	0.027
1088	0.027
1088	0.027
1089	0.026
1089	0.026
1090	0.026
1090	0.025
1090	0.024
1091	0.024
1091	0.024
1092	0.024
1092	0.025
1092	0.025
1093	0.024
1093	0.025
1094	0.025
1094	0.024
1095	0.023
1095	0.023
1095	0.023
1096	0.022
1096	0.021
1097	0.02
1097	0.019
1097	0.018
1098	0.017
1098	0.016
1099	0.016
1099	0.015
1100	0.014
1100	0.014
1100	0.013
1101	0.013
1101	0.013
1102	0.012
1102	0.012
1102	0.011
1103	0.011
1103	0.011
1104	0.01
1104	0.01
1104	0.01
1105	0.008
1105	0.007
1106	0.005
1106	0.004
1107	0.003
1107	0.004
1107	0.002
1108	0.002
1108	0.001
1109	-0.001
1109	-0.001
1109	0
1110	0.002
1110	0.003
1111	0.002
1111	0
