Data from reversibility-20sec_Absorbance__3833__000000000003833.txt Node

Date: Wed Dec 06 09:30:46 CET 2023
User: Marek
Spectrometer: MAYP115816
Trigger mode: 0
Integration Time (sec): 2.000000E-1
Scans to average: 10
Electric dark correction enabled: true
Nonlinearity correction enabled: true
Boxcar width: 5
XAxis mode: Wavelengths
Number of Pixels in Spectrum: 2068
>>>>>Begin Spectral Data<<<<<
199	-0.062
199	-0.039
200	0.029
200	0.076
201	0.098
201	0.116
202	0.126
202	0.137
203	0.145
203	0.148
204	0.16
204	0.175
205	0.185
205	0.189
205	0.188
206	0.19
206	0.19
207	0.191
207	0.19
208	0.187
208	0.189
209	0.189
209	0.184
210	0.185
210	0.183
211	0.183
211	0.184
212	0.182
212	0.185
213	0.189
213	0.194
213	0.191
214	0.195
214	0.197
215	0.2
215	0.202
216	0.201
216	0.203
217	0.208
217	0.207
218	0.202
218	0.203
219	0.21
219	0.212
220	0.213
220	0.21
221	0.21
221	0.214
221	0.218
222	0.223
222	0.228
223	0.236
223	0.239
224	0.241
224	0.246
225	0.255
225	0.27
226	0.28
226	0.289
227	0.3
227	0.309
228	0.325
228	0.341
229	0.356
229	0.382
229	0.404
230	0.431
230	0.455
231	0.489
231	0.528
232	0.562
232	0.606
233	0.647
233	0.695
234	0.748
234	0.8
235	0.855
235	0.904
236	0.958
236	1.007
236	1.058
237	1.11
237	1.158
238	1.207
238	1.251
239	1.297
239	1.34
240	1.379
240	1.416
241	1.449
241	1.486
242	1.518
242	1.552
243	1.58
243	1.605
243	1.632
244	1.653
244	1.672
245	1.689
245	1.712
246	1.733
246	1.746
247	1.758
247	1.768
248	1.782
248	1.793
249	1.798
249	1.801
250	1.806
250	1.815
250	1.814
251	1.815
251	1.815
252	1.817
252	1.816
253	1.814
253	1.81
254	1.809
254	1.809
255	1.805
255	1.803
256	1.803
256	1.801
257	1.8
257	1.798
258	1.797
258	1.796
258	1.795
259	1.794
259	1.792
260	1.792
260	1.792
261	1.792
261	1.794
262	1.796
262	1.799
263	1.801
263	1.802
264	1.804
264	1.806
265	1.807
265	1.809
265	1.809
266	1.809
266	1.809
267	1.808
267	1.808
268	1.808
268	1.808
269	1.81
269	1.81
270	1.809
270	1.808
271	1.805
271	1.805
272	1.801
272	1.799
272	1.795
273	1.789
273	1.781
274	1.774
274	1.766
275	1.757
275	1.749
276	1.741
276	1.733
277	1.724
277	1.713
278	1.701
278	1.687
278	1.672
279	1.652
279	1.629
280	1.599
280	1.565
281	1.524
281	1.48
282	1.434
282	1.387
283	1.343
283	1.3
284	1.259
284	1.219
285	1.183
285	1.15
285	1.12
286	1.095
286	1.073
287	1.053
287	1.037
288	1.023
288	1.012
289	1.002
289	0.994
290	0.986
290	0.98
291	0.975
291	0.971
292	0.966
292	0.963
292	0.959
293	0.956
293	0.953
294	0.95
294	0.947
295	0.945
295	0.942
296	0.939
296	0.936
297	0.934
297	0.931
298	0.929
298	0.926
298	0.924
299	0.921
299	0.919
300	0.916
300	0.914
301	0.911
301	0.909
302	0.907
302	0.905
303	0.903
303	0.901
304	0.899
304	0.897
305	0.895
305	0.893
305	0.891
306	0.889
306	0.888
307	0.885
307	0.883
308	0.881
308	0.879
309	0.876
309	0.874
310	0.871
310	0.868
311	0.865
311	0.862
311	0.859
312	0.856
312	0.852
313	0.849
313	0.846
314	0.842
314	0.839
315	0.834
315	0.83
316	0.827
316	0.822
317	0.818
317	0.813
318	0.808
318	0.803
318	0.798
319	0.793
319	0.788
320	0.782
320	0.777
321	0.771
321	0.765
322	0.759
322	0.753
323	0.747
323	0.741
324	0.735
324	0.728
324	0.722
325	0.715
325	0.709
326	0.702
326	0.695
327	0.688
327	0.682
328	0.675
328	0.668
329	0.661
329	0.654
330	0.647
330	0.641
330	0.634
331	0.627
331	0.62
332	0.613
332	0.606
333	0.6
333	0.593
334	0.586
334	0.58
335	0.573
335	0.567
336	0.56
336	0.554
336	0.547
337	0.541
337	0.535
338	0.529
338	0.523
339	0.517
339	0.511
340	0.505
340	0.5
341	0.494
341	0.489
342	0.483
342	0.478
342	0.473
343	0.468
343	0.463
344	0.458
344	0.453
345	0.448
345	0.444
346	0.439
346	0.435
347	0.431
347	0.427
348	0.423
348	0.419
348	0.415
349	0.411
349	0.408
350	0.405
350	0.401
351	0.398
351	0.395
352	0.392
352	0.389
353	0.386
353	0.383
354	0.38
354	0.378
354	0.375
355	0.372
355	0.369
356	0.366
356	0.364
357	0.36
357	0.357
358	0.355
358	0.352
359	0.35
359	0.348
360	0.346
360	0.344
360	0.342
361	0.34
361	0.339
362	0.338
362	0.336
363	0.334
363	0.333
364	0.331
364	0.329
365	0.327
365	0.326
366	0.324
366	0.322
366	0.321
367	0.319
367	0.318
368	0.316
368	0.314
369	0.313
369	0.312
370	0.31
370	0.309
371	0.308
371	0.306
372	0.305
372	0.304
372	0.303
373	0.302
373	0.301
374	0.3
374	0.299
375	0.298
375	0.297
376	0.297
376	0.296
377	0.295
377	0.294
378	0.293
378	0.292
378	0.291
379	0.291
379	0.29
380	0.289
380	0.289
381	0.288
381	0.287
382	0.287
382	0.286
383	0.286
383	0.285
383	0.285
384	0.284
384	0.284
385	0.283
385	0.283
386	0.282
386	0.282
387	0.282
387	0.281
388	0.281
388	0.28
389	0.28
389	0.28
389	0.279
390	0.279
390	0.279
391	0.278
391	0.278
392	0.278
392	0.277
393	0.277
393	0.277
394	0.277
394	0.276
394	0.276
395	0.276
395	0.275
396	0.275
396	0.275
397	0.275
397	0.274
398	0.274
398	0.274
399	0.273
399	0.273
400	0.273
400	0.272
400	0.272
401	0.272
401	0.271
402	0.271
402	0.271
403	0.27
403	0.27
404	0.27
404	0.269
405	0.269
405	0.269
405	0.269
406	0.269
406	0.268
407	0.268
407	0.268
408	0.268
408	0.268
409	0.267
409	0.267
410	0.267
410	0.267
411	0.266
411	0.266
411	0.266
412	0.266
412	0.265
413	0.265
413	0.265
414	0.265
414	0.264
415	0.264
415	0.264
416	0.264
416	0.263
416	0.263
417	0.263
417	0.262
418	0.262
418	0.262
419	0.261
419	0.261
420	0.26
420	0.26
421	0.259
421	0.259
421	0.259
422	0.259
422	0.258
423	0.258
423	0.258
424	0.257
424	0.257
425	0.257
425	0.256
426	0.256
426	0.256
427	0.255
427	0.255
427	0.255
428	0.255
428	0.254
429	0.254
429	0.254
430	0.253
430	0.253
431	0.253
431	0.252
432	0.252
432	0.252
432	0.252
433	0.251
433	0.251
434	0.251
434	0.251
435	0.251
435	0.251
436	0.251
436	0.251
437	0.25
437	0.25
437	0.25
438	0.25
438	0.25
439	0.249
439	0.249
440	0.249
440	0.248
441	0.248
441	0.248
442	0.248
442	0.247
442	0.247
443	0.247
443	0.247
444	0.247
444	0.246
445	0.246
445	0.246
446	0.246
446	0.245
447	0.245
447	0.245
447	0.245
448	0.245
448	0.244
449	0.244
449	0.244
450	0.244
450	0.244
451	0.244
451	0.243
452	0.243
452	0.243
452	0.243
453	0.243
453	0.243
454	0.242
454	0.242
455	0.242
455	0.241
456	0.241
456	0.241
457	0.241
457	0.24
458	0.24
458	0.24
458	0.24
459	0.24
459	0.24
460	0.24
460	0.24
461	0.239
461	0.239
462	0.239
462	0.239
463	0.238
463	0.238
463	0.238
464	0.237
464	0.237
465	0.236
465	0.236
466	0.236
466	0.236
467	0.236
467	0.236
467	0.236
468	0.236
468	0.236
469	0.236
469	0.236
470	0.236
470	0.236
471	0.236
471	0.236
472	0.235
472	0.235
472	0.235
473	0.235
473	0.235
474	0.235
474	0.234
475	0.234
475	0.234
476	0.234
476	0.234
477	0.234
477	0.235
477	0.235
478	0.235
478	0.235
479	0.235
479	0.235
480	0.235
480	0.235
481	0.235
481	0.235
482	0.235
482	0.235
482	0.235
483	0.235
483	0.235
484	0.235
484	0.235
485	0.235
485	0.235
486	0.235
486	0.235
487	0.235
487	0.235
487	0.236
488	0.236
488	0.236
489	0.236
489	0.236
490	0.237
490	0.237
491	0.238
491	0.238
492	0.239
492	0.239
492	0.239
493	0.24
493	0.24
494	0.241
494	0.241
495	0.241
495	0.242
496	0.242
496	0.242
496	0.243
497	0.243
497	0.243
498	0.244
498	0.244
499	0.244
499	0.245
500	0.245
500	0.246
501	0.246
501	0.247
501	0.247
502	0.247
502	0.248
503	0.248
503	0.248
504	0.249
504	0.249
505	0.25
505	0.25
506	0.25
506	0.251
506	0.251
507	0.252
507	0.252
508	0.253
508	0.253
509	0.253
509	0.253
510	0.254
510	0.254
511	0.255
511	0.255
511	0.256
512	0.256
512	0.257
513	0.257
513	0.258
514	0.258
514	0.259
515	0.259
515	0.26
515	0.26
516	0.26
516	0.261
517	0.261
517	0.262
518	0.262
518	0.262
519	0.262
519	0.262
520	0.263
520	0.263
520	0.264
521	0.264
521	0.264
522	0.264
522	0.265
523	0.265
523	0.265
524	0.265
524	0.266
524	0.266
525	0.266
525	0.266
526	0.266
526	0.266
527	0.266
527	0.267
528	0.267
528	0.267
529	0.267
529	0.267
529	0.267
530	0.267
530	0.267
531	0.267
531	0.267
532	0.267
532	0.267
533	0.267
533	0.267
533	0.267
534	0.267
534	0.266
535	0.266
535	0.266
536	0.266
536	0.266
537	0.266
537	0.265
538	0.265
538	0.265
538	0.265
539	0.265
539	0.265
540	0.264
540	0.264
541	0.264
541	0.264
542	0.264
542	0.264
542	0.264
543	0.264
543	0.264
544	0.264
544	0.264
545	0.264
545	0.264
546	0.263
546	0.263
547	0.263
547	0.262
547	0.262
548	0.262
548	0.262
549	0.262
549	0.261
550	0.261
550	0.261
551	0.261
551	0.26
551	0.26
552	0.26
552	0.26
553	0.259
553	0.259
554	0.258
554	0.258
555	0.257
555	0.256
556	0.256
556	0.256
556	0.256
557	0.256
557	0.256
558	0.256
558	0.256
559	0.256
559	0.256
560	0.256
560	0.256
560	0.256
561	0.256
561	0.256
562	0.255
562	0.255
563	0.254
563	0.253
564	0.253
564	0.252
564	0.252
565	0.252
565	0.251
566	0.251
566	0.25
567	0.25
567	0.25
568	0.25
568	0.249
568	0.249
569	0.248
569	0.248
570	0.247
570	0.247
571	0.246
571	0.246
572	0.245
572	0.245
573	0.245
573	0.245
573	0.245
574	0.244
574	0.244
575	0.244
575	0.244
576	0.244
576	0.243
577	0.243
577	0.242
577	0.242
578	0.241
578	0.241
579	0.241
579	0.241
580	0.24
580	0.24
581	0.239
581	0.239
581	0.239
582	0.239
582	0.239
583	0.239
583	0.238
584	0.238
584	0.237
585	0.236
585	0.236
585	0.236
586	0.236
586	0.235
587	0.235
587	0.234
588	0.234
588	0.234
589	0.234
589	0.234
590	0.234
590	0.234
590	0.234
591	0.234
591	0.233
592	0.232
592	0.232
593	0.231
593	0.231
594	0.23
594	0.229
594	0.229
595	0.228
595	0.228
596	0.228
596	0.228
597	0.229
597	0.229
598	0.229
598	0.229
598	0.229
599	0.229
599	0.229
600	0.228
600	0.228
601	0.228
601	0.227
602	0.227
602	0.226
602	0.226
603	0.225
603	0.225
604	0.225
604	0.225
605	0.225
605	0.225
606	0.225
606	0.224
606	0.224
607	0.224
607	0.223
608	0.223
608	0.222
609	0.222
609	0.222
610	0.221
610	0.221
610	0.221
611	0.221
611	0.221
612	0.221
612	0.221
613	0.221
613	0.221
614	0.221
614	0.22
614	0.22
615	0.22
615	0.22
616	0.22
616	0.22
617	0.22
617	0.22
618	0.22
618	0.22
618	0.22
619	0.22
619	0.22
620	0.22
620	0.22
621	0.219
621	0.219
622	0.218
622	0.218
622	0.218
623	0.217
623	0.217
624	0.217
624	0.216
625	0.216
625	0.216
626	0.216
626	0.216
626	0.216
627	0.216
627	0.216
628	0.216
628	0.215
629	0.215
629	0.215
630	0.215
630	0.215
630	0.215
631	0.215
631	0.215
632	0.214
632	0.214
633	0.214
633	0.214
634	0.215
634	0.215
634	0.215
635	0.215
635	0.215
636	0.215
636	0.215
637	0.215
637	0.215
638	0.215
638	0.214
638	0.214
639	0.213
639	0.213
640	0.213
640	0.213
641	0.212
641	0.212
642	0.212
642	0.212
642	0.212
643	0.212
643	0.212
644	0.212
644	0.212
645	0.212
645	0.212
646	0.212
646	0.212
646	0.213
647	0.213
647	0.213
648	0.212
648	0.212
649	0.212
649	0.212
650	0.212
650	0.211
650	0.211
651	0.211
651	0.21
652	0.21
652	0.21
653	0.211
653	0.212
653	0.218
654	0.17
654	0.135
655	0.138
655	0.138
656	0.139
656	0.139
657	0.14
657	0.14
657	0.14
658	0.139
658	0.128
659	0.162
659	0.21
660	0.213
660	0.212
661	0.212
661	0.211
661	0.211
662	0.21
662	0.21
663	0.21
663	0.209
664	0.209
664	0.209
665	0.209
665	0.209
665	0.209
666	0.209
666	0.21
667	0.21
667	0.21
668	0.21
668	0.21
669	0.211
669	0.211
669	0.211
670	0.211
670	0.211
671	0.211
671	0.21
672	0.21
672	0.209
672	0.209
673	0.209
673	0.208
674	0.208
674	0.208
675	0.207
675	0.207
676	0.208
676	0.208
676	0.208
677	0.209
677	0.209
678	0.209
678	0.21
679	0.21
679	0.21
680	0.21
680	0.21
680	0.21
681	0.21
681	0.211
682	0.211
682	0.211
683	0.212
683	0.212
684	0.212
684	0.212
684	0.212
685	0.212
685	0.212
686	0.212
686	0.212
687	0.212
687	0.212
687	0.213
688	0.213
688	0.213
689	0.214
689	0.214
690	0.214
690	0.214
691	0.215
691	0.215
691	0.215
692	0.215
692	0.215
693	0.216
693	0.216
694	0.216
694	0.216
695	0.217
695	0.217
695	0.218
696	0.218
696	0.218
697	0.218
697	0.218
698	0.218
698	0.218
698	0.218
699	0.218
699	0.217
700	0.217
700	0.216
701	0.216
701	0.215
702	0.215
702	0.214
702	0.214
703	0.214
703	0.214
704	0.213
704	0.214
705	0.214
705	0.214
705	0.214
706	0.215
706	0.215
707	0.216
707	0.216
708	0.216
708	0.216
709	0.217
709	0.216
709	0.216
710	0.216
710	0.216
711	0.216
711	0.216
712	0.216
712	0.216
713	0.216
713	0.217
713	0.217
714	0.217
714	0.217
715	0.217
715	0.217
716	0.216
716	0.216
716	0.215
717	0.215
717	0.214
718	0.214
718	0.213
719	0.214
719	0.214
720	0.215
720	0.216
720	0.216
721	0.217
721	0.218
722	0.219
722	0.219
723	0.22
723	0.22
723	0.22
724	0.22
724	0.219
725	0.218
725	0.217
726	0.217
726	0.216
727	0.216
727	0.216
727	0.216
728	0.216
728	0.216
729	0.217
729	0.218
730	0.218
730	0.219
730	0.22
731	0.22
731	0.221
732	0.222
732	0.222
733	0.222
733	0.222
734	0.223
734	0.223
734	0.223
735	0.223
735	0.223
736	0.222
736	0.222
737	0.222
737	0.222
737	0.222
738	0.221
738	0.22
739	0.22
739	0.22
740	0.22
740	0.22
741	0.22
741	0.221
741	0.221
742	0.221
742	0.221
743	0.222
743	0.223
744	0.223
744	0.223
744	0.223
745	0.223
745	0.223
746	0.224
746	0.224
747	0.224
747	0.224
748	0.224
748	0.224
748	0.224
749	0.224
749	0.225
750	0.225
750	0.225
751	0.224
751	0.224
751	0.225
752	0.224
752	0.224
753	0.223
753	0.223
754	0.222
754	0.222
754	0.222
755	0.221
755	0.221
756	0.221
756	0.22
757	0.22
757	0.22
758	0.22
758	0.221
758	0.221
759	0.221
759	0.221
760	0.221
760	0.22
761	0.22
761	0.22
761	0.221
762	0.22
762	0.221
763	0.221
763	0.22
764	0.22
764	0.22
764	0.22
765	0.22
765	0.22
766	0.22
766	0.221
767	0.221
767	0.22
768	0.22
768	0.22
768	0.221
769	0.221
769	0.221
770	0.222
770	0.222
771	0.223
771	0.223
771	0.223
772	0.223
772	0.224
773	0.224
773	0.225
774	0.225
774	0.225
775	0.226
775	0.226
775	0.226
776	0.227
776	0.227
777	0.228
777	0.228
778	0.228
778	0.227
778	0.227
779	0.226
779	0.225
780	0.225
780	0.224
781	0.223
781	0.223
781	0.222
782	0.222
782	0.222
783	0.223
783	0.223
784	0.223
784	0.223
784	0.224
785	0.225
785	0.225
786	0.225
786	0.226
787	0.226
787	0.227
788	0.227
788	0.227
788	0.227
789	0.226
789	0.226
790	0.226
790	0.226
791	0.226
791	0.226
791	0.226
792	0.226
792	0.227
793	0.226
793	0.227
794	0.227
794	0.227
794	0.227
795	0.227
795	0.227
796	0.228
796	0.228
797	0.228
797	0.228
797	0.228
798	0.228
798	0.228
799	0.228
799	0.228
800	0.227
800	0.227
801	0.226
801	0.226
801	0.226
802	0.226
802	0.226
803	0.226
803	0.226
804	0.226
804	0.227
804	0.227
805	0.227
805	0.228
806	0.228
806	0.228
807	0.228
807	0.228
807	0.229
808	0.229
808	0.229
809	0.23
809	0.23
810	0.23
810	0.23
810	0.23
811	0.23
811	0.231
812	0.232
812	0.232
813	0.232
813	0.233
813	0.234
814	0.234
814	0.235
815	0.235
815	0.236
816	0.236
816	0.235
817	0.234
817	0.234
817	0.233
818	0.232
818	0.232
819	0.231
819	0.23
820	0.23
820	0.229
820	0.229
821	0.23
821	0.23
822	0.231
822	0.231
823	0.232
823	0.232
823	0.233
824	0.234
824	0.236
825	0.237
825	0.238
826	0.239
826	0.239
826	0.24
827	0.24
827	0.241
828	0.241
828	0.241
829	0.241
829	0.24
829	0.24
830	0.24
830	0.24
831	0.24
831	0.24
832	0.239
832	0.239
832	0.239
833	0.239
833	0.239
834	0.239
834	0.238
835	0.238
835	0.237
835	0.237
836	0.237
836	0.237
837	0.236
837	0.236
838	0.235
838	0.234
839	0.234
839	0.233
839	0.232
840	0.231
840	0.231
841	0.23
841	0.23
842	0.23
842	0.23
842	0.23
843	0.23
843	0.23
844	0.231
844	0.231
845	0.232
845	0.232
845	0.233
846	0.233
846	0.234
847	0.234
847	0.234
848	0.234
848	0.234
848	0.234
849	0.234
849	0.233
850	0.233
850	0.232
851	0.232
851	0.231
851	0.231
852	0.23
852	0.23
853	0.23
853	0.229
854	0.23
854	0.23
854	0.231
855	0.232
855	0.232
856	0.233
856	0.234
857	0.234
857	0.235
857	0.235
858	0.235
858	0.235
859	0.235
859	0.234
860	0.233
860	0.232
860	0.232
861	0.231
861	0.23
862	0.229
862	0.228
863	0.228
863	0.228
863	0.228
864	0.228
864	0.228
865	0.229
865	0.23
866	0.23
866	0.23
866	0.23
867	0.231
867	0.231
868	0.231
868	0.231
869	0.231
869	0.23
869	0.229
870	0.229
870	0.228
871	0.228
871	0.228
872	0.228
872	0.228
872	0.227
873	0.227
873	0.227
874	0.227
874	0.227
875	0.226
875	0.226
875	0.226
876	0.225
876	0.225
877	0.225
877	0.225
878	0.225
878	0.225
878	0.226
879	0.226
879	0.227
880	0.227
880	0.227
881	0.227
881	0.227
881	0.227
882	0.227
882	0.227
883	0.227
883	0.227
884	0.227
884	0.227
884	0.227
885	0.227
885	0.227
886	0.226
886	0.226
887	0.226
887	0.226
887	0.226
888	0.225
888	0.225
889	0.224
889	0.224
890	0.224
890	0.224
890	0.224
891	0.223
891	0.223
892	0.223
892	0.222
893	0.222
893	0.222
893	0.221
894	0.221
894	0.22
895	0.22
895	0.219
895	0.219
896	0.219
896	0.218
897	0.218
897	0.217
898	0.217
898	0.216
898	0.216
899	0.215
899	0.215
900	0.215
900	0.214
901	0.214
901	0.214
901	0.214
902	0.214
902	0.214
903	0.213
903	0.214
904	0.213
904	0.213
904	0.213
905	0.213
905	0.214
906	0.214
906	0.215
907	0.215
907	0.216
907	0.216
908	0.216
908	0.217
909	0.217
909	0.217
910	0.217
910	0.217
910	0.216
911	0.216
911	0.215
912	0.215
912	0.214
913	0.214
913	0.213
913	0.213
914	0.212
914	0.212
915	0.212
915	0.211
916	0.211
916	0.211
916	0.21
917	0.209
917	0.209
918	0.208
918	0.208
918	0.207
919	0.206
919	0.205
920	0.205
920	0.204
921	0.204
921	0.203
921	0.203
922	0.203
922	0.203
923	0.203
923	0.203
924	0.203
924	0.204
924	0.204
925	0.204
925	0.204
926	0.204
926	0.204
927	0.204
927	0.204
927	0.204
928	0.203
928	0.203
929	0.202
929	0.202
930	0.202
930	0.201
930	0.201
931	0.2
931	0.2
932	0.2
932	0.199
933	0.199
933	0.199
933	0.199
934	0.198
934	0.198
935	0.198
935	0.198
935	0.198
936	0.197
936	0.197
937	0.197
937	0.197
938	0.196
938	0.196
938	0.195
939	0.194
939	0.193
940	0.193
940	0.192
941	0.191
941	0.19
941	0.19
942	0.189
942	0.188
943	0.188
943	0.187
944	0.187
944	0.186
944	0.186
945	0.186
945	0.185
946	0.185
946	0.185
946	0.184
947	0.184
947	0.184
948	0.185
948	0.185
949	0.185
949	0.185
949	0.185
950	0.185
950	0.186
951	0.185
951	0.185
952	0.184
952	0.183
952	0.182
953	0.181
953	0.18
954	0.179
954	0.178
955	0.177
955	0.176
955	0.176
956	0.175
956	0.175
957	0.175
957	0.175
957	0.175
958	0.175
958	0.175
959	0.175
959	0.175
960	0.175
960	0.175
960	0.174
961	0.174
961	0.174
962	0.174
962	0.173
963	0.173
963	0.173
963	0.173
964	0.173
964	0.173
965	0.173
965	0.173
966	0.173
966	0.174
966	0.174
967	0.174
967	0.174
968	0.175
968	0.175
968	0.175
969	0.174
969	0.174
970	0.173
970	0.173
971	0.172
971	0.171
971	0.171
972	0.17
972	0.169
973	0.169
973	0.168
974	0.168
974	0.167
974	0.167
975	0.167
975	0.167
976	0.167
976	0.167
976	0.167
977	0.167
977	0.167
978	0.166
978	0.166
979	0.165
979	0.164
979	0.164
980	0.163
980	0.163
981	0.162
981	0.161
982	0.16
982	0.159
982	0.159
983	0.159
983	0.158
984	0.158
984	0.158
984	0.158
985	0.158
985	0.158
986	0.158
986	0.157
987	0.157
987	0.157
987	0.156
988	0.156
988	0.155
989	0.154
989	0.154
990	0.153
990	0.152
990	0.152
991	0.151
991	0.151
992	0.151
992	0.15
992	0.15
993	0.149
993	0.149
994	0.148
994	0.148
995	0.148
995	0.147
995	0.147
996	0.147
996	0.147
997	0.146
997	0.146
997	0.146
998	0.147
998	0.147
999	0.147
999	0.147
1000	0.148
1000	0.148
1000	0.148
1001	0.148
1001	0.148
1002	0.148
1002	0.148
1003	0.147
1003	0.147
1003	0.146
1004	0.145
1004	0.144
1005	0.143
1005	0.143
1005	0.142
1006	0.142
1006	0.141
1007	0.141
1007	0.141
1008	0.141
1008	0.141
1008	0.141
1009	0.142
1009	0.142
1010	0.143
1010	0.143
1010	0.144
1011	0.144
1011	0.145
1012	0.145
1012	0.145
1013	0.145
1013	0.144
1013	0.144
1014	0.144
1014	0.143
1015	0.143
1015	0.142
1016	0.142
1016	0.141
1016	0.14
1017	0.139
1017	0.139
1018	0.138
1018	0.138
1018	0.137
1019	0.137
1019	0.137
1020	0.136
1020	0.136
1021	0.136
1021	0.136
1021	0.136
1022	0.136
1022	0.135
1023	0.135
1023	0.135
1023	0.135
1024	0.135
1024	0.135
1025	0.134
1025	0.134
1026	0.134
1026	0.133
1026	0.133
1027	0.133
1027	0.133
1028	0.133
1028	0.132
1028	0.132
1029	0.132
1029	0.132
1030	0.132
1030	0.132
1031	0.132
1031	0.132
1031	0.132
1032	0.132
1032	0.132
1033	0.132
1033	0.132
1033	0.132
1034	0.132
1034	0.131
1035	0.131
1035	0.13
1036	0.13
1036	0.13
1036	0.129
1037	0.129
1037	0.128
1038	0.128
1038	0.127
1039	0.127
1039	0.126
1039	0.126
1040	0.126
1040	0.126
1041	0.126
1041	0.125
1041	0.125
1042	0.125
1042	0.125
1043	0.125
1043	0.125
1044	0.125
1044	0.125
1044	0.125
1045	0.125
1045	0.125
1046	0.125
1046	0.125
1046	0.126
1047	0.126
1047	0.126
1048	0.126
1048	0.127
1049	0.127
1049	0.127
1049	0.127
1050	0.127
1050	0.127
1051	0.126
1051	0.126
1051	0.126
1052	0.125
1052	0.125
1053	0.124
1053	0.124
1053	0.123
1054	0.122
1054	0.122
1055	0.122
1055	0.121
1056	0.121
1056	0.12
1056	0.12
1057	0.119
1057	0.119
1058	0.118
1058	0.117
1058	0.117
1059	0.116
1059	0.115
1060	0.115
1060	0.114
1061	0.113
1061	0.113
1061	0.113
1062	0.112
1062	0.112
1063	0.112
1063	0.112
1063	0.112
1064	0.111
1064	0.111
1065	0.111
1065	0.111
1066	0.111
1066	0.111
1066	0.111
1067	0.11
1067	0.11
1068	0.109
1068	0.109
1068	0.109
1069	0.108
1069	0.108
1070	0.107
1070	0.106
1071	0.106
1071	0.105
1071	0.104
1072	0.104
1072	0.103
1073	0.102
1073	0.102
1073	0.101
1074	0.101
1074	0.101
1075	0.101
1075	0.1
1076	0.1
1076	0.101
1076	0.101
1077	0.101
1077	0.101
1078	0.1
1078	0.1
1078	0.1
1079	0.1
1079	0.1
1080	0.099
1080	0.1
1080	0.1
1081	0.099
1081	0.099
1082	0.1
1082	0.1
1083	0.1
1083	0.1
1083	0.1
1084	0.1
1084	0.1
1085	0.1
1085	0.1
1085	0.1
1086	0.099
1086	0.098
1087	0.097
1087	0.096
1088	0.096
1088	0.096
1088	0.095
1089	0.094
1089	0.093
1090	0.093
1090	0.092
1090	0.091
1091	0.091
1091	0.091
1092	0.091
1092	0.091
1092	0.092
1093	0.091
1093	0.092
1094	0.092
1094	0.092
1095	0.092
1095	0.092
1095	0.093
1096	0.093
1096	0.092
1097	0.091
1097	0.09
1097	0.089
1098	0.089
1098	0.088
1099	0.088
1099	0.087
1100	0.086
1100	0.084
1100	0.084
1101	0.083
1101	0.082
1102	0.082
1102	0.082
1102	0.08
1103	0.081
1103	0.08
1104	0.081
1104	0.081
1104	0.082
1105	0.081
1105	0.08
1106	0.079
1106	0.078
1107	0.077
1107	0.078
1107	0.076
1108	0.076
1108	0.075
1109	0.073
1109	0.072
1109	0.071
1110	0.073
1110	0.072
1111	0.075
1111	0.072
