Data from reversibility-20sec_Absorbance__5810__000000000005810.txt Node

Date: Wed Dec 06 20:29:45 CET 2023
User: Marek
Spectrometer: MAYP115816
Trigger mode: 0
Integration Time (sec): 2.000000E-1
Scans to average: 10
Electric dark correction enabled: true
Nonlinearity correction enabled: true
Boxcar width: 5
XAxis mode: Wavelengths
Number of Pixels in Spectrum: 2068
>>>>>Begin Spectral Data<<<<<
199	-0.19
199	-0.156
200	-0.089
200	-0.033
201	0.002
201	0.018
202	0.032
202	0.042
203	0.048
203	0.051
204	0.062
204	0.079
205	0.092
205	0.098
205	0.095
206	0.092
206	0.093
207	0.092
207	0.089
208	0.091
208	0.09
209	0.094
209	0.09
210	0.09
210	0.091
211	0.091
211	0.094
212	0.091
212	0.093
213	0.096
213	0.095
213	0.095
214	0.097
214	0.099
215	0.1
215	0.102
216	0.104
216	0.102
217	0.108
217	0.111
218	0.109
218	0.115
219	0.119
219	0.121
220	0.125
220	0.126
221	0.124
221	0.126
221	0.132
222	0.136
222	0.139
223	0.144
223	0.147
224	0.152
224	0.159
225	0.165
225	0.173
226	0.184
226	0.195
227	0.202
227	0.211
228	0.225
228	0.241
229	0.257
229	0.28
229	0.304
230	0.327
230	0.356
231	0.389
231	0.427
232	0.466
232	0.509
233	0.553
233	0.601
234	0.652
234	0.704
235	0.758
235	0.812
236	0.865
236	0.915
236	0.965
237	1.017
237	1.066
238	1.114
238	1.163
239	1.208
239	1.252
240	1.289
240	1.325
241	1.36
241	1.397
242	1.428
242	1.462
243	1.492
243	1.519
243	1.542
244	1.565
244	1.584
245	1.601
245	1.624
246	1.644
246	1.659
247	1.673
247	1.685
248	1.699
248	1.71
249	1.72
249	1.728
250	1.735
250	1.746
250	1.75
251	1.752
251	1.754
252	1.762
252	1.763
253	1.765
253	1.764
254	1.763
254	1.762
255	1.762
255	1.761
256	1.758
256	1.759
257	1.76
257	1.758
258	1.757
258	1.756
258	1.755
259	1.756
259	1.757
260	1.757
260	1.758
261	1.76
261	1.762
262	1.764
262	1.765
263	1.768
263	1.768
264	1.769
264	1.769
265	1.771
265	1.771
265	1.771
266	1.771
266	1.771
267	1.768
267	1.769
268	1.769
268	1.77
269	1.772
269	1.771
270	1.769
270	1.769
271	1.767
271	1.765
272	1.763
272	1.762
272	1.758
273	1.752
273	1.746
274	1.741
274	1.736
275	1.73
275	1.724
276	1.718
276	1.71
277	1.702
277	1.692
278	1.681
278	1.669
278	1.656
279	1.641
279	1.621
280	1.597
280	1.569
281	1.536
281	1.498
282	1.458
282	1.418
283	1.378
283	1.338
284	1.3
284	1.262
285	1.227
285	1.194
285	1.166
286	1.139
286	1.117
287	1.098
287	1.081
288	1.066
288	1.054
289	1.044
289	1.034
290	1.026
290	1.019
291	1.013
291	1.008
292	1.003
292	0.998
292	0.993
293	0.989
293	0.986
294	0.982
294	0.979
295	0.976
295	0.973
296	0.97
296	0.967
297	0.964
297	0.961
298	0.958
298	0.955
298	0.952
299	0.949
299	0.946
300	0.944
300	0.941
301	0.938
301	0.936
302	0.933
302	0.931
303	0.929
303	0.926
304	0.924
304	0.922
305	0.919
305	0.917
305	0.914
306	0.912
306	0.909
307	0.907
307	0.904
308	0.901
308	0.898
309	0.895
309	0.893
310	0.89
310	0.887
311	0.884
311	0.881
311	0.878
312	0.874
312	0.871
313	0.867
313	0.863
314	0.86
314	0.856
315	0.852
315	0.847
316	0.843
316	0.839
317	0.834
317	0.83
318	0.825
318	0.82
318	0.815
319	0.81
319	0.805
320	0.799
320	0.793
321	0.787
321	0.781
322	0.775
322	0.769
323	0.763
323	0.756
324	0.75
324	0.743
324	0.737
325	0.73
325	0.723
326	0.716
326	0.71
327	0.703
327	0.696
328	0.689
328	0.682
329	0.675
329	0.668
330	0.661
330	0.655
330	0.648
331	0.641
331	0.634
332	0.627
332	0.62
333	0.614
333	0.607
334	0.6
334	0.593
335	0.586
335	0.58
336	0.573
336	0.566
336	0.56
337	0.553
337	0.547
338	0.541
338	0.535
339	0.529
339	0.523
340	0.517
340	0.512
341	0.506
341	0.5
342	0.495
342	0.49
342	0.485
343	0.479
343	0.474
344	0.469
344	0.464
345	0.46
345	0.455
346	0.451
346	0.446
347	0.442
347	0.438
348	0.433
348	0.43
348	0.426
349	0.422
349	0.418
350	0.415
350	0.411
351	0.408
351	0.404
352	0.401
352	0.398
353	0.395
353	0.393
354	0.39
354	0.387
354	0.384
355	0.381
355	0.378
356	0.375
356	0.373
357	0.369
357	0.367
358	0.364
358	0.362
359	0.359
359	0.357
360	0.355
360	0.353
360	0.351
361	0.349
361	0.348
362	0.346
362	0.345
363	0.343
363	0.341
364	0.339
364	0.337
365	0.336
365	0.334
366	0.332
366	0.33
366	0.329
367	0.327
367	0.325
368	0.324
368	0.322
369	0.321
369	0.319
370	0.318
370	0.316
371	0.315
371	0.314
372	0.312
372	0.311
372	0.31
373	0.309
373	0.308
374	0.307
374	0.306
375	0.305
375	0.304
376	0.303
376	0.302
377	0.302
377	0.301
378	0.3
378	0.299
378	0.298
379	0.297
379	0.297
380	0.296
380	0.295
381	0.294
381	0.294
382	0.293
382	0.293
383	0.292
383	0.292
383	0.291
384	0.29
384	0.29
385	0.289
385	0.289
386	0.288
386	0.288
387	0.287
387	0.287
388	0.286
388	0.286
389	0.285
389	0.285
389	0.285
390	0.284
390	0.284
391	0.283
391	0.283
392	0.283
392	0.283
393	0.282
393	0.282
394	0.281
394	0.281
394	0.281
395	0.28
395	0.28
396	0.279
396	0.279
397	0.279
397	0.278
398	0.278
398	0.277
399	0.277
399	0.277
400	0.276
400	0.276
400	0.276
401	0.276
401	0.275
402	0.275
402	0.275
403	0.274
403	0.274
404	0.274
404	0.274
405	0.274
405	0.273
405	0.273
406	0.273
406	0.273
407	0.272
407	0.272
408	0.272
408	0.271
409	0.271
409	0.271
410	0.27
410	0.27
411	0.27
411	0.27
411	0.27
412	0.269
412	0.269
413	0.269
413	0.268
414	0.268
414	0.268
415	0.267
415	0.267
416	0.267
416	0.266
416	0.266
417	0.266
417	0.265
418	0.265
418	0.265
419	0.264
419	0.264
420	0.264
420	0.263
421	0.263
421	0.262
421	0.262
422	0.262
422	0.261
423	0.261
423	0.26
424	0.26
424	0.26
425	0.26
425	0.26
426	0.259
426	0.259
427	0.258
427	0.258
427	0.258
428	0.257
428	0.257
429	0.257
429	0.256
430	0.256
430	0.256
431	0.256
431	0.256
432	0.256
432	0.256
432	0.255
433	0.255
433	0.255
434	0.255
434	0.255
435	0.255
435	0.255
436	0.254
436	0.254
437	0.254
437	0.253
437	0.253
438	0.253
438	0.253
439	0.252
439	0.252
440	0.252
440	0.252
441	0.251
441	0.251
442	0.251
442	0.251
442	0.251
443	0.251
443	0.251
444	0.25
444	0.25
445	0.25
445	0.25
446	0.249
446	0.249
447	0.249
447	0.249
447	0.248
448	0.248
448	0.248
449	0.248
449	0.248
450	0.248
450	0.248
451	0.247
451	0.247
452	0.247
452	0.247
452	0.247
453	0.247
453	0.247
454	0.247
454	0.247
455	0.246
455	0.246
456	0.246
456	0.246
457	0.246
457	0.246
458	0.246
458	0.245
458	0.245
459	0.245
459	0.245
460	0.245
460	0.245
461	0.245
461	0.245
462	0.244
462	0.244
463	0.244
463	0.244
463	0.244
464	0.244
464	0.243
465	0.243
465	0.243
466	0.243
466	0.243
467	0.243
467	0.243
467	0.243
468	0.243
468	0.243
469	0.243
469	0.243
470	0.244
470	0.244
471	0.244
471	0.244
472	0.244
472	0.244
472	0.245
473	0.245
473	0.245
474	0.245
474	0.245
475	0.245
475	0.245
476	0.245
476	0.245
477	0.246
477	0.246
477	0.246
478	0.246
478	0.246
479	0.246
479	0.247
480	0.247
480	0.247
481	0.247
481	0.247
482	0.247
482	0.247
482	0.247
483	0.247
483	0.248
484	0.249
484	0.249
485	0.249
485	0.249
486	0.249
486	0.249
487	0.25
487	0.25
487	0.251
488	0.251
488	0.251
489	0.252
489	0.253
490	0.254
490	0.255
491	0.255
491	0.256
492	0.257
492	0.257
492	0.258
493	0.258
493	0.259
494	0.259
494	0.26
495	0.261
495	0.261
496	0.262
496	0.263
496	0.264
497	0.264
497	0.264
498	0.265
498	0.266
499	0.267
499	0.267
500	0.268
500	0.269
501	0.27
501	0.27
501	0.27
502	0.271
502	0.272
503	0.273
503	0.274
504	0.274
504	0.275
505	0.276
505	0.276
506	0.277
506	0.278
506	0.278
507	0.279
507	0.279
508	0.28
508	0.28
509	0.281
509	0.281
510	0.282
510	0.282
511	0.283
511	0.284
511	0.284
512	0.285
512	0.286
513	0.286
513	0.287
514	0.288
514	0.288
515	0.289
515	0.289
515	0.29
516	0.29
516	0.291
517	0.291
517	0.292
518	0.292
518	0.293
519	0.293
519	0.293
520	0.293
520	0.293
520	0.294
521	0.293
521	0.293
522	0.293
522	0.293
523	0.293
523	0.293
524	0.293
524	0.293
524	0.293
525	0.293
525	0.293
526	0.293
526	0.293
527	0.293
527	0.293
528	0.293
528	0.293
529	0.292
529	0.292
529	0.291
530	0.291
530	0.291
531	0.291
531	0.29
532	0.29
532	0.289
533	0.289
533	0.288
533	0.288
534	0.287
534	0.287
535	0.286
535	0.286
536	0.285
536	0.284
537	0.284
537	0.284
538	0.283
538	0.282
538	0.282
539	0.281
539	0.281
540	0.28
540	0.279
541	0.278
541	0.277
542	0.276
542	0.275
542	0.275
543	0.274
543	0.273
544	0.272
544	0.272
545	0.271
545	0.271
546	0.27
546	0.269
547	0.268
547	0.267
547	0.265
548	0.265
548	0.264
549	0.263
549	0.262
550	0.261
550	0.261
551	0.259
551	0.259
551	0.258
552	0.257
552	0.256
553	0.255
553	0.254
554	0.253
554	0.252
555	0.251
555	0.25
556	0.249
556	0.248
556	0.247
557	0.247
557	0.247
558	0.246
558	0.246
559	0.245
559	0.245
560	0.244
560	0.243
560	0.242
561	0.242
561	0.241
562	0.24
562	0.239
563	0.238
563	0.237
564	0.235
564	0.235
564	0.234
565	0.233
565	0.233
566	0.232
566	0.231
567	0.23
567	0.23
568	0.229
568	0.228
568	0.228
569	0.227
569	0.226
570	0.225
570	0.224
571	0.223
571	0.222
572	0.221
572	0.221
573	0.22
573	0.219
573	0.218
574	0.217
574	0.217
575	0.217
575	0.217
576	0.216
576	0.216
577	0.215
577	0.214
577	0.214
578	0.213
578	0.213
579	0.212
579	0.212
580	0.211
580	0.21
581	0.209
581	0.208
581	0.208
582	0.208
582	0.207
583	0.207
583	0.207
584	0.206
584	0.205
585	0.204
585	0.204
585	0.204
586	0.203
586	0.202
587	0.201
587	0.201
588	0.2
588	0.199
589	0.198
589	0.198
590	0.198
590	0.198
590	0.198
591	0.199
591	0.198
592	0.197
592	0.197
593	0.196
593	0.196
594	0.195
594	0.194
594	0.194
595	0.193
595	0.192
596	0.192
596	0.192
597	0.192
597	0.192
598	0.192
598	0.192
598	0.191
599	0.191
599	0.19
600	0.19
600	0.189
601	0.189
601	0.188
602	0.188
602	0.187
602	0.186
603	0.186
603	0.186
604	0.186
604	0.186
605	0.186
605	0.186
606	0.185
606	0.185
606	0.184
607	0.184
607	0.184
608	0.183
608	0.183
609	0.182
609	0.182
610	0.181
610	0.181
610	0.181
611	0.181
611	0.181
612	0.181
612	0.181
613	0.181
613	0.181
614	0.181
614	0.18
614	0.18
615	0.18
615	0.179
616	0.179
616	0.179
617	0.179
617	0.178
618	0.178
618	0.178
618	0.178
619	0.178
619	0.178
620	0.179
620	0.179
621	0.178
621	0.178
622	0.177
622	0.177
622	0.176
623	0.176
623	0.175
624	0.175
624	0.174
625	0.173
625	0.173
626	0.172
626	0.172
626	0.172
627	0.171
627	0.171
628	0.171
628	0.17
629	0.17
629	0.17
630	0.169
630	0.169
630	0.169
631	0.169
631	0.169
632	0.168
632	0.168
633	0.168
633	0.168
634	0.169
634	0.169
634	0.169
635	0.169
635	0.169
636	0.169
636	0.169
637	0.169
637	0.168
638	0.168
638	0.168
638	0.168
639	0.167
639	0.167
640	0.167
640	0.167
641	0.167
641	0.166
642	0.166
642	0.166
642	0.167
643	0.166
643	0.166
644	0.166
644	0.166
645	0.166
645	0.166
646	0.166
646	0.166
646	0.166
647	0.165
647	0.165
648	0.164
648	0.164
649	0.164
649	0.164
650	0.164
650	0.164
650	0.164
651	0.164
651	0.164
652	0.164
652	0.164
653	0.164
653	0.166
653	0.172
654	0.136
654	0.109
655	0.108
655	0.109
656	0.109
656	0.109
657	0.11
657	0.11
657	0.11
658	0.109
658	0.099
659	0.125
659	0.16
660	0.165
660	0.165
661	0.165
661	0.164
661	0.164
662	0.163
662	0.163
663	0.163
663	0.163
664	0.162
664	0.162
665	0.162
665	0.162
665	0.162
666	0.163
666	0.163
667	0.164
667	0.164
668	0.165
668	0.165
669	0.165
669	0.166
669	0.166
670	0.166
670	0.166
671	0.166
671	0.165
672	0.164
672	0.164
672	0.163
673	0.163
673	0.163
674	0.162
674	0.162
675	0.162
675	0.161
676	0.162
676	0.162
676	0.161
677	0.161
677	0.161
678	0.161
678	0.16
679	0.16
679	0.16
680	0.16
680	0.159
680	0.159
681	0.159
681	0.16
682	0.16
682	0.16
683	0.161
683	0.162
684	0.163
684	0.163
684	0.162
685	0.163
685	0.163
686	0.163
686	0.163
687	0.163
687	0.162
687	0.162
688	0.162
688	0.161
689	0.162
689	0.162
690	0.162
690	0.161
691	0.161
691	0.161
691	0.162
692	0.162
692	0.162
693	0.162
693	0.163
694	0.162
694	0.162
695	0.163
695	0.165
695	0.165
696	0.164
696	0.164
697	0.164
697	0.164
698	0.164
698	0.164
698	0.164
699	0.164
699	0.164
700	0.163
700	0.164
701	0.164
701	0.164
702	0.164
702	0.164
702	0.165
703	0.165
703	0.165
704	0.164
704	0.165
705	0.165
705	0.164
705	0.164
706	0.164
706	0.164
707	0.164
707	0.164
708	0.164
708	0.164
709	0.164
709	0.164
709	0.164
710	0.163
710	0.163
711	0.163
711	0.163
712	0.163
712	0.163
713	0.163
713	0.163
713	0.163
714	0.163
714	0.163
715	0.163
715	0.163
716	0.163
716	0.163
716	0.163
717	0.162
717	0.162
718	0.162
718	0.161
719	0.161
719	0.162
720	0.162
720	0.162
720	0.163
721	0.163
721	0.164
722	0.165
722	0.165
723	0.165
723	0.166
723	0.166
724	0.166
724	0.165
725	0.165
725	0.164
726	0.163
726	0.163
727	0.162
727	0.162
727	0.162
728	0.161
728	0.161
729	0.162
729	0.162
730	0.162
730	0.162
730	0.163
731	0.163
731	0.164
732	0.164
732	0.165
733	0.165
733	0.165
734	0.166
734	0.166
734	0.167
735	0.167
735	0.167
736	0.167
736	0.167
737	0.167
737	0.167
737	0.167
738	0.167
738	0.166
739	0.166
739	0.166
740	0.166
740	0.166
741	0.166
741	0.166
741	0.166
742	0.166
742	0.167
743	0.168
743	0.169
744	0.169
744	0.17
744	0.17
745	0.17
745	0.171
746	0.171
746	0.171
747	0.171
747	0.172
748	0.172
748	0.172
748	0.172
749	0.172
749	0.171
750	0.171
750	0.17
751	0.17
751	0.169
751	0.169
752	0.168
752	0.167
753	0.166
753	0.166
754	0.166
754	0.166
754	0.167
755	0.167
755	0.168
756	0.168
756	0.167
757	0.167
757	0.168
758	0.168
758	0.169
758	0.169
759	0.17
759	0.17
760	0.17
760	0.17
761	0.17
761	0.171
761	0.171
762	0.171
762	0.171
763	0.171
763	0.17
764	0.17
764	0.169
764	0.169
765	0.169
765	0.169
766	0.169
766	0.169
767	0.168
767	0.168
768	0.167
768	0.167
768	0.168
769	0.168
769	0.169
770	0.169
770	0.17
771	0.17
771	0.17
771	0.171
772	0.172
772	0.173
773	0.174
773	0.174
774	0.174
774	0.174
775	0.175
775	0.175
775	0.174
776	0.174
776	0.174
777	0.174
777	0.174
778	0.174
778	0.174
778	0.174
779	0.174
779	0.174
780	0.174
780	0.174
781	0.174
781	0.174
781	0.174
782	0.174
782	0.174
783	0.174
783	0.174
784	0.174
784	0.174
784	0.175
785	0.175
785	0.175
786	0.175
786	0.175
787	0.175
787	0.175
788	0.174
788	0.173
788	0.172
789	0.172
789	0.171
790	0.171
790	0.171
791	0.17
791	0.17
791	0.169
792	0.17
792	0.17
793	0.17
793	0.17
794	0.17
794	0.169
794	0.169
795	0.169
795	0.17
796	0.17
796	0.17
797	0.17
797	0.17
797	0.17
798	0.17
798	0.17
799	0.17
799	0.17
800	0.17
800	0.17
801	0.169
801	0.169
801	0.169
802	0.169
802	0.17
803	0.17
803	0.17
804	0.17
804	0.171
804	0.171
805	0.17
805	0.17
806	0.17
806	0.169
807	0.169
807	0.168
807	0.168
808	0.168
808	0.167
809	0.167
809	0.167
810	0.168
810	0.168
810	0.168
811	0.169
811	0.169
812	0.17
812	0.171
813	0.172
813	0.172
813	0.172
814	0.173
814	0.173
815	0.174
815	0.174
816	0.174
816	0.173
817	0.172
817	0.172
817	0.171
818	0.171
818	0.171
819	0.17
819	0.17
820	0.169
820	0.168
820	0.168
821	0.169
821	0.169
822	0.169
822	0.169
823	0.168
823	0.168
823	0.168
824	0.169
824	0.169
825	0.17
825	0.17
826	0.17
826	0.17
826	0.17
827	0.17
827	0.171
828	0.171
828	0.171
829	0.171
829	0.171
829	0.171
830	0.171
830	0.171
831	0.172
831	0.172
832	0.172
832	0.172
832	0.172
833	0.172
833	0.172
834	0.171
834	0.171
835	0.171
835	0.17
835	0.17
836	0.17
836	0.17
837	0.169
837	0.169
838	0.169
838	0.168
839	0.168
839	0.167
839	0.166
840	0.165
840	0.164
841	0.163
841	0.162
842	0.161
842	0.16
842	0.159
843	0.158
843	0.157
844	0.157
844	0.156
845	0.155
845	0.155
845	0.154
846	0.154
846	0.154
847	0.154
847	0.154
848	0.155
848	0.155
848	0.156
849	0.156
849	0.157
850	0.157
850	0.158
851	0.158
851	0.159
851	0.158
852	0.158
852	0.158
853	0.157
853	0.157
854	0.157
854	0.157
854	0.157
855	0.158
855	0.158
856	0.158
856	0.158
857	0.159
857	0.159
857	0.159
858	0.158
858	0.157
859	0.156
859	0.155
860	0.154
860	0.153
860	0.152
861	0.151
861	0.15
862	0.15
862	0.149
863	0.149
863	0.149
863	0.149
864	0.15
864	0.15
865	0.151
865	0.151
866	0.151
866	0.151
866	0.152
867	0.152
867	0.152
868	0.153
868	0.153
869	0.153
869	0.153
869	0.153
870	0.153
870	0.153
871	0.153
871	0.153
872	0.153
872	0.153
872	0.152
873	0.152
873	0.151
874	0.15
874	0.15
875	0.149
875	0.149
875	0.148
876	0.148
876	0.147
877	0.147
877	0.147
878	0.147
878	0.147
878	0.147
879	0.147
879	0.147
880	0.146
880	0.146
881	0.146
881	0.146
881	0.146
882	0.145
882	0.145
883	0.145
883	0.145
884	0.145
884	0.145
884	0.145
885	0.145
885	0.144
886	0.144
886	0.143
887	0.143
887	0.142
887	0.141
888	0.141
888	0.14
889	0.14
889	0.14
890	0.14
890	0.14
890	0.14
891	0.14
891	0.14
892	0.139
892	0.139
893	0.139
893	0.139
893	0.138
894	0.138
894	0.137
895	0.137
895	0.137
895	0.137
896	0.137
896	0.138
897	0.138
897	0.138
898	0.138
898	0.139
898	0.139
899	0.139
899	0.139
900	0.139
900	0.138
901	0.138
901	0.137
901	0.137
902	0.136
902	0.136
903	0.135
903	0.135
904	0.134
904	0.134
904	0.133
905	0.133
905	0.132
906	0.132
906	0.132
907	0.132
907	0.132
907	0.132
908	0.131
908	0.131
909	0.13
909	0.13
910	0.13
910	0.129
910	0.129
911	0.128
911	0.127
912	0.127
912	0.126
913	0.126
913	0.126
913	0.126
914	0.126
914	0.126
915	0.126
915	0.126
916	0.126
916	0.126
916	0.126
917	0.125
917	0.125
918	0.124
918	0.124
918	0.123
919	0.123
919	0.123
920	0.122
920	0.122
921	0.122
921	0.122
921	0.121
922	0.121
922	0.122
923	0.122
923	0.122
924	0.123
924	0.123
924	0.124
925	0.125
925	0.126
926	0.126
926	0.127
927	0.128
927	0.128
927	0.128
928	0.127
928	0.127
929	0.126
929	0.126
930	0.125
930	0.124
930	0.123
931	0.122
931	0.121
932	0.12
932	0.12
933	0.119
933	0.119
933	0.118
934	0.118
934	0.117
935	0.117
935	0.116
935	0.116
936	0.116
936	0.115
937	0.115
937	0.115
938	0.115
938	0.114
938	0.114
939	0.114
939	0.113
940	0.113
940	0.113
941	0.114
941	0.114
941	0.114
942	0.114
942	0.114
943	0.114
943	0.114
944	0.113
944	0.114
944	0.114
945	0.113
945	0.113
946	0.113
946	0.113
946	0.113
947	0.113
947	0.112
948	0.112
948	0.112
949	0.111
949	0.111
949	0.111
950	0.11
950	0.11
951	0.11
951	0.109
952	0.109
952	0.108
952	0.108
953	0.108
953	0.107
954	0.107
954	0.106
955	0.106
955	0.106
955	0.105
956	0.105
956	0.105
957	0.105
957	0.104
957	0.104
958	0.104
958	0.104
959	0.104
959	0.104
960	0.103
960	0.103
960	0.103
961	0.103
961	0.103
962	0.103
962	0.103
963	0.103
963	0.104
963	0.104
964	0.104
964	0.105
965	0.105
965	0.105
966	0.105
966	0.105
966	0.105
967	0.105
967	0.105
968	0.105
968	0.105
968	0.104
969	0.104
969	0.103
970	0.103
970	0.102
971	0.101
971	0.101
971	0.1
972	0.1
972	0.1
973	0.099
973	0.099
974	0.1
974	0.1
974	0.101
975	0.101
975	0.102
976	0.102
976	0.103
976	0.103
977	0.104
977	0.104
978	0.103
978	0.103
979	0.103
979	0.102
979	0.102
980	0.101
980	0.1
981	0.099
981	0.098
982	0.097
982	0.096
982	0.095
983	0.095
983	0.094
984	0.093
984	0.093
984	0.092
985	0.092
985	0.092
986	0.092
986	0.092
987	0.091
987	0.091
987	0.091
988	0.091
988	0.091
989	0.091
989	0.09
990	0.09
990	0.089
990	0.089
991	0.089
991	0.088
992	0.088
992	0.087
992	0.087
993	0.086
993	0.085
994	0.084
994	0.084
995	0.083
995	0.083
995	0.082
996	0.082
996	0.082
997	0.082
997	0.083
997	0.083
998	0.084
998	0.084
999	0.085
999	0.086
1000	0.087
1000	0.088
1000	0.089
1001	0.089
1001	0.089
1002	0.089
1002	0.089
1003	0.089
1003	0.088
1003	0.087
1004	0.086
1004	0.085
1005	0.084
1005	0.083
1005	0.082
1006	0.081
1006	0.081
1007	0.081
1007	0.08
1008	0.08
1008	0.081
1008	0.081
1009	0.081
1009	0.082
1010	0.082
1010	0.082
1010	0.082
1011	0.082
1011	0.082
1012	0.082
1012	0.082
1013	0.082
1013	0.081
1013	0.081
1014	0.081
1014	0.08
1015	0.08
1015	0.08
1016	0.081
1016	0.08
1016	0.08
1017	0.081
1017	0.081
1018	0.081
1018	0.081
1018	0.081
1019	0.081
1019	0.081
1020	0.081
1020	0.081
1021	0.082
1021	0.082
1021	0.082
1022	0.083
1022	0.083
1023	0.083
1023	0.083
1023	0.084
1024	0.084
1024	0.083
1025	0.083
1025	0.083
1026	0.083
1026	0.083
1026	0.082
1027	0.082
1027	0.082
1028	0.081
1028	0.081
1028	0.081
1029	0.081
1029	0.08
1030	0.08
1030	0.08
1031	0.08
1031	0.08
1031	0.08
1032	0.08
1032	0.08
1033	0.08
1033	0.08
1033	0.08
1034	0.079
1034	0.079
1035	0.078
1035	0.078
1036	0.078
1036	0.078
1036	0.077
1037	0.077
1037	0.077
1038	0.077
1038	0.077
1039	0.077
1039	0.077
1039	0.077
1040	0.077
1040	0.077
1041	0.077
1041	0.077
1041	0.076
1042	0.076
1042	0.076
1043	0.076
1043	0.076
1044	0.076
1044	0.076
1044	0.076
1045	0.077
1045	0.077
1046	0.077
1046	0.077
1046	0.077
1047	0.077
1047	0.078
1048	0.078
1048	0.078
1049	0.078
1049	0.078
1049	0.078
1050	0.078
1050	0.077
1051	0.077
1051	0.076
1051	0.076
1052	0.075
1052	0.075
1053	0.074
1053	0.073
1053	0.072
1054	0.072
1054	0.071
1055	0.071
1055	0.07
1056	0.07
1056	0.069
1056	0.069
1057	0.068
1057	0.068
1058	0.067
1058	0.066
1058	0.066
1059	0.065
1059	0.065
1060	0.064
1060	0.063
1061	0.062
1061	0.062
1061	0.062
1062	0.062
1062	0.062
1063	0.062
1063	0.062
1063	0.061
1064	0.061
1064	0.062
1065	0.062
1065	0.062
1066	0.062
1066	0.062
1066	0.062
1067	0.061
1067	0.061
1068	0.061
1068	0.061
1068	0.06
1069	0.06
1069	0.059
1070	0.059
1070	0.058
1071	0.057
1071	0.057
1071	0.056
1072	0.056
1072	0.056
1073	0.055
1073	0.055
1073	0.054
1074	0.054
1074	0.055
1075	0.055
1075	0.055
1076	0.055
1076	0.055
1076	0.055
1077	0.055
1077	0.055
1078	0.056
1078	0.056
1078	0.056
1079	0.056
1079	0.056
1080	0.055
1080	0.056
1080	0.055
1081	0.055
1081	0.055
1082	0.056
1082	0.056
1083	0.056
1083	0.055
1083	0.055
1084	0.055
1084	0.055
1085	0.055
1085	0.055
1085	0.055
1086	0.055
1086	0.055
1087	0.055
1087	0.054
1088	0.054
1088	0.054
1088	0.054
1089	0.053
1089	0.052
1090	0.052
1090	0.051
1090	0.05
1091	0.05
1091	0.05
1092	0.05
1092	0.05
1092	0.051
1093	0.05
1093	0.051
1094	0.051
1094	0.051
1095	0.051
1095	0.05
1095	0.05
1096	0.049
1096	0.049
1097	0.048
1097	0.047
1097	0.047
1098	0.046
1098	0.045
1099	0.044
1099	0.042
1100	0.041
1100	0.039
1100	0.038
1101	0.037
1101	0.036
1102	0.035
1102	0.034
1102	0.032
1103	0.031
1103	0.03
1104	0.03
1104	0.029
1104	0.029
1105	0.027
1105	0.025
1106	0.024
1106	0.023
1107	0.021
1107	0.022
1107	0.021
1108	0.02
1108	0.019
1109	0.018
1109	0.018
1109	0.018
1110	0.022
1110	0.02
1111	0.021
1111	0.022
