Data from reversibility-20sec_Absorbance__6601__000000000006601.txt Node

Date: Thu Dec 07 00:53:26 CET 2023
User: Marek
Spectrometer: MAYP115816
Trigger mode: 0
Integration Time (sec): 2.000000E-1
Scans to average: 10
Electric dark correction enabled: true
Nonlinearity correction enabled: true
Boxcar width: 5
XAxis mode: Wavelengths
Number of Pixels in Spectrum: 2068
>>>>>Begin Spectral Data<<<<<
199	-0.192
199	-0.171
200	-0.093
200	-0.04
201	-0.006
201	0.012
202	0.023
202	0.031
203	0.039
203	0.044
204	0.061
204	0.075
205	0.09
205	0.093
205	0.092
206	0.091
206	0.092
207	0.095
207	0.095
208	0.095
208	0.095
209	0.096
209	0.097
210	0.096
210	0.098
211	0.1
211	0.099
212	0.097
212	0.097
213	0.101
213	0.102
213	0.101
214	0.104
214	0.102
215	0.108
215	0.106
216	0.107
216	0.109
217	0.111
217	0.113
218	0.112
218	0.116
219	0.122
219	0.122
220	0.127
220	0.128
221	0.128
221	0.132
221	0.137
222	0.141
222	0.146
223	0.152
223	0.151
224	0.157
224	0.164
225	0.174
225	0.183
226	0.194
226	0.204
227	0.213
227	0.224
228	0.241
228	0.255
229	0.273
229	0.294
229	0.317
230	0.34
230	0.369
231	0.401
231	0.438
232	0.476
232	0.521
233	0.563
233	0.611
234	0.663
234	0.717
235	0.768
235	0.821
236	0.872
236	0.924
236	0.976
237	1.029
237	1.078
238	1.124
238	1.171
239	1.217
239	1.257
240	1.298
240	1.335
241	1.37
241	1.402
242	1.433
242	1.466
243	1.493
243	1.521
243	1.548
244	1.569
244	1.591
245	1.609
245	1.631
246	1.649
246	1.67
247	1.682
247	1.696
248	1.711
248	1.725
249	1.733
249	1.742
250	1.752
250	1.76
250	1.765
251	1.77
251	1.773
252	1.78
252	1.781
253	1.782
253	1.78
254	1.78
254	1.782
255	1.781
255	1.782
256	1.783
256	1.782
257	1.782
257	1.78
258	1.781
258	1.781
258	1.78
259	1.782
259	1.784
260	1.782
260	1.782
261	1.782
261	1.784
262	1.787
262	1.789
263	1.79
263	1.791
264	1.793
264	1.792
265	1.791
265	1.792
265	1.794
266	1.794
266	1.795
267	1.791
267	1.793
268	1.791
268	1.792
269	1.792
269	1.793
270	1.793
270	1.792
271	1.79
271	1.788
272	1.787
272	1.784
272	1.781
273	1.777
273	1.772
274	1.768
274	1.762
275	1.756
275	1.751
276	1.744
276	1.738
277	1.729
277	1.721
278	1.711
278	1.7
278	1.687
279	1.673
279	1.657
280	1.636
280	1.611
281	1.581
281	1.547
282	1.512
282	1.475
283	1.438
283	1.401
284	1.364
284	1.327
285	1.292
285	1.261
285	1.232
286	1.206
286	1.183
287	1.163
287	1.146
288	1.131
288	1.118
289	1.107
289	1.097
290	1.088
290	1.081
291	1.074
291	1.068
292	1.063
292	1.057
292	1.052
293	1.048
293	1.044
294	1.04
294	1.036
295	1.033
295	1.029
296	1.026
296	1.022
297	1.019
297	1.016
298	1.012
298	1.009
298	1.006
299	1.003
299	0.999
300	0.996
300	0.993
301	0.991
301	0.987
302	0.985
302	0.982
303	0.979
303	0.977
304	0.974
304	0.971
305	0.968
305	0.966
305	0.963
306	0.96
306	0.958
307	0.955
307	0.952
308	0.949
308	0.947
309	0.943
309	0.94
310	0.937
310	0.934
311	0.931
311	0.927
311	0.924
312	0.92
312	0.916
313	0.912
313	0.908
314	0.905
314	0.9
315	0.896
315	0.892
316	0.887
316	0.883
317	0.877
317	0.873
318	0.868
318	0.863
318	0.857
319	0.851
319	0.846
320	0.841
320	0.835
321	0.829
321	0.823
322	0.817
322	0.81
323	0.804
323	0.797
324	0.79
324	0.784
324	0.777
325	0.77
325	0.764
326	0.756
326	0.75
327	0.743
327	0.736
328	0.729
328	0.722
329	0.715
329	0.708
330	0.701
330	0.694
330	0.687
331	0.679
331	0.672
332	0.665
332	0.658
333	0.651
333	0.644
334	0.637
334	0.63
335	0.624
335	0.617
336	0.61
336	0.604
336	0.597
337	0.591
337	0.585
338	0.579
338	0.572
339	0.566
339	0.56
340	0.555
340	0.549
341	0.543
341	0.538
342	0.532
342	0.527
342	0.521
343	0.516
343	0.511
344	0.506
344	0.501
345	0.496
345	0.491
346	0.487
346	0.482
347	0.478
347	0.473
348	0.469
348	0.465
348	0.461
349	0.457
349	0.453
350	0.45
350	0.446
351	0.443
351	0.44
352	0.436
352	0.433
353	0.43
353	0.427
354	0.424
354	0.421
354	0.419
355	0.415
355	0.412
356	0.409
356	0.406
357	0.403
357	0.4
358	0.397
358	0.394
359	0.392
359	0.389
360	0.387
360	0.385
360	0.383
361	0.381
361	0.38
362	0.378
362	0.377
363	0.375
363	0.373
364	0.371
364	0.369
365	0.367
365	0.365
366	0.363
366	0.361
366	0.36
367	0.358
367	0.356
368	0.354
368	0.352
369	0.351
369	0.349
370	0.348
370	0.346
371	0.345
371	0.344
372	0.342
372	0.341
372	0.34
373	0.339
373	0.338
374	0.337
374	0.336
375	0.335
375	0.334
376	0.333
376	0.332
377	0.331
377	0.329
378	0.328
378	0.327
378	0.326
379	0.326
379	0.325
380	0.324
380	0.323
381	0.322
381	0.321
382	0.321
382	0.32
383	0.32
383	0.319
383	0.318
384	0.317
384	0.317
385	0.316
385	0.315
386	0.315
386	0.314
387	0.313
387	0.313
388	0.312
388	0.311
389	0.311
389	0.31
389	0.31
390	0.309
390	0.309
391	0.308
391	0.308
392	0.308
392	0.307
393	0.307
393	0.307
394	0.306
394	0.306
394	0.305
395	0.305
395	0.304
396	0.304
396	0.303
397	0.303
397	0.302
398	0.302
398	0.301
399	0.301
399	0.3
400	0.3
400	0.299
400	0.299
401	0.299
401	0.298
402	0.298
402	0.298
403	0.297
403	0.296
404	0.296
404	0.296
405	0.296
405	0.295
405	0.295
406	0.294
406	0.294
407	0.294
407	0.293
408	0.293
408	0.293
409	0.292
409	0.292
410	0.292
410	0.291
411	0.291
411	0.291
411	0.291
412	0.29
412	0.29
413	0.289
413	0.289
414	0.289
414	0.288
415	0.288
415	0.288
416	0.287
416	0.287
416	0.286
417	0.286
417	0.286
418	0.285
418	0.285
419	0.284
419	0.284
420	0.283
420	0.283
421	0.283
421	0.282
421	0.282
422	0.281
422	0.281
423	0.281
423	0.28
424	0.28
424	0.28
425	0.28
425	0.279
426	0.279
426	0.279
427	0.279
427	0.278
427	0.278
428	0.278
428	0.277
429	0.277
429	0.276
430	0.276
430	0.276
431	0.276
431	0.276
432	0.276
432	0.276
432	0.275
433	0.275
433	0.275
434	0.275
434	0.275
435	0.275
435	0.275
436	0.274
436	0.274
437	0.274
437	0.273
437	0.273
438	0.273
438	0.273
439	0.273
439	0.272
440	0.272
440	0.272
441	0.271
441	0.271
442	0.271
442	0.271
442	0.271
443	0.27
443	0.27
444	0.27
444	0.27
445	0.27
445	0.27
446	0.27
446	0.27
447	0.269
447	0.269
447	0.269
448	0.269
448	0.269
449	0.269
449	0.269
450	0.268
450	0.268
451	0.268
451	0.268
452	0.268
452	0.268
452	0.268
453	0.268
453	0.268
454	0.268
454	0.268
455	0.268
455	0.268
456	0.268
456	0.268
457	0.267
457	0.267
458	0.267
458	0.267
458	0.267
459	0.267
459	0.268
460	0.268
460	0.267
461	0.267
461	0.267
462	0.267
462	0.268
463	0.268
463	0.267
463	0.267
464	0.267
464	0.267
465	0.267
465	0.267
466	0.267
466	0.267
467	0.268
467	0.268
467	0.268
468	0.268
468	0.268
469	0.269
469	0.269
470	0.27
470	0.27
471	0.27
471	0.27
472	0.271
472	0.271
472	0.271
473	0.272
473	0.272
474	0.272
474	0.272
475	0.273
475	0.273
476	0.274
476	0.274
477	0.274
477	0.275
477	0.275
478	0.276
478	0.276
479	0.277
479	0.277
480	0.278
480	0.278
481	0.279
481	0.279
482	0.279
482	0.28
482	0.281
483	0.281
483	0.282
484	0.283
484	0.283
485	0.284
485	0.284
486	0.285
486	0.285
487	0.286
487	0.286
487	0.287
488	0.288
488	0.289
489	0.289
489	0.291
490	0.292
490	0.293
491	0.294
491	0.295
492	0.296
492	0.297
492	0.298
493	0.299
493	0.3
494	0.301
494	0.302
495	0.303
495	0.304
496	0.305
496	0.306
496	0.308
497	0.309
497	0.309
498	0.31
498	0.311
499	0.312
499	0.314
500	0.315
500	0.317
501	0.318
501	0.319
501	0.32
502	0.321
502	0.322
503	0.323
503	0.325
504	0.326
504	0.327
505	0.328
505	0.329
506	0.33
506	0.331
506	0.332
507	0.333
507	0.334
508	0.335
508	0.336
509	0.337
509	0.338
510	0.339
510	0.34
511	0.341
511	0.342
511	0.343
512	0.344
512	0.345
513	0.345
513	0.346
514	0.347
514	0.348
515	0.348
515	0.349
515	0.349
516	0.35
516	0.351
517	0.351
517	0.352
518	0.352
518	0.353
519	0.353
519	0.353
520	0.354
520	0.354
520	0.354
521	0.354
521	0.354
522	0.354
522	0.354
523	0.354
523	0.354
524	0.353
524	0.353
524	0.352
525	0.352
525	0.352
526	0.351
526	0.351
527	0.35
527	0.35
528	0.35
528	0.349
529	0.348
529	0.348
529	0.347
530	0.346
530	0.345
531	0.344
531	0.343
532	0.342
532	0.341
533	0.339
533	0.338
533	0.337
534	0.336
534	0.335
535	0.334
535	0.333
536	0.332
536	0.33
537	0.329
537	0.328
538	0.326
538	0.325
538	0.323
539	0.322
539	0.321
540	0.319
540	0.317
541	0.315
541	0.314
542	0.312
542	0.311
542	0.309
543	0.307
543	0.305
544	0.304
544	0.302
545	0.3
545	0.298
546	0.297
546	0.295
547	0.293
547	0.291
547	0.289
548	0.288
548	0.286
549	0.284
549	0.283
550	0.281
550	0.279
551	0.277
551	0.276
551	0.274
552	0.272
552	0.27
553	0.268
553	0.266
554	0.264
554	0.262
555	0.26
555	0.258
556	0.256
556	0.254
556	0.253
557	0.251
557	0.25
558	0.249
558	0.247
559	0.246
559	0.244
560	0.243
560	0.242
560	0.24
561	0.239
561	0.237
562	0.235
562	0.233
563	0.231
563	0.229
564	0.227
564	0.226
564	0.224
565	0.223
565	0.221
566	0.22
566	0.218
567	0.217
567	0.216
568	0.215
568	0.213
568	0.212
569	0.211
569	0.209
570	0.207
570	0.205
571	0.204
571	0.203
572	0.202
572	0.2
573	0.199
573	0.198
573	0.197
574	0.195
574	0.195
575	0.194
575	0.193
576	0.192
576	0.191
577	0.189
577	0.188
577	0.187
578	0.186
578	0.185
579	0.184
579	0.184
580	0.182
580	0.181
581	0.179
581	0.178
581	0.178
582	0.178
582	0.177
583	0.176
583	0.176
584	0.174
584	0.172
585	0.172
585	0.171
585	0.17
586	0.169
586	0.168
587	0.167
587	0.166
588	0.165
588	0.164
589	0.163
589	0.163
590	0.162
590	0.162
590	0.162
591	0.161
591	0.16
592	0.159
592	0.158
593	0.157
593	0.156
594	0.156
594	0.154
594	0.153
595	0.153
595	0.152
596	0.151
596	0.151
597	0.151
597	0.151
598	0.151
598	0.15
598	0.15
599	0.149
599	0.149
600	0.148
600	0.147
601	0.147
601	0.146
602	0.145
602	0.144
602	0.143
603	0.142
603	0.142
604	0.142
604	0.141
605	0.141
605	0.14
606	0.14
606	0.139
606	0.138
607	0.138
607	0.137
608	0.137
608	0.136
609	0.136
609	0.135
610	0.135
610	0.134
610	0.134
611	0.134
611	0.133
612	0.133
612	0.133
613	0.133
613	0.132
614	0.132
614	0.131
614	0.131
615	0.131
615	0.131
616	0.13
616	0.13
617	0.13
617	0.129
618	0.129
618	0.129
618	0.129
619	0.129
619	0.129
620	0.129
620	0.128
621	0.128
621	0.127
622	0.126
622	0.126
622	0.125
623	0.124
623	0.124
624	0.123
624	0.123
625	0.122
625	0.122
626	0.121
626	0.121
626	0.122
627	0.121
627	0.121
628	0.121
628	0.121
629	0.12
629	0.12
630	0.12
630	0.119
630	0.119
631	0.119
631	0.118
632	0.117
632	0.117
633	0.117
633	0.116
634	0.117
634	0.117
634	0.116
635	0.116
635	0.116
636	0.115
636	0.115
637	0.115
637	0.115
638	0.114
638	0.114
638	0.113
639	0.113
639	0.113
640	0.113
640	0.113
641	0.112
641	0.112
642	0.111
642	0.111
642	0.111
643	0.111
643	0.111
644	0.111
644	0.111
645	0.111
645	0.111
646	0.111
646	0.111
646	0.111
647	0.111
647	0.11
648	0.11
648	0.109
649	0.109
649	0.108
650	0.108
650	0.108
650	0.108
651	0.108
651	0.107
652	0.107
652	0.107
653	0.108
653	0.109
653	0.115
654	0.092
654	0.075
655	0.073
655	0.073
656	0.073
656	0.073
657	0.074
657	0.074
657	0.074
658	0.073
658	0.065
659	0.081
659	0.102
660	0.108
660	0.108
661	0.107
661	0.107
661	0.107
662	0.106
662	0.106
663	0.106
663	0.105
664	0.105
664	0.105
665	0.105
665	0.105
665	0.104
666	0.104
666	0.104
667	0.104
667	0.105
668	0.105
668	0.105
669	0.105
669	0.106
669	0.106
670	0.106
670	0.106
671	0.106
671	0.105
672	0.105
672	0.104
672	0.103
673	0.103
673	0.102
674	0.101
674	0.1
675	0.1
675	0.099
676	0.1
676	0.1
676	0.099
677	0.1
677	0.1
678	0.1
678	0.099
679	0.099
679	0.099
680	0.099
680	0.099
680	0.099
681	0.099
681	0.099
682	0.099
682	0.099
683	0.099
683	0.1
684	0.1
684	0.1
684	0.1
685	0.1
685	0.1
686	0.1
686	0.1
687	0.1
687	0.1
687	0.1
688	0.1
688	0.099
689	0.1
689	0.1
690	0.099
690	0.099
691	0.099
691	0.099
691	0.098
692	0.098
692	0.098
693	0.098
693	0.099
694	0.098
694	0.098
695	0.099
695	0.1
695	0.1
696	0.1
696	0.1
697	0.1
697	0.099
698	0.099
698	0.099
698	0.099
699	0.099
699	0.098
700	0.098
700	0.098
701	0.098
701	0.098
702	0.098
702	0.097
702	0.097
703	0.097
703	0.096
704	0.096
704	0.096
705	0.096
705	0.095
705	0.095
706	0.095
706	0.095
707	0.095
707	0.095
708	0.095
708	0.095
709	0.095
709	0.095
709	0.095
710	0.095
710	0.095
711	0.096
711	0.096
712	0.096
712	0.096
713	0.096
713	0.097
713	0.097
714	0.097
714	0.097
715	0.097
715	0.096
716	0.095
716	0.095
716	0.094
717	0.094
717	0.093
718	0.093
718	0.092
719	0.092
719	0.093
720	0.093
720	0.093
720	0.094
721	0.094
721	0.095
722	0.095
722	0.096
723	0.096
723	0.096
723	0.096
724	0.096
724	0.096
725	0.095
725	0.094
726	0.093
726	0.093
727	0.092
727	0.091
727	0.091
728	0.09
728	0.09
729	0.091
729	0.091
730	0.091
730	0.091
730	0.092
731	0.092
731	0.093
732	0.094
732	0.094
733	0.094
733	0.094
734	0.094
734	0.095
734	0.095
735	0.095
735	0.094
736	0.094
736	0.094
737	0.093
737	0.093
737	0.093
738	0.092
738	0.092
739	0.091
739	0.091
740	0.09
740	0.09
741	0.09
741	0.09
741	0.09
742	0.09
742	0.09
743	0.091
743	0.091
744	0.092
744	0.093
744	0.093
745	0.093
745	0.093
746	0.093
746	0.093
747	0.093
747	0.092
748	0.092
748	0.092
748	0.092
749	0.091
749	0.092
750	0.092
750	0.092
751	0.092
751	0.092
751	0.092
752	0.092
752	0.091
753	0.091
753	0.09
754	0.09
754	0.089
754	0.088
755	0.088
755	0.088
756	0.087
756	0.085
757	0.085
757	0.085
758	0.085
758	0.085
758	0.085
759	0.086
759	0.085
760	0.085
760	0.085
761	0.085
761	0.086
761	0.086
762	0.086
762	0.086
763	0.086
763	0.085
764	0.085
764	0.085
764	0.085
765	0.084
765	0.084
766	0.083
766	0.083
767	0.082
767	0.081
768	0.08
768	0.08
768	0.08
769	0.08
769	0.08
770	0.081
770	0.081
771	0.082
771	0.082
771	0.083
772	0.084
772	0.085
773	0.085
773	0.086
774	0.086
774	0.086
775	0.086
775	0.087
775	0.086
776	0.086
776	0.086
777	0.086
777	0.086
778	0.086
778	0.086
778	0.085
779	0.085
779	0.085
780	0.084
780	0.083
781	0.082
781	0.082
781	0.081
782	0.081
782	0.08
783	0.081
783	0.081
784	0.081
784	0.081
784	0.081
785	0.081
785	0.081
786	0.081
786	0.081
787	0.08
787	0.08
788	0.079
788	0.078
788	0.078
789	0.077
789	0.077
790	0.077
790	0.076
791	0.076
791	0.076
791	0.076
792	0.076
792	0.076
793	0.076
793	0.076
794	0.075
794	0.075
794	0.075
795	0.075
795	0.075
796	0.075
796	0.075
797	0.075
797	0.075
797	0.075
798	0.076
798	0.076
799	0.076
799	0.076
800	0.075
800	0.075
801	0.075
801	0.075
801	0.075
802	0.075
802	0.075
803	0.076
803	0.076
804	0.076
804	0.077
804	0.077
805	0.076
805	0.076
806	0.076
806	0.075
807	0.075
807	0.074
807	0.074
808	0.073
808	0.073
809	0.073
809	0.073
810	0.073
810	0.073
810	0.073
811	0.073
811	0.074
812	0.075
812	0.075
813	0.075
813	0.075
813	0.075
814	0.076
814	0.076
815	0.076
815	0.076
816	0.076
816	0.075
817	0.074
817	0.074
817	0.073
818	0.072
818	0.072
819	0.071
819	0.07
820	0.069
820	0.069
820	0.069
821	0.069
821	0.069
822	0.069
822	0.069
823	0.069
823	0.069
823	0.07
824	0.071
824	0.072
825	0.073
825	0.073
826	0.074
826	0.074
826	0.074
827	0.075
827	0.075
828	0.075
828	0.075
829	0.075
829	0.075
829	0.075
830	0.075
830	0.075
831	0.076
831	0.076
832	0.076
832	0.076
832	0.076
833	0.076
833	0.076
834	0.075
834	0.075
835	0.074
835	0.074
835	0.073
836	0.073
836	0.073
837	0.073
837	0.072
838	0.072
838	0.072
839	0.071
839	0.07
839	0.07
840	0.069
840	0.068
841	0.067
841	0.066
842	0.065
842	0.064
842	0.063
843	0.062
843	0.061
844	0.06
844	0.06
845	0.059
845	0.059
845	0.059
846	0.058
846	0.058
847	0.058
847	0.059
848	0.059
848	0.06
848	0.061
849	0.061
849	0.062
850	0.062
850	0.062
851	0.062
851	0.062
851	0.062
852	0.061
852	0.061
853	0.06
853	0.059
854	0.059
854	0.059
854	0.06
855	0.06
855	0.06
856	0.061
856	0.061
857	0.062
857	0.063
857	0.064
858	0.065
858	0.065
859	0.065
859	0.065
860	0.065
860	0.065
860	0.064
861	0.064
861	0.063
862	0.062
862	0.061
863	0.061
863	0.06
863	0.059
864	0.059
864	0.059
865	0.059
865	0.059
866	0.059
866	0.059
866	0.059
867	0.059
867	0.06
868	0.061
868	0.061
869	0.061
869	0.061
869	0.061
870	0.061
870	0.061
871	0.061
871	0.062
872	0.062
872	0.062
872	0.061
873	0.061
873	0.061
874	0.06
874	0.06
875	0.06
875	0.059
875	0.059
876	0.058
876	0.058
877	0.058
877	0.057
878	0.058
878	0.058
878	0.059
879	0.059
879	0.059
880	0.06
880	0.06
881	0.061
881	0.061
881	0.062
882	0.062
882	0.062
883	0.062
883	0.062
884	0.062
884	0.062
884	0.062
885	0.061
885	0.061
886	0.061
886	0.06
887	0.06
887	0.059
887	0.059
888	0.058
888	0.057
889	0.056
889	0.056
890	0.056
890	0.055
890	0.055
891	0.055
891	0.054
892	0.054
892	0.054
893	0.053
893	0.053
893	0.053
894	0.053
894	0.052
895	0.052
895	0.052
895	0.052
896	0.052
896	0.053
897	0.053
897	0.053
898	0.053
898	0.053
898	0.053
899	0.053
899	0.053
900	0.052
900	0.052
901	0.052
901	0.051
901	0.051
902	0.051
902	0.051
903	0.051
903	0.051
904	0.051
904	0.051
904	0.051
905	0.051
905	0.051
906	0.051
906	0.052
907	0.052
907	0.053
907	0.053
908	0.054
908	0.054
909	0.054
909	0.054
910	0.055
910	0.055
910	0.054
911	0.054
911	0.053
912	0.053
912	0.052
913	0.051
913	0.051
913	0.051
914	0.05
914	0.05
915	0.05
915	0.05
916	0.05
916	0.05
916	0.05
917	0.05
917	0.049
918	0.049
918	0.049
918	0.049
919	0.048
919	0.048
920	0.048
920	0.048
921	0.048
921	0.048
921	0.048
922	0.048
922	0.048
923	0.048
923	0.048
924	0.048
924	0.048
924	0.048
925	0.048
925	0.048
926	0.048
926	0.049
927	0.049
927	0.049
927	0.049
928	0.049
928	0.049
929	0.05
929	0.05
930	0.05
930	0.05
930	0.051
931	0.051
931	0.051
932	0.051
932	0.051
933	0.051
933	0.051
933	0.051
934	0.05
934	0.05
935	0.05
935	0.05
935	0.049
936	0.049
936	0.048
937	0.048
937	0.048
938	0.047
938	0.047
938	0.047
939	0.047
939	0.046
940	0.046
940	0.047
941	0.047
941	0.047
941	0.048
942	0.048
942	0.048
943	0.048
943	0.048
944	0.048
944	0.048
944	0.048
945	0.049
945	0.048
946	0.048
946	0.048
946	0.048
947	0.049
947	0.049
948	0.049
948	0.049
949	0.049
949	0.049
949	0.048
950	0.048
950	0.048
951	0.048
951	0.048
952	0.047
952	0.047
952	0.047
953	0.047
953	0.046
954	0.046
954	0.046
955	0.046
955	0.046
955	0.046
956	0.046
956	0.047
957	0.047
957	0.047
957	0.048
958	0.048
958	0.048
959	0.048
959	0.049
960	0.049
960	0.049
960	0.049
961	0.049
961	0.049
962	0.049
962	0.049
963	0.049
963	0.049
963	0.049
964	0.049
964	0.049
965	0.049
965	0.049
966	0.049
966	0.049
966	0.049
967	0.048
967	0.048
968	0.048
968	0.048
968	0.047
969	0.046
969	0.045
970	0.045
970	0.044
971	0.043
971	0.043
971	0.042
972	0.042
972	0.042
973	0.041
973	0.042
974	0.042
974	0.043
974	0.043
975	0.044
975	0.045
976	0.046
976	0.047
976	0.047
977	0.048
977	0.048
978	0.048
978	0.048
979	0.048
979	0.048
979	0.047
980	0.047
980	0.047
981	0.046
981	0.046
982	0.046
982	0.046
982	0.046
983	0.046
983	0.046
984	0.046
984	0.047
984	0.047
985	0.047
985	0.047
986	0.047
986	0.047
987	0.047
987	0.047
987	0.047
988	0.047
988	0.047
989	0.047
989	0.047
990	0.047
990	0.047
990	0.047
991	0.047
991	0.047
992	0.047
992	0.046
992	0.045
993	0.045
993	0.044
994	0.043
994	0.042
995	0.041
995	0.04
995	0.04
996	0.04
996	0.04
997	0.04
997	0.04
997	0.04
998	0.041
998	0.041
999	0.042
999	0.043
1000	0.044
1000	0.044
1000	0.045
1001	0.045
1001	0.045
1002	0.045
1002	0.045
1003	0.044
1003	0.044
1003	0.043
1004	0.042
1004	0.041
1005	0.04
1005	0.039
1005	0.038
1006	0.038
1006	0.037
1007	0.036
1007	0.036
1008	0.035
1008	0.035
1008	0.035
1009	0.036
1009	0.036
1010	0.036
1010	0.036
1010	0.036
1011	0.037
1011	0.037
1012	0.037
1012	0.037
1013	0.037
1013	0.036
1013	0.036
1014	0.035
1014	0.035
1015	0.035
1015	0.035
1016	0.034
1016	0.034
1016	0.034
1017	0.034
1017	0.034
1018	0.034
1018	0.034
1018	0.034
1019	0.033
1019	0.033
1020	0.034
1020	0.034
1021	0.034
1021	0.035
1021	0.035
1022	0.035
1022	0.036
1023	0.036
1023	0.037
1023	0.037
1024	0.037
1024	0.038
1025	0.038
1025	0.038
1026	0.038
1026	0.039
1026	0.039
1027	0.039
1027	0.039
1028	0.039
1028	0.039
1028	0.039
1029	0.039
1029	0.039
1030	0.039
1030	0.039
1031	0.04
1031	0.04
1031	0.04
1032	0.04
1032	0.041
1033	0.041
1033	0.041
1033	0.041
1034	0.042
1034	0.042
1035	0.042
1035	0.042
1036	0.042
1036	0.042
1036	0.042
1037	0.042
1037	0.042
1038	0.042
1038	0.042
1039	0.042
1039	0.042
1039	0.042
1040	0.042
1040	0.042
1041	0.042
1041	0.041
1041	0.041
1042	0.041
1042	0.04
1043	0.04
1043	0.04
1044	0.039
1044	0.039
1044	0.039
1045	0.038
1045	0.038
1046	0.038
1046	0.038
1046	0.038
1047	0.038
1047	0.038
1048	0.038
1048	0.039
1049	0.039
1049	0.039
1049	0.039
1050	0.039
1050	0.039
1051	0.039
1051	0.038
1051	0.038
1052	0.038
1052	0.038
1053	0.037
1053	0.036
1053	0.036
1054	0.036
1054	0.035
1055	0.035
1055	0.035
1056	0.034
1056	0.034
1056	0.033
1057	0.032
1057	0.032
1058	0.032
1058	0.031
1058	0.031
1059	0.03
1059	0.03
1060	0.03
1060	0.029
1061	0.029
1061	0.029
1061	0.029
1062	0.029
1062	0.029
1063	0.029
1063	0.029
1063	0.029
1064	0.029
1064	0.029
1065	0.029
1065	0.029
1066	0.029
1066	0.029
1066	0.029
1067	0.029
1067	0.029
1068	0.029
1068	0.029
1068	0.029
1069	0.029
1069	0.028
1070	0.028
1070	0.028
1071	0.028
1071	0.028
1071	0.027
1072	0.027
1072	0.027
1073	0.026
1073	0.026
1073	0.026
1074	0.026
1074	0.026
1075	0.026
1075	0.026
1076	0.027
1076	0.027
1076	0.027
1077	0.028
1077	0.027
1078	0.027
1078	0.027
1078	0.027
1079	0.027
1079	0.027
1080	0.026
1080	0.025
1080	0.025
1081	0.024
1081	0.024
1082	0.025
1082	0.025
1083	0.025
1083	0.024
1083	0.024
1084	0.024
1084	0.025
1085	0.025
1085	0.025
1085	0.026
1086	0.026
1086	0.026
1087	0.026
1087	0.026
1088	0.026
1088	0.027
1088	0.027
1089	0.026
1089	0.027
1090	0.026
1090	0.025
1090	0.024
1091	0.024
1091	0.024
1092	0.024
1092	0.025
1092	0.025
1093	0.024
1093	0.025
1094	0.025
1094	0.025
1095	0.025
1095	0.026
1095	0.025
1096	0.025
1096	0.024
1097	0.023
1097	0.022
1097	0.022
1098	0.021
1098	0.02
1099	0.019
1099	0.017
1100	0.016
1100	0.015
1100	0.014
1101	0.013
1101	0.012
1102	0.012
1102	0.01
1102	0.008
1103	0.008
1103	0.007
1104	0.007
1104	0.006
1104	0.005
1105	0.004
1105	0.003
1106	0.001
1106	0.001
1107	0.001
1107	-0
1107	-0.002
1108	-0.002
1108	-0.003
1109	-0.003
1109	-0.004
1109	-0.005
1110	-0.004
1110	-0.004
1111	-0.005
1111	-0.008
