Data from reversibility-20sec_Absorbance__1965__000000000001965.txt Node

Date: Tue Dec 05 23:08:05 CET 2023
User: Marek
Spectrometer: MAYP115816
Trigger mode: 0
Integration Time (sec): 2.000000E-1
Scans to average: 10
Electric dark correction enabled: true
Nonlinearity correction enabled: true
Boxcar width: 5
XAxis mode: Wavelengths
Number of Pixels in Spectrum: 2068
>>>>>Begin Spectral Data<<<<<
199	-0.249
199	-0.206
200	-0.134
200	-0.078
201	-0.047
201	-0.028
202	-0.014
202	-0.003
203	0.005
203	0.009
204	0.023
204	0.04
205	0.05
205	0.057
205	0.056
206	0.056
206	0.055
207	0.058
207	0.055
208	0.054
208	0.052
209	0.055
209	0.052
210	0.052
210	0.052
211	0.051
211	0.053
212	0.052
212	0.054
213	0.059
213	0.062
213	0.063
214	0.067
214	0.068
215	0.071
215	0.071
216	0.075
216	0.073
217	0.076
217	0.077
218	0.076
218	0.079
219	0.084
219	0.083
220	0.088
220	0.089
221	0.092
221	0.093
221	0.099
222	0.104
222	0.106
223	0.112
223	0.115
224	0.12
224	0.129
225	0.136
225	0.144
226	0.152
226	0.162
227	0.174
227	0.185
228	0.2
228	0.216
229	0.233
229	0.255
229	0.278
230	0.302
230	0.333
231	0.366
231	0.405
232	0.441
232	0.484
233	0.529
233	0.578
234	0.63
234	0.684
235	0.735
235	0.79
236	0.844
236	0.896
236	0.949
237	1.004
237	1.056
238	1.105
238	1.152
239	1.202
239	1.246
240	1.291
240	1.332
241	1.371
241	1.411
242	1.445
242	1.481
243	1.514
243	1.544
243	1.575
244	1.599
244	1.626
245	1.646
245	1.67
246	1.691
246	1.712
247	1.728
247	1.745
248	1.765
248	1.782
249	1.797
249	1.808
250	1.817
250	1.833
250	1.84
251	1.85
251	1.855
252	1.866
252	1.868
253	1.871
253	1.872
254	1.874
254	1.88
255	1.88
255	1.882
256	1.886
256	1.886
257	1.89
257	1.89
258	1.892
258	1.894
258	1.896
259	1.896
259	1.896
260	1.899
260	1.902
261	1.903
261	1.908
262	1.913
262	1.914
263	1.92
263	1.921
264	1.923
264	1.927
265	1.93
265	1.931
265	1.932
266	1.935
266	1.936
267	1.934
267	1.939
268	1.939
268	1.942
269	1.947
269	1.946
270	1.946
270	1.947
271	1.946
271	1.946
272	1.943
272	1.944
272	1.94
273	1.935
273	1.929
274	1.924
274	1.919
275	1.912
275	1.906
276	1.899
276	1.892
277	1.885
277	1.874
278	1.863
278	1.853
278	1.839
279	1.824
279	1.804
280	1.78
280	1.751
281	1.716
281	1.678
282	1.638
282	1.597
283	1.557
283	1.516
284	1.476
284	1.437
285	1.401
285	1.368
285	1.338
286	1.311
286	1.287
287	1.266
287	1.248
288	1.233
288	1.219
289	1.208
289	1.198
290	1.189
290	1.181
291	1.174
291	1.168
292	1.163
292	1.158
292	1.153
293	1.149
293	1.145
294	1.141
294	1.137
295	1.134
295	1.131
296	1.128
296	1.124
297	1.121
297	1.118
298	1.115
298	1.112
298	1.109
299	1.106
299	1.103
300	1.1
300	1.097
301	1.094
301	1.091
302	1.088
302	1.086
303	1.083
303	1.081
304	1.078
304	1.075
305	1.072
305	1.07
305	1.067
306	1.064
306	1.061
307	1.059
307	1.056
308	1.053
308	1.05
309	1.047
309	1.044
310	1.041
310	1.038
311	1.035
311	1.031
311	1.027
312	1.023
312	1.02
313	1.016
313	1.011
314	1.007
314	1.002
315	0.998
315	0.993
316	0.988
316	0.984
317	0.979
317	0.974
318	0.969
318	0.963
318	0.958
319	0.953
319	0.947
320	0.941
320	0.935
321	0.929
321	0.923
322	0.916
322	0.91
323	0.903
323	0.897
324	0.89
324	0.884
324	0.877
325	0.87
325	0.863
326	0.856
326	0.849
327	0.842
327	0.835
328	0.828
328	0.821
329	0.813
329	0.806
330	0.798
330	0.791
330	0.784
331	0.777
331	0.769
332	0.762
332	0.755
333	0.748
333	0.741
334	0.734
334	0.727
335	0.72
335	0.713
336	0.707
336	0.7
336	0.694
337	0.687
337	0.68
338	0.674
338	0.668
339	0.662
339	0.656
340	0.65
340	0.644
341	0.638
341	0.632
342	0.627
342	0.621
342	0.616
343	0.611
343	0.606
344	0.6
344	0.595
345	0.591
345	0.586
346	0.581
346	0.576
347	0.572
347	0.568
348	0.563
348	0.559
348	0.555
349	0.552
349	0.548
350	0.544
350	0.54
351	0.537
351	0.533
352	0.53
352	0.526
353	0.523
353	0.52
354	0.517
354	0.514
354	0.51
355	0.507
355	0.504
356	0.501
356	0.498
357	0.495
357	0.492
358	0.489
358	0.486
359	0.483
359	0.481
360	0.479
360	0.476
360	0.474
361	0.472
361	0.47
362	0.469
362	0.467
363	0.465
363	0.463
364	0.461
364	0.459
365	0.457
365	0.455
366	0.453
366	0.451
366	0.449
367	0.447
367	0.445
368	0.443
368	0.441
369	0.44
369	0.438
370	0.436
370	0.435
371	0.433
371	0.431
372	0.43
372	0.429
372	0.427
373	0.426
373	0.425
374	0.423
374	0.422
375	0.421
375	0.42
376	0.418
376	0.417
377	0.416
377	0.415
378	0.414
378	0.412
378	0.411
379	0.41
379	0.409
380	0.408
380	0.407
381	0.406
381	0.405
382	0.404
382	0.404
383	0.403
383	0.402
383	0.401
384	0.4
384	0.399
385	0.398
385	0.397
386	0.397
386	0.396
387	0.395
387	0.394
388	0.393
388	0.393
389	0.392
389	0.392
389	0.391
390	0.39
390	0.39
391	0.389
391	0.389
392	0.388
392	0.387
393	0.387
393	0.386
394	0.385
394	0.385
394	0.384
395	0.383
395	0.383
396	0.382
396	0.381
397	0.38
397	0.38
398	0.379
398	0.379
399	0.378
399	0.377
400	0.377
400	0.376
400	0.376
401	0.375
401	0.375
402	0.375
402	0.374
403	0.373
403	0.373
404	0.373
404	0.372
405	0.372
405	0.371
405	0.37
406	0.37
406	0.369
407	0.369
407	0.368
408	0.368
408	0.367
409	0.367
409	0.366
410	0.366
410	0.366
411	0.365
411	0.365
411	0.365
412	0.365
412	0.364
413	0.364
413	0.363
414	0.363
414	0.363
415	0.362
415	0.361
416	0.361
416	0.36
416	0.36
417	0.359
417	0.359
418	0.359
418	0.358
419	0.358
419	0.357
420	0.357
420	0.356
421	0.356
421	0.356
421	0.355
422	0.355
422	0.355
423	0.354
423	0.354
424	0.353
424	0.353
425	0.353
425	0.352
426	0.352
426	0.351
427	0.351
427	0.351
427	0.351
428	0.35
428	0.35
429	0.35
429	0.349
430	0.349
430	0.349
431	0.349
431	0.348
432	0.348
432	0.348
432	0.347
433	0.347
433	0.346
434	0.346
434	0.346
435	0.346
435	0.346
436	0.345
436	0.345
437	0.345
437	0.345
437	0.345
438	0.345
438	0.345
439	0.345
439	0.344
440	0.344
440	0.344
441	0.344
441	0.344
442	0.343
442	0.343
442	0.343
443	0.343
443	0.343
444	0.343
444	0.343
445	0.343
445	0.343
446	0.343
446	0.342
447	0.342
447	0.342
447	0.342
448	0.342
448	0.342
449	0.341
449	0.342
450	0.342
450	0.342
451	0.341
451	0.341
452	0.341
452	0.341
452	0.341
453	0.341
453	0.341
454	0.341
454	0.341
455	0.341
455	0.341
456	0.34
456	0.34
457	0.34
457	0.34
458	0.34
458	0.341
458	0.341
459	0.341
459	0.341
460	0.341
460	0.341
461	0.341
461	0.341
462	0.341
462	0.341
463	0.341
463	0.341
463	0.341
464	0.341
464	0.341
465	0.341
465	0.341
466	0.341
466	0.342
467	0.342
467	0.342
467	0.342
468	0.343
468	0.343
469	0.343
469	0.344
470	0.344
470	0.345
471	0.345
471	0.345
472	0.346
472	0.346
472	0.347
473	0.347
473	0.348
474	0.348
474	0.349
475	0.349
475	0.35
476	0.35
476	0.351
477	0.351
477	0.352
477	0.352
478	0.353
478	0.354
479	0.354
479	0.355
480	0.356
480	0.356
481	0.357
481	0.358
482	0.358
482	0.359
482	0.36
483	0.361
483	0.363
484	0.364
484	0.364
485	0.365
485	0.366
486	0.366
486	0.367
487	0.368
487	0.369
487	0.37
488	0.371
488	0.372
489	0.373
489	0.375
490	0.376
490	0.378
491	0.379
491	0.381
492	0.382
492	0.384
492	0.385
493	0.386
493	0.388
494	0.39
494	0.391
495	0.392
495	0.394
496	0.395
496	0.397
496	0.398
497	0.399
497	0.401
498	0.402
498	0.403
499	0.405
499	0.406
500	0.408
500	0.41
501	0.411
501	0.412
501	0.414
502	0.415
502	0.417
503	0.418
503	0.419
504	0.421
504	0.422
505	0.424
505	0.425
506	0.426
506	0.427
506	0.429
507	0.431
507	0.432
508	0.434
508	0.435
509	0.436
509	0.438
510	0.439
510	0.441
511	0.442
511	0.444
511	0.445
512	0.446
512	0.447
513	0.448
513	0.449
514	0.45
514	0.451
515	0.452
515	0.452
515	0.453
516	0.454
516	0.455
517	0.456
517	0.456
518	0.457
518	0.458
519	0.458
519	0.458
520	0.458
520	0.458
520	0.458
521	0.458
521	0.457
522	0.457
522	0.457
523	0.457
523	0.456
524	0.456
524	0.456
524	0.455
525	0.455
525	0.454
526	0.454
526	0.453
527	0.453
527	0.452
528	0.451
528	0.45
529	0.449
529	0.448
529	0.446
530	0.445
530	0.444
531	0.442
531	0.441
532	0.44
532	0.438
533	0.437
533	0.435
533	0.434
534	0.433
534	0.431
535	0.429
535	0.428
536	0.426
536	0.424
537	0.422
537	0.42
538	0.418
538	0.416
538	0.413
539	0.411
539	0.41
540	0.408
540	0.406
541	0.403
541	0.401
542	0.399
542	0.396
542	0.394
543	0.392
543	0.389
544	0.387
544	0.384
545	0.382
545	0.379
546	0.377
546	0.374
547	0.372
547	0.369
547	0.367
548	0.364
548	0.362
549	0.359
549	0.357
550	0.355
550	0.352
551	0.349
551	0.346
551	0.344
552	0.342
552	0.339
553	0.337
553	0.334
554	0.332
554	0.329
555	0.327
555	0.324
556	0.322
556	0.319
556	0.317
557	0.315
557	0.313
558	0.311
558	0.309
559	0.307
559	0.305
560	0.302
560	0.3
560	0.298
561	0.296
561	0.294
562	0.292
562	0.289
563	0.287
563	0.285
564	0.282
564	0.28
564	0.279
565	0.277
565	0.275
566	0.273
566	0.271
567	0.269
567	0.268
568	0.266
568	0.264
568	0.262
569	0.261
569	0.259
570	0.257
570	0.255
571	0.254
571	0.252
572	0.25
572	0.248
573	0.246
573	0.244
573	0.243
574	0.241
574	0.239
575	0.238
575	0.237
576	0.235
576	0.233
577	0.231
577	0.23
577	0.229
578	0.228
578	0.226
579	0.225
579	0.224
580	0.222
580	0.22
581	0.219
581	0.217
581	0.217
582	0.216
582	0.215
583	0.214
583	0.213
584	0.211
584	0.208
585	0.207
585	0.206
585	0.205
586	0.204
586	0.202
587	0.201
587	0.199
588	0.198
588	0.197
589	0.196
589	0.195
590	0.194
590	0.193
590	0.193
591	0.193
591	0.191
592	0.19
592	0.189
593	0.188
593	0.188
594	0.187
594	0.185
594	0.184
595	0.183
595	0.182
596	0.181
596	0.18
597	0.18
597	0.18
598	0.179
598	0.178
598	0.177
599	0.177
599	0.176
600	0.175
600	0.174
601	0.173
601	0.173
602	0.172
602	0.171
602	0.17
603	0.169
603	0.169
604	0.168
604	0.168
605	0.167
605	0.167
606	0.166
606	0.165
606	0.164
607	0.164
607	0.163
608	0.162
608	0.161
609	0.16
609	0.16
610	0.159
610	0.158
610	0.158
611	0.157
611	0.157
612	0.156
612	0.156
613	0.156
613	0.156
614	0.155
614	0.154
614	0.154
615	0.153
615	0.152
616	0.152
616	0.151
617	0.151
617	0.151
618	0.15
618	0.15
618	0.15
619	0.15
619	0.15
620	0.15
620	0.149
621	0.148
621	0.148
622	0.147
622	0.146
622	0.145
623	0.144
623	0.143
624	0.143
624	0.142
625	0.141
625	0.141
626	0.141
626	0.14
626	0.14
627	0.14
627	0.139
628	0.139
628	0.139
629	0.138
629	0.137
630	0.137
630	0.136
630	0.136
631	0.136
631	0.135
632	0.135
632	0.135
633	0.134
633	0.134
634	0.134
634	0.134
634	0.134
635	0.133
635	0.132
636	0.132
636	0.132
637	0.131
637	0.131
638	0.13
638	0.13
638	0.129
639	0.129
639	0.128
640	0.128
640	0.128
641	0.128
641	0.127
642	0.127
642	0.127
642	0.127
643	0.126
643	0.126
644	0.126
644	0.126
645	0.126
645	0.126
646	0.125
646	0.125
646	0.125
647	0.125
647	0.124
648	0.123
648	0.122
649	0.122
649	0.122
650	0.122
650	0.121
650	0.121
651	0.121
651	0.121
652	0.121
652	0.121
653	0.122
653	0.123
653	0.13
654	0.104
654	0.084
655	0.082
655	0.082
656	0.082
656	0.082
657	0.083
657	0.083
657	0.082
658	0.081
658	0.072
659	0.09
659	0.114
660	0.119
660	0.119
661	0.119
661	0.118
661	0.118
662	0.117
662	0.116
663	0.116
663	0.115
664	0.114
664	0.113
665	0.113
665	0.112
665	0.113
666	0.113
666	0.112
667	0.112
667	0.113
668	0.113
668	0.113
669	0.113
669	0.113
669	0.113
670	0.114
670	0.113
671	0.113
671	0.112
672	0.112
672	0.111
672	0.11
673	0.11
673	0.11
674	0.11
674	0.109
675	0.109
675	0.109
676	0.109
676	0.109
676	0.109
677	0.108
677	0.108
678	0.108
678	0.107
679	0.107
679	0.107
680	0.107
680	0.107
680	0.106
681	0.107
681	0.107
682	0.107
682	0.108
683	0.108
683	0.109
684	0.109
684	0.109
684	0.109
685	0.109
685	0.109
686	0.109
686	0.108
687	0.108
687	0.107
687	0.106
688	0.106
688	0.105
689	0.105
689	0.105
690	0.105
690	0.104
691	0.104
691	0.104
691	0.105
692	0.105
692	0.105
693	0.105
693	0.106
694	0.105
694	0.105
695	0.106
695	0.106
695	0.106
696	0.106
696	0.105
697	0.105
697	0.105
698	0.104
698	0.104
698	0.104
699	0.104
699	0.103
700	0.103
700	0.103
701	0.104
701	0.104
702	0.104
702	0.104
702	0.104
703	0.104
703	0.103
704	0.103
704	0.103
705	0.102
705	0.102
705	0.101
706	0.101
706	0.1
707	0.1
707	0.1
708	0.1
708	0.1
709	0.1
709	0.099
709	0.098
710	0.098
710	0.097
711	0.097
711	0.097
712	0.096
712	0.096
713	0.095
713	0.095
713	0.095
714	0.095
714	0.095
715	0.095
715	0.095
716	0.095
716	0.094
716	0.094
717	0.093
717	0.093
718	0.092
718	0.092
719	0.092
719	0.092
720	0.092
720	0.092
720	0.093
721	0.093
721	0.094
722	0.094
722	0.094
723	0.094
723	0.094
723	0.094
724	0.094
724	0.093
725	0.092
725	0.091
726	0.091
726	0.09
727	0.09
727	0.089
727	0.089
728	0.089
728	0.088
729	0.088
729	0.088
730	0.088
730	0.088
730	0.089
731	0.089
731	0.089
732	0.09
732	0.09
733	0.09
733	0.09
734	0.09
734	0.09
734	0.09
735	0.09
735	0.089
736	0.089
736	0.088
737	0.088
737	0.088
737	0.087
738	0.086
738	0.085
739	0.085
739	0.084
740	0.084
740	0.083
741	0.083
741	0.083
741	0.082
742	0.082
742	0.082
743	0.082
743	0.083
744	0.083
744	0.083
744	0.084
745	0.084
745	0.084
746	0.084
746	0.084
747	0.084
747	0.084
748	0.084
748	0.084
748	0.084
749	0.084
749	0.084
750	0.084
750	0.084
751	0.083
751	0.083
751	0.083
752	0.082
752	0.082
753	0.081
753	0.081
754	0.081
754	0.08
754	0.08
755	0.08
755	0.08
756	0.079
756	0.078
757	0.078
757	0.077
758	0.077
758	0.077
758	0.077
759	0.077
759	0.076
760	0.076
760	0.076
761	0.076
761	0.076
761	0.077
762	0.077
762	0.077
763	0.077
763	0.077
764	0.077
764	0.077
764	0.076
765	0.076
765	0.076
766	0.076
766	0.076
767	0.075
767	0.074
768	0.074
768	0.073
768	0.073
769	0.073
769	0.073
770	0.072
770	0.072
771	0.072
771	0.072
771	0.072
772	0.072
772	0.072
773	0.072
773	0.072
774	0.072
774	0.072
775	0.072
775	0.072
775	0.072
776	0.072
776	0.072
777	0.072
777	0.072
778	0.072
778	0.071
778	0.071
779	0.071
779	0.071
780	0.07
780	0.07
781	0.07
781	0.07
781	0.069
782	0.069
782	0.069
783	0.069
783	0.07
784	0.069
784	0.069
784	0.069
785	0.069
785	0.069
786	0.069
786	0.069
787	0.069
787	0.069
788	0.069
788	0.068
788	0.068
789	0.068
789	0.068
790	0.068
790	0.068
791	0.068
791	0.068
791	0.068
792	0.069
792	0.069
793	0.068
793	0.068
794	0.068
794	0.068
794	0.068
795	0.068
795	0.068
796	0.068
796	0.068
797	0.068
797	0.068
797	0.068
798	0.067
798	0.067
799	0.066
799	0.066
800	0.065
800	0.064
801	0.064
801	0.064
801	0.063
802	0.063
802	0.063
803	0.064
803	0.064
804	0.065
804	0.065
804	0.065
805	0.065
805	0.065
806	0.065
806	0.065
807	0.065
807	0.064
807	0.063
808	0.063
808	0.062
809	0.062
809	0.061
810	0.061
810	0.061
810	0.061
811	0.061
811	0.061
812	0.062
812	0.062
813	0.062
813	0.063
813	0.063
814	0.064
814	0.064
815	0.065
815	0.065
816	0.064
816	0.064
817	0.064
817	0.064
817	0.063
818	0.063
818	0.063
819	0.062
819	0.062
820	0.061
820	0.061
820	0.061
821	0.061
821	0.061
822	0.061
822	0.061
823	0.061
823	0.06
823	0.061
824	0.061
824	0.062
825	0.062
825	0.062
826	0.061
826	0.061
826	0.06
827	0.06
827	0.06
828	0.06
828	0.059
829	0.059
829	0.059
829	0.059
830	0.059
830	0.059
831	0.06
831	0.06
832	0.06
832	0.06
832	0.061
833	0.061
833	0.061
834	0.061
834	0.061
835	0.061
835	0.061
835	0.061
836	0.062
836	0.063
837	0.063
837	0.063
838	0.063
838	0.063
839	0.062
839	0.061
839	0.061
840	0.06
840	0.058
841	0.057
841	0.056
842	0.055
842	0.055
842	0.054
843	0.054
843	0.053
844	0.053
844	0.053
845	0.053
845	0.053
845	0.053
846	0.053
846	0.052
847	0.052
847	0.053
848	0.053
848	0.054
848	0.054
849	0.055
849	0.055
850	0.056
850	0.056
851	0.056
851	0.056
851	0.056
852	0.055
852	0.055
853	0.054
853	0.053
854	0.053
854	0.053
854	0.053
855	0.053
855	0.053
856	0.053
856	0.054
857	0.055
857	0.055
857	0.056
858	0.056
858	0.056
859	0.055
859	0.055
860	0.054
860	0.053
860	0.052
861	0.051
861	0.05
862	0.049
862	0.048
863	0.047
863	0.047
863	0.047
864	0.047
864	0.048
865	0.048
865	0.048
866	0.048
866	0.048
866	0.048
867	0.048
867	0.048
868	0.048
868	0.048
869	0.048
869	0.047
869	0.047
870	0.047
870	0.047
871	0.048
871	0.048
872	0.049
872	0.05
872	0.05
873	0.05
873	0.05
874	0.05
874	0.05
875	0.05
875	0.05
875	0.05
876	0.05
876	0.05
877	0.049
877	0.05
878	0.05
878	0.051
878	0.051
879	0.052
879	0.053
880	0.053
880	0.053
881	0.053
881	0.053
881	0.053
882	0.052
882	0.052
883	0.051
883	0.05
884	0.049
884	0.049
884	0.048
885	0.048
885	0.047
886	0.047
886	0.047
887	0.046
887	0.046
887	0.046
888	0.046
888	0.045
889	0.045
889	0.045
890	0.045
890	0.045
890	0.046
891	0.046
891	0.046
892	0.047
892	0.047
893	0.048
893	0.049
893	0.049
894	0.05
894	0.05
895	0.051
895	0.051
895	0.051
896	0.051
896	0.051
897	0.05
897	0.049
898	0.049
898	0.048
898	0.048
899	0.047
899	0.047
900	0.047
900	0.046
901	0.046
901	0.046
901	0.047
902	0.047
902	0.047
903	0.047
903	0.047
904	0.047
904	0.047
904	0.047
905	0.047
905	0.047
906	0.046
906	0.047
907	0.047
907	0.047
907	0.047
908	0.047
908	0.047
909	0.048
909	0.048
910	0.048
910	0.048
910	0.048
911	0.048
911	0.048
912	0.049
912	0.049
913	0.049
913	0.049
913	0.049
914	0.049
914	0.049
915	0.049
915	0.049
916	0.049
916	0.048
916	0.048
917	0.047
917	0.046
918	0.045
918	0.045
918	0.044
919	0.044
919	0.043
920	0.043
920	0.043
921	0.043
921	0.043
921	0.043
922	0.043
922	0.043
923	0.043
923	0.044
924	0.044
924	0.044
924	0.045
925	0.045
925	0.045
926	0.045
926	0.045
927	0.046
927	0.045
927	0.045
928	0.045
928	0.045
929	0.045
929	0.045
930	0.044
930	0.044
930	0.044
931	0.043
931	0.043
932	0.043
932	0.043
933	0.043
933	0.042
933	0.042
934	0.042
934	0.041
935	0.041
935	0.041
935	0.041
936	0.041
936	0.041
937	0.042
937	0.042
938	0.042
938	0.043
938	0.043
939	0.043
939	0.044
940	0.044
940	0.045
941	0.045
941	0.046
941	0.046
942	0.047
942	0.047
943	0.048
943	0.048
944	0.048
944	0.049
944	0.049
945	0.049
945	0.049
946	0.049
946	0.048
946	0.048
947	0.048
947	0.048
948	0.048
948	0.048
949	0.048
949	0.047
949	0.047
950	0.047
950	0.047
951	0.046
951	0.046
952	0.046
952	0.045
952	0.045
953	0.045
953	0.045
954	0.044
954	0.044
955	0.044
955	0.043
955	0.043
956	0.043
956	0.043
957	0.043
957	0.043
957	0.043
958	0.044
958	0.044
959	0.045
959	0.045
960	0.046
960	0.046
960	0.046
961	0.047
961	0.047
962	0.047
962	0.047
963	0.047
963	0.047
963	0.047
964	0.047
964	0.047
965	0.047
965	0.046
966	0.046
966	0.046
966	0.046
967	0.046
967	0.046
968	0.046
968	0.046
968	0.046
969	0.046
969	0.045
970	0.045
970	0.045
971	0.045
971	0.045
971	0.045
972	0.045
972	0.044
973	0.044
973	0.045
974	0.045
974	0.045
974	0.046
975	0.046
975	0.047
976	0.047
976	0.048
976	0.048
977	0.048
977	0.049
978	0.049
978	0.049
979	0.049
979	0.049
979	0.049
980	0.048
980	0.048
981	0.047
981	0.046
982	0.046
982	0.045
982	0.045
983	0.044
983	0.043
984	0.042
984	0.041
984	0.04
985	0.039
985	0.038
986	0.037
986	0.037
987	0.036
987	0.036
987	0.035
988	0.035
988	0.035
989	0.035
989	0.035
990	0.034
990	0.034
990	0.034
991	0.034
991	0.034
992	0.034
992	0.034
992	0.034
993	0.034
993	0.034
994	0.034
994	0.034
995	0.034
995	0.035
995	0.035
996	0.036
996	0.036
997	0.037
997	0.038
997	0.038
998	0.039
998	0.04
999	0.041
999	0.043
1000	0.044
1000	0.045
1000	0.046
1001	0.046
1001	0.047
1002	0.048
1002	0.048
1003	0.048
1003	0.048
1003	0.047
1004	0.047
1004	0.046
1005	0.046
1005	0.045
1005	0.044
1006	0.044
1006	0.043
1007	0.043
1007	0.042
1008	0.042
1008	0.042
1008	0.041
1009	0.041
1009	0.041
1010	0.041
1010	0.041
1010	0.041
1011	0.041
1011	0.04
1012	0.04
1012	0.04
1013	0.04
1013	0.04
1013	0.039
1014	0.039
1014	0.039
1015	0.039
1015	0.039
1016	0.039
1016	0.039
1016	0.038
1017	0.038
1017	0.038
1018	0.038
1018	0.038
1018	0.038
1019	0.038
1019	0.038
1020	0.038
1020	0.038
1021	0.038
1021	0.038
1021	0.039
1022	0.039
1022	0.039
1023	0.039
1023	0.039
1023	0.039
1024	0.039
1024	0.039
1025	0.038
1025	0.038
1026	0.037
1026	0.036
1026	0.036
1027	0.035
1027	0.034
1028	0.034
1028	0.033
1028	0.033
1029	0.033
1029	0.033
1030	0.033
1030	0.034
1031	0.034
1031	0.034
1031	0.035
1032	0.035
1032	0.035
1033	0.036
1033	0.036
1033	0.036
1034	0.036
1034	0.036
1035	0.036
1035	0.036
1036	0.036
1036	0.036
1036	0.036
1037	0.036
1037	0.036
1038	0.036
1038	0.036
1039	0.036
1039	0.036
1039	0.037
1040	0.037
1040	0.037
1041	0.038
1041	0.037
1041	0.037
1042	0.038
1042	0.038
1043	0.038
1043	0.037
1044	0.037
1044	0.037
1044	0.037
1045	0.038
1045	0.038
1046	0.038
1046	0.038
1046	0.039
1047	0.039
1047	0.039
1048	0.04
1048	0.04
1049	0.04
1049	0.04
1049	0.04
1050	0.04
1050	0.039
1051	0.038
1051	0.038
1051	0.037
1052	0.036
1052	0.035
1053	0.034
1053	0.033
1053	0.032
1054	0.032
1054	0.031
1055	0.031
1055	0.031
1056	0.03
1056	0.03
1056	0.03
1057	0.029
1057	0.029
1058	0.029
1058	0.028
1058	0.028
1059	0.028
1059	0.028
1060	0.027
1060	0.027
1061	0.026
1061	0.026
1061	0.026
1062	0.026
1062	0.026
1063	0.026
1063	0.026
1063	0.025
1064	0.025
1064	0.025
1065	0.026
1065	0.026
1066	0.026
1066	0.026
1066	0.026
1067	0.026
1067	0.026
1068	0.026
1068	0.026
1068	0.025
1069	0.025
1069	0.025
1070	0.024
1070	0.024
1071	0.023
1071	0.023
1071	0.022
1072	0.022
1072	0.022
1073	0.021
1073	0.02
1073	0.02
1074	0.02
1074	0.021
1075	0.02
1075	0.02
1076	0.021
1076	0.021
1076	0.021
1077	0.021
1077	0.022
1078	0.022
1078	0.022
1078	0.022
1079	0.022
1079	0.023
1080	0.023
1080	0.023
1080	0.023
1081	0.024
1081	0.024
1082	0.025
1082	0.026
1083	0.026
1083	0.025
1083	0.025
1084	0.025
1084	0.025
1085	0.025
1085	0.025
1085	0.025
1086	0.024
1086	0.023
1087	0.023
1087	0.022
1088	0.022
1088	0.022
1088	0.022
1089	0.021
1089	0.02
1090	0.019
1090	0.019
1090	0.018
1091	0.017
1091	0.017
1092	0.018
1092	0.018
1092	0.017
1093	0.017
1093	0.017
1094	0.017
1094	0.017
1095	0.017
1095	0.017
1095	0.017
1096	0.016
1096	0.014
1097	0.014
1097	0.013
1097	0.012
1098	0.012
1098	0.011
1099	0.01
1099	0.009
1100	0.009
1100	0.007
1100	0.006
1101	0.006
1101	0.005
1102	0.004
1102	0.002
1102	0.001
1103	0
1103	-0
1104	-0.001
1104	-0.002
1104	-0.001
1105	-0.002
1105	-0.004
1106	-0.006
1106	-0.007
1107	-0.008
1107	-0.008
1107	-0.009
1108	-0.011
1108	-0.011
1109	-0.012
1109	-0.014
1109	-0.014
1110	-0.011
1110	-0.013
1111	-0.014
1111	-0.015
