Data from reversibility-20sec_Absorbance__1667__000000000001667.txt Node

Date: Tue Dec 05 21:28:45 CET 2023
User: Marek
Spectrometer: MAYP115816
Trigger mode: 0
Integration Time (sec): 2.000000E-1
Scans to average: 10
Electric dark correction enabled: true
Nonlinearity correction enabled: true
Boxcar width: 5
XAxis mode: Wavelengths
Number of Pixels in Spectrum: 2068
>>>>>Begin Spectral Data<<<<<
199	-0.226
199	-0.189
200	-0.12
200	-0.069
201	-0.037
201	-0.021
202	-0.005
202	0.002
203	0.007
203	0.008
204	0.023
204	0.039
205	0.05
205	0.053
205	0.053
206	0.051
206	0.049
207	0.049
207	0.046
208	0.046
208	0.045
209	0.048
209	0.043
210	0.043
210	0.047
211	0.045
211	0.047
212	0.048
212	0.05
213	0.054
213	0.055
213	0.058
214	0.059
214	0.062
215	0.065
215	0.063
216	0.066
216	0.066
217	0.068
217	0.07
218	0.069
218	0.074
219	0.076
219	0.079
220	0.08
220	0.075
221	0.076
221	0.077
221	0.083
222	0.086
222	0.088
223	0.095
223	0.095
224	0.102
224	0.108
225	0.119
225	0.135
226	0.144
226	0.156
227	0.166
227	0.177
228	0.194
228	0.209
229	0.227
229	0.25
229	0.273
230	0.297
230	0.325
231	0.357
231	0.397
232	0.432
232	0.476
233	0.52
233	0.568
234	0.619
234	0.673
235	0.723
235	0.776
236	0.828
236	0.883
236	0.932
237	0.989
237	1.039
238	1.09
238	1.141
239	1.191
239	1.233
240	1.278
240	1.317
241	1.358
241	1.395
242	1.434
242	1.47
243	1.505
243	1.534
243	1.561
244	1.587
244	1.614
245	1.636
245	1.664
246	1.687
246	1.708
247	1.722
247	1.739
248	1.758
248	1.777
249	1.79
249	1.801
250	1.814
250	1.827
250	1.836
251	1.842
251	1.85
252	1.86
252	1.865
253	1.871
253	1.871
254	1.875
254	1.88
255	1.88
255	1.882
256	1.883
256	1.885
257	1.888
257	1.888
258	1.888
258	1.887
258	1.89
259	1.891
259	1.892
260	1.894
260	1.898
261	1.9
261	1.905
262	1.908
262	1.912
263	1.919
263	1.923
264	1.923
264	1.926
265	1.929
265	1.931
265	1.932
266	1.934
266	1.936
267	1.935
267	1.937
268	1.937
268	1.939
269	1.945
269	1.946
270	1.945
270	1.944
271	1.943
271	1.943
272	1.94
272	1.941
272	1.937
273	1.931
273	1.924
274	1.918
274	1.913
275	1.907
275	1.904
276	1.896
276	1.891
277	1.884
277	1.874
278	1.864
278	1.855
278	1.843
279	1.829
279	1.81
280	1.787
280	1.757
281	1.724
281	1.684
282	1.645
282	1.604
283	1.564
283	1.523
284	1.484
284	1.446
285	1.409
285	1.376
285	1.346
286	1.319
286	1.295
287	1.274
287	1.256
288	1.24
288	1.227
289	1.215
289	1.205
290	1.196
290	1.189
291	1.182
291	1.176
292	1.171
292	1.166
292	1.161
293	1.157
293	1.153
294	1.149
294	1.146
295	1.142
295	1.139
296	1.136
296	1.132
297	1.129
297	1.126
298	1.123
298	1.119
298	1.116
299	1.113
299	1.11
300	1.107
300	1.104
301	1.101
301	1.098
302	1.096
302	1.093
303	1.09
303	1.088
304	1.085
304	1.083
305	1.08
305	1.077
305	1.074
306	1.071
306	1.068
307	1.066
307	1.063
308	1.06
308	1.057
309	1.054
309	1.051
310	1.047
310	1.044
311	1.041
311	1.037
311	1.033
312	1.03
312	1.026
313	1.022
313	1.018
314	1.014
314	1.009
315	1.005
315	1
316	0.996
316	0.991
317	0.987
317	0.981
318	0.976
318	0.971
318	0.965
319	0.96
319	0.954
320	0.948
320	0.941
321	0.935
321	0.929
322	0.923
322	0.916
323	0.909
323	0.902
324	0.896
324	0.889
324	0.882
325	0.875
325	0.868
326	0.861
326	0.854
327	0.847
327	0.84
328	0.833
328	0.826
329	0.819
329	0.811
330	0.804
330	0.797
330	0.79
331	0.783
331	0.776
332	0.769
332	0.762
333	0.755
333	0.748
334	0.741
334	0.734
335	0.727
335	0.72
336	0.713
336	0.706
336	0.7
337	0.693
337	0.687
338	0.68
338	0.674
339	0.668
339	0.662
340	0.656
340	0.65
341	0.644
341	0.639
342	0.633
342	0.627
342	0.622
343	0.617
343	0.611
344	0.606
344	0.601
345	0.596
345	0.591
346	0.586
346	0.582
347	0.577
347	0.573
348	0.569
348	0.564
348	0.56
349	0.556
349	0.552
350	0.549
350	0.545
351	0.542
351	0.538
352	0.535
352	0.531
353	0.528
353	0.525
354	0.522
354	0.519
354	0.516
355	0.513
355	0.51
356	0.507
356	0.504
357	0.501
357	0.499
358	0.495
358	0.492
359	0.49
359	0.487
360	0.485
360	0.483
360	0.481
361	0.478
361	0.476
362	0.474
362	0.472
363	0.47
363	0.468
364	0.466
364	0.464
365	0.461
365	0.459
366	0.457
366	0.456
366	0.454
367	0.452
367	0.45
368	0.448
368	0.446
369	0.445
369	0.443
370	0.441
370	0.44
371	0.438
371	0.436
372	0.434
372	0.433
372	0.431
373	0.43
373	0.429
374	0.427
374	0.426
375	0.425
375	0.423
376	0.422
376	0.421
377	0.42
377	0.419
378	0.418
378	0.417
378	0.416
379	0.415
379	0.414
380	0.413
380	0.411
381	0.41
381	0.409
382	0.408
382	0.407
383	0.406
383	0.405
383	0.404
384	0.403
384	0.402
385	0.401
385	0.4
386	0.4
386	0.399
387	0.398
387	0.397
388	0.396
388	0.396
389	0.395
389	0.395
389	0.394
390	0.393
390	0.393
391	0.392
391	0.392
392	0.391
392	0.391
393	0.39
393	0.389
394	0.388
394	0.388
394	0.387
395	0.386
395	0.385
396	0.385
396	0.384
397	0.383
397	0.382
398	0.382
398	0.381
399	0.381
399	0.38
400	0.38
400	0.379
400	0.379
401	0.378
401	0.378
402	0.377
402	0.377
403	0.377
403	0.376
404	0.376
404	0.375
405	0.375
405	0.374
405	0.374
406	0.373
406	0.372
407	0.372
407	0.371
408	0.371
408	0.37
409	0.369
409	0.369
410	0.369
410	0.369
411	0.368
411	0.368
411	0.367
412	0.367
412	0.366
413	0.366
413	0.366
414	0.365
414	0.365
415	0.364
415	0.364
416	0.363
416	0.363
416	0.362
417	0.362
417	0.362
418	0.361
418	0.361
419	0.36
419	0.36
420	0.359
420	0.359
421	0.358
421	0.358
421	0.358
422	0.357
422	0.357
423	0.356
423	0.356
424	0.356
424	0.355
425	0.355
425	0.355
426	0.354
426	0.354
427	0.353
427	0.353
427	0.353
428	0.353
428	0.352
429	0.352
429	0.351
430	0.351
430	0.351
431	0.351
431	0.35
432	0.35
432	0.35
432	0.35
433	0.349
433	0.349
434	0.348
434	0.348
435	0.348
435	0.348
436	0.348
436	0.348
437	0.347
437	0.347
437	0.347
438	0.347
438	0.347
439	0.347
439	0.347
440	0.347
440	0.347
441	0.346
441	0.346
442	0.346
442	0.346
442	0.346
443	0.346
443	0.346
444	0.345
444	0.345
445	0.345
445	0.345
446	0.345
446	0.344
447	0.344
447	0.344
447	0.344
448	0.344
448	0.344
449	0.344
449	0.344
450	0.344
450	0.344
451	0.344
451	0.344
452	0.344
452	0.344
452	0.344
453	0.344
453	0.344
454	0.344
454	0.344
455	0.343
455	0.343
456	0.343
456	0.343
457	0.343
457	0.343
458	0.343
458	0.343
458	0.343
459	0.343
459	0.343
460	0.343
460	0.344
461	0.344
461	0.344
462	0.344
462	0.344
463	0.345
463	0.345
463	0.345
464	0.345
464	0.345
465	0.345
465	0.345
466	0.345
466	0.345
467	0.345
467	0.345
467	0.345
468	0.346
468	0.346
469	0.346
469	0.347
470	0.347
470	0.347
471	0.348
471	0.348
472	0.349
472	0.349
472	0.35
473	0.35
473	0.351
474	0.352
474	0.352
475	0.352
475	0.353
476	0.353
476	0.354
477	0.355
477	0.355
477	0.356
478	0.356
478	0.357
479	0.358
479	0.359
480	0.359
480	0.36
481	0.361
481	0.362
482	0.363
482	0.364
482	0.364
483	0.365
483	0.367
484	0.368
484	0.368
485	0.369
485	0.37
486	0.371
486	0.372
487	0.372
487	0.373
487	0.374
488	0.375
488	0.376
489	0.377
489	0.379
490	0.381
490	0.382
491	0.384
491	0.385
492	0.387
492	0.388
492	0.389
493	0.391
493	0.392
494	0.394
494	0.395
495	0.397
495	0.398
496	0.4
496	0.401
496	0.403
497	0.404
497	0.406
498	0.408
498	0.409
499	0.41
499	0.412
500	0.414
500	0.416
501	0.418
501	0.419
501	0.42
502	0.422
502	0.423
503	0.425
503	0.426
504	0.428
504	0.429
505	0.43
505	0.432
506	0.433
506	0.434
506	0.436
507	0.438
507	0.439
508	0.44
508	0.442
509	0.443
509	0.444
510	0.446
510	0.447
511	0.448
511	0.449
511	0.451
512	0.452
512	0.453
513	0.454
513	0.455
514	0.456
514	0.458
515	0.459
515	0.459
515	0.46
516	0.461
516	0.462
517	0.463
517	0.463
518	0.463
518	0.463
519	0.463
519	0.463
520	0.463
520	0.463
520	0.463
521	0.463
521	0.463
522	0.463
522	0.463
523	0.463
523	0.463
524	0.463
524	0.463
524	0.462
525	0.462
525	0.461
526	0.461
526	0.46
527	0.46
527	0.459
528	0.457
528	0.457
529	0.455
529	0.454
529	0.453
530	0.451
530	0.45
531	0.449
531	0.447
532	0.445
532	0.444
533	0.442
533	0.441
533	0.439
534	0.438
534	0.436
535	0.435
535	0.433
536	0.431
536	0.429
537	0.427
537	0.425
538	0.423
538	0.42
538	0.418
539	0.416
539	0.414
540	0.412
540	0.409
541	0.407
541	0.404
542	0.402
542	0.399
542	0.397
543	0.395
543	0.392
544	0.39
544	0.387
545	0.385
545	0.382
546	0.38
546	0.377
547	0.374
547	0.372
547	0.369
548	0.366
548	0.364
549	0.361
549	0.359
550	0.356
550	0.353
551	0.35
551	0.348
551	0.345
552	0.342
552	0.34
553	0.338
553	0.335
554	0.333
554	0.33
555	0.327
555	0.325
556	0.322
556	0.319
556	0.317
557	0.315
557	0.313
558	0.31
558	0.308
559	0.306
559	0.303
560	0.301
560	0.298
560	0.296
561	0.294
561	0.292
562	0.29
562	0.287
563	0.285
563	0.282
564	0.28
564	0.278
564	0.276
565	0.274
565	0.272
566	0.27
566	0.268
567	0.266
567	0.264
568	0.262
568	0.26
568	0.259
569	0.257
569	0.255
570	0.253
570	0.251
571	0.25
571	0.248
572	0.246
572	0.244
573	0.242
573	0.24
573	0.238
574	0.236
574	0.234
575	0.232
575	0.231
576	0.23
576	0.228
577	0.226
577	0.224
577	0.223
578	0.221
578	0.22
579	0.22
579	0.219
580	0.217
580	0.215
581	0.213
581	0.211
581	0.21
582	0.21
582	0.209
583	0.208
583	0.207
584	0.205
584	0.203
585	0.202
585	0.201
585	0.2
586	0.198
586	0.197
587	0.196
587	0.194
588	0.193
588	0.192
589	0.191
589	0.19
590	0.189
590	0.188
590	0.188
591	0.187
591	0.186
592	0.184
592	0.183
593	0.182
593	0.181
594	0.18
594	0.179
594	0.177
595	0.177
595	0.175
596	0.174
596	0.173
597	0.173
597	0.172
598	0.171
598	0.17
598	0.17
599	0.169
599	0.168
600	0.167
600	0.166
601	0.165
601	0.165
602	0.163
602	0.162
602	0.161
603	0.161
603	0.161
604	0.16
604	0.159
605	0.159
605	0.158
606	0.158
606	0.156
606	0.156
607	0.155
607	0.154
608	0.154
608	0.152
609	0.151
609	0.151
610	0.15
610	0.149
610	0.149
611	0.149
611	0.148
612	0.148
612	0.147
613	0.147
613	0.147
614	0.146
614	0.145
614	0.144
615	0.144
615	0.143
616	0.142
616	0.142
617	0.141
617	0.141
618	0.14
618	0.14
618	0.139
619	0.139
619	0.139
620	0.139
620	0.139
621	0.138
621	0.137
622	0.137
622	0.136
622	0.135
623	0.134
623	0.134
624	0.133
624	0.132
625	0.132
625	0.131
626	0.131
626	0.13
626	0.13
627	0.13
627	0.129
628	0.129
628	0.129
629	0.128
629	0.128
630	0.127
630	0.127
630	0.126
631	0.126
631	0.126
632	0.125
632	0.124
633	0.124
633	0.124
634	0.124
634	0.124
634	0.124
635	0.123
635	0.122
636	0.122
636	0.122
637	0.121
637	0.121
638	0.12
638	0.12
638	0.119
639	0.119
639	0.118
640	0.118
640	0.118
641	0.118
641	0.117
642	0.117
642	0.117
642	0.117
643	0.117
643	0.117
644	0.117
644	0.117
645	0.117
645	0.117
646	0.116
646	0.116
646	0.115
647	0.115
647	0.114
648	0.113
648	0.112
649	0.111
649	0.111
650	0.111
650	0.111
650	0.111
651	0.11
651	0.11
652	0.11
652	0.11
653	0.11
653	0.112
653	0.119
654	0.096
654	0.078
655	0.076
655	0.075
656	0.075
656	0.075
657	0.075
657	0.075
657	0.075
658	0.074
658	0.065
659	0.081
659	0.102
660	0.108
660	0.108
661	0.107
661	0.106
661	0.106
662	0.105
662	0.105
663	0.104
663	0.103
664	0.103
664	0.102
665	0.101
665	0.101
665	0.101
666	0.1
666	0.1
667	0.1
667	0.1
668	0.101
668	0.1
669	0.101
669	0.101
669	0.101
670	0.101
670	0.101
671	0.1
671	0.1
672	0.099
672	0.098
672	0.097
673	0.097
673	0.097
674	0.096
674	0.096
675	0.095
675	0.095
676	0.096
676	0.096
676	0.095
677	0.096
677	0.096
678	0.095
678	0.095
679	0.094
679	0.094
680	0.094
680	0.094
680	0.093
681	0.093
681	0.094
682	0.094
682	0.094
683	0.095
683	0.096
684	0.096
684	0.096
684	0.096
685	0.096
685	0.096
686	0.095
686	0.095
687	0.094
687	0.094
687	0.093
688	0.092
688	0.092
689	0.092
689	0.092
690	0.092
690	0.091
691	0.091
691	0.091
691	0.092
692	0.092
692	0.092
693	0.092
693	0.093
694	0.092
694	0.092
695	0.093
695	0.093
695	0.093
696	0.092
696	0.092
697	0.092
697	0.091
698	0.091
698	0.09
698	0.09
699	0.09
699	0.089
700	0.089
700	0.089
701	0.09
701	0.09
702	0.09
702	0.09
702	0.09
703	0.09
703	0.09
704	0.089
704	0.089
705	0.089
705	0.088
705	0.087
706	0.087
706	0.086
707	0.086
707	0.086
708	0.086
708	0.086
709	0.086
709	0.086
709	0.085
710	0.084
710	0.084
711	0.084
711	0.084
712	0.084
712	0.083
713	0.083
713	0.083
713	0.083
714	0.083
714	0.083
715	0.082
715	0.082
716	0.082
716	0.082
716	0.081
717	0.08
717	0.08
718	0.079
718	0.079
719	0.079
719	0.079
720	0.079
720	0.08
720	0.08
721	0.081
721	0.081
722	0.082
722	0.082
723	0.082
723	0.082
723	0.082
724	0.082
724	0.081
725	0.08
725	0.079
726	0.078
726	0.078
727	0.077
727	0.076
727	0.076
728	0.075
728	0.075
729	0.075
729	0.075
730	0.075
730	0.075
730	0.076
731	0.076
731	0.076
732	0.076
732	0.077
733	0.076
733	0.076
734	0.076
734	0.076
734	0.077
735	0.077
735	0.076
736	0.076
736	0.076
737	0.076
737	0.076
737	0.076
738	0.075
738	0.074
739	0.074
739	0.073
740	0.072
740	0.072
741	0.072
741	0.071
741	0.071
742	0.07
742	0.07
743	0.071
743	0.071
744	0.072
744	0.072
744	0.072
745	0.072
745	0.073
746	0.073
746	0.074
747	0.074
747	0.074
748	0.074
748	0.074
748	0.074
749	0.074
749	0.074
750	0.073
750	0.073
751	0.072
751	0.072
751	0.072
752	0.071
752	0.07
753	0.069
753	0.069
754	0.069
754	0.068
754	0.068
755	0.068
755	0.068
756	0.068
756	0.066
757	0.066
757	0.065
758	0.065
758	0.065
758	0.064
759	0.064
759	0.064
760	0.063
760	0.063
761	0.063
761	0.064
761	0.065
762	0.066
762	0.067
763	0.067
763	0.067
764	0.067
764	0.067
764	0.067
765	0.066
765	0.066
766	0.065
766	0.065
767	0.064
767	0.063
768	0.062
768	0.062
768	0.062
769	0.061
769	0.061
770	0.061
770	0.062
771	0.062
771	0.062
771	0.062
772	0.062
772	0.063
773	0.063
773	0.063
774	0.063
774	0.063
775	0.063
775	0.063
775	0.063
776	0.063
776	0.063
777	0.063
777	0.062
778	0.062
778	0.061
778	0.061
779	0.06
779	0.06
780	0.059
780	0.059
781	0.059
781	0.058
781	0.058
782	0.058
782	0.058
783	0.059
783	0.059
784	0.059
784	0.06
784	0.06
785	0.06
785	0.06
786	0.061
786	0.061
787	0.061
787	0.061
788	0.061
788	0.06
788	0.06
789	0.06
789	0.06
790	0.06
790	0.06
791	0.059
791	0.059
791	0.059
792	0.059
792	0.059
793	0.058
793	0.058
794	0.058
794	0.057
794	0.057
795	0.057
795	0.057
796	0.058
796	0.057
797	0.057
797	0.057
797	0.057
798	0.056
798	0.056
799	0.055
799	0.055
800	0.054
800	0.053
801	0.053
801	0.053
801	0.053
802	0.053
802	0.053
803	0.054
803	0.054
804	0.055
804	0.056
804	0.057
805	0.057
805	0.057
806	0.057
806	0.057
807	0.057
807	0.056
807	0.056
808	0.056
808	0.055
809	0.055
809	0.055
810	0.055
810	0.055
810	0.055
811	0.055
811	0.055
812	0.056
812	0.056
813	0.056
813	0.057
813	0.057
814	0.057
814	0.058
815	0.058
815	0.058
816	0.058
816	0.058
817	0.058
817	0.058
817	0.057
818	0.057
818	0.057
819	0.057
819	0.056
820	0.055
820	0.055
820	0.055
821	0.055
821	0.055
822	0.054
822	0.054
823	0.054
823	0.054
823	0.054
824	0.055
824	0.055
825	0.056
825	0.056
826	0.055
826	0.055
826	0.054
827	0.054
827	0.054
828	0.054
828	0.053
829	0.053
829	0.053
829	0.052
830	0.052
830	0.052
831	0.053
831	0.053
832	0.053
832	0.054
832	0.054
833	0.054
833	0.054
834	0.054
834	0.054
835	0.055
835	0.055
835	0.055
836	0.056
836	0.056
837	0.056
837	0.056
838	0.056
838	0.055
839	0.055
839	0.054
839	0.053
840	0.051
840	0.05
841	0.049
841	0.048
842	0.047
842	0.046
842	0.046
843	0.046
843	0.045
844	0.045
844	0.045
845	0.046
845	0.046
845	0.046
846	0.046
846	0.046
847	0.046
847	0.047
848	0.047
848	0.048
848	0.048
849	0.049
849	0.049
850	0.049
850	0.049
851	0.05
851	0.05
851	0.05
852	0.049
852	0.049
853	0.048
853	0.047
854	0.047
854	0.047
854	0.047
855	0.047
855	0.047
856	0.047
856	0.047
857	0.047
857	0.048
857	0.048
858	0.048
858	0.048
859	0.047
859	0.047
860	0.046
860	0.046
860	0.045
861	0.045
861	0.044
862	0.043
862	0.043
863	0.043
863	0.043
863	0.043
864	0.043
864	0.043
865	0.043
865	0.043
866	0.043
866	0.042
866	0.042
867	0.042
867	0.041
868	0.041
868	0.041
869	0.041
869	0.041
869	0.041
870	0.041
870	0.042
871	0.043
871	0.043
872	0.044
872	0.045
872	0.046
873	0.046
873	0.047
874	0.047
874	0.047
875	0.047
875	0.047
875	0.047
876	0.047
876	0.047
877	0.047
877	0.047
878	0.047
878	0.048
878	0.048
879	0.049
879	0.049
880	0.049
880	0.049
881	0.048
881	0.048
881	0.047
882	0.046
882	0.046
883	0.045
883	0.044
884	0.043
884	0.043
884	0.042
885	0.042
885	0.041
886	0.041
886	0.041
887	0.041
887	0.041
887	0.04
888	0.04
888	0.04
889	0.039
889	0.039
890	0.04
890	0.04
890	0.04
891	0.041
891	0.041
892	0.042
892	0.043
893	0.044
893	0.045
893	0.046
894	0.047
894	0.047
895	0.047
895	0.048
895	0.047
896	0.047
896	0.047
897	0.046
897	0.045
898	0.044
898	0.044
898	0.043
899	0.042
899	0.042
900	0.041
900	0.041
901	0.041
901	0.041
901	0.041
902	0.041
902	0.041
903	0.041
903	0.041
904	0.042
904	0.042
904	0.042
905	0.042
905	0.042
906	0.042
906	0.043
907	0.043
907	0.043
907	0.044
908	0.044
908	0.044
909	0.044
909	0.045
910	0.045
910	0.046
910	0.046
911	0.046
911	0.046
912	0.046
912	0.046
913	0.046
913	0.046
913	0.046
914	0.046
914	0.046
915	0.045
915	0.045
916	0.045
916	0.044
916	0.044
917	0.043
917	0.042
918	0.041
918	0.041
918	0.04
919	0.04
919	0.04
920	0.04
920	0.04
921	0.04
921	0.04
921	0.04
922	0.041
922	0.041
923	0.041
923	0.042
924	0.042
924	0.042
924	0.042
925	0.043
925	0.043
926	0.043
926	0.043
927	0.043
927	0.042
927	0.042
928	0.042
928	0.042
929	0.042
929	0.042
930	0.041
930	0.041
930	0.041
931	0.041
931	0.041
932	0.04
932	0.04
933	0.04
933	0.039
933	0.039
934	0.038
934	0.038
935	0.038
935	0.037
935	0.037
936	0.037
936	0.037
937	0.037
937	0.038
938	0.038
938	0.038
938	0.038
939	0.039
939	0.039
940	0.039
940	0.04
941	0.04
941	0.041
941	0.041
942	0.042
942	0.042
943	0.042
943	0.043
944	0.043
944	0.043
944	0.044
945	0.044
945	0.044
946	0.045
946	0.045
946	0.045
947	0.046
947	0.046
948	0.046
948	0.047
949	0.047
949	0.047
949	0.047
950	0.047
950	0.047
951	0.047
951	0.047
952	0.047
952	0.046
952	0.046
953	0.046
953	0.046
954	0.045
954	0.045
955	0.045
955	0.044
955	0.044
956	0.044
956	0.044
957	0.044
957	0.044
957	0.044
958	0.044
958	0.044
959	0.044
959	0.045
960	0.045
960	0.045
960	0.046
961	0.045
961	0.045
962	0.045
962	0.045
963	0.045
963	0.045
963	0.044
964	0.044
964	0.044
965	0.044
965	0.044
966	0.044
966	0.044
966	0.044
967	0.044
967	0.044
968	0.044
968	0.044
968	0.044
969	0.043
969	0.043
970	0.043
970	0.043
971	0.043
971	0.042
971	0.042
972	0.042
972	0.042
973	0.042
973	0.042
974	0.043
974	0.043
974	0.043
975	0.043
975	0.043
976	0.043
976	0.043
976	0.044
977	0.044
977	0.044
978	0.043
978	0.043
979	0.043
979	0.043
979	0.043
980	0.043
980	0.043
981	0.043
981	0.042
982	0.042
982	0.042
982	0.042
983	0.041
983	0.04
984	0.04
984	0.039
984	0.038
985	0.037
985	0.036
986	0.035
986	0.034
987	0.034
987	0.033
987	0.033
988	0.032
988	0.032
989	0.032
989	0.032
990	0.032
990	0.032
990	0.032
991	0.032
991	0.032
992	0.032
992	0.032
992	0.032
993	0.032
993	0.033
994	0.033
994	0.033
995	0.033
995	0.033
995	0.034
996	0.034
996	0.035
997	0.035
997	0.036
997	0.037
998	0.037
998	0.038
999	0.039
999	0.04
1000	0.041
1000	0.042
1000	0.043
1001	0.044
1001	0.045
1002	0.045
1002	0.045
1003	0.045
1003	0.045
1003	0.045
1004	0.045
1004	0.044
1005	0.043
1005	0.043
1005	0.042
1006	0.041
1006	0.041
1007	0.041
1007	0.04
1008	0.04
1008	0.04
1008	0.04
1009	0.039
1009	0.039
1010	0.039
1010	0.039
1010	0.039
1011	0.038
1011	0.038
1012	0.038
1012	0.038
1013	0.037
1013	0.037
1013	0.037
1014	0.036
1014	0.036
1015	0.036
1015	0.036
1016	0.036
1016	0.036
1016	0.035
1017	0.035
1017	0.035
1018	0.034
1018	0.034
1018	0.034
1019	0.034
1019	0.034
1020	0.034
1020	0.034
1021	0.034
1021	0.034
1021	0.035
1022	0.035
1022	0.035
1023	0.035
1023	0.035
1023	0.035
1024	0.035
1024	0.034
1025	0.034
1025	0.034
1026	0.033
1026	0.033
1026	0.032
1027	0.032
1027	0.031
1028	0.031
1028	0.031
1028	0.031
1029	0.031
1029	0.03
1030	0.03
1030	0.03
1031	0.031
1031	0.031
1031	0.031
1032	0.031
1032	0.032
1033	0.032
1033	0.032
1033	0.032
1034	0.033
1034	0.033
1035	0.033
1035	0.033
1036	0.033
1036	0.033
1036	0.033
1037	0.033
1037	0.033
1038	0.033
1038	0.033
1039	0.034
1039	0.034
1039	0.034
1040	0.034
1040	0.034
1041	0.034
1041	0.033
1041	0.033
1042	0.033
1042	0.033
1043	0.033
1043	0.033
1044	0.033
1044	0.033
1044	0.033
1045	0.034
1045	0.034
1046	0.035
1046	0.035
1046	0.035
1047	0.035
1047	0.036
1048	0.036
1048	0.037
1049	0.037
1049	0.037
1049	0.037
1050	0.036
1050	0.036
1051	0.035
1051	0.035
1051	0.034
1052	0.033
1052	0.033
1053	0.031
1053	0.03
1053	0.03
1054	0.029
1054	0.029
1055	0.028
1055	0.028
1056	0.027
1056	0.027
1056	0.027
1057	0.026
1057	0.026
1058	0.026
1058	0.025
1058	0.025
1059	0.025
1059	0.025
1060	0.024
1060	0.024
1061	0.024
1061	0.023
1061	0.023
1062	0.023
1062	0.023
1063	0.023
1063	0.023
1063	0.023
1064	0.023
1064	0.023
1065	0.023
1065	0.023
1066	0.023
1066	0.023
1066	0.023
1067	0.023
1067	0.023
1068	0.023
1068	0.023
1068	0.022
1069	0.022
1069	0.022
1070	0.021
1070	0.021
1071	0.02
1071	0.02
1071	0.019
1072	0.019
1072	0.019
1073	0.018
1073	0.018
1073	0.017
1074	0.018
1074	0.018
1075	0.018
1075	0.018
1076	0.018
1076	0.019
1076	0.019
1077	0.019
1077	0.02
1078	0.02
1078	0.02
1078	0.02
1079	0.02
1079	0.02
1080	0.02
1080	0.02
1080	0.02
1081	0.021
1081	0.021
1082	0.022
1082	0.022
1083	0.023
1083	0.022
1083	0.023
1084	0.023
1084	0.023
1085	0.023
1085	0.023
1085	0.023
1086	0.023
1086	0.022
1087	0.022
1087	0.021
1088	0.021
1088	0.02
1088	0.02
1089	0.02
1089	0.019
1090	0.018
1090	0.018
1090	0.016
1091	0.016
1091	0.016
1092	0.016
1092	0.017
1092	0.016
1093	0.016
1093	0.016
1094	0.017
1094	0.016
1095	0.016
1095	0.016
1095	0.016
1096	0.015
1096	0.014
1097	0.014
1097	0.013
1097	0.012
1098	0.011
1098	0.01
1099	0.009
1099	0.009
1100	0.008
1100	0.007
1100	0.006
1101	0.006
1101	0.004
1102	0.003
1102	0.002
1102	0.001
1103	0.001
1103	-0
1104	-0.001
1104	-0.002
1104	-0.002
1105	-0.004
1105	-0.006
1106	-0.007
1106	-0.009
1107	-0.009
1107	-0.01
1107	-0.011
1108	-0.012
1108	-0.014
1109	-0.016
1109	-0.017
1109	-0.018
1110	-0.016
1110	-0.018
1111	-0.017
1111	-0.017
