Data from reversibility-20sec_Absorbance__146__000000000000146.txt Node

Date: Tue Dec 05 13:01:45 CET 2023
User: Marek
Spectrometer: MAYP115816
Trigger mode: 0
Integration Time (sec): 2.000000E-1
Scans to average: 10
Electric dark correction enabled: true
Nonlinearity correction enabled: true
Boxcar width: 5
XAxis mode: Wavelengths
Number of Pixels in Spectrum: 2068
>>>>>Begin Spectral Data<<<<<
199	-0.199
199	-0.174
200	-0.102
200	-0.047
201	-0.02
201	-0.004
202	0.008
202	0.015
203	0.022
203	0.027
204	0.041
204	0.053
205	0.067
205	0.07
205	0.069
206	0.067
206	0.068
207	0.071
207	0.071
208	0.071
208	0.069
209	0.071
209	0.069
210	0.067
210	0.069
211	0.067
211	0.07
212	0.068
212	0.069
213	0.072
213	0.072
213	0.071
214	0.076
214	0.078
215	0.079
215	0.078
216	0.082
216	0.081
217	0.084
217	0.084
218	0.083
218	0.089
219	0.097
219	0.097
220	0.098
220	0.101
221	0.103
221	0.101
221	0.107
222	0.109
222	0.115
223	0.124
223	0.124
224	0.127
224	0.137
225	0.148
225	0.154
226	0.163
226	0.176
227	0.19
227	0.202
228	0.216
228	0.227
229	0.245
229	0.269
229	0.289
230	0.312
230	0.342
231	0.377
231	0.415
232	0.451
232	0.495
233	0.54
233	0.59
234	0.64
234	0.69
235	0.738
235	0.789
236	0.84
236	0.889
236	0.939
237	0.988
237	1.033
238	1.078
238	1.125
239	1.17
239	1.213
240	1.257
240	1.296
241	1.332
241	1.364
242	1.398
242	1.429
243	1.461
243	1.487
243	1.511
244	1.536
244	1.556
245	1.572
245	1.592
246	1.611
246	1.628
247	1.639
247	1.653
248	1.665
248	1.675
249	1.684
249	1.689
250	1.696
250	1.702
250	1.706
251	1.708
251	1.708
252	1.711
252	1.712
253	1.711
253	1.709
254	1.708
254	1.708
255	1.705
255	1.704
256	1.703
256	1.702
257	1.702
257	1.7
258	1.699
258	1.701
258	1.7
259	1.701
259	1.699
260	1.7
260	1.701
261	1.701
261	1.704
262	1.707
262	1.71
263	1.713
263	1.712
264	1.713
264	1.713
265	1.715
265	1.715
265	1.715
266	1.716
266	1.715
267	1.713
267	1.712
268	1.71
268	1.71
269	1.711
269	1.71
270	1.71
270	1.708
271	1.707
271	1.705
272	1.702
272	1.7
272	1.696
273	1.691
273	1.685
274	1.68
274	1.674
275	1.666
275	1.659
276	1.651
276	1.642
277	1.635
277	1.625
278	1.615
278	1.603
278	1.59
279	1.574
279	1.554
280	1.531
280	1.502
281	1.469
281	1.431
282	1.392
282	1.351
283	1.311
283	1.272
284	1.235
284	1.198
285	1.164
285	1.133
285	1.106
286	1.081
286	1.06
287	1.041
287	1.026
288	1.013
288	1.001
289	0.992
289	0.983
290	0.977
290	0.97
291	0.965
291	0.961
292	0.957
292	0.953
292	0.95
293	0.947
293	0.945
294	0.942
294	0.94
295	0.937
295	0.935
296	0.933
296	0.931
297	0.928
297	0.926
298	0.924
298	0.922
298	0.919
299	0.918
299	0.916
300	0.914
300	0.911
301	0.909
301	0.907
302	0.905
302	0.903
303	0.902
303	0.9
304	0.898
304	0.895
305	0.894
305	0.892
305	0.89
306	0.889
306	0.886
307	0.884
307	0.882
308	0.88
308	0.878
309	0.876
309	0.873
310	0.87
310	0.868
311	0.865
311	0.862
311	0.859
312	0.856
312	0.852
313	0.849
313	0.845
314	0.842
314	0.838
315	0.834
315	0.83
316	0.826
316	0.822
317	0.818
317	0.814
318	0.809
318	0.804
318	0.799
319	0.794
319	0.789
320	0.784
320	0.779
321	0.773
321	0.767
322	0.761
322	0.755
323	0.749
323	0.743
324	0.737
324	0.73
324	0.724
325	0.718
325	0.711
326	0.705
326	0.698
327	0.691
327	0.685
328	0.678
328	0.672
329	0.665
329	0.658
330	0.652
330	0.645
330	0.638
331	0.631
331	0.624
332	0.618
332	0.611
333	0.604
333	0.597
334	0.591
334	0.584
335	0.578
335	0.571
336	0.565
336	0.558
336	0.552
337	0.546
337	0.54
338	0.534
338	0.528
339	0.522
339	0.516
340	0.511
340	0.505
341	0.5
341	0.494
342	0.489
342	0.484
342	0.479
343	0.474
343	0.469
344	0.464
344	0.459
345	0.455
345	0.45
346	0.446
346	0.442
347	0.438
347	0.434
348	0.43
348	0.426
348	0.422
349	0.419
349	0.415
350	0.411
350	0.408
351	0.404
351	0.401
352	0.398
352	0.395
353	0.393
353	0.39
354	0.387
354	0.384
354	0.381
355	0.378
355	0.376
356	0.373
356	0.37
357	0.367
357	0.365
358	0.362
358	0.36
359	0.358
359	0.355
360	0.353
360	0.352
360	0.35
361	0.348
361	0.346
362	0.344
362	0.343
363	0.341
363	0.339
364	0.337
364	0.335
365	0.334
365	0.332
366	0.33
366	0.328
366	0.327
367	0.325
367	0.323
368	0.322
368	0.32
369	0.319
369	0.317
370	0.316
370	0.314
371	0.313
371	0.312
372	0.31
372	0.309
372	0.308
373	0.307
373	0.306
374	0.305
374	0.304
375	0.303
375	0.302
376	0.301
376	0.3
377	0.299
377	0.298
378	0.297
378	0.296
378	0.295
379	0.295
379	0.294
380	0.293
380	0.292
381	0.291
381	0.29
382	0.289
382	0.289
383	0.288
383	0.287
383	0.286
384	0.286
384	0.285
385	0.285
385	0.284
386	0.284
386	0.283
387	0.283
387	0.282
388	0.282
388	0.281
389	0.28
389	0.28
389	0.279
390	0.279
390	0.278
391	0.278
391	0.277
392	0.277
392	0.276
393	0.276
393	0.275
394	0.275
394	0.275
394	0.274
395	0.273
395	0.273
396	0.273
396	0.272
397	0.272
397	0.271
398	0.271
398	0.27
399	0.27
399	0.27
400	0.269
400	0.269
400	0.269
401	0.268
401	0.268
402	0.268
402	0.267
403	0.267
403	0.266
404	0.266
404	0.266
405	0.266
405	0.265
405	0.265
406	0.265
406	0.264
407	0.264
407	0.263
408	0.263
408	0.262
409	0.262
409	0.262
410	0.261
410	0.261
411	0.26
411	0.26
411	0.26
412	0.26
412	0.26
413	0.259
413	0.259
414	0.259
414	0.258
415	0.258
415	0.258
416	0.258
416	0.257
416	0.257
417	0.257
417	0.257
418	0.256
418	0.256
419	0.256
419	0.256
420	0.255
420	0.255
421	0.255
421	0.255
421	0.254
422	0.254
422	0.254
423	0.253
423	0.253
424	0.253
424	0.253
425	0.252
425	0.252
426	0.252
426	0.251
427	0.251
427	0.251
427	0.251
428	0.251
428	0.25
429	0.25
429	0.25
430	0.25
430	0.249
431	0.249
431	0.25
432	0.249
432	0.249
432	0.249
433	0.249
433	0.249
434	0.249
434	0.249
435	0.249
435	0.249
436	0.248
436	0.248
437	0.248
437	0.248
437	0.248
438	0.247
438	0.247
439	0.247
439	0.247
440	0.246
440	0.246
441	0.246
441	0.246
442	0.246
442	0.246
442	0.246
443	0.246
443	0.246
444	0.246
444	0.246
445	0.245
445	0.245
446	0.245
446	0.245
447	0.245
447	0.245
447	0.245
448	0.245
448	0.244
449	0.244
449	0.244
450	0.244
450	0.244
451	0.244
451	0.244
452	0.244
452	0.244
452	0.244
453	0.243
453	0.243
454	0.243
454	0.243
455	0.243
455	0.243
456	0.243
456	0.243
457	0.243
457	0.243
458	0.243
458	0.243
458	0.243
459	0.243
459	0.243
460	0.243
460	0.243
461	0.243
461	0.243
462	0.243
462	0.243
463	0.243
463	0.243
463	0.243
464	0.242
464	0.243
465	0.242
465	0.243
466	0.243
466	0.243
467	0.243
467	0.243
467	0.243
468	0.243
468	0.243
469	0.244
469	0.244
470	0.244
470	0.244
471	0.244
471	0.244
472	0.245
472	0.245
472	0.245
473	0.245
473	0.246
474	0.246
474	0.246
475	0.246
475	0.247
476	0.247
476	0.247
477	0.248
477	0.248
477	0.248
478	0.249
478	0.249
479	0.25
479	0.25
480	0.25
480	0.251
481	0.251
481	0.251
482	0.252
482	0.253
482	0.253
483	0.254
483	0.255
484	0.255
484	0.256
485	0.256
485	0.257
486	0.257
486	0.258
487	0.258
487	0.259
487	0.26
488	0.26
488	0.261
489	0.262
489	0.263
490	0.264
490	0.265
491	0.266
491	0.267
492	0.268
492	0.268
492	0.269
493	0.27
493	0.271
494	0.272
494	0.273
495	0.273
495	0.274
496	0.275
496	0.276
496	0.277
497	0.278
497	0.279
498	0.28
498	0.281
499	0.282
499	0.283
500	0.285
500	0.286
501	0.287
501	0.288
501	0.288
502	0.29
502	0.291
503	0.292
503	0.293
504	0.294
504	0.295
505	0.296
505	0.297
506	0.298
506	0.299
506	0.3
507	0.301
507	0.302
508	0.303
508	0.304
509	0.304
509	0.305
510	0.306
510	0.307
511	0.308
511	0.309
511	0.31
512	0.311
512	0.312
513	0.313
513	0.314
514	0.314
514	0.315
515	0.316
515	0.316
515	0.317
516	0.318
516	0.318
517	0.319
517	0.319
518	0.32
518	0.32
519	0.32
519	0.32
520	0.321
520	0.321
520	0.321
521	0.321
521	0.322
522	0.322
522	0.322
523	0.322
523	0.323
524	0.323
524	0.323
524	0.323
525	0.323
525	0.323
526	0.322
526	0.322
527	0.322
527	0.321
528	0.321
528	0.321
529	0.32
529	0.319
529	0.319
530	0.318
530	0.318
531	0.317
531	0.317
532	0.316
532	0.315
533	0.314
533	0.314
533	0.313
534	0.313
534	0.312
535	0.311
535	0.31
536	0.309
536	0.308
537	0.307
537	0.306
538	0.305
538	0.304
538	0.303
539	0.302
539	0.301
540	0.3
540	0.299
541	0.298
541	0.297
542	0.296
542	0.295
542	0.293
543	0.292
543	0.291
544	0.29
544	0.288
545	0.287
545	0.286
546	0.285
546	0.284
547	0.282
547	0.281
547	0.279
548	0.278
548	0.277
549	0.275
549	0.274
550	0.273
550	0.271
551	0.27
551	0.269
551	0.268
552	0.266
552	0.265
553	0.264
553	0.262
554	0.261
554	0.26
555	0.258
555	0.257
556	0.256
556	0.255
556	0.254
557	0.253
557	0.252
558	0.251
558	0.25
559	0.25
559	0.249
560	0.248
560	0.247
560	0.245
561	0.245
561	0.243
562	0.242
562	0.24
563	0.239
563	0.238
564	0.236
564	0.235
564	0.234
565	0.233
565	0.232
566	0.231
566	0.23
567	0.229
567	0.228
568	0.227
568	0.226
568	0.225
569	0.225
569	0.224
570	0.222
570	0.221
571	0.22
571	0.219
572	0.218
572	0.217
573	0.216
573	0.215
573	0.214
574	0.214
574	0.213
575	0.212
575	0.212
576	0.211
576	0.21
577	0.209
577	0.209
577	0.208
578	0.207
578	0.206
579	0.206
579	0.205
580	0.204
580	0.203
581	0.202
581	0.201
581	0.201
582	0.2
582	0.2
583	0.199
583	0.199
584	0.197
584	0.196
585	0.195
585	0.194
585	0.193
586	0.193
586	0.192
587	0.191
587	0.19
588	0.189
588	0.188
589	0.187
589	0.187
590	0.187
590	0.186
590	0.187
591	0.186
591	0.185
592	0.185
592	0.184
593	0.184
593	0.183
594	0.182
594	0.182
594	0.181
595	0.181
595	0.18
596	0.179
596	0.179
597	0.179
597	0.179
598	0.179
598	0.178
598	0.178
599	0.177
599	0.177
600	0.176
600	0.176
601	0.175
601	0.174
602	0.174
602	0.173
602	0.172
603	0.172
603	0.172
604	0.171
604	0.171
605	0.171
605	0.171
606	0.17
606	0.17
606	0.17
607	0.169
607	0.169
608	0.168
608	0.167
609	0.166
609	0.166
610	0.165
610	0.165
610	0.165
611	0.164
611	0.164
612	0.164
612	0.164
613	0.164
613	0.163
614	0.163
614	0.162
614	0.162
615	0.162
615	0.161
616	0.161
616	0.16
617	0.16
617	0.16
618	0.159
618	0.159
618	0.159
619	0.159
619	0.159
620	0.159
620	0.159
621	0.158
621	0.158
622	0.157
622	0.157
622	0.156
623	0.156
623	0.156
624	0.155
624	0.155
625	0.154
625	0.154
626	0.154
626	0.153
626	0.153
627	0.153
627	0.153
628	0.152
628	0.152
629	0.151
629	0.151
630	0.15
630	0.15
630	0.15
631	0.15
631	0.149
632	0.15
632	0.149
633	0.15
633	0.15
634	0.151
634	0.151
634	0.151
635	0.151
635	0.151
636	0.151
636	0.151
637	0.151
637	0.15
638	0.15
638	0.149
638	0.149
639	0.148
639	0.148
640	0.147
640	0.147
641	0.147
641	0.146
642	0.146
642	0.146
642	0.146
643	0.145
643	0.145
644	0.145
644	0.145
645	0.145
645	0.145
646	0.145
646	0.145
646	0.145
647	0.145
647	0.145
648	0.144
648	0.144
649	0.144
649	0.144
650	0.144
650	0.143
650	0.143
651	0.143
651	0.143
652	0.142
652	0.142
653	0.143
653	0.144
653	0.149
654	0.118
654	0.095
655	0.096
655	0.097
656	0.097
656	0.097
657	0.098
657	0.098
657	0.098
658	0.097
658	0.089
659	0.112
659	0.142
660	0.145
660	0.145
661	0.145
661	0.144
661	0.144
662	0.144
662	0.144
663	0.143
663	0.143
664	0.142
664	0.142
665	0.142
665	0.141
665	0.141
666	0.141
666	0.141
667	0.141
667	0.142
668	0.142
668	0.142
669	0.142
669	0.142
669	0.142
670	0.142
670	0.142
671	0.142
671	0.142
672	0.141
672	0.141
672	0.14
673	0.14
673	0.14
674	0.14
674	0.14
675	0.14
675	0.14
676	0.14
676	0.14
676	0.14
677	0.14
677	0.14
678	0.14
678	0.14
679	0.14
679	0.14
680	0.14
680	0.14
680	0.14
681	0.141
681	0.141
682	0.142
682	0.142
683	0.143
683	0.144
684	0.144
684	0.144
684	0.144
685	0.144
685	0.145
686	0.145
686	0.144
687	0.144
687	0.144
687	0.144
688	0.143
688	0.143
689	0.143
689	0.143
690	0.142
690	0.142
691	0.142
691	0.142
691	0.143
692	0.143
692	0.143
693	0.144
693	0.144
694	0.144
694	0.144
695	0.145
695	0.146
695	0.146
696	0.146
696	0.146
697	0.146
697	0.146
698	0.145
698	0.145
698	0.145
699	0.145
699	0.145
700	0.145
700	0.145
701	0.145
701	0.144
702	0.144
702	0.144
702	0.144
703	0.143
703	0.143
704	0.143
704	0.143
705	0.143
705	0.142
705	0.142
706	0.142
706	0.142
707	0.143
707	0.143
708	0.143
708	0.143
709	0.143
709	0.143
709	0.143
710	0.143
710	0.143
711	0.143
711	0.143
712	0.143
712	0.144
713	0.144
713	0.144
713	0.145
714	0.144
714	0.145
715	0.145
715	0.144
716	0.144
716	0.145
716	0.144
717	0.144
717	0.144
718	0.143
718	0.143
719	0.143
719	0.143
720	0.143
720	0.143
720	0.144
721	0.144
721	0.144
722	0.144
722	0.145
723	0.145
723	0.145
723	0.145
724	0.145
724	0.145
725	0.144
725	0.143
726	0.143
726	0.143
727	0.142
727	0.142
727	0.142
728	0.142
728	0.142
729	0.143
729	0.143
730	0.143
730	0.144
730	0.144
731	0.144
731	0.145
732	0.145
732	0.145
733	0.145
733	0.145
734	0.145
734	0.146
734	0.146
735	0.146
735	0.146
736	0.146
736	0.146
737	0.146
737	0.146
737	0.146
738	0.146
738	0.146
739	0.145
739	0.145
740	0.145
740	0.145
741	0.145
741	0.145
741	0.145
742	0.145
742	0.146
743	0.146
743	0.147
744	0.148
744	0.148
744	0.148
745	0.148
745	0.148
746	0.148
746	0.149
747	0.148
747	0.148
748	0.148
748	0.148
748	0.148
749	0.147
749	0.147
750	0.147
750	0.147
751	0.147
751	0.147
751	0.147
752	0.147
752	0.148
753	0.148
753	0.148
754	0.148
754	0.149
754	0.149
755	0.149
755	0.149
756	0.149
756	0.148
757	0.147
757	0.147
758	0.146
758	0.146
758	0.146
759	0.146
759	0.146
760	0.146
760	0.146
761	0.147
761	0.147
761	0.148
762	0.149
762	0.149
763	0.15
763	0.15
764	0.149
764	0.149
764	0.149
765	0.149
765	0.149
766	0.148
766	0.148
767	0.147
767	0.147
768	0.146
768	0.146
768	0.146
769	0.146
769	0.146
770	0.146
770	0.146
771	0.146
771	0.146
771	0.146
772	0.146
772	0.146
773	0.146
773	0.146
774	0.147
774	0.147
775	0.147
775	0.147
775	0.147
776	0.147
776	0.147
777	0.147
777	0.147
778	0.147
778	0.146
778	0.146
779	0.146
779	0.146
780	0.146
780	0.146
781	0.146
781	0.146
781	0.146
782	0.146
782	0.146
783	0.146
783	0.147
784	0.147
784	0.148
784	0.148
785	0.148
785	0.148
786	0.148
786	0.148
787	0.148
787	0.148
788	0.147
788	0.147
788	0.146
789	0.146
789	0.146
790	0.145
790	0.145
791	0.145
791	0.144
791	0.144
792	0.144
792	0.143
793	0.143
793	0.142
794	0.142
794	0.141
794	0.141
795	0.14
795	0.14
796	0.14
796	0.14
797	0.14
797	0.14
797	0.14
798	0.141
798	0.141
799	0.141
799	0.141
800	0.141
800	0.14
801	0.14
801	0.14
801	0.139
802	0.139
802	0.139
803	0.139
803	0.139
804	0.139
804	0.139
804	0.139
805	0.14
805	0.14
806	0.14
806	0.141
807	0.141
807	0.141
807	0.141
808	0.142
808	0.142
809	0.142
809	0.142
810	0.142
810	0.142
810	0.142
811	0.142
811	0.142
812	0.142
812	0.142
813	0.142
813	0.142
813	0.141
814	0.141
814	0.141
815	0.141
815	0.141
816	0.141
816	0.14
817	0.14
817	0.139
817	0.138
818	0.138
818	0.138
819	0.137
819	0.136
820	0.136
820	0.135
820	0.135
821	0.134
821	0.134
822	0.134
822	0.133
823	0.133
823	0.133
823	0.133
824	0.133
824	0.134
825	0.134
825	0.135
826	0.135
826	0.135
826	0.135
827	0.135
827	0.135
828	0.135
828	0.135
829	0.135
829	0.134
829	0.134
830	0.134
830	0.134
831	0.134
831	0.134
832	0.134
832	0.134
832	0.134
833	0.133
833	0.133
834	0.133
834	0.132
835	0.132
835	0.132
835	0.131
836	0.131
836	0.131
837	0.13
837	0.129
838	0.129
838	0.128
839	0.127
839	0.126
839	0.124
840	0.123
840	0.121
841	0.12
841	0.119
842	0.118
842	0.117
842	0.116
843	0.116
843	0.115
844	0.115
844	0.115
845	0.115
845	0.114
845	0.114
846	0.114
846	0.114
847	0.114
847	0.114
848	0.115
848	0.115
848	0.115
849	0.115
849	0.116
850	0.116
850	0.116
851	0.116
851	0.116
851	0.116
852	0.115
852	0.115
853	0.114
853	0.114
854	0.114
854	0.114
854	0.114
855	0.114
855	0.114
856	0.115
856	0.115
857	0.115
857	0.115
857	0.114
858	0.114
858	0.113
859	0.112
859	0.111
860	0.109
860	0.108
860	0.107
861	0.106
861	0.105
862	0.104
862	0.103
863	0.102
863	0.102
863	0.101
864	0.101
864	0.101
865	0.101
865	0.1
866	0.1
866	0.1
866	0.1
867	0.1
867	0.1
868	0.1
868	0.1
869	0.1
869	0.1
869	0.1
870	0.1
870	0.1
871	0.1
871	0.101
872	0.101
872	0.101
872	0.102
873	0.102
873	0.101
874	0.101
874	0.101
875	0.101
875	0.101
875	0.1
876	0.1
876	0.1
877	0.099
877	0.099
878	0.099
878	0.1
878	0.1
879	0.1
879	0.1
880	0.1
880	0.1
881	0.1
881	0.1
881	0.099
882	0.098
882	0.097
883	0.096
883	0.095
884	0.094
884	0.093
884	0.092
885	0.091
885	0.09
886	0.089
886	0.088
887	0.087
887	0.087
887	0.086
888	0.085
888	0.085
889	0.084
889	0.084
890	0.084
890	0.084
890	0.084
891	0.084
891	0.084
892	0.085
892	0.085
893	0.086
893	0.087
893	0.087
894	0.088
894	0.088
895	0.088
895	0.088
895	0.087
896	0.087
896	0.086
897	0.085
897	0.084
898	0.083
898	0.082
898	0.081
899	0.081
899	0.08
900	0.08
900	0.079
901	0.079
901	0.079
901	0.079
902	0.079
902	0.079
903	0.079
903	0.079
904	0.078
904	0.078
904	0.077
905	0.076
905	0.076
906	0.075
906	0.075
907	0.074
907	0.074
907	0.074
908	0.074
908	0.074
909	0.074
909	0.074
910	0.075
910	0.075
910	0.074
911	0.074
911	0.074
912	0.074
912	0.073
913	0.073
913	0.073
913	0.072
914	0.072
914	0.071
915	0.071
915	0.071
916	0.07
916	0.07
916	0.069
917	0.069
917	0.068
918	0.068
918	0.067
918	0.067
919	0.067
919	0.067
920	0.067
920	0.068
921	0.068
921	0.069
921	0.069
922	0.07
922	0.07
923	0.071
923	0.071
924	0.072
924	0.072
924	0.072
925	0.072
925	0.072
926	0.072
926	0.072
927	0.072
927	0.072
927	0.071
928	0.071
928	0.071
929	0.071
929	0.071
930	0.07
930	0.07
930	0.069
931	0.069
931	0.069
932	0.069
932	0.069
933	0.068
933	0.068
933	0.067
934	0.067
934	0.066
935	0.066
935	0.065
935	0.064
936	0.064
936	0.063
937	0.063
937	0.062
938	0.062
938	0.061
938	0.061
939	0.061
939	0.061
940	0.061
940	0.061
941	0.061
941	0.061
941	0.062
942	0.062
942	0.062
943	0.062
943	0.062
944	0.063
944	0.063
944	0.063
945	0.063
945	0.063
946	0.063
946	0.063
946	0.063
947	0.063
947	0.062
948	0.063
948	0.062
949	0.062
949	0.062
949	0.062
950	0.061
950	0.061
951	0.061
951	0.06
952	0.06
952	0.059
952	0.059
953	0.058
953	0.057
954	0.056
954	0.055
955	0.055
955	0.054
955	0.053
956	0.053
956	0.052
957	0.052
957	0.052
957	0.051
958	0.051
958	0.051
959	0.051
959	0.051
960	0.051
960	0.051
960	0.051
961	0.05
961	0.05
962	0.05
962	0.05
963	0.049
963	0.049
963	0.049
964	0.049
964	0.049
965	0.049
965	0.049
966	0.05
966	0.05
966	0.051
967	0.052
967	0.052
968	0.053
968	0.053
968	0.053
969	0.054
969	0.054
970	0.054
970	0.054
971	0.053
971	0.053
971	0.053
972	0.052
972	0.052
973	0.052
973	0.051
974	0.051
974	0.051
974	0.052
975	0.052
975	0.052
976	0.052
976	0.052
976	0.052
977	0.052
977	0.052
978	0.051
978	0.051
979	0.051
979	0.05
979	0.05
980	0.049
980	0.048
981	0.047
981	0.047
982	0.046
982	0.045
982	0.045
983	0.045
983	0.044
984	0.043
984	0.043
984	0.042
985	0.042
985	0.042
986	0.042
986	0.041
987	0.041
987	0.04
987	0.04
988	0.04
988	0.04
989	0.039
989	0.039
990	0.039
990	0.039
990	0.038
991	0.038
991	0.038
992	0.038
992	0.038
992	0.038
993	0.038
993	0.038
994	0.038
994	0.038
995	0.038
995	0.038
995	0.038
996	0.039
996	0.039
997	0.04
997	0.04
997	0.041
998	0.042
998	0.043
999	0.044
999	0.045
1000	0.045
1000	0.046
1000	0.046
1001	0.047
1001	0.047
1002	0.047
1002	0.047
1003	0.047
1003	0.046
1003	0.046
1004	0.046
1004	0.045
1005	0.045
1005	0.044
1005	0.044
1006	0.043
1006	0.043
1007	0.043
1007	0.042
1008	0.042
1008	0.042
1008	0.042
1009	0.042
1009	0.042
1010	0.042
1010	0.042
1010	0.042
1011	0.042
1011	0.042
1012	0.042
1012	0.042
1013	0.042
1013	0.042
1013	0.041
1014	0.041
1014	0.041
1015	0.04
1015	0.04
1016	0.04
1016	0.04
1016	0.039
1017	0.039
1017	0.039
1018	0.039
1018	0.039
1018	0.038
1019	0.038
1019	0.038
1020	0.038
1020	0.038
1021	0.038
1021	0.038
1021	0.038
1022	0.038
1022	0.038
1023	0.037
1023	0.037
1023	0.037
1024	0.037
1024	0.036
1025	0.035
1025	0.035
1026	0.034
1026	0.034
1026	0.033
1027	0.033
1027	0.032
1028	0.032
1028	0.031
1028	0.031
1029	0.03
1029	0.03
1030	0.03
1030	0.03
1031	0.03
1031	0.03
1031	0.03
1032	0.03
1032	0.03
1033	0.03
1033	0.03
1033	0.029
1034	0.029
1034	0.029
1035	0.028
1035	0.028
1036	0.028
1036	0.027
1036	0.027
1037	0.027
1037	0.026
1038	0.026
1038	0.026
1039	0.026
1039	0.026
1039	0.026
1040	0.026
1040	0.026
1041	0.026
1041	0.026
1041	0.026
1042	0.026
1042	0.027
1043	0.027
1043	0.027
1044	0.028
1044	0.028
1044	0.028
1045	0.029
1045	0.029
1046	0.03
1046	0.03
1046	0.031
1047	0.031
1047	0.031
1048	0.032
1048	0.032
1049	0.033
1049	0.033
1049	0.033
1050	0.033
1050	0.032
1051	0.032
1051	0.032
1051	0.031
1052	0.031
1052	0.03
1053	0.03
1053	0.029
1053	0.028
1054	0.027
1054	0.027
1055	0.027
1055	0.026
1056	0.026
1056	0.025
1056	0.025
1057	0.024
1057	0.024
1058	0.024
1058	0.023
1058	0.022
1059	0.022
1059	0.021
1060	0.021
1060	0.021
1061	0.02
1061	0.02
1061	0.02
1062	0.02
1062	0.02
1063	0.02
1063	0.02
1063	0.02
1064	0.02
1064	0.02
1065	0.019
1065	0.019
1066	0.018
1066	0.018
1066	0.017
1067	0.017
1067	0.017
1068	0.016
1068	0.016
1068	0.015
1069	0.015
1069	0.014
1070	0.014
1070	0.014
1071	0.013
1071	0.013
1071	0.012
1072	0.012
1072	0.011
1073	0.01
1073	0.01
1073	0.01
1074	0.01
1074	0.01
1075	0.01
1075	0.011
1076	0.011
1076	0.012
1076	0.012
1077	0.012
1077	0.013
1078	0.013
1078	0.013
1078	0.014
1079	0.014
1079	0.014
1080	0.014
1080	0.014
1080	0.014
1081	0.015
1081	0.015
1082	0.016
1082	0.016
1083	0.016
1083	0.015
1083	0.016
1084	0.016
1084	0.016
1085	0.015
1085	0.015
1085	0.014
1086	0.014
1086	0.013
1087	0.013
1087	0.012
1088	0.012
1088	0.011
1088	0.011
1089	0.011
1089	0.01
1090	0.01
1090	0.009
1090	0.008
1091	0.008
1091	0.008
1092	0.008
1092	0.008
1092	0.007
1093	0.007
1093	0.008
1094	0.008
1094	0.008
1095	0.008
1095	0.007
1095	0.007
1096	0.007
1096	0.006
1097	0.006
1097	0.005
1097	0.006
1098	0.005
1098	0.003
1099	0.003
1099	0.002
1100	0.001
1100	0
1100	-0.001
1101	-0.001
1101	-0.002
1102	-0.002
1102	-0.004
1102	-0.005
1103	-0.005
1103	-0.005
1104	-0.005
1104	-0.005
1104	-0.006
1105	-0.006
1105	-0.008
1106	-0.009
1106	-0.01
1107	-0.011
1107	-0.012
1107	-0.013
1108	-0.014
1108	-0.015
1109	-0.016
1109	-0.017
1109	-0.018
1110	-0.017
1110	-0.019
1111	-0.019
1111	-0.019
