Data from reversibility-20sec_Absorbance__5664__000000000005664.txt Node

Date: Wed Dec 06 19:41:05 CET 2023
User: Marek
Spectrometer: MAYP115816
Trigger mode: 0
Integration Time (sec): 2.000000E-1
Scans to average: 10
Electric dark correction enabled: true
Nonlinearity correction enabled: true
Boxcar width: 5
XAxis mode: Wavelengths
Number of Pixels in Spectrum: 2068
>>>>>Begin Spectral Data<<<<<
199	-0.209
199	-0.172
200	-0.11
200	-0.059
201	-0.029
201	-0.008
202	0.005
202	0.014
203	0.021
203	0.025
204	0.04
204	0.053
205	0.066
205	0.074
205	0.073
206	0.074
206	0.074
207	0.075
207	0.073
208	0.074
208	0.072
209	0.073
209	0.073
210	0.071
210	0.072
211	0.073
211	0.073
212	0.068
212	0.07
213	0.075
213	0.074
213	0.076
214	0.077
214	0.079
215	0.081
215	0.08
216	0.079
216	0.079
217	0.085
217	0.087
218	0.086
218	0.091
219	0.095
219	0.098
220	0.099
220	0.098
221	0.1
221	0.104
221	0.111
222	0.115
222	0.118
223	0.123
223	0.125
224	0.131
224	0.138
225	0.146
225	0.159
226	0.167
226	0.177
227	0.183
227	0.194
228	0.209
228	0.227
229	0.244
229	0.264
229	0.286
230	0.311
230	0.34
231	0.373
231	0.413
232	0.453
232	0.498
233	0.54
233	0.587
234	0.637
234	0.693
235	0.744
235	0.798
236	0.849
236	0.903
236	0.954
237	1.008
237	1.056
238	1.104
238	1.15
239	1.199
239	1.237
240	1.277
240	1.313
241	1.348
241	1.381
242	1.411
242	1.441
243	1.471
243	1.497
243	1.521
244	1.544
244	1.567
245	1.588
245	1.608
246	1.629
246	1.645
247	1.658
247	1.672
248	1.685
248	1.7
249	1.711
249	1.718
250	1.727
250	1.735
250	1.741
251	1.745
251	1.75
252	1.758
252	1.76
253	1.762
253	1.76
254	1.76
254	1.762
255	1.761
255	1.761
256	1.761
256	1.762
257	1.76
257	1.757
258	1.758
258	1.758
258	1.758
259	1.758
259	1.76
260	1.758
260	1.76
261	1.761
261	1.763
262	1.765
262	1.766
263	1.768
263	1.768
264	1.768
264	1.769
265	1.768
265	1.769
265	1.769
266	1.769
266	1.769
267	1.768
267	1.768
268	1.768
268	1.768
269	1.769
269	1.767
270	1.766
270	1.766
271	1.764
271	1.763
272	1.761
272	1.759
272	1.756
273	1.75
273	1.745
274	1.741
274	1.736
275	1.731
275	1.725
276	1.718
276	1.711
277	1.704
277	1.695
278	1.685
278	1.674
278	1.662
279	1.647
279	1.631
280	1.611
280	1.586
281	1.556
281	1.522
282	1.486
282	1.449
283	1.412
283	1.376
284	1.339
284	1.304
285	1.27
285	1.238
285	1.21
286	1.184
286	1.162
287	1.142
287	1.126
288	1.111
288	1.098
289	1.087
289	1.078
290	1.07
290	1.062
291	1.056
291	1.05
292	1.045
292	1.04
292	1.036
293	1.032
293	1.028
294	1.024
294	1.02
295	1.017
295	1.014
296	1.01
296	1.007
297	1.004
297	1.001
298	0.997
298	0.994
298	0.991
299	0.988
299	0.985
300	0.982
300	0.979
301	0.976
301	0.973
302	0.971
302	0.968
303	0.965
303	0.963
304	0.96
304	0.958
305	0.956
305	0.953
305	0.95
306	0.948
306	0.945
307	0.943
307	0.94
308	0.937
308	0.934
309	0.931
309	0.928
310	0.925
310	0.922
311	0.919
311	0.915
311	0.912
312	0.908
312	0.905
313	0.901
313	0.897
314	0.893
314	0.889
315	0.885
315	0.881
316	0.877
316	0.872
317	0.868
317	0.863
318	0.858
318	0.853
318	0.847
319	0.842
319	0.837
320	0.831
320	0.825
321	0.819
321	0.813
322	0.807
322	0.8
323	0.794
323	0.787
324	0.781
324	0.775
324	0.768
325	0.762
325	0.755
326	0.748
326	0.742
327	0.735
327	0.728
328	0.721
328	0.714
329	0.707
329	0.7
330	0.693
330	0.686
330	0.679
331	0.672
331	0.665
332	0.659
332	0.652
333	0.645
333	0.638
334	0.631
334	0.625
335	0.618
335	0.611
336	0.605
336	0.598
336	0.592
337	0.585
337	0.579
338	0.573
338	0.567
339	0.561
339	0.555
340	0.549
340	0.544
341	0.538
341	0.532
342	0.527
342	0.522
342	0.516
343	0.511
343	0.506
344	0.502
344	0.497
345	0.492
345	0.487
346	0.483
346	0.478
347	0.474
347	0.47
348	0.466
348	0.462
348	0.458
349	0.454
349	0.45
350	0.447
350	0.443
351	0.44
351	0.436
352	0.433
352	0.43
353	0.427
353	0.424
354	0.422
354	0.419
354	0.415
355	0.412
355	0.409
356	0.407
356	0.404
357	0.4
357	0.398
358	0.395
358	0.392
359	0.39
359	0.388
360	0.386
360	0.384
360	0.382
361	0.38
361	0.378
362	0.377
362	0.375
363	0.373
363	0.371
364	0.369
364	0.367
365	0.366
365	0.364
366	0.362
366	0.36
366	0.358
367	0.356
367	0.355
368	0.353
368	0.351
369	0.35
369	0.349
370	0.347
370	0.345
371	0.344
371	0.343
372	0.341
372	0.34
372	0.339
373	0.338
373	0.337
374	0.336
374	0.334
375	0.334
375	0.333
376	0.332
376	0.331
377	0.33
377	0.329
378	0.328
378	0.327
378	0.326
379	0.325
379	0.324
380	0.323
380	0.322
381	0.321
381	0.32
382	0.32
382	0.319
383	0.319
383	0.318
383	0.317
384	0.317
384	0.316
385	0.315
385	0.315
386	0.314
386	0.314
387	0.313
387	0.312
388	0.312
388	0.311
389	0.311
389	0.31
389	0.31
390	0.31
390	0.309
391	0.308
391	0.308
392	0.308
392	0.307
393	0.307
393	0.306
394	0.306
394	0.306
394	0.305
395	0.305
395	0.304
396	0.304
396	0.303
397	0.303
397	0.302
398	0.302
398	0.302
399	0.301
399	0.301
400	0.301
400	0.3
400	0.3
401	0.3
401	0.299
402	0.299
402	0.299
403	0.298
403	0.298
404	0.297
404	0.297
405	0.297
405	0.297
405	0.296
406	0.296
406	0.296
407	0.295
407	0.295
408	0.294
408	0.294
409	0.294
409	0.293
410	0.293
410	0.293
411	0.292
411	0.292
411	0.292
412	0.291
412	0.291
413	0.291
413	0.29
414	0.29
414	0.29
415	0.289
415	0.289
416	0.288
416	0.288
416	0.288
417	0.287
417	0.287
418	0.287
418	0.287
419	0.286
419	0.286
420	0.285
420	0.285
421	0.284
421	0.284
421	0.284
422	0.283
422	0.283
423	0.283
423	0.282
424	0.282
424	0.282
425	0.282
425	0.281
426	0.281
426	0.281
427	0.28
427	0.28
427	0.28
428	0.28
428	0.279
429	0.279
429	0.278
430	0.278
430	0.278
431	0.278
431	0.278
432	0.278
432	0.278
432	0.277
433	0.277
433	0.277
434	0.277
434	0.277
435	0.276
435	0.276
436	0.276
436	0.276
437	0.275
437	0.275
437	0.275
438	0.275
438	0.274
439	0.274
439	0.274
440	0.274
440	0.274
441	0.273
441	0.273
442	0.273
442	0.273
442	0.273
443	0.273
443	0.273
444	0.272
444	0.272
445	0.272
445	0.272
446	0.272
446	0.272
447	0.271
447	0.271
447	0.271
448	0.271
448	0.271
449	0.271
449	0.271
450	0.271
450	0.271
451	0.271
451	0.271
452	0.271
452	0.271
452	0.271
453	0.271
453	0.271
454	0.271
454	0.27
455	0.27
455	0.27
456	0.27
456	0.27
457	0.27
457	0.27
458	0.27
458	0.27
458	0.27
459	0.27
459	0.27
460	0.27
460	0.27
461	0.27
461	0.27
462	0.269
462	0.269
463	0.269
463	0.269
463	0.269
464	0.269
464	0.269
465	0.268
465	0.268
466	0.269
466	0.269
467	0.269
467	0.269
467	0.269
468	0.269
468	0.269
469	0.27
469	0.27
470	0.271
470	0.271
471	0.271
471	0.272
472	0.272
472	0.272
472	0.273
473	0.273
473	0.274
474	0.274
474	0.274
475	0.274
475	0.275
476	0.275
476	0.276
477	0.276
477	0.276
477	0.277
478	0.277
478	0.277
479	0.278
479	0.278
480	0.279
480	0.279
481	0.28
481	0.28
482	0.28
482	0.281
482	0.281
483	0.282
483	0.282
484	0.283
484	0.283
485	0.284
485	0.284
486	0.285
486	0.285
487	0.286
487	0.286
487	0.287
488	0.288
488	0.288
489	0.289
489	0.29
490	0.292
490	0.293
491	0.294
491	0.295
492	0.296
492	0.297
492	0.298
493	0.299
493	0.3
494	0.301
494	0.302
495	0.303
495	0.304
496	0.305
496	0.306
496	0.307
497	0.308
497	0.309
498	0.31
498	0.311
499	0.312
499	0.313
500	0.315
500	0.316
501	0.317
501	0.318
501	0.319
502	0.32
502	0.32
503	0.322
503	0.323
504	0.324
504	0.325
505	0.326
505	0.327
506	0.328
506	0.329
506	0.33
507	0.331
507	0.332
508	0.333
508	0.334
509	0.335
509	0.336
510	0.337
510	0.338
511	0.339
511	0.339
511	0.34
512	0.341
512	0.342
513	0.343
513	0.344
514	0.345
514	0.345
515	0.346
515	0.347
515	0.348
516	0.348
516	0.349
517	0.35
517	0.35
518	0.351
518	0.351
519	0.352
519	0.352
520	0.352
520	0.352
520	0.352
521	0.352
521	0.351
522	0.351
522	0.351
523	0.351
523	0.351
524	0.351
524	0.351
524	0.351
525	0.351
525	0.35
526	0.35
526	0.35
527	0.349
527	0.349
528	0.348
528	0.348
529	0.347
529	0.346
529	0.345
530	0.344
530	0.343
531	0.342
531	0.342
532	0.34
532	0.339
533	0.338
533	0.338
533	0.337
534	0.336
534	0.335
535	0.334
535	0.333
536	0.332
536	0.331
537	0.33
537	0.329
538	0.327
538	0.326
538	0.324
539	0.323
539	0.322
540	0.32
540	0.319
541	0.317
541	0.315
542	0.314
542	0.312
542	0.311
543	0.309
543	0.308
544	0.306
544	0.305
545	0.303
545	0.302
546	0.3
546	0.299
547	0.297
547	0.295
547	0.293
548	0.292
548	0.29
549	0.289
549	0.287
550	0.285
550	0.284
551	0.282
551	0.28
551	0.279
552	0.277
552	0.276
553	0.274
553	0.272
554	0.271
554	0.269
555	0.267
555	0.265
556	0.263
556	0.262
556	0.261
557	0.259
557	0.258
558	0.257
558	0.256
559	0.255
559	0.254
560	0.253
560	0.251
560	0.25
561	0.249
561	0.248
562	0.246
562	0.244
563	0.242
563	0.241
564	0.239
564	0.238
564	0.236
565	0.235
565	0.234
566	0.232
566	0.231
567	0.23
567	0.229
568	0.227
568	0.226
568	0.225
569	0.224
569	0.223
570	0.221
570	0.219
571	0.218
571	0.217
572	0.215
572	0.214
573	0.213
573	0.212
573	0.21
574	0.209
574	0.208
575	0.207
575	0.207
576	0.206
576	0.205
577	0.204
577	0.203
577	0.202
578	0.201
578	0.2
579	0.2
579	0.199
580	0.198
580	0.196
581	0.194
581	0.193
581	0.193
582	0.193
582	0.192
583	0.192
583	0.191
584	0.19
584	0.188
585	0.187
585	0.187
585	0.186
586	0.185
586	0.184
587	0.183
587	0.182
588	0.181
588	0.18
589	0.179
589	0.179
590	0.178
590	0.178
590	0.178
591	0.178
591	0.177
592	0.176
592	0.175
593	0.175
593	0.174
594	0.173
594	0.173
594	0.172
595	0.171
595	0.17
596	0.169
596	0.169
597	0.169
597	0.169
598	0.168
598	0.168
598	0.167
599	0.167
599	0.166
600	0.165
600	0.164
601	0.164
601	0.163
602	0.162
602	0.162
602	0.161
603	0.16
603	0.16
604	0.16
604	0.16
605	0.16
605	0.16
606	0.159
606	0.158
606	0.157
607	0.157
607	0.156
608	0.156
608	0.155
609	0.154
609	0.154
610	0.153
610	0.153
610	0.153
611	0.153
611	0.152
612	0.152
612	0.152
613	0.152
613	0.152
614	0.152
614	0.151
614	0.151
615	0.15
615	0.15
616	0.15
616	0.149
617	0.149
617	0.148
618	0.148
618	0.148
618	0.148
619	0.148
619	0.148
620	0.148
620	0.148
621	0.148
621	0.147
622	0.147
622	0.146
622	0.146
623	0.145
623	0.144
624	0.144
624	0.143
625	0.142
625	0.142
626	0.141
626	0.141
626	0.14
627	0.14
627	0.14
628	0.139
628	0.139
629	0.138
629	0.138
630	0.137
630	0.137
630	0.137
631	0.137
631	0.136
632	0.136
632	0.136
633	0.136
633	0.136
634	0.136
634	0.136
634	0.136
635	0.136
635	0.136
636	0.136
636	0.136
637	0.135
637	0.135
638	0.135
638	0.135
638	0.135
639	0.134
639	0.134
640	0.134
640	0.133
641	0.133
641	0.132
642	0.132
642	0.132
642	0.132
643	0.132
643	0.132
644	0.132
644	0.132
645	0.131
645	0.131
646	0.131
646	0.131
646	0.131
647	0.131
647	0.13
648	0.13
648	0.129
649	0.129
649	0.129
650	0.129
650	0.129
650	0.129
651	0.129
651	0.129
652	0.129
652	0.129
653	0.129
653	0.131
653	0.137
654	0.109
654	0.088
655	0.087
655	0.087
656	0.087
656	0.087
657	0.087
657	0.088
657	0.088
658	0.087
658	0.078
659	0.098
659	0.124
660	0.13
660	0.13
661	0.13
661	0.129
661	0.129
662	0.129
662	0.128
663	0.128
663	0.127
664	0.127
664	0.127
665	0.126
665	0.126
665	0.126
666	0.127
666	0.127
667	0.127
667	0.128
668	0.128
668	0.128
669	0.129
669	0.129
669	0.129
670	0.129
670	0.129
671	0.129
671	0.128
672	0.128
672	0.127
672	0.127
673	0.126
673	0.126
674	0.126
674	0.125
675	0.125
675	0.124
676	0.125
676	0.125
676	0.124
677	0.124
677	0.124
678	0.124
678	0.123
679	0.122
679	0.122
680	0.122
680	0.122
680	0.122
681	0.122
681	0.122
682	0.122
682	0.123
683	0.123
683	0.124
684	0.125
684	0.125
684	0.125
685	0.125
685	0.126
686	0.126
686	0.125
687	0.125
687	0.125
687	0.125
688	0.124
688	0.124
689	0.124
689	0.124
690	0.124
690	0.124
691	0.124
691	0.124
691	0.124
692	0.124
692	0.124
693	0.124
693	0.125
694	0.124
694	0.124
695	0.125
695	0.126
695	0.126
696	0.126
696	0.126
697	0.126
697	0.126
698	0.126
698	0.125
698	0.125
699	0.125
699	0.125
700	0.124
700	0.125
701	0.125
701	0.125
702	0.125
702	0.125
702	0.125
703	0.125
703	0.125
704	0.125
704	0.124
705	0.124
705	0.124
705	0.124
706	0.124
706	0.124
707	0.124
707	0.124
708	0.124
708	0.124
709	0.124
709	0.124
709	0.123
710	0.123
710	0.123
711	0.123
711	0.122
712	0.122
712	0.122
713	0.122
713	0.122
713	0.121
714	0.121
714	0.121
715	0.121
715	0.121
716	0.121
716	0.121
716	0.121
717	0.121
717	0.12
718	0.12
718	0.119
719	0.12
719	0.12
720	0.12
720	0.12
720	0.121
721	0.121
721	0.122
722	0.122
722	0.122
723	0.123
723	0.123
723	0.124
724	0.123
724	0.123
725	0.122
725	0.122
726	0.121
726	0.121
727	0.12
727	0.12
727	0.119
728	0.119
728	0.118
729	0.119
729	0.119
730	0.119
730	0.119
730	0.119
731	0.12
731	0.12
732	0.121
732	0.121
733	0.121
733	0.121
734	0.121
734	0.121
734	0.121
735	0.122
735	0.122
736	0.122
736	0.122
737	0.122
737	0.122
737	0.122
738	0.121
738	0.121
739	0.12
739	0.12
740	0.12
740	0.12
741	0.12
741	0.12
741	0.12
742	0.12
742	0.12
743	0.121
743	0.122
744	0.122
744	0.123
744	0.123
745	0.123
745	0.123
746	0.123
746	0.123
747	0.123
747	0.123
748	0.123
748	0.123
748	0.123
749	0.123
749	0.122
750	0.122
750	0.121
751	0.121
751	0.12
751	0.12
752	0.119
752	0.118
753	0.117
753	0.117
754	0.116
754	0.116
754	0.116
755	0.117
755	0.117
756	0.117
756	0.116
757	0.116
757	0.117
758	0.117
758	0.117
758	0.117
759	0.118
759	0.117
760	0.117
760	0.117
761	0.117
761	0.117
761	0.117
762	0.117
762	0.117
763	0.116
763	0.115
764	0.115
764	0.114
764	0.114
765	0.113
765	0.113
766	0.113
766	0.113
767	0.112
767	0.112
768	0.111
768	0.111
768	0.112
769	0.112
769	0.113
770	0.113
770	0.114
771	0.114
771	0.114
771	0.115
772	0.116
772	0.116
773	0.116
773	0.116
774	0.116
774	0.116
775	0.116
775	0.116
775	0.116
776	0.115
776	0.115
777	0.115
777	0.114
778	0.114
778	0.114
778	0.114
779	0.114
779	0.114
780	0.114
780	0.113
781	0.113
781	0.113
781	0.113
782	0.113
782	0.113
783	0.114
783	0.114
784	0.114
784	0.114
784	0.114
785	0.114
785	0.114
786	0.114
786	0.114
787	0.113
787	0.113
788	0.112
788	0.111
788	0.11
789	0.109
789	0.109
790	0.108
790	0.108
791	0.107
791	0.106
791	0.106
792	0.106
792	0.106
793	0.105
793	0.105
794	0.104
794	0.104
794	0.103
795	0.103
795	0.104
796	0.104
796	0.104
797	0.103
797	0.104
797	0.104
798	0.104
798	0.104
799	0.105
799	0.104
800	0.104
800	0.104
801	0.103
801	0.103
801	0.103
802	0.103
802	0.103
803	0.103
803	0.103
804	0.103
804	0.103
804	0.103
805	0.102
805	0.102
806	0.101
806	0.101
807	0.101
807	0.1
807	0.1
808	0.1
808	0.099
809	0.099
809	0.099
810	0.1
810	0.1
810	0.1
811	0.1
811	0.101
812	0.102
812	0.102
813	0.102
813	0.103
813	0.103
814	0.104
814	0.104
815	0.104
815	0.104
816	0.104
816	0.103
817	0.102
817	0.102
817	0.101
818	0.101
818	0.101
819	0.1
819	0.1
820	0.099
820	0.098
820	0.098
821	0.098
821	0.098
822	0.098
822	0.097
823	0.097
823	0.097
823	0.097
824	0.097
824	0.098
825	0.099
825	0.099
826	0.099
826	0.099
826	0.099
827	0.099
827	0.1
828	0.099
828	0.099
829	0.099
829	0.099
829	0.099
830	0.099
830	0.099
831	0.1
831	0.1
832	0.1
832	0.1
832	0.1
833	0.1
833	0.1
834	0.099
834	0.099
835	0.099
835	0.098
835	0.098
836	0.098
836	0.097
837	0.097
837	0.097
838	0.096
838	0.096
839	0.095
839	0.094
839	0.093
840	0.092
840	0.091
841	0.09
841	0.089
842	0.088
842	0.087
842	0.086
843	0.086
843	0.085
844	0.084
844	0.083
845	0.082
845	0.081
845	0.081
846	0.081
846	0.08
847	0.08
847	0.081
848	0.081
848	0.082
848	0.082
849	0.083
849	0.084
850	0.085
850	0.085
851	0.086
851	0.086
851	0.086
852	0.085
852	0.085
853	0.085
853	0.085
854	0.085
854	0.085
854	0.085
855	0.085
855	0.085
856	0.085
856	0.085
857	0.086
857	0.086
857	0.086
858	0.085
858	0.084
859	0.083
859	0.081
860	0.08
860	0.079
860	0.078
861	0.077
861	0.077
862	0.076
862	0.075
863	0.075
863	0.075
863	0.076
864	0.076
864	0.077
865	0.077
865	0.078
866	0.078
866	0.078
866	0.079
867	0.08
867	0.08
868	0.081
868	0.081
869	0.081
869	0.081
869	0.081
870	0.081
870	0.081
871	0.081
871	0.081
872	0.081
872	0.08
872	0.08
873	0.08
873	0.08
874	0.079
874	0.079
875	0.078
875	0.078
875	0.077
876	0.077
876	0.077
877	0.077
877	0.076
878	0.076
878	0.076
878	0.077
879	0.076
879	0.076
880	0.076
880	0.076
881	0.076
881	0.076
881	0.076
882	0.076
882	0.076
883	0.076
883	0.076
884	0.076
884	0.076
884	0.076
885	0.076
885	0.076
886	0.075
886	0.075
887	0.075
887	0.074
887	0.073
888	0.073
888	0.072
889	0.071
889	0.071
890	0.071
890	0.071
890	0.071
891	0.071
891	0.071
892	0.071
892	0.071
893	0.07
893	0.07
893	0.07
894	0.069
894	0.069
895	0.069
895	0.069
895	0.07
896	0.07
896	0.071
897	0.071
897	0.072
898	0.072
898	0.072
898	0.073
899	0.073
899	0.073
900	0.073
900	0.072
901	0.072
901	0.071
901	0.071
902	0.07
902	0.07
903	0.069
903	0.069
904	0.069
904	0.068
904	0.068
905	0.068
905	0.067
906	0.067
906	0.067
907	0.067
907	0.067
907	0.067
908	0.067
908	0.067
909	0.067
909	0.066
910	0.066
910	0.066
910	0.065
911	0.065
911	0.064
912	0.064
912	0.064
913	0.064
913	0.064
913	0.064
914	0.064
914	0.064
915	0.064
915	0.064
916	0.064
916	0.064
916	0.064
917	0.064
917	0.063
918	0.063
918	0.063
918	0.063
919	0.062
919	0.062
920	0.062
920	0.062
921	0.062
921	0.062
921	0.062
922	0.062
922	0.062
923	0.062
923	0.063
924	0.063
924	0.064
924	0.065
925	0.065
925	0.066
926	0.067
926	0.068
927	0.068
927	0.069
927	0.069
928	0.068
928	0.068
929	0.068
929	0.067
930	0.066
930	0.065
930	0.065
931	0.064
931	0.063
932	0.063
932	0.062
933	0.062
933	0.061
933	0.061
934	0.06
934	0.06
935	0.06
935	0.059
935	0.059
936	0.059
936	0.058
937	0.058
937	0.058
938	0.057
938	0.057
938	0.057
939	0.057
939	0.056
940	0.056
940	0.057
941	0.057
941	0.057
941	0.057
942	0.058
942	0.058
943	0.058
943	0.058
944	0.058
944	0.058
944	0.059
945	0.059
945	0.059
946	0.059
946	0.059
946	0.059
947	0.059
947	0.058
948	0.058
948	0.058
949	0.057
949	0.057
949	0.057
950	0.056
950	0.056
951	0.056
951	0.056
952	0.055
952	0.055
952	0.055
953	0.055
953	0.055
954	0.055
954	0.054
955	0.054
955	0.054
955	0.054
956	0.054
956	0.055
957	0.055
957	0.055
957	0.055
958	0.055
958	0.054
959	0.054
959	0.054
960	0.054
960	0.054
960	0.054
961	0.054
961	0.054
962	0.055
962	0.055
963	0.055
963	0.056
963	0.056
964	0.056
964	0.057
965	0.057
965	0.057
966	0.058
966	0.057
966	0.057
967	0.058
967	0.058
968	0.058
968	0.058
968	0.057
969	0.057
969	0.056
970	0.056
970	0.055
971	0.054
971	0.054
971	0.054
972	0.053
972	0.053
973	0.053
973	0.053
974	0.053
974	0.054
974	0.054
975	0.055
975	0.056
976	0.057
976	0.057
976	0.058
977	0.058
977	0.058
978	0.058
978	0.058
979	0.057
979	0.057
979	0.056
980	0.056
980	0.055
981	0.053
981	0.052
982	0.052
982	0.051
982	0.05
983	0.05
983	0.049
984	0.048
984	0.048
984	0.047
985	0.047
985	0.047
986	0.047
986	0.047
987	0.047
987	0.047
987	0.047
988	0.047
988	0.047
989	0.047
989	0.047
990	0.046
990	0.046
990	0.046
991	0.045
991	0.045
992	0.045
992	0.044
992	0.043
993	0.043
993	0.042
994	0.041
994	0.041
995	0.04
995	0.04
995	0.04
996	0.04
996	0.04
997	0.041
997	0.041
997	0.042
998	0.042
998	0.043
999	0.044
999	0.045
1000	0.046
1000	0.047
1000	0.047
1001	0.048
1001	0.048
1002	0.048
1002	0.048
1003	0.048
1003	0.048
1003	0.047
1004	0.046
1004	0.045
1005	0.044
1005	0.044
1005	0.043
1006	0.042
1006	0.041
1007	0.041
1007	0.041
1008	0.041
1008	0.041
1008	0.041
1009	0.041
1009	0.041
1010	0.041
1010	0.042
1010	0.042
1011	0.042
1011	0.042
1012	0.042
1012	0.042
1013	0.042
1013	0.041
1013	0.041
1014	0.041
1014	0.041
1015	0.041
1015	0.042
1016	0.042
1016	0.042
1016	0.042
1017	0.042
1017	0.042
1018	0.043
1018	0.043
1018	0.043
1019	0.043
1019	0.043
1020	0.044
1020	0.044
1021	0.044
1021	0.045
1021	0.045
1022	0.046
1022	0.046
1023	0.046
1023	0.046
1023	0.047
1024	0.046
1024	0.046
1025	0.046
1025	0.046
1026	0.046
1026	0.046
1026	0.045
1027	0.045
1027	0.045
1028	0.045
1028	0.044
1028	0.044
1029	0.044
1029	0.044
1030	0.044
1030	0.043
1031	0.043
1031	0.043
1031	0.043
1032	0.043
1032	0.043
1033	0.043
1033	0.043
1033	0.043
1034	0.043
1034	0.043
1035	0.042
1035	0.042
1036	0.042
1036	0.042
1036	0.042
1037	0.041
1037	0.041
1038	0.041
1038	0.041
1039	0.041
1039	0.041
1039	0.041
1040	0.042
1040	0.042
1041	0.042
1041	0.042
1041	0.042
1042	0.042
1042	0.042
1043	0.042
1043	0.042
1044	0.042
1044	0.042
1044	0.042
1045	0.042
1045	0.042
1046	0.042
1046	0.043
1046	0.043
1047	0.044
1047	0.044
1048	0.045
1048	0.045
1049	0.045
1049	0.046
1049	0.046
1050	0.046
1050	0.045
1051	0.045
1051	0.045
1051	0.045
1052	0.044
1052	0.043
1053	0.042
1053	0.041
1053	0.041
1054	0.04
1054	0.039
1055	0.039
1055	0.039
1056	0.038
1056	0.037
1056	0.037
1057	0.036
1057	0.036
1058	0.036
1058	0.035
1058	0.034
1059	0.034
1059	0.033
1060	0.033
1060	0.032
1061	0.032
1061	0.032
1061	0.032
1062	0.032
1062	0.032
1063	0.032
1063	0.032
1063	0.032
1064	0.032
1064	0.032
1065	0.032
1065	0.032
1066	0.033
1066	0.032
1066	0.032
1067	0.032
1067	0.032
1068	0.032
1068	0.032
1068	0.032
1069	0.032
1069	0.032
1070	0.031
1070	0.031
1071	0.03
1071	0.03
1071	0.03
1072	0.029
1072	0.029
1073	0.028
1073	0.027
1073	0.027
1074	0.027
1074	0.027
1075	0.027
1075	0.027
1076	0.027
1076	0.028
1076	0.028
1077	0.028
1077	0.028
1078	0.028
1078	0.028
1078	0.028
1079	0.028
1079	0.027
1080	0.027
1080	0.027
1080	0.027
1081	0.027
1081	0.027
1082	0.027
1082	0.027
1083	0.027
1083	0.026
1083	0.026
1084	0.026
1084	0.027
1085	0.026
1085	0.026
1085	0.027
1086	0.027
1086	0.026
1087	0.027
1087	0.027
1088	0.027
1088	0.027
1088	0.027
1089	0.026
1089	0.026
1090	0.025
1090	0.025
1090	0.024
1091	0.024
1091	0.024
1092	0.024
1092	0.025
1092	0.024
1093	0.024
1093	0.025
1094	0.024
1094	0.024
1095	0.024
1095	0.024
1095	0.023
1096	0.023
1096	0.022
1097	0.021
1097	0.02
1097	0.02
1098	0.019
1098	0.018
1099	0.018
1099	0.016
1100	0.016
1100	0.014
1100	0.014
1101	0.012
1101	0.011
1102	0.011
1102	0.01
1102	0.009
1103	0.008
1103	0.007
1104	0.007
1104	0.006
1104	0.006
1105	0.004
1105	0.003
1106	0.002
1106	-0
1107	-0.002
1107	-0.004
1107	-0.005
1108	-0.007
1108	-0.008
1109	-0.01
1109	-0.012
1109	-0.014
1110	-0.014
1110	-0.015
1111	-0.016
1111	-0.02
