Data from reversibility-20sec_Absorbance__4351__000000000004351.txt Node

Date: Wed Dec 06 12:23:25 CET 2023
User: Marek
Spectrometer: MAYP115816
Trigger mode: 0
Integration Time (sec): 2.000000E-1
Scans to average: 10
Electric dark correction enabled: true
Nonlinearity correction enabled: true
Boxcar width: 5
XAxis mode: Wavelengths
Number of Pixels in Spectrum: 2068
>>>>>Begin Spectral Data<<<<<
199	-0.207
199	-0.166
200	-0.1
200	-0.04
201	-0.009
201	0.01
202	0.024
202	0.034
203	0.04
203	0.044
204	0.061
204	0.072
205	0.085
205	0.093
205	0.089
206	0.09
206	0.091
207	0.093
207	0.094
208	0.094
208	0.093
209	0.096
209	0.097
210	0.099
210	0.099
211	0.101
211	0.103
212	0.099
212	0.1
213	0.101
213	0.103
213	0.104
214	0.107
214	0.107
215	0.106
215	0.106
216	0.104
216	0.102
217	0.107
217	0.109
218	0.106
218	0.111
219	0.116
219	0.116
220	0.116
220	0.115
221	0.116
221	0.12
221	0.125
222	0.13
222	0.135
223	0.144
223	0.144
224	0.149
224	0.156
225	0.168
225	0.176
226	0.183
226	0.193
227	0.204
227	0.212
228	0.224
228	0.237
229	0.253
229	0.274
229	0.295
230	0.316
230	0.346
231	0.381
231	0.42
232	0.458
232	0.5
233	0.545
233	0.595
234	0.648
234	0.699
235	0.752
235	0.807
236	0.86
236	0.912
236	0.961
237	1.011
237	1.063
238	1.112
238	1.159
239	1.208
239	1.252
240	1.293
240	1.33
241	1.367
241	1.4
242	1.433
242	1.466
243	1.495
243	1.518
243	1.543
244	1.561
244	1.581
245	1.599
245	1.623
246	1.642
246	1.659
247	1.673
247	1.688
248	1.702
248	1.717
249	1.727
249	1.737
250	1.746
250	1.755
250	1.757
251	1.758
251	1.76
252	1.766
252	1.763
253	1.764
253	1.762
254	1.76
254	1.762
255	1.759
255	1.758
256	1.759
256	1.757
257	1.756
257	1.754
258	1.755
258	1.755
258	1.756
259	1.756
259	1.756
260	1.755
260	1.756
261	1.755
261	1.759
262	1.764
262	1.765
263	1.768
263	1.77
264	1.77
264	1.772
265	1.774
265	1.776
265	1.778
266	1.778
266	1.779
267	1.777
267	1.777
268	1.776
268	1.777
269	1.779
269	1.778
270	1.775
270	1.774
271	1.773
271	1.772
272	1.77
272	1.768
272	1.765
273	1.759
273	1.753
274	1.745
274	1.738
275	1.73
275	1.723
276	1.714
276	1.707
277	1.698
277	1.687
278	1.676
278	1.665
278	1.649
279	1.633
279	1.612
280	1.587
280	1.557
281	1.52
281	1.479
282	1.436
282	1.393
283	1.35
283	1.308
284	1.269
284	1.23
285	1.195
285	1.162
285	1.133
286	1.108
286	1.086
287	1.067
287	1.051
288	1.037
288	1.025
289	1.015
289	1.007
290	1
290	0.993
291	0.987
291	0.982
292	0.978
292	0.974
292	0.97
293	0.967
293	0.963
294	0.96
294	0.958
295	0.955
295	0.952
296	0.95
296	0.947
297	0.944
297	0.942
298	0.939
298	0.936
298	0.934
299	0.932
299	0.929
300	0.926
300	0.924
301	0.922
301	0.919
302	0.917
302	0.915
303	0.913
303	0.91
304	0.908
304	0.906
305	0.904
305	0.902
305	0.9
306	0.898
306	0.896
307	0.894
307	0.891
308	0.889
308	0.887
309	0.884
309	0.881
310	0.879
310	0.876
311	0.873
311	0.87
311	0.867
312	0.863
312	0.86
313	0.857
313	0.853
314	0.849
314	0.846
315	0.841
315	0.837
316	0.833
316	0.829
317	0.824
317	0.82
318	0.815
318	0.81
318	0.805
319	0.8
319	0.795
320	0.789
320	0.784
321	0.778
321	0.772
322	0.766
322	0.76
323	0.754
323	0.747
324	0.741
324	0.735
324	0.728
325	0.721
325	0.715
326	0.708
326	0.701
327	0.695
327	0.688
328	0.681
328	0.675
329	0.668
329	0.661
330	0.654
330	0.648
330	0.641
331	0.634
331	0.627
332	0.62
332	0.613
333	0.606
333	0.599
334	0.593
334	0.586
335	0.579
335	0.572
336	0.566
336	0.56
336	0.553
337	0.547
337	0.541
338	0.535
338	0.529
339	0.523
339	0.517
340	0.512
340	0.506
341	0.5
341	0.495
342	0.49
342	0.484
342	0.479
343	0.474
343	0.469
344	0.464
344	0.459
345	0.455
345	0.45
346	0.446
346	0.441
347	0.437
347	0.433
348	0.429
348	0.425
348	0.421
349	0.418
349	0.414
350	0.411
350	0.407
351	0.404
351	0.401
352	0.398
352	0.395
353	0.392
353	0.389
354	0.386
354	0.383
354	0.38
355	0.378
355	0.375
356	0.372
356	0.369
357	0.366
357	0.363
358	0.361
358	0.358
359	0.356
359	0.354
360	0.352
360	0.35
360	0.348
361	0.346
361	0.344
362	0.343
362	0.341
363	0.34
363	0.338
364	0.336
364	0.335
365	0.333
365	0.331
366	0.33
366	0.328
366	0.326
367	0.324
367	0.323
368	0.321
368	0.32
369	0.319
369	0.317
370	0.316
370	0.314
371	0.313
371	0.312
372	0.311
372	0.31
372	0.309
373	0.308
373	0.307
374	0.306
374	0.305
375	0.304
375	0.303
376	0.302
376	0.302
377	0.301
377	0.3
378	0.299
378	0.298
378	0.297
379	0.297
379	0.296
380	0.295
380	0.294
381	0.294
381	0.293
382	0.292
382	0.292
383	0.291
383	0.291
383	0.29
384	0.289
384	0.289
385	0.288
385	0.288
386	0.287
386	0.287
387	0.286
387	0.286
388	0.286
388	0.285
389	0.285
389	0.285
389	0.284
390	0.284
390	0.284
391	0.283
391	0.283
392	0.283
392	0.282
393	0.282
393	0.282
394	0.281
394	0.281
394	0.28
395	0.28
395	0.28
396	0.279
396	0.279
397	0.279
397	0.278
398	0.278
398	0.277
399	0.277
399	0.277
400	0.277
400	0.276
400	0.276
401	0.276
401	0.276
402	0.275
402	0.275
403	0.275
403	0.275
404	0.275
404	0.275
405	0.274
405	0.274
405	0.274
406	0.273
406	0.273
407	0.273
407	0.272
408	0.272
408	0.271
409	0.271
409	0.271
410	0.271
410	0.27
411	0.27
411	0.27
411	0.27
412	0.269
412	0.269
413	0.269
413	0.269
414	0.268
414	0.268
415	0.268
415	0.267
416	0.267
416	0.266
416	0.266
417	0.266
417	0.266
418	0.265
418	0.265
419	0.265
419	0.264
420	0.264
420	0.264
421	0.263
421	0.263
421	0.263
422	0.262
422	0.262
423	0.262
423	0.261
424	0.261
424	0.26
425	0.26
425	0.26
426	0.26
426	0.259
427	0.259
427	0.259
427	0.259
428	0.258
428	0.258
429	0.258
429	0.258
430	0.257
430	0.257
431	0.257
431	0.257
432	0.257
432	0.257
432	0.256
433	0.256
433	0.256
434	0.256
434	0.256
435	0.256
435	0.255
436	0.255
436	0.255
437	0.254
437	0.254
437	0.254
438	0.254
438	0.253
439	0.253
439	0.253
440	0.253
440	0.253
441	0.252
441	0.252
442	0.252
442	0.252
442	0.252
443	0.252
443	0.251
444	0.251
444	0.251
445	0.251
445	0.251
446	0.251
446	0.25
447	0.25
447	0.25
447	0.249
448	0.249
448	0.249
449	0.249
449	0.249
450	0.249
450	0.248
451	0.248
451	0.248
452	0.248
452	0.248
452	0.248
453	0.248
453	0.248
454	0.247
454	0.247
455	0.247
455	0.247
456	0.246
456	0.246
457	0.246
457	0.246
458	0.245
458	0.245
458	0.245
459	0.245
459	0.245
460	0.244
460	0.244
461	0.244
461	0.244
462	0.243
462	0.243
463	0.243
463	0.243
463	0.243
464	0.242
464	0.242
465	0.242
465	0.242
466	0.242
466	0.242
467	0.241
467	0.241
467	0.241
468	0.241
468	0.241
469	0.241
469	0.241
470	0.241
470	0.241
471	0.242
471	0.241
472	0.242
472	0.241
472	0.241
473	0.242
473	0.242
474	0.242
474	0.242
475	0.241
475	0.241
476	0.241
476	0.241
477	0.242
477	0.242
477	0.242
478	0.242
478	0.242
479	0.242
479	0.242
480	0.242
480	0.242
481	0.242
481	0.242
482	0.242
482	0.242
482	0.242
483	0.243
483	0.243
484	0.243
484	0.243
485	0.243
485	0.243
486	0.243
486	0.243
487	0.244
487	0.244
487	0.244
488	0.244
488	0.244
489	0.245
489	0.245
490	0.246
490	0.246
491	0.247
491	0.247
492	0.248
492	0.248
492	0.249
493	0.249
493	0.25
494	0.25
494	0.251
495	0.251
495	0.252
496	0.252
496	0.253
496	0.253
497	0.254
497	0.254
498	0.254
498	0.255
499	0.255
499	0.256
500	0.256
500	0.257
501	0.257
501	0.257
501	0.258
502	0.258
502	0.259
503	0.26
503	0.26
504	0.261
504	0.261
505	0.262
505	0.262
506	0.263
506	0.264
506	0.264
507	0.264
507	0.265
508	0.265
508	0.265
509	0.266
509	0.266
510	0.267
510	0.267
511	0.268
511	0.268
511	0.269
512	0.269
512	0.27
513	0.27
513	0.271
514	0.272
514	0.272
515	0.273
515	0.273
515	0.274
516	0.274
516	0.275
517	0.275
517	0.276
518	0.276
518	0.277
519	0.277
519	0.277
520	0.278
520	0.278
520	0.278
521	0.278
521	0.278
522	0.277
522	0.277
523	0.278
523	0.278
524	0.278
524	0.278
524	0.278
525	0.279
525	0.279
526	0.279
526	0.279
527	0.279
527	0.279
528	0.279
528	0.279
529	0.279
529	0.279
529	0.279
530	0.279
530	0.279
531	0.279
531	0.279
532	0.279
532	0.278
533	0.278
533	0.278
533	0.278
534	0.277
534	0.277
535	0.277
535	0.277
536	0.277
536	0.276
537	0.276
537	0.276
538	0.276
538	0.275
538	0.275
539	0.275
539	0.275
540	0.274
540	0.273
541	0.273
541	0.272
542	0.272
542	0.271
542	0.271
543	0.271
543	0.27
544	0.27
544	0.269
545	0.269
545	0.269
546	0.269
546	0.268
547	0.268
547	0.267
547	0.266
548	0.266
548	0.265
549	0.265
549	0.264
550	0.264
550	0.263
551	0.263
551	0.262
551	0.262
552	0.262
552	0.261
553	0.26
553	0.26
554	0.26
554	0.259
555	0.258
555	0.257
556	0.256
556	0.256
556	0.255
557	0.255
557	0.255
558	0.255
558	0.255
559	0.255
559	0.255
560	0.254
560	0.254
560	0.254
561	0.254
561	0.253
562	0.252
562	0.251
563	0.25
563	0.249
564	0.249
564	0.248
564	0.247
565	0.247
565	0.246
566	0.246
566	0.245
567	0.245
567	0.245
568	0.245
568	0.245
568	0.244
569	0.244
569	0.244
570	0.243
570	0.242
571	0.242
571	0.241
572	0.24
572	0.24
573	0.239
573	0.239
573	0.238
574	0.238
574	0.238
575	0.237
575	0.238
576	0.238
576	0.237
577	0.236
577	0.236
577	0.235
578	0.235
578	0.234
579	0.235
579	0.235
580	0.234
580	0.233
581	0.232
581	0.232
581	0.232
582	0.232
582	0.232
583	0.232
583	0.231
584	0.23
584	0.229
585	0.229
585	0.228
585	0.228
586	0.227
586	0.227
587	0.226
587	0.225
588	0.224
588	0.223
589	0.223
589	0.223
590	0.223
590	0.223
590	0.223
591	0.223
591	0.223
592	0.223
592	0.222
593	0.222
593	0.221
594	0.221
594	0.22
594	0.22
595	0.219
595	0.219
596	0.218
596	0.218
597	0.219
597	0.219
598	0.219
598	0.219
598	0.219
599	0.219
599	0.218
600	0.218
600	0.218
601	0.217
601	0.217
602	0.216
602	0.216
602	0.215
603	0.215
603	0.215
604	0.215
604	0.215
605	0.215
605	0.215
606	0.215
606	0.214
606	0.213
607	0.213
607	0.213
608	0.212
608	0.212
609	0.211
609	0.211
610	0.21
610	0.21
610	0.21
611	0.21
611	0.21
612	0.21
612	0.21
613	0.21
613	0.21
614	0.209
614	0.209
614	0.209
615	0.209
615	0.209
616	0.208
616	0.208
617	0.208
617	0.207
618	0.207
618	0.207
618	0.207
619	0.207
619	0.207
620	0.207
620	0.207
621	0.206
621	0.206
622	0.206
622	0.205
622	0.205
623	0.204
623	0.204
624	0.204
624	0.203
625	0.203
625	0.203
626	0.203
626	0.203
626	0.203
627	0.203
627	0.203
628	0.203
628	0.202
629	0.202
629	0.202
630	0.201
630	0.201
630	0.201
631	0.201
631	0.2
632	0.2
632	0.2
633	0.2
633	0.2
634	0.201
634	0.201
634	0.201
635	0.2
635	0.2
636	0.2
636	0.2
637	0.2
637	0.2
638	0.199
638	0.199
638	0.199
639	0.198
639	0.198
640	0.198
640	0.198
641	0.197
641	0.197
642	0.197
642	0.197
642	0.197
643	0.197
643	0.197
644	0.197
644	0.197
645	0.197
645	0.197
646	0.197
646	0.197
646	0.197
647	0.197
647	0.197
648	0.196
648	0.196
649	0.196
649	0.195
650	0.195
650	0.195
650	0.195
651	0.195
651	0.195
652	0.194
652	0.194
653	0.195
653	0.197
653	0.204
654	0.16
654	0.128
655	0.128
655	0.129
656	0.129
656	0.129
657	0.13
657	0.13
657	0.13
658	0.128
658	0.117
659	0.148
659	0.19
660	0.195
660	0.195
661	0.195
661	0.195
661	0.195
662	0.196
662	0.196
663	0.196
663	0.196
664	0.196
664	0.196
665	0.196
665	0.195
665	0.195
666	0.195
666	0.195
667	0.195
667	0.195
668	0.195
668	0.195
669	0.195
669	0.195
669	0.196
670	0.196
670	0.196
671	0.195
671	0.195
672	0.195
672	0.194
672	0.194
673	0.194
673	0.195
674	0.195
674	0.194
675	0.194
675	0.194
676	0.194
676	0.194
676	0.193
677	0.193
677	0.193
678	0.193
678	0.192
679	0.192
679	0.192
680	0.193
680	0.193
680	0.193
681	0.193
681	0.194
682	0.195
682	0.196
683	0.196
683	0.197
684	0.198
684	0.198
684	0.197
685	0.198
685	0.198
686	0.198
686	0.198
687	0.197
687	0.197
687	0.197
688	0.197
688	0.196
689	0.197
689	0.197
690	0.197
690	0.196
691	0.196
691	0.196
691	0.197
692	0.196
692	0.196
693	0.197
693	0.197
694	0.197
694	0.197
695	0.198
695	0.2
695	0.2
696	0.2
696	0.2
697	0.2
697	0.2
698	0.2
698	0.2
698	0.2
699	0.2
699	0.199
700	0.199
700	0.199
701	0.199
701	0.199
702	0.199
702	0.199
702	0.199
703	0.199
703	0.198
704	0.198
704	0.199
705	0.199
705	0.199
705	0.198
706	0.198
706	0.199
707	0.199
707	0.199
708	0.199
708	0.199
709	0.199
709	0.199
709	0.199
710	0.2
710	0.2
711	0.201
711	0.201
712	0.201
712	0.201
713	0.202
713	0.202
713	0.202
714	0.201
714	0.201
715	0.201
715	0.2
716	0.199
716	0.199
716	0.198
717	0.198
717	0.197
718	0.196
718	0.196
719	0.196
719	0.197
720	0.197
720	0.198
720	0.198
721	0.199
721	0.2
722	0.201
722	0.201
723	0.201
723	0.202
723	0.202
724	0.202
724	0.202
725	0.201
725	0.2
726	0.2
726	0.199
727	0.199
727	0.198
727	0.198
728	0.198
728	0.198
729	0.199
729	0.199
730	0.199
730	0.199
730	0.2
731	0.2
731	0.201
732	0.201
732	0.202
733	0.202
733	0.202
734	0.202
734	0.202
734	0.203
735	0.203
735	0.203
736	0.203
736	0.203
737	0.203
737	0.203
737	0.203
738	0.202
738	0.201
739	0.201
739	0.201
740	0.2
740	0.2
741	0.201
741	0.2
741	0.2
742	0.2
742	0.201
743	0.202
743	0.202
744	0.203
744	0.204
744	0.204
745	0.204
745	0.204
746	0.205
746	0.205
747	0.205
747	0.205
748	0.205
748	0.205
748	0.204
749	0.204
749	0.204
750	0.204
750	0.203
751	0.203
751	0.203
751	0.203
752	0.203
752	0.202
753	0.202
753	0.202
754	0.202
754	0.202
754	0.202
755	0.202
755	0.202
756	0.202
756	0.201
757	0.201
757	0.201
758	0.202
758	0.202
758	0.202
759	0.203
759	0.203
760	0.203
760	0.203
761	0.203
761	0.204
761	0.205
762	0.205
762	0.205
763	0.205
763	0.204
764	0.204
764	0.204
764	0.204
765	0.204
765	0.203
766	0.203
766	0.203
767	0.203
767	0.202
768	0.202
768	0.202
768	0.202
769	0.203
769	0.203
770	0.203
770	0.204
771	0.205
771	0.205
771	0.206
772	0.207
772	0.208
773	0.208
773	0.208
774	0.208
774	0.208
775	0.208
775	0.208
775	0.208
776	0.207
776	0.207
777	0.207
777	0.207
778	0.207
778	0.206
778	0.206
779	0.206
779	0.206
780	0.205
780	0.205
781	0.205
781	0.205
781	0.205
782	0.205
782	0.206
783	0.206
783	0.207
784	0.207
784	0.208
784	0.208
785	0.209
785	0.209
786	0.209
786	0.21
787	0.21
787	0.21
788	0.209
788	0.208
788	0.208
789	0.207
789	0.207
790	0.207
790	0.207
791	0.206
791	0.206
791	0.206
792	0.207
792	0.208
793	0.208
793	0.209
794	0.209
794	0.209
794	0.208
795	0.208
795	0.209
796	0.209
796	0.208
797	0.208
797	0.207
797	0.207
798	0.207
798	0.208
799	0.208
799	0.208
800	0.208
800	0.208
801	0.208
801	0.209
801	0.209
802	0.209
802	0.21
803	0.21
803	0.21
804	0.211
804	0.211
804	0.211
805	0.212
805	0.212
806	0.212
806	0.212
807	0.212
807	0.212
807	0.213
808	0.213
808	0.213
809	0.213
809	0.213
810	0.213
810	0.213
810	0.212
811	0.212
811	0.213
812	0.213
812	0.214
813	0.214
813	0.214
813	0.214
814	0.215
814	0.216
815	0.216
815	0.216
816	0.216
816	0.216
817	0.215
817	0.215
817	0.214
818	0.214
818	0.214
819	0.213
819	0.212
820	0.211
820	0.211
820	0.211
821	0.211
821	0.211
822	0.212
822	0.212
823	0.212
823	0.212
823	0.213
824	0.214
824	0.215
825	0.216
825	0.217
826	0.217
826	0.217
826	0.217
827	0.218
827	0.218
828	0.218
828	0.217
829	0.217
829	0.217
829	0.216
830	0.216
830	0.216
831	0.216
831	0.216
832	0.216
832	0.216
832	0.216
833	0.216
833	0.215
834	0.215
834	0.215
835	0.215
835	0.215
835	0.215
836	0.215
836	0.215
837	0.215
837	0.215
838	0.215
838	0.215
839	0.215
839	0.214
839	0.214
840	0.213
840	0.212
841	0.211
841	0.211
842	0.21
842	0.209
842	0.208
843	0.207
843	0.207
844	0.206
844	0.206
845	0.206
845	0.205
845	0.205
846	0.205
846	0.205
847	0.205
847	0.206
848	0.206
848	0.206
848	0.207
849	0.207
849	0.207
850	0.208
850	0.208
851	0.208
851	0.208
851	0.208
852	0.208
852	0.207
853	0.207
853	0.207
854	0.206
854	0.206
854	0.207
855	0.207
855	0.207
856	0.207
856	0.208
857	0.208
857	0.209
857	0.21
858	0.21
858	0.21
859	0.21
859	0.209
860	0.209
860	0.209
860	0.208
861	0.208
861	0.207
862	0.206
862	0.205
863	0.205
863	0.204
863	0.204
864	0.203
864	0.203
865	0.203
865	0.203
866	0.203
866	0.203
866	0.203
867	0.203
867	0.204
868	0.204
868	0.204
869	0.205
869	0.204
869	0.204
870	0.204
870	0.204
871	0.204
871	0.204
872	0.204
872	0.204
872	0.204
873	0.204
873	0.203
874	0.203
874	0.203
875	0.203
875	0.203
875	0.203
876	0.203
876	0.203
877	0.203
877	0.203
878	0.204
878	0.204
878	0.204
879	0.204
879	0.204
880	0.204
880	0.203
881	0.203
881	0.202
881	0.202
882	0.201
882	0.201
883	0.2
883	0.2
884	0.2
884	0.199
884	0.199
885	0.199
885	0.198
886	0.198
886	0.197
887	0.197
887	0.196
887	0.195
888	0.194
888	0.192
889	0.192
889	0.191
890	0.19
890	0.19
890	0.19
891	0.19
891	0.19
892	0.19
892	0.19
893	0.19
893	0.191
893	0.192
894	0.192
894	0.193
895	0.193
895	0.193
895	0.194
896	0.194
896	0.194
897	0.194
897	0.194
898	0.194
898	0.193
898	0.192
899	0.192
899	0.191
900	0.191
900	0.19
901	0.19
901	0.189
901	0.189
902	0.188
902	0.188
903	0.187
903	0.187
904	0.186
904	0.185
904	0.185
905	0.184
905	0.183
906	0.182
906	0.182
907	0.181
907	0.181
907	0.181
908	0.18
908	0.18
909	0.18
909	0.18
910	0.18
910	0.18
910	0.179
911	0.179
911	0.178
912	0.178
912	0.178
913	0.178
913	0.178
913	0.178
914	0.178
914	0.178
915	0.178
915	0.179
916	0.178
916	0.178
916	0.178
917	0.177
917	0.177
918	0.176
918	0.175
918	0.175
919	0.174
919	0.173
920	0.173
920	0.172
921	0.172
921	0.171
921	0.171
922	0.171
922	0.17
923	0.17
923	0.17
924	0.171
924	0.171
924	0.171
925	0.171
925	0.172
926	0.172
926	0.173
927	0.173
927	0.173
927	0.173
928	0.173
928	0.173
929	0.172
929	0.172
930	0.171
930	0.17
930	0.17
931	0.169
931	0.168
932	0.168
932	0.167
933	0.166
933	0.165
933	0.164
934	0.164
934	0.163
935	0.163
935	0.162
935	0.162
936	0.161
936	0.161
937	0.16
937	0.16
938	0.16
938	0.159
938	0.159
939	0.159
939	0.158
940	0.159
940	0.159
941	0.159
941	0.159
941	0.16
942	0.16
942	0.16
943	0.16
943	0.16
944	0.16
944	0.161
944	0.161
945	0.161
945	0.161
946	0.161
946	0.161
946	0.161
947	0.16
947	0.16
948	0.159
948	0.159
949	0.158
949	0.157
949	0.156
950	0.155
950	0.155
951	0.154
951	0.153
952	0.152
952	0.152
952	0.151
953	0.151
953	0.15
954	0.15
954	0.149
955	0.149
955	0.149
955	0.148
956	0.148
956	0.149
957	0.149
957	0.149
957	0.149
958	0.149
958	0.149
959	0.149
959	0.149
960	0.149
960	0.149
960	0.149
961	0.148
961	0.148
962	0.148
962	0.148
963	0.147
963	0.147
963	0.147
964	0.147
964	0.147
965	0.147
965	0.146
966	0.146
966	0.145
966	0.145
967	0.145
967	0.144
968	0.144
968	0.144
968	0.143
969	0.143
969	0.142
970	0.142
970	0.142
971	0.141
971	0.141
971	0.14
972	0.14
972	0.139
973	0.139
973	0.138
974	0.138
974	0.138
974	0.138
975	0.138
975	0.138
976	0.139
976	0.139
976	0.139
977	0.14
977	0.14
978	0.14
978	0.14
979	0.14
979	0.14
979	0.14
980	0.14
980	0.139
981	0.138
981	0.138
982	0.137
982	0.137
982	0.136
983	0.136
983	0.135
984	0.135
984	0.134
984	0.133
985	0.133
985	0.132
986	0.132
986	0.131
987	0.131
987	0.13
987	0.13
988	0.13
988	0.13
989	0.129
989	0.129
990	0.129
990	0.129
990	0.129
991	0.128
991	0.128
992	0.127
992	0.127
992	0.126
993	0.125
993	0.124
994	0.123
994	0.122
995	0.121
995	0.121
995	0.121
996	0.121
996	0.121
997	0.121
997	0.122
997	0.122
998	0.123
998	0.123
999	0.124
999	0.125
1000	0.126
1000	0.126
1000	0.126
1001	0.127
1001	0.127
1002	0.126
1002	0.126
1003	0.126
1003	0.125
1003	0.124
1004	0.123
1004	0.122
1005	0.122
1005	0.121
1005	0.12
1006	0.119
1006	0.119
1007	0.118
1007	0.118
1008	0.117
1008	0.117
1008	0.117
1009	0.117
1009	0.117
1010	0.117
1010	0.117
1010	0.117
1011	0.116
1011	0.116
1012	0.116
1012	0.116
1013	0.115
1013	0.115
1013	0.114
1014	0.114
1014	0.114
1015	0.113
1015	0.113
1016	0.113
1016	0.113
1016	0.112
1017	0.112
1017	0.111
1018	0.111
1018	0.111
1018	0.11
1019	0.11
1019	0.11
1020	0.109
1020	0.109
1021	0.109
1021	0.109
1021	0.11
1022	0.11
1022	0.11
1023	0.111
1023	0.111
1023	0.112
1024	0.112
1024	0.113
1025	0.113
1025	0.114
1026	0.114
1026	0.114
1026	0.114
1027	0.115
1027	0.115
1028	0.115
1028	0.115
1028	0.114
1029	0.114
1029	0.114
1030	0.114
1030	0.114
1031	0.114
1031	0.114
1031	0.114
1032	0.114
1032	0.114
1033	0.114
1033	0.114
1033	0.114
1034	0.113
1034	0.113
1035	0.112
1035	0.112
1036	0.111
1036	0.111
1036	0.11
1037	0.109
1037	0.109
1038	0.108
1038	0.108
1039	0.107
1039	0.107
1039	0.107
1040	0.107
1040	0.106
1041	0.106
1041	0.106
1041	0.105
1042	0.105
1042	0.105
1043	0.104
1043	0.104
1044	0.104
1044	0.103
1044	0.103
1045	0.103
1045	0.103
1046	0.103
1046	0.103
1046	0.103
1047	0.103
1047	0.103
1048	0.103
1048	0.103
1049	0.103
1049	0.103
1049	0.103
1050	0.102
1050	0.101
1051	0.101
1051	0.1
1051	0.099
1052	0.099
1052	0.098
1053	0.097
1053	0.096
1053	0.096
1054	0.095
1054	0.094
1055	0.094
1055	0.093
1056	0.092
1056	0.092
1056	0.091
1057	0.09
1057	0.089
1058	0.088
1058	0.087
1058	0.086
1059	0.085
1059	0.084
1060	0.083
1060	0.082
1061	0.082
1061	0.081
1061	0.081
1062	0.081
1062	0.081
1063	0.081
1063	0.081
1063	0.081
1064	0.081
1064	0.081
1065	0.081
1065	0.081
1066	0.081
1066	0.081
1066	0.081
1067	0.081
1067	0.081
1068	0.081
1068	0.081
1068	0.081
1069	0.081
1069	0.08
1070	0.08
1070	0.08
1071	0.079
1071	0.079
1071	0.079
1072	0.078
1072	0.078
1073	0.077
1073	0.077
1073	0.077
1074	0.077
1074	0.078
1075	0.077
1075	0.077
1076	0.077
1076	0.077
1076	0.077
1077	0.077
1077	0.077
1078	0.077
1078	0.077
1078	0.077
1079	0.076
1079	0.076
1080	0.075
1080	0.075
1080	0.075
1081	0.075
1081	0.075
1082	0.076
1082	0.076
1083	0.076
1083	0.076
1083	0.076
1084	0.076
1084	0.077
1085	0.077
1085	0.077
1085	0.078
1086	0.079
1086	0.078
1087	0.078
1087	0.078
1088	0.078
1088	0.078
1088	0.079
1089	0.078
1089	0.077
1090	0.077
1090	0.076
1090	0.075
1091	0.075
1091	0.074
1092	0.074
1092	0.075
1092	0.074
1093	0.073
1093	0.074
1094	0.073
1094	0.072
1095	0.072
1095	0.072
1095	0.072
1096	0.071
1096	0.069
1097	0.068
1097	0.067
1097	0.066
1098	0.065
1098	0.064
1099	0.062
1099	0.061
1100	0.059
1100	0.057
1100	0.056
1101	0.055
1101	0.053
1102	0.053
1102	0.051
1102	0.049
1103	0.049
1103	0.049
1104	0.049
1104	0.048
1104	0.048
1105	0.047
1105	0.045
1106	0.043
1106	0.042
1107	0.041
1107	0.039
1107	0.038
1108	0.036
1108	0.034
1109	0.032
1109	0.03
1109	0.031
1110	0.034
1110	0.031
1111	0.032
1111	0.031
