Data from reversibility-20sec_Absorbance__1798__000000000001798.txt Node

Date: Tue Dec 05 22:12:25 CET 2023
User: Marek
Spectrometer: MAYP115816
Trigger mode: 0
Integration Time (sec): 2.000000E-1
Scans to average: 10
Electric dark correction enabled: true
Nonlinearity correction enabled: true
Boxcar width: 5
XAxis mode: Wavelengths
Number of Pixels in Spectrum: 2068
>>>>>Begin Spectral Data<<<<<
199	-0.185
199	-0.144
200	-0.072
200	-0.017
201	0.011
201	0.027
202	0.04
202	0.05
203	0.056
203	0.06
204	0.073
204	0.09
205	0.102
205	0.108
205	0.104
206	0.106
206	0.106
207	0.109
207	0.109
208	0.109
208	0.11
209	0.111
209	0.105
210	0.1
210	0.1
211	0.102
211	0.1
212	0.1
212	0.102
213	0.105
213	0.105
213	0.105
214	0.109
214	0.113
215	0.119
215	0.118
216	0.122
216	0.121
217	0.125
217	0.125
218	0.124
218	0.129
219	0.131
219	0.132
220	0.133
220	0.133
221	0.132
221	0.132
221	0.138
222	0.141
222	0.143
223	0.15
223	0.152
224	0.155
224	0.16
225	0.168
225	0.18
226	0.191
226	0.198
227	0.209
227	0.218
228	0.233
228	0.246
229	0.262
229	0.287
229	0.311
230	0.336
230	0.362
231	0.393
231	0.435
232	0.469
232	0.515
233	0.558
233	0.609
234	0.66
234	0.71
235	0.764
235	0.818
236	0.873
236	0.927
236	0.983
237	1.039
237	1.088
238	1.14
238	1.188
239	1.241
239	1.286
240	1.325
240	1.366
241	1.405
241	1.442
242	1.474
242	1.512
243	1.543
243	1.572
243	1.6
244	1.625
244	1.653
245	1.676
245	1.701
246	1.724
246	1.745
247	1.762
247	1.777
248	1.796
248	1.814
249	1.825
249	1.833
250	1.842
250	1.854
250	1.861
251	1.865
251	1.87
252	1.878
252	1.881
253	1.883
253	1.878
254	1.879
254	1.885
255	1.884
255	1.886
256	1.885
256	1.885
257	1.885
257	1.883
258	1.886
258	1.886
258	1.891
259	1.895
259	1.896
260	1.898
260	1.899
261	1.902
261	1.909
262	1.916
262	1.922
263	1.928
263	1.933
264	1.937
264	1.94
265	1.942
265	1.945
265	1.949
266	1.952
266	1.953
267	1.95
267	1.954
268	1.955
268	1.957
269	1.96
269	1.962
270	1.963
270	1.963
271	1.961
271	1.962
272	1.961
272	1.959
272	1.952
273	1.942
273	1.931
274	1.923
274	1.913
275	1.905
275	1.897
276	1.889
276	1.88
277	1.869
277	1.86
278	1.848
278	1.835
278	1.82
279	1.799
279	1.773
280	1.739
280	1.699
281	1.652
281	1.601
282	1.55
282	1.499
283	1.45
283	1.403
284	1.358
284	1.316
285	1.277
285	1.242
285	1.212
286	1.185
286	1.162
287	1.142
287	1.125
288	1.111
288	1.099
289	1.088
289	1.079
290	1.072
290	1.065
291	1.06
291	1.055
292	1.05
292	1.046
292	1.043
293	1.039
293	1.036
294	1.033
294	1.03
295	1.028
295	1.025
296	1.023
296	1.02
297	1.018
297	1.015
298	1.013
298	1.01
298	1.008
299	1.006
299	1.003
300	1.001
300	0.999
301	0.997
301	0.994
302	0.992
302	0.99
303	0.988
303	0.986
304	0.984
304	0.981
305	0.979
305	0.977
305	0.974
306	0.972
306	0.97
307	0.968
307	0.966
308	0.963
308	0.961
309	0.958
309	0.956
310	0.953
310	0.951
311	0.948
311	0.945
311	0.942
312	0.939
312	0.935
313	0.932
313	0.928
314	0.924
314	0.92
315	0.916
315	0.912
316	0.907
316	0.903
317	0.898
317	0.893
318	0.889
318	0.884
318	0.878
319	0.873
319	0.867
320	0.862
320	0.856
321	0.85
321	0.843
322	0.837
322	0.831
323	0.824
323	0.818
324	0.811
324	0.805
324	0.798
325	0.791
325	0.784
326	0.777
326	0.77
327	0.763
327	0.756
328	0.749
328	0.742
329	0.735
329	0.727
330	0.72
330	0.713
330	0.706
331	0.699
331	0.692
332	0.685
332	0.677
333	0.67
333	0.663
334	0.656
334	0.649
335	0.642
335	0.635
336	0.628
336	0.622
336	0.615
337	0.609
337	0.602
338	0.596
338	0.59
339	0.584
339	0.577
340	0.572
340	0.566
341	0.56
341	0.554
342	0.549
342	0.543
342	0.537
343	0.532
343	0.527
344	0.522
344	0.517
345	0.512
345	0.507
346	0.502
346	0.498
347	0.494
347	0.489
348	0.485
348	0.481
348	0.477
349	0.473
349	0.469
350	0.465
350	0.462
351	0.458
351	0.455
352	0.451
352	0.448
353	0.445
353	0.442
354	0.44
354	0.437
354	0.434
355	0.431
355	0.428
356	0.426
356	0.423
357	0.419
357	0.417
358	0.414
358	0.411
359	0.409
359	0.406
360	0.404
360	0.402
360	0.4
361	0.398
361	0.395
362	0.394
362	0.392
363	0.39
363	0.388
364	0.386
364	0.384
365	0.383
365	0.381
366	0.379
366	0.377
366	0.376
367	0.374
367	0.372
368	0.371
368	0.369
369	0.368
369	0.366
370	0.365
370	0.363
371	0.362
371	0.36
372	0.359
372	0.358
372	0.357
373	0.356
373	0.354
374	0.353
374	0.352
375	0.351
375	0.35
376	0.349
376	0.348
377	0.347
377	0.346
378	0.345
378	0.345
378	0.344
379	0.343
379	0.342
380	0.341
380	0.341
381	0.34
381	0.339
382	0.338
382	0.337
383	0.337
383	0.336
383	0.335
384	0.334
384	0.334
385	0.333
385	0.332
386	0.331
386	0.331
387	0.33
387	0.33
388	0.329
388	0.329
389	0.328
389	0.328
389	0.327
390	0.327
390	0.327
391	0.326
391	0.326
392	0.326
392	0.325
393	0.325
393	0.324
394	0.324
394	0.323
394	0.323
395	0.322
395	0.322
396	0.321
396	0.32
397	0.32
397	0.319
398	0.319
398	0.319
399	0.318
399	0.318
400	0.318
400	0.317
400	0.317
401	0.317
401	0.316
402	0.316
402	0.316
403	0.315
403	0.315
404	0.315
404	0.314
405	0.314
405	0.314
405	0.314
406	0.313
406	0.313
407	0.312
407	0.312
408	0.312
408	0.311
409	0.311
409	0.31
410	0.31
410	0.309
411	0.309
411	0.309
411	0.308
412	0.308
412	0.308
413	0.307
413	0.307
414	0.307
414	0.307
415	0.306
415	0.306
416	0.305
416	0.305
416	0.304
417	0.304
417	0.304
418	0.304
418	0.303
419	0.303
419	0.303
420	0.302
420	0.302
421	0.302
421	0.301
421	0.301
422	0.301
422	0.3
423	0.3
423	0.299
424	0.299
424	0.298
425	0.298
425	0.298
426	0.297
426	0.297
427	0.297
427	0.296
427	0.296
428	0.296
428	0.295
429	0.295
429	0.295
430	0.295
430	0.294
431	0.294
431	0.294
432	0.294
432	0.293
432	0.293
433	0.292
433	0.292
434	0.292
434	0.292
435	0.292
435	0.291
436	0.291
436	0.291
437	0.291
437	0.29
437	0.29
438	0.29
438	0.29
439	0.289
439	0.289
440	0.289
440	0.289
441	0.288
441	0.288
442	0.288
442	0.288
442	0.288
443	0.287
443	0.287
444	0.287
444	0.287
445	0.287
445	0.287
446	0.286
446	0.286
447	0.286
447	0.286
447	0.285
448	0.285
448	0.285
449	0.285
449	0.284
450	0.284
450	0.284
451	0.284
451	0.283
452	0.283
452	0.283
452	0.283
453	0.283
453	0.282
454	0.282
454	0.282
455	0.281
455	0.281
456	0.281
456	0.281
457	0.28
457	0.28
458	0.28
458	0.28
458	0.279
459	0.279
459	0.279
460	0.279
460	0.279
461	0.278
461	0.278
462	0.278
462	0.278
463	0.278
463	0.278
463	0.277
464	0.277
464	0.277
465	0.276
465	0.276
466	0.276
466	0.276
467	0.275
467	0.275
467	0.275
468	0.275
468	0.274
469	0.274
469	0.274
470	0.274
470	0.274
471	0.274
471	0.274
472	0.274
472	0.274
472	0.274
473	0.275
473	0.275
474	0.274
474	0.274
475	0.274
475	0.274
476	0.275
476	0.275
477	0.274
477	0.274
477	0.275
478	0.274
478	0.274
479	0.275
479	0.275
480	0.275
480	0.275
481	0.275
481	0.275
482	0.275
482	0.275
482	0.275
483	0.276
483	0.276
484	0.276
484	0.276
485	0.276
485	0.276
486	0.276
486	0.276
487	0.276
487	0.277
487	0.277
488	0.277
488	0.277
489	0.277
489	0.278
490	0.279
490	0.279
491	0.28
491	0.281
492	0.281
492	0.281
492	0.282
493	0.282
493	0.283
494	0.283
494	0.284
495	0.284
495	0.284
496	0.285
496	0.285
496	0.286
497	0.286
497	0.287
498	0.287
498	0.288
499	0.288
499	0.289
500	0.29
500	0.29
501	0.291
501	0.291
501	0.292
502	0.292
502	0.293
503	0.293
503	0.294
504	0.294
504	0.295
505	0.295
505	0.295
506	0.296
506	0.296
506	0.297
507	0.297
507	0.298
508	0.298
508	0.299
509	0.299
509	0.3
510	0.3
510	0.301
511	0.302
511	0.302
511	0.303
512	0.304
512	0.304
513	0.304
513	0.305
514	0.306
514	0.306
515	0.306
515	0.307
515	0.307
516	0.307
516	0.308
517	0.308
517	0.308
518	0.309
518	0.309
519	0.309
519	0.309
520	0.309
520	0.309
520	0.31
521	0.31
521	0.31
522	0.31
522	0.31
523	0.311
523	0.311
524	0.312
524	0.312
524	0.312
525	0.313
525	0.312
526	0.313
526	0.313
527	0.313
527	0.313
528	0.313
528	0.312
529	0.312
529	0.312
529	0.312
530	0.311
530	0.311
531	0.311
531	0.311
532	0.311
532	0.31
533	0.31
533	0.31
533	0.31
534	0.31
534	0.31
535	0.31
535	0.31
536	0.31
536	0.31
537	0.309
537	0.309
538	0.309
538	0.309
538	0.308
539	0.308
539	0.308
540	0.307
540	0.307
541	0.306
541	0.306
542	0.306
542	0.305
542	0.305
543	0.304
543	0.304
544	0.303
544	0.303
545	0.303
545	0.302
546	0.302
546	0.302
547	0.301
547	0.301
547	0.301
548	0.301
548	0.3
549	0.3
549	0.299
550	0.298
550	0.298
551	0.297
551	0.297
551	0.296
552	0.296
552	0.295
553	0.295
553	0.294
554	0.294
554	0.293
555	0.292
555	0.291
556	0.291
556	0.29
556	0.29
557	0.289
557	0.289
558	0.289
558	0.289
559	0.289
559	0.288
560	0.288
560	0.288
560	0.287
561	0.287
561	0.287
562	0.286
562	0.285
563	0.284
563	0.284
564	0.283
564	0.282
564	0.282
565	0.282
565	0.281
566	0.281
566	0.28
567	0.28
567	0.28
568	0.28
568	0.279
568	0.279
569	0.279
569	0.279
570	0.278
570	0.277
571	0.277
571	0.276
572	0.275
572	0.275
573	0.275
573	0.274
573	0.273
574	0.272
574	0.272
575	0.272
575	0.271
576	0.271
576	0.27
577	0.269
577	0.269
577	0.268
578	0.268
578	0.268
579	0.268
579	0.268
580	0.267
580	0.266
581	0.265
581	0.265
581	0.265
582	0.265
582	0.265
583	0.265
583	0.265
584	0.264
584	0.263
585	0.263
585	0.262
585	0.262
586	0.261
586	0.261
587	0.26
587	0.259
588	0.258
588	0.257
589	0.257
589	0.257
590	0.257
590	0.257
590	0.257
591	0.257
591	0.257
592	0.256
592	0.256
593	0.255
593	0.255
594	0.255
594	0.254
594	0.253
595	0.253
595	0.252
596	0.251
596	0.252
597	0.252
597	0.252
598	0.252
598	0.252
598	0.251
599	0.251
599	0.25
600	0.25
600	0.249
601	0.249
601	0.249
602	0.248
602	0.247
602	0.247
603	0.247
603	0.247
604	0.247
604	0.247
605	0.247
605	0.247
606	0.246
606	0.246
606	0.245
607	0.245
607	0.245
608	0.244
608	0.243
609	0.243
609	0.243
610	0.242
610	0.242
610	0.242
611	0.242
611	0.242
612	0.242
612	0.242
613	0.243
613	0.242
614	0.242
614	0.242
614	0.241
615	0.241
615	0.241
616	0.241
616	0.24
617	0.24
617	0.24
618	0.239
618	0.239
618	0.239
619	0.239
619	0.239
620	0.239
620	0.239
621	0.239
621	0.238
622	0.238
622	0.237
622	0.237
623	0.236
623	0.236
624	0.236
624	0.236
625	0.235
625	0.235
626	0.235
626	0.234
626	0.234
627	0.234
627	0.233
628	0.233
628	0.233
629	0.232
629	0.232
630	0.232
630	0.231
630	0.231
631	0.231
631	0.231
632	0.231
632	0.231
633	0.231
633	0.231
634	0.232
634	0.232
634	0.232
635	0.232
635	0.231
636	0.231
636	0.231
637	0.231
637	0.23
638	0.23
638	0.23
638	0.229
639	0.229
639	0.228
640	0.228
640	0.228
641	0.228
641	0.228
642	0.227
642	0.227
642	0.227
643	0.227
643	0.227
644	0.228
644	0.228
645	0.228
645	0.228
646	0.228
646	0.228
646	0.227
647	0.227
647	0.227
648	0.226
648	0.226
649	0.226
649	0.225
650	0.225
650	0.225
650	0.225
651	0.225
651	0.225
652	0.225
652	0.225
653	0.226
653	0.228
653	0.235
654	0.183
654	0.145
655	0.147
655	0.147
656	0.147
656	0.148
657	0.148
657	0.148
657	0.148
658	0.146
658	0.134
659	0.17
659	0.221
660	0.225
660	0.225
661	0.224
661	0.224
661	0.224
662	0.223
662	0.223
663	0.223
663	0.222
664	0.222
664	0.222
665	0.222
665	0.222
665	0.222
666	0.222
666	0.222
667	0.222
667	0.223
668	0.223
668	0.223
669	0.223
669	0.223
669	0.224
670	0.224
670	0.223
671	0.223
671	0.223
672	0.222
672	0.222
672	0.221
673	0.221
673	0.221
674	0.221
674	0.22
675	0.22
675	0.22
676	0.221
676	0.221
676	0.221
677	0.221
677	0.221
678	0.221
678	0.221
679	0.221
679	0.221
680	0.222
680	0.222
680	0.222
681	0.222
681	0.223
682	0.223
682	0.224
683	0.225
683	0.226
684	0.227
684	0.227
684	0.227
685	0.227
685	0.228
686	0.228
686	0.227
687	0.227
687	0.227
687	0.227
688	0.226
688	0.226
689	0.226
689	0.226
690	0.226
690	0.226
691	0.226
691	0.226
691	0.226
692	0.226
692	0.227
693	0.227
693	0.228
694	0.228
694	0.228
695	0.229
695	0.23
695	0.23
696	0.23
696	0.23
697	0.23
697	0.23
698	0.229
698	0.229
698	0.229
699	0.229
699	0.228
700	0.228
700	0.228
701	0.228
701	0.228
702	0.228
702	0.228
702	0.228
703	0.228
703	0.228
704	0.228
704	0.228
705	0.228
705	0.228
705	0.228
706	0.228
706	0.228
707	0.228
707	0.229
708	0.229
708	0.229
709	0.229
709	0.229
709	0.229
710	0.229
710	0.229
711	0.229
711	0.23
712	0.23
712	0.23
713	0.23
713	0.231
713	0.231
714	0.231
714	0.232
715	0.232
715	0.231
716	0.231
716	0.231
716	0.231
717	0.23
717	0.23
718	0.229
718	0.229
719	0.229
719	0.229
720	0.23
720	0.23
720	0.231
721	0.231
721	0.232
722	0.233
722	0.233
723	0.233
723	0.234
723	0.234
724	0.234
724	0.234
725	0.233
725	0.233
726	0.232
726	0.232
727	0.231
727	0.231
727	0.23
728	0.23
728	0.23
729	0.23
729	0.23
730	0.23
730	0.23
730	0.231
731	0.231
731	0.232
732	0.232
732	0.232
733	0.232
733	0.232
734	0.232
734	0.232
734	0.232
735	0.232
735	0.231
736	0.231
736	0.231
737	0.231
737	0.231
737	0.232
738	0.231
738	0.231
739	0.231
739	0.231
740	0.23
740	0.23
741	0.231
741	0.23
741	0.23
742	0.229
742	0.229
743	0.23
743	0.23
744	0.231
744	0.231
744	0.232
745	0.232
745	0.233
746	0.233
746	0.234
747	0.235
747	0.236
748	0.236
748	0.236
748	0.236
749	0.236
749	0.236
750	0.235
750	0.235
751	0.234
751	0.234
751	0.234
752	0.233
752	0.232
753	0.232
753	0.231
754	0.231
754	0.231
754	0.232
755	0.232
755	0.232
756	0.232
756	0.231
757	0.23
757	0.23
758	0.23
758	0.23
758	0.23
759	0.23
759	0.229
760	0.229
760	0.23
761	0.23
761	0.231
761	0.232
762	0.233
762	0.234
763	0.235
763	0.235
764	0.235
764	0.235
764	0.235
765	0.235
765	0.234
766	0.234
766	0.233
767	0.233
767	0.232
768	0.231
768	0.23
768	0.23
769	0.23
769	0.23
770	0.231
770	0.231
771	0.231
771	0.231
771	0.232
772	0.232
772	0.233
773	0.233
773	0.233
774	0.233
774	0.234
775	0.234
775	0.234
775	0.234
776	0.234
776	0.234
777	0.234
777	0.234
778	0.233
778	0.233
778	0.233
779	0.233
779	0.233
780	0.233
780	0.232
781	0.232
781	0.232
781	0.232
782	0.232
782	0.232
783	0.233
783	0.233
784	0.233
784	0.233
784	0.233
785	0.234
785	0.234
786	0.234
786	0.234
787	0.234
787	0.234
788	0.234
788	0.234
788	0.234
789	0.233
789	0.234
790	0.234
790	0.234
791	0.234
791	0.234
791	0.234
792	0.235
792	0.235
793	0.235
793	0.235
794	0.235
794	0.235
794	0.234
795	0.234
795	0.235
796	0.235
796	0.235
797	0.234
797	0.234
797	0.234
798	0.234
798	0.234
799	0.234
799	0.234
800	0.234
800	0.234
801	0.235
801	0.235
801	0.235
802	0.236
802	0.236
803	0.237
803	0.237
804	0.237
804	0.238
804	0.238
805	0.238
805	0.237
806	0.237
806	0.237
807	0.237
807	0.236
807	0.236
808	0.236
808	0.236
809	0.235
809	0.235
810	0.235
810	0.235
810	0.236
811	0.236
811	0.236
812	0.236
812	0.237
813	0.237
813	0.237
813	0.238
814	0.239
814	0.239
815	0.24
815	0.24
816	0.241
816	0.241
817	0.241
817	0.241
817	0.24
818	0.24
818	0.24
819	0.24
819	0.239
820	0.238
820	0.238
820	0.237
821	0.237
821	0.237
822	0.237
822	0.237
823	0.237
823	0.237
823	0.237
824	0.238
824	0.239
825	0.24
825	0.24
826	0.24
826	0.24
826	0.24
827	0.24
827	0.24
828	0.24
828	0.239
829	0.239
829	0.239
829	0.238
830	0.238
830	0.238
831	0.238
831	0.238
832	0.238
832	0.238
832	0.238
833	0.238
833	0.238
834	0.238
834	0.238
835	0.237
835	0.237
835	0.238
836	0.238
836	0.238
837	0.238
837	0.239
838	0.238
838	0.238
839	0.238
839	0.237
839	0.236
840	0.235
840	0.234
841	0.233
841	0.233
842	0.232
842	0.232
842	0.231
843	0.231
843	0.231
844	0.231
844	0.231
845	0.231
845	0.231
845	0.232
846	0.232
846	0.232
847	0.232
847	0.233
848	0.234
848	0.234
848	0.235
849	0.236
849	0.236
850	0.236
850	0.236
851	0.236
851	0.236
851	0.236
852	0.235
852	0.234
853	0.233
853	0.232
854	0.232
854	0.232
854	0.231
855	0.231
855	0.231
856	0.231
856	0.231
857	0.232
857	0.232
857	0.232
858	0.232
858	0.231
859	0.23
859	0.229
860	0.229
860	0.228
860	0.227
861	0.226
861	0.225
862	0.224
862	0.223
863	0.222
863	0.222
863	0.222
864	0.222
864	0.223
865	0.223
865	0.223
866	0.223
866	0.223
866	0.223
867	0.222
867	0.222
868	0.223
868	0.223
869	0.223
869	0.223
869	0.223
870	0.223
870	0.224
871	0.224
871	0.225
872	0.225
872	0.226
872	0.226
873	0.226
873	0.225
874	0.224
874	0.224
875	0.223
875	0.223
875	0.222
876	0.222
876	0.221
877	0.221
877	0.221
878	0.222
878	0.222
878	0.223
879	0.223
879	0.224
880	0.224
880	0.223
881	0.223
881	0.222
881	0.221
882	0.221
882	0.22
883	0.218
883	0.217
884	0.216
884	0.215
884	0.214
885	0.213
885	0.212
886	0.212
886	0.211
887	0.211
887	0.21
887	0.21
888	0.209
888	0.209
889	0.208
889	0.208
890	0.208
890	0.209
890	0.209
891	0.209
891	0.21
892	0.21
892	0.211
893	0.211
893	0.212
893	0.213
894	0.213
894	0.214
895	0.214
895	0.214
895	0.214
896	0.213
896	0.213
897	0.212
897	0.212
898	0.211
898	0.21
898	0.209
899	0.209
899	0.208
900	0.208
900	0.207
901	0.207
901	0.206
901	0.206
902	0.206
902	0.205
903	0.205
903	0.204
904	0.204
904	0.204
904	0.203
905	0.203
905	0.202
906	0.202
906	0.202
907	0.202
907	0.203
907	0.203
908	0.203
908	0.203
909	0.203
909	0.203
910	0.203
910	0.204
910	0.203
911	0.203
911	0.203
912	0.202
912	0.202
913	0.201
913	0.201
913	0.2
914	0.2
914	0.199
915	0.199
915	0.198
916	0.197
916	0.197
916	0.196
917	0.195
917	0.194
918	0.193
918	0.192
918	0.191
919	0.191
919	0.19
920	0.19
920	0.189
921	0.189
921	0.189
921	0.189
922	0.189
922	0.19
923	0.19
923	0.19
924	0.19
924	0.19
924	0.19
925	0.191
925	0.19
926	0.19
926	0.19
927	0.189
927	0.189
927	0.188
928	0.188
928	0.187
929	0.187
929	0.187
930	0.186
930	0.185
930	0.185
931	0.184
931	0.184
932	0.184
932	0.183
933	0.183
933	0.182
933	0.182
934	0.182
934	0.181
935	0.181
935	0.18
935	0.18
936	0.18
936	0.18
937	0.18
937	0.179
938	0.179
938	0.179
938	0.178
939	0.178
939	0.177
940	0.177
940	0.177
941	0.177
941	0.176
941	0.176
942	0.176
942	0.175
943	0.175
943	0.175
944	0.174
944	0.174
944	0.174
945	0.174
945	0.174
946	0.174
946	0.174
946	0.174
947	0.174
947	0.174
948	0.174
948	0.174
949	0.174
949	0.174
949	0.174
950	0.173
950	0.173
951	0.172
951	0.171
952	0.171
952	0.17
952	0.169
953	0.169
953	0.168
954	0.167
954	0.167
955	0.166
955	0.166
955	0.165
956	0.165
956	0.166
957	0.166
957	0.166
957	0.165
958	0.165
958	0.166
959	0.166
959	0.166
960	0.166
960	0.165
960	0.165
961	0.164
961	0.164
962	0.164
962	0.163
963	0.163
963	0.163
963	0.162
964	0.162
964	0.161
965	0.161
965	0.161
966	0.161
966	0.161
966	0.161
967	0.161
967	0.16
968	0.16
968	0.16
968	0.16
969	0.16
969	0.16
970	0.159
970	0.159
971	0.158
971	0.158
971	0.158
972	0.158
972	0.157
973	0.157
973	0.157
974	0.157
974	0.157
974	0.156
975	0.156
975	0.156
976	0.156
976	0.156
976	0.156
977	0.156
977	0.155
978	0.155
978	0.155
979	0.155
979	0.154
979	0.154
980	0.154
980	0.153
981	0.152
981	0.152
982	0.151
982	0.15
982	0.149
983	0.148
983	0.147
984	0.146
984	0.145
984	0.144
985	0.142
985	0.141
986	0.14
986	0.139
987	0.138
987	0.137
987	0.136
988	0.135
988	0.135
989	0.134
989	0.134
990	0.134
990	0.133
990	0.133
991	0.134
991	0.134
992	0.134
992	0.134
992	0.134
993	0.134
993	0.134
994	0.134
994	0.134
995	0.134
995	0.134
995	0.134
996	0.134
996	0.134
997	0.134
997	0.135
997	0.135
998	0.135
998	0.136
999	0.136
999	0.137
1000	0.138
1000	0.138
1000	0.139
1001	0.139
1001	0.139
1002	0.14
1002	0.14
1003	0.14
1003	0.14
1003	0.139
1004	0.139
1004	0.138
1005	0.138
1005	0.137
1005	0.136
1006	0.135
1006	0.135
1007	0.134
1007	0.134
1008	0.133
1008	0.133
1008	0.133
1009	0.132
1009	0.132
1010	0.131
1010	0.131
1010	0.131
1011	0.13
1011	0.13
1012	0.129
1012	0.129
1013	0.129
1013	0.129
1013	0.129
1014	0.129
1014	0.129
1015	0.129
1015	0.129
1016	0.129
1016	0.129
1016	0.128
1017	0.128
1017	0.128
1018	0.127
1018	0.127
1018	0.127
1019	0.126
1019	0.126
1020	0.125
1020	0.125
1021	0.125
1021	0.124
1021	0.124
1022	0.124
1022	0.124
1023	0.124
1023	0.123
1023	0.123
1024	0.123
1024	0.123
1025	0.123
1025	0.122
1026	0.122
1026	0.121
1026	0.12
1027	0.119
1027	0.119
1028	0.118
1028	0.117
1028	0.117
1029	0.116
1029	0.116
1030	0.116
1030	0.115
1031	0.116
1031	0.116
1031	0.116
1032	0.116
1032	0.117
1033	0.117
1033	0.117
1033	0.117
1034	0.117
1034	0.117
1035	0.117
1035	0.117
1036	0.117
1036	0.117
1036	0.117
1037	0.117
1037	0.116
1038	0.116
1038	0.116
1039	0.116
1039	0.116
1039	0.116
1040	0.116
1040	0.116
1041	0.116
1041	0.116
1041	0.116
1042	0.116
1042	0.115
1043	0.115
1043	0.115
1044	0.115
1044	0.114
1044	0.114
1045	0.114
1045	0.114
1046	0.115
1046	0.115
1046	0.115
1047	0.115
1047	0.115
1048	0.116
1048	0.116
1049	0.117
1049	0.117
1049	0.117
1050	0.116
1050	0.116
1051	0.115
1051	0.114
1051	0.114
1052	0.113
1052	0.112
1053	0.111
1053	0.11
1053	0.109
1054	0.108
1054	0.107
1055	0.107
1055	0.107
1056	0.106
1056	0.105
1056	0.105
1057	0.104
1057	0.103
1058	0.103
1058	0.101
1058	0.101
1059	0.1
1059	0.1
1060	0.099
1060	0.099
1061	0.098
1061	0.098
1061	0.098
1062	0.097
1062	0.097
1063	0.097
1063	0.097
1063	0.096
1064	0.096
1064	0.096
1065	0.096
1065	0.095
1066	0.096
1066	0.096
1066	0.096
1067	0.095
1067	0.095
1068	0.095
1068	0.095
1068	0.095
1069	0.095
1069	0.094
1070	0.093
1070	0.093
1071	0.092
1071	0.091
1071	0.09
1072	0.089
1072	0.089
1073	0.088
1073	0.087
1073	0.087
1074	0.087
1074	0.087
1075	0.087
1075	0.087
1076	0.087
1076	0.088
1076	0.088
1077	0.089
1077	0.089
1078	0.089
1078	0.089
1078	0.089
1079	0.089
1079	0.089
1080	0.089
1080	0.089
1080	0.088
1081	0.089
1081	0.089
1082	0.089
1082	0.089
1083	0.089
1083	0.088
1083	0.088
1084	0.088
1084	0.088
1085	0.088
1085	0.087
1085	0.087
1086	0.086
1086	0.085
1087	0.085
1087	0.084
1088	0.083
1088	0.083
1088	0.083
1089	0.082
1089	0.081
1090	0.081
1090	0.079
1090	0.078
1091	0.079
1091	0.078
1092	0.078
1092	0.079
1092	0.078
1093	0.078
1093	0.078
1094	0.078
1094	0.078
1095	0.078
1095	0.077
1095	0.077
1096	0.076
1096	0.075
1097	0.074
1097	0.073
1097	0.072
1098	0.071
1098	0.07
1099	0.069
1099	0.068
1100	0.067
1100	0.066
1100	0.066
1101	0.065
1101	0.064
1102	0.062
1102	0.061
1102	0.06
1103	0.059
1103	0.058
1104	0.057
1104	0.056
1104	0.055
1105	0.053
1105	0.051
1106	0.049
1106	0.049
1107	0.048
1107	0.048
1107	0.047
1108	0.046
1108	0.045
1109	0.044
1109	0.043
1109	0.044
1110	0.046
1110	0.047
1111	0.047
1111	0.047
