Data from reversibility-20sec_Absorbance__7531__000000000007531.txt Node

Date: Thu Dec 07 06:03:26 CET 2023
User: Marek
Spectrometer: MAYP115816
Trigger mode: 0
Integration Time (sec): 2.000000E-1
Scans to average: 10
Electric dark correction enabled: true
Nonlinearity correction enabled: true
Boxcar width: 5
XAxis mode: Wavelengths
Number of Pixels in Spectrum: 2068
>>>>>Begin Spectral Data<<<<<
199	-0.086
199	-0.054
200	0.004
200	0.056
201	0.082
201	0.095
202	0.103
202	0.112
203	0.118
203	0.123
204	0.137
204	0.149
205	0.159
205	0.164
205	0.159
206	0.16
206	0.162
207	0.163
207	0.164
208	0.163
208	0.164
209	0.162
209	0.161
210	0.162
210	0.165
211	0.168
211	0.168
212	0.166
212	0.169
213	0.171
213	0.176
213	0.176
214	0.181
214	0.182
215	0.184
215	0.184
216	0.183
216	0.182
217	0.185
217	0.186
218	0.182
218	0.183
219	0.184
219	0.184
220	0.19
220	0.188
221	0.187
221	0.191
221	0.198
222	0.203
222	0.208
223	0.217
223	0.222
224	0.226
224	0.232
225	0.236
225	0.247
226	0.256
226	0.269
227	0.279
227	0.288
228	0.3
228	0.316
229	0.331
229	0.355
229	0.378
230	0.406
230	0.438
231	0.468
231	0.502
232	0.536
232	0.582
233	0.628
233	0.673
234	0.724
234	0.775
235	0.831
235	0.883
236	0.93
236	0.983
236	1.032
237	1.087
237	1.137
238	1.184
238	1.231
239	1.276
239	1.315
240	1.352
240	1.388
241	1.424
241	1.46
242	1.494
242	1.527
243	1.551
243	1.578
243	1.603
244	1.624
244	1.648
245	1.666
245	1.687
246	1.705
246	1.721
247	1.731
247	1.742
248	1.758
248	1.768
249	1.778
249	1.784
250	1.79
250	1.797
250	1.798
251	1.8
251	1.803
252	1.807
252	1.806
253	1.806
253	1.803
254	1.8
254	1.801
255	1.798
255	1.798
256	1.797
256	1.796
257	1.794
257	1.792
258	1.792
258	1.79
258	1.791
259	1.79
259	1.791
260	1.791
260	1.791
261	1.792
261	1.794
262	1.798
262	1.8
263	1.805
263	1.805
264	1.806
264	1.81
265	1.81
265	1.811
265	1.811
266	1.812
266	1.813
267	1.809
267	1.809
268	1.807
268	1.808
269	1.809
269	1.808
270	1.806
270	1.806
271	1.804
271	1.803
272	1.8
272	1.8
272	1.796
273	1.79
273	1.784
274	1.776
274	1.768
275	1.761
275	1.753
276	1.745
276	1.737
277	1.728
277	1.718
278	1.706
278	1.692
278	1.678
279	1.661
279	1.639
280	1.611
280	1.578
281	1.538
281	1.496
282	1.45
282	1.404
283	1.359
283	1.316
284	1.274
284	1.233
285	1.196
285	1.162
285	1.131
286	1.105
286	1.082
287	1.062
287	1.045
288	1.031
288	1.019
289	1.009
289	0.999
290	0.992
290	0.986
291	0.98
291	0.974
292	0.969
292	0.965
292	0.961
293	0.958
293	0.954
294	0.95
294	0.947
295	0.944
295	0.941
296	0.938
296	0.935
297	0.932
297	0.929
298	0.926
298	0.923
298	0.92
299	0.918
299	0.915
300	0.912
300	0.909
301	0.907
301	0.904
302	0.901
302	0.899
303	0.897
303	0.894
304	0.892
304	0.89
305	0.888
305	0.885
305	0.883
306	0.881
306	0.879
307	0.877
307	0.874
308	0.871
308	0.869
309	0.866
309	0.864
310	0.861
310	0.858
311	0.855
311	0.852
311	0.848
312	0.845
312	0.842
313	0.838
313	0.834
314	0.831
314	0.827
315	0.822
315	0.818
316	0.814
316	0.809
317	0.804
317	0.799
318	0.795
318	0.789
318	0.784
319	0.779
319	0.773
320	0.767
320	0.762
321	0.756
321	0.75
322	0.743
322	0.737
323	0.73
323	0.724
324	0.717
324	0.71
324	0.704
325	0.697
325	0.69
326	0.683
326	0.676
327	0.669
327	0.662
328	0.655
328	0.648
329	0.64
329	0.633
330	0.626
330	0.619
330	0.612
331	0.605
331	0.598
332	0.591
332	0.583
333	0.576
333	0.569
334	0.562
334	0.555
335	0.548
335	0.541
336	0.534
336	0.527
336	0.521
337	0.514
337	0.508
338	0.502
338	0.495
339	0.489
339	0.483
340	0.478
340	0.472
341	0.466
341	0.46
342	0.454
342	0.449
342	0.443
343	0.438
343	0.433
344	0.427
344	0.422
345	0.417
345	0.413
346	0.408
346	0.404
347	0.399
347	0.395
348	0.391
348	0.387
348	0.383
349	0.379
349	0.376
350	0.372
350	0.369
351	0.365
351	0.362
352	0.359
352	0.356
353	0.353
353	0.35
354	0.347
354	0.344
354	0.341
355	0.338
355	0.335
356	0.333
356	0.33
357	0.327
357	0.324
358	0.322
358	0.319
359	0.317
359	0.315
360	0.313
360	0.311
360	0.309
361	0.307
361	0.305
362	0.303
362	0.302
363	0.3
363	0.298
364	0.296
364	0.295
365	0.293
365	0.291
366	0.289
366	0.288
366	0.286
367	0.284
367	0.283
368	0.281
368	0.28
369	0.279
369	0.277
370	0.276
370	0.275
371	0.273
371	0.272
372	0.271
372	0.27
372	0.269
373	0.268
373	0.267
374	0.266
374	0.265
375	0.264
375	0.263
376	0.262
376	0.261
377	0.26
377	0.26
378	0.259
378	0.258
378	0.257
379	0.256
379	0.256
380	0.255
380	0.254
381	0.254
381	0.253
382	0.253
382	0.252
383	0.252
383	0.251
383	0.251
384	0.25
384	0.25
385	0.249
385	0.249
386	0.249
386	0.249
387	0.248
387	0.248
388	0.247
388	0.247
389	0.247
389	0.247
389	0.246
390	0.246
390	0.246
391	0.245
391	0.245
392	0.245
392	0.245
393	0.244
393	0.244
394	0.243
394	0.243
394	0.242
395	0.242
395	0.242
396	0.242
396	0.241
397	0.241
397	0.24
398	0.24
398	0.24
399	0.24
399	0.24
400	0.239
400	0.239
400	0.239
401	0.239
401	0.239
402	0.238
402	0.238
403	0.238
403	0.238
404	0.238
404	0.237
405	0.237
405	0.237
405	0.237
406	0.236
406	0.236
407	0.236
407	0.236
408	0.235
408	0.235
409	0.235
409	0.235
410	0.234
410	0.234
411	0.234
411	0.234
411	0.234
412	0.234
412	0.233
413	0.233
413	0.233
414	0.232
414	0.232
415	0.232
415	0.232
416	0.231
416	0.231
416	0.23
417	0.23
417	0.23
418	0.229
418	0.229
419	0.229
419	0.228
420	0.228
420	0.227
421	0.227
421	0.226
421	0.226
422	0.226
422	0.226
423	0.225
423	0.225
424	0.224
424	0.224
425	0.224
425	0.224
426	0.224
426	0.224
427	0.223
427	0.223
427	0.223
428	0.222
428	0.222
429	0.221
429	0.221
430	0.22
430	0.22
431	0.22
431	0.22
432	0.219
432	0.219
432	0.219
433	0.219
433	0.218
434	0.218
434	0.218
435	0.218
435	0.218
436	0.218
436	0.218
437	0.217
437	0.217
437	0.217
438	0.217
438	0.216
439	0.216
439	0.216
440	0.215
440	0.215
441	0.215
441	0.214
442	0.214
442	0.214
442	0.213
443	0.213
443	0.213
444	0.213
444	0.213
445	0.213
445	0.213
446	0.213
446	0.212
447	0.212
447	0.212
447	0.212
448	0.212
448	0.211
449	0.211
449	0.211
450	0.211
450	0.21
451	0.21
451	0.21
452	0.21
452	0.21
452	0.21
453	0.209
453	0.209
454	0.209
454	0.209
455	0.208
455	0.208
456	0.208
456	0.208
457	0.207
457	0.207
458	0.207
458	0.206
458	0.206
459	0.206
459	0.206
460	0.206
460	0.205
461	0.205
461	0.205
462	0.205
462	0.205
463	0.205
463	0.204
463	0.204
464	0.204
464	0.203
465	0.203
465	0.202
466	0.202
466	0.202
467	0.202
467	0.202
467	0.202
468	0.202
468	0.202
469	0.202
469	0.202
470	0.202
470	0.202
471	0.202
471	0.201
472	0.201
472	0.201
472	0.201
473	0.201
473	0.201
474	0.201
474	0.2
475	0.2
475	0.2
476	0.2
476	0.2
477	0.2
477	0.2
477	0.2
478	0.199
478	0.199
479	0.199
479	0.199
480	0.199
480	0.199
481	0.199
481	0.199
482	0.199
482	0.199
482	0.199
483	0.199
483	0.199
484	0.199
484	0.199
485	0.198
485	0.198
486	0.198
486	0.198
487	0.198
487	0.198
487	0.198
488	0.198
488	0.198
489	0.199
489	0.199
490	0.199
490	0.2
491	0.2
491	0.2
492	0.201
492	0.201
492	0.201
493	0.202
493	0.202
494	0.202
494	0.202
495	0.202
495	0.203
496	0.203
496	0.203
496	0.203
497	0.204
497	0.204
498	0.204
498	0.204
499	0.204
499	0.205
500	0.206
500	0.206
501	0.206
501	0.207
501	0.206
502	0.207
502	0.207
503	0.207
503	0.208
504	0.208
504	0.208
505	0.208
505	0.209
506	0.209
506	0.209
506	0.21
507	0.21
507	0.211
508	0.211
508	0.211
509	0.211
509	0.212
510	0.212
510	0.212
511	0.212
511	0.213
511	0.213
512	0.213
512	0.213
513	0.214
513	0.214
514	0.215
514	0.215
515	0.216
515	0.216
515	0.216
516	0.217
516	0.217
517	0.218
517	0.218
518	0.218
518	0.218
519	0.218
519	0.218
520	0.218
520	0.219
520	0.219
521	0.219
521	0.219
522	0.219
522	0.219
523	0.22
523	0.22
524	0.22
524	0.22
524	0.221
525	0.221
525	0.221
526	0.221
526	0.221
527	0.222
527	0.222
528	0.222
528	0.222
529	0.222
529	0.222
529	0.222
530	0.222
530	0.222
531	0.222
531	0.222
532	0.221
532	0.221
533	0.221
533	0.221
533	0.221
534	0.221
534	0.221
535	0.221
535	0.222
536	0.222
536	0.222
537	0.222
537	0.222
538	0.222
538	0.221
538	0.221
539	0.221
539	0.221
540	0.221
540	0.221
541	0.221
541	0.221
542	0.221
542	0.221
542	0.221
543	0.221
543	0.221
544	0.221
544	0.221
545	0.221
545	0.221
546	0.221
546	0.22
547	0.22
547	0.219
547	0.219
548	0.219
548	0.218
549	0.218
549	0.218
550	0.218
550	0.218
551	0.217
551	0.217
551	0.217
552	0.217
552	0.217
553	0.217
553	0.217
554	0.216
554	0.216
555	0.215
555	0.215
556	0.214
556	0.214
556	0.214
557	0.215
557	0.215
558	0.215
558	0.215
559	0.215
559	0.215
560	0.215
560	0.216
560	0.216
561	0.216
561	0.215
562	0.214
562	0.213
563	0.213
563	0.212
564	0.211
564	0.211
564	0.21
565	0.21
565	0.21
566	0.21
566	0.21
567	0.21
567	0.21
568	0.21
568	0.21
568	0.209
569	0.209
569	0.209
570	0.208
570	0.207
571	0.207
571	0.207
572	0.206
572	0.205
573	0.205
573	0.205
573	0.205
574	0.204
574	0.204
575	0.204
575	0.204
576	0.204
576	0.203
577	0.203
577	0.202
577	0.202
578	0.201
578	0.201
579	0.201
579	0.202
580	0.201
580	0.201
581	0.2
581	0.2
581	0.201
582	0.201
582	0.201
583	0.201
583	0.2
584	0.2
584	0.198
585	0.198
585	0.198
585	0.198
586	0.198
586	0.198
587	0.197
587	0.197
588	0.196
588	0.196
589	0.196
589	0.196
590	0.196
590	0.196
590	0.196
591	0.196
591	0.196
592	0.195
592	0.195
593	0.194
593	0.194
594	0.194
594	0.193
594	0.192
595	0.192
595	0.191
596	0.191
596	0.191
597	0.192
597	0.192
598	0.192
598	0.192
598	0.192
599	0.192
599	0.192
600	0.192
600	0.191
601	0.191
601	0.191
602	0.19
602	0.19
602	0.189
603	0.189
603	0.189
604	0.189
604	0.189
605	0.189
605	0.189
606	0.189
606	0.188
606	0.188
607	0.188
607	0.187
608	0.187
608	0.186
609	0.186
609	0.186
610	0.185
610	0.185
610	0.185
611	0.185
611	0.185
612	0.185
612	0.186
613	0.186
613	0.186
614	0.186
614	0.185
614	0.186
615	0.186
615	0.186
616	0.186
616	0.186
617	0.186
617	0.185
618	0.185
618	0.185
618	0.185
619	0.185
619	0.185
620	0.185
620	0.185
621	0.184
621	0.183
622	0.183
622	0.183
622	0.182
623	0.182
623	0.182
624	0.182
624	0.182
625	0.181
625	0.182
626	0.182
626	0.182
626	0.182
627	0.182
627	0.182
628	0.182
628	0.182
629	0.182
629	0.181
630	0.181
630	0.181
630	0.181
631	0.181
631	0.18
632	0.18
632	0.18
633	0.18
633	0.18
634	0.18
634	0.18
634	0.18
635	0.18
635	0.179
636	0.179
636	0.179
637	0.179
637	0.179
638	0.179
638	0.179
638	0.178
639	0.178
639	0.177
640	0.177
640	0.177
641	0.177
641	0.177
642	0.176
642	0.177
642	0.177
643	0.177
643	0.177
644	0.177
644	0.177
645	0.177
645	0.178
646	0.178
646	0.179
646	0.179
647	0.179
647	0.179
648	0.178
648	0.178
649	0.178
649	0.177
650	0.177
650	0.177
650	0.177
651	0.177
651	0.176
652	0.177
652	0.177
653	0.178
653	0.179
653	0.184
654	0.145
654	0.116
655	0.117
655	0.117
656	0.117
656	0.118
657	0.118
657	0.118
657	0.118
658	0.117
658	0.108
659	0.135
659	0.173
660	0.178
660	0.178
661	0.177
661	0.176
661	0.176
662	0.175
662	0.175
663	0.175
663	0.175
664	0.175
664	0.174
665	0.174
665	0.174
665	0.175
666	0.175
666	0.175
667	0.175
667	0.175
668	0.176
668	0.176
669	0.176
669	0.176
669	0.177
670	0.177
670	0.177
671	0.177
671	0.176
672	0.176
672	0.176
672	0.175
673	0.175
673	0.175
674	0.175
674	0.174
675	0.174
675	0.174
676	0.174
676	0.175
676	0.175
677	0.175
677	0.175
678	0.175
678	0.175
679	0.175
679	0.175
680	0.175
680	0.175
680	0.174
681	0.174
681	0.174
682	0.175
682	0.175
683	0.175
683	0.175
684	0.175
684	0.175
684	0.174
685	0.175
685	0.175
686	0.175
686	0.175
687	0.175
687	0.175
687	0.176
688	0.176
688	0.176
689	0.177
689	0.178
690	0.178
690	0.177
691	0.177
691	0.178
691	0.178
692	0.178
692	0.178
693	0.178
693	0.179
694	0.179
694	0.179
695	0.18
695	0.181
695	0.181
696	0.181
696	0.181
697	0.181
697	0.181
698	0.181
698	0.18
698	0.18
699	0.18
699	0.179
700	0.178
700	0.178
701	0.178
701	0.177
702	0.177
702	0.176
702	0.176
703	0.176
703	0.175
704	0.175
704	0.174
705	0.174
705	0.174
705	0.174
706	0.174
706	0.174
707	0.174
707	0.174
708	0.175
708	0.175
709	0.175
709	0.175
709	0.175
710	0.176
710	0.176
711	0.177
711	0.177
712	0.178
712	0.178
713	0.178
713	0.179
713	0.179
714	0.179
714	0.179
715	0.179
715	0.178
716	0.177
716	0.177
716	0.176
717	0.176
717	0.175
718	0.174
718	0.174
719	0.175
719	0.175
720	0.176
720	0.176
720	0.177
721	0.178
721	0.179
722	0.18
722	0.181
723	0.181
723	0.182
723	0.182
724	0.181
724	0.181
725	0.18
725	0.179
726	0.178
726	0.178
727	0.177
727	0.176
727	0.176
728	0.176
728	0.176
729	0.176
729	0.177
730	0.177
730	0.177
730	0.178
731	0.178
731	0.179
732	0.179
732	0.18
733	0.18
733	0.18
734	0.18
734	0.181
734	0.181
735	0.181
735	0.181
736	0.181
736	0.181
737	0.181
737	0.181
737	0.18
738	0.18
738	0.179
739	0.179
739	0.179
740	0.179
740	0.179
741	0.179
741	0.18
741	0.18
742	0.181
742	0.182
743	0.183
743	0.184
744	0.185
744	0.185
744	0.186
745	0.186
745	0.186
746	0.186
746	0.185
747	0.185
747	0.185
748	0.184
748	0.184
748	0.184
749	0.184
749	0.184
750	0.184
750	0.184
751	0.185
751	0.185
751	0.185
752	0.185
752	0.185
753	0.185
753	0.185
754	0.184
754	0.184
754	0.184
755	0.184
755	0.184
756	0.183
756	0.182
757	0.182
757	0.182
758	0.182
758	0.182
758	0.182
759	0.182
759	0.182
760	0.182
760	0.181
761	0.182
761	0.182
761	0.183
762	0.183
762	0.183
763	0.183
763	0.183
764	0.183
764	0.183
764	0.183
765	0.183
765	0.183
766	0.183
766	0.183
767	0.183
767	0.182
768	0.182
768	0.182
768	0.182
769	0.182
769	0.183
770	0.183
770	0.183
771	0.184
771	0.184
771	0.184
772	0.185
772	0.185
773	0.186
773	0.186
774	0.186
774	0.186
775	0.186
775	0.186
775	0.186
776	0.187
776	0.187
777	0.188
777	0.188
778	0.188
778	0.189
778	0.189
779	0.189
779	0.189
780	0.188
780	0.187
781	0.187
781	0.186
781	0.186
782	0.185
782	0.185
783	0.186
783	0.186
784	0.186
784	0.186
784	0.187
785	0.187
785	0.188
786	0.188
786	0.188
787	0.189
787	0.189
788	0.188
788	0.188
788	0.187
789	0.187
789	0.188
790	0.188
790	0.188
791	0.188
791	0.188
791	0.188
792	0.189
792	0.19
793	0.19
793	0.19
794	0.189
794	0.189
794	0.189
795	0.189
795	0.189
796	0.189
796	0.189
797	0.189
797	0.189
797	0.189
798	0.189
798	0.189
799	0.189
799	0.189
800	0.189
800	0.189
801	0.189
801	0.189
801	0.19
802	0.19
802	0.191
803	0.191
803	0.192
804	0.192
804	0.193
804	0.193
805	0.193
805	0.193
806	0.192
806	0.192
807	0.192
807	0.191
807	0.191
808	0.191
808	0.191
809	0.191
809	0.191
810	0.191
810	0.191
810	0.191
811	0.191
811	0.192
812	0.193
812	0.193
813	0.193
813	0.194
813	0.195
814	0.195
814	0.196
815	0.196
815	0.196
816	0.196
816	0.196
817	0.195
817	0.195
817	0.194
818	0.194
818	0.193
819	0.193
819	0.192
820	0.192
820	0.191
820	0.191
821	0.192
821	0.192
822	0.192
822	0.193
823	0.193
823	0.194
823	0.194
824	0.195
824	0.197
825	0.198
825	0.199
826	0.2
826	0.2
826	0.2
827	0.201
827	0.202
828	0.202
828	0.202
829	0.203
829	0.203
829	0.203
830	0.203
830	0.203
831	0.204
831	0.204
832	0.203
832	0.203
832	0.203
833	0.204
833	0.203
834	0.203
834	0.203
835	0.202
835	0.202
835	0.201
836	0.201
836	0.201
837	0.2
837	0.2
838	0.199
838	0.198
839	0.197
839	0.196
839	0.195
840	0.194
840	0.194
841	0.193
841	0.192
842	0.192
842	0.191
842	0.191
843	0.19
843	0.19
844	0.19
844	0.19
845	0.19
845	0.19
845	0.191
846	0.191
846	0.191
847	0.192
847	0.192
848	0.193
848	0.193
848	0.193
849	0.192
849	0.192
850	0.191
850	0.191
851	0.19
851	0.19
851	0.189
852	0.189
852	0.189
853	0.189
853	0.189
854	0.19
854	0.191
854	0.192
855	0.193
855	0.194
856	0.195
856	0.196
857	0.197
857	0.198
857	0.198
858	0.199
858	0.199
859	0.199
859	0.199
860	0.199
860	0.199
860	0.199
861	0.199
861	0.198
862	0.198
862	0.197
863	0.196
863	0.196
863	0.196
864	0.195
864	0.195
865	0.195
865	0.195
866	0.195
866	0.195
866	0.195
867	0.195
867	0.195
868	0.195
868	0.195
869	0.195
869	0.194
869	0.194
870	0.193
870	0.193
871	0.193
871	0.193
872	0.193
872	0.193
872	0.193
873	0.193
873	0.193
874	0.192
874	0.192
875	0.192
875	0.192
875	0.192
876	0.191
876	0.191
877	0.191
877	0.19
878	0.19
878	0.19
878	0.19
879	0.19
879	0.19
880	0.19
880	0.19
881	0.191
881	0.191
881	0.191
882	0.191
882	0.191
883	0.192
883	0.192
884	0.193
884	0.193
884	0.193
885	0.193
885	0.193
886	0.193
886	0.193
887	0.193
887	0.193
887	0.192
888	0.192
888	0.191
889	0.191
889	0.191
890	0.191
890	0.191
890	0.191
891	0.191
891	0.191
892	0.191
892	0.192
893	0.192
893	0.192
893	0.191
894	0.191
894	0.19
895	0.19
895	0.189
895	0.189
896	0.189
896	0.188
897	0.188
897	0.187
898	0.187
898	0.186
898	0.186
899	0.185
899	0.185
900	0.184
900	0.184
901	0.184
901	0.184
901	0.183
902	0.183
902	0.183
903	0.183
903	0.183
904	0.183
904	0.183
904	0.183
905	0.183
905	0.183
906	0.182
906	0.183
907	0.183
907	0.183
907	0.182
908	0.182
908	0.182
909	0.182
909	0.181
910	0.181
910	0.18
910	0.18
911	0.179
911	0.179
912	0.178
912	0.177
913	0.176
913	0.176
913	0.175
914	0.175
914	0.174
915	0.174
915	0.174
916	0.174
916	0.174
916	0.174
917	0.174
917	0.175
918	0.174
918	0.174
918	0.174
919	0.174
919	0.174
920	0.174
920	0.174
921	0.174
921	0.174
921	0.174
922	0.174
922	0.174
923	0.174
923	0.174
924	0.174
924	0.173
924	0.173
925	0.174
925	0.173
926	0.173
926	0.174
927	0.174
927	0.174
927	0.174
928	0.174
928	0.174
929	0.175
929	0.175
930	0.175
930	0.175
930	0.174
931	0.174
931	0.174
932	0.173
932	0.173
933	0.173
933	0.172
933	0.172
934	0.171
934	0.171
935	0.17
935	0.17
935	0.169
936	0.169
936	0.169
937	0.168
937	0.167
938	0.167
938	0.166
938	0.166
939	0.165
939	0.164
940	0.164
940	0.164
941	0.164
941	0.164
941	0.164
942	0.164
942	0.165
943	0.165
943	0.165
944	0.165
944	0.166
944	0.166
945	0.166
945	0.165
946	0.165
946	0.165
946	0.164
947	0.164
947	0.164
948	0.163
948	0.163
949	0.162
949	0.162
949	0.161
950	0.161
950	0.16
951	0.16
951	0.159
952	0.158
952	0.157
952	0.157
953	0.156
953	0.155
954	0.155
954	0.155
955	0.155
955	0.155
955	0.155
956	0.156
956	0.157
957	0.158
957	0.159
957	0.16
958	0.16
958	0.161
959	0.161
959	0.162
960	0.162
960	0.162
960	0.163
961	0.162
961	0.162
962	0.162
962	0.161
963	0.161
963	0.16
963	0.16
964	0.159
964	0.159
965	0.159
965	0.158
966	0.158
966	0.158
966	0.158
967	0.158
967	0.158
968	0.158
968	0.158
968	0.158
969	0.157
969	0.157
970	0.156
970	0.155
971	0.154
971	0.153
971	0.152
972	0.151
972	0.151
973	0.15
973	0.149
974	0.149
974	0.149
974	0.149
975	0.149
975	0.149
976	0.149
976	0.15
976	0.15
977	0.15
977	0.15
978	0.15
978	0.15
979	0.15
979	0.15
979	0.15
980	0.15
980	0.15
981	0.15
981	0.15
982	0.15
982	0.15
982	0.15
983	0.15
983	0.15
984	0.15
984	0.149
984	0.149
985	0.149
985	0.149
986	0.149
986	0.148
987	0.148
987	0.147
987	0.147
988	0.146
988	0.146
989	0.146
989	0.146
990	0.145
990	0.145
990	0.144
991	0.144
991	0.144
992	0.143
992	0.143
992	0.142
993	0.141
993	0.14
994	0.139
994	0.139
995	0.138
995	0.137
995	0.137
996	0.137
996	0.137
997	0.137
997	0.137
997	0.138
998	0.138
998	0.139
999	0.139
999	0.14
1000	0.141
1000	0.142
1000	0.142
1001	0.143
1001	0.143
1002	0.143
1002	0.143
1003	0.143
1003	0.143
1003	0.143
1004	0.142
1004	0.142
1005	0.141
1005	0.141
1005	0.14
1006	0.14
1006	0.139
1007	0.139
1007	0.139
1008	0.139
1008	0.138
1008	0.138
1009	0.138
1009	0.138
1010	0.137
1010	0.137
1010	0.137
1011	0.136
1011	0.135
1012	0.135
1012	0.134
1013	0.134
1013	0.133
1013	0.133
1014	0.132
1014	0.132
1015	0.132
1015	0.132
1016	0.132
1016	0.131
1016	0.131
1017	0.131
1017	0.131
1018	0.131
1018	0.131
1018	0.131
1019	0.131
1019	0.13
1020	0.13
1020	0.131
1021	0.131
1021	0.131
1021	0.132
1022	0.132
1022	0.132
1023	0.132
1023	0.132
1023	0.133
1024	0.133
1024	0.133
1025	0.133
1025	0.133
1026	0.132
1026	0.132
1026	0.132
1027	0.132
1027	0.132
1028	0.132
1028	0.132
1028	0.132
1029	0.132
1029	0.131
1030	0.131
1030	0.131
1031	0.131
1031	0.131
1031	0.131
1032	0.131
1032	0.131
1033	0.131
1033	0.13
1033	0.13
1034	0.13
1034	0.13
1035	0.13
1035	0.13
1036	0.129
1036	0.129
1036	0.129
1037	0.129
1037	0.129
1038	0.128
1038	0.128
1039	0.128
1039	0.128
1039	0.128
1040	0.127
1040	0.127
1041	0.127
1041	0.126
1041	0.126
1042	0.126
1042	0.126
1043	0.125
1043	0.125
1044	0.125
1044	0.125
1044	0.124
1045	0.124
1045	0.123
1046	0.123
1046	0.123
1046	0.123
1047	0.122
1047	0.122
1048	0.122
1048	0.122
1049	0.121
1049	0.121
1049	0.121
1050	0.121
1050	0.12
1051	0.12
1051	0.119
1051	0.119
1052	0.119
1052	0.118
1053	0.117
1053	0.117
1053	0.116
1054	0.116
1054	0.116
1055	0.115
1055	0.115
1056	0.114
1056	0.114
1056	0.113
1057	0.112
1057	0.112
1058	0.111
1058	0.11
1058	0.109
1059	0.109
1059	0.108
1060	0.108
1060	0.107
1061	0.107
1061	0.106
1061	0.106
1062	0.106
1062	0.107
1063	0.106
1063	0.106
1063	0.106
1064	0.106
1064	0.106
1065	0.105
1065	0.105
1066	0.105
1066	0.105
1066	0.105
1067	0.104
1067	0.104
1068	0.104
1068	0.104
1068	0.104
1069	0.104
1069	0.103
1070	0.103
1070	0.103
1071	0.102
1071	0.102
1071	0.102
1072	0.102
1072	0.102
1073	0.102
1073	0.102
1073	0.102
1074	0.102
1074	0.103
1075	0.103
1075	0.104
1076	0.104
1076	0.104
1076	0.105
1077	0.105
1077	0.105
1078	0.105
1078	0.105
1078	0.104
1079	0.104
1079	0.104
1080	0.103
1080	0.103
1080	0.103
1081	0.103
1081	0.103
1082	0.103
1082	0.103
1083	0.104
1083	0.103
1083	0.103
1084	0.103
1084	0.103
1085	0.104
1085	0.103
1085	0.103
1086	0.103
1086	0.102
1087	0.102
1087	0.102
1088	0.101
1088	0.101
1088	0.101
1089	0.1
1089	0.1
1090	0.099
1090	0.099
1090	0.098
1091	0.098
1091	0.098
1092	0.098
1092	0.098
1092	0.098
1093	0.098
1093	0.098
1094	0.098
1094	0.098
1095	0.097
1095	0.097
1095	0.096
1096	0.095
1096	0.094
1097	0.093
1097	0.092
1097	0.092
1098	0.091
1098	0.09
1099	0.089
1099	0.088
1100	0.088
1100	0.087
1100	0.086
1101	0.085
1101	0.084
1102	0.084
1102	0.082
1102	0.081
1103	0.081
1103	0.081
1104	0.08
1104	0.079
1104	0.078
1105	0.078
1105	0.077
1106	0.077
1106	0.076
1107	0.076
1107	0.075
1107	0.075
1108	0.074
1108	0.074
1109	0.073
1109	0.073
1109	0.073
1110	0.074
1110	0.073
1111	0.071
1111	0.07
