Data from reversibility-20sec_Absorbance__6745__000000000006745.txt Node

Date: Thu Dec 07 01:41:26 CET 2023
User: Marek
Spectrometer: MAYP115816
Trigger mode: 0
Integration Time (sec): 2.000000E-1
Scans to average: 10
Electric dark correction enabled: true
Nonlinearity correction enabled: true
Boxcar width: 5
XAxis mode: Wavelengths
Number of Pixels in Spectrum: 2068
>>>>>Begin Spectral Data<<<<<
199	-0.177
199	-0.153
200	-0.077
200	-0.027
201	-0.003
201	0.014
202	0.024
202	0.031
203	0.041
203	0.044
204	0.059
204	0.072
205	0.085
205	0.088
205	0.089
206	0.092
206	0.094
207	0.096
207	0.096
208	0.095
208	0.096
209	0.097
209	0.095
210	0.096
210	0.096
211	0.097
211	0.096
212	0.093
212	0.094
213	0.098
213	0.098
213	0.095
214	0.1
214	0.102
215	0.103
215	0.104
216	0.105
216	0.106
217	0.111
217	0.112
218	0.112
218	0.116
219	0.122
219	0.122
220	0.124
220	0.123
221	0.125
221	0.127
221	0.132
222	0.136
222	0.141
223	0.15
223	0.155
224	0.16
224	0.168
225	0.176
225	0.188
226	0.199
226	0.209
227	0.218
227	0.228
228	0.242
228	0.257
229	0.271
229	0.296
229	0.317
230	0.342
230	0.372
231	0.401
231	0.441
232	0.478
232	0.521
233	0.566
233	0.614
234	0.668
234	0.72
235	0.774
235	0.829
236	0.881
236	0.933
236	0.98
237	1.034
237	1.082
238	1.129
238	1.174
239	1.219
239	1.261
240	1.299
240	1.331
241	1.367
241	1.402
242	1.436
242	1.47
243	1.501
243	1.528
243	1.552
244	1.574
244	1.594
245	1.614
245	1.638
246	1.656
246	1.672
247	1.684
247	1.696
248	1.707
248	1.72
249	1.734
249	1.742
250	1.749
250	1.758
250	1.762
251	1.767
251	1.771
252	1.775
252	1.778
253	1.779
253	1.779
254	1.777
254	1.779
255	1.78
255	1.779
256	1.78
256	1.78
257	1.782
257	1.782
258	1.781
258	1.781
258	1.781
259	1.781
259	1.779
260	1.779
260	1.779
261	1.779
261	1.781
262	1.781
262	1.782
263	1.785
263	1.787
264	1.787
264	1.788
265	1.79
265	1.791
265	1.792
266	1.792
266	1.792
267	1.79
267	1.791
268	1.79
268	1.79
269	1.791
269	1.789
270	1.787
270	1.785
271	1.782
271	1.782
272	1.779
272	1.779
272	1.777
273	1.772
273	1.768
274	1.764
274	1.76
275	1.754
275	1.749
276	1.744
276	1.735
277	1.728
277	1.718
278	1.707
278	1.696
278	1.682
279	1.669
279	1.653
280	1.634
280	1.61
281	1.581
281	1.551
282	1.516
282	1.481
283	1.445
283	1.409
284	1.374
284	1.338
285	1.304
285	1.272
285	1.243
286	1.218
286	1.195
287	1.174
287	1.157
288	1.141
288	1.128
289	1.116
289	1.105
290	1.096
290	1.089
291	1.082
291	1.076
292	1.07
292	1.065
292	1.06
293	1.056
293	1.051
294	1.047
294	1.043
295	1.04
295	1.036
296	1.032
296	1.029
297	1.025
297	1.022
298	1.018
298	1.015
298	1.012
299	1.009
299	1.005
300	1.002
300	0.999
301	0.996
301	0.993
302	0.99
302	0.987
303	0.984
303	0.981
304	0.978
304	0.975
305	0.973
305	0.97
305	0.967
306	0.964
306	0.961
307	0.958
307	0.955
308	0.952
308	0.949
309	0.946
309	0.942
310	0.939
310	0.936
311	0.932
311	0.929
311	0.925
312	0.922
312	0.919
313	0.915
313	0.911
314	0.907
314	0.903
315	0.898
315	0.894
316	0.89
316	0.885
317	0.88
317	0.875
318	0.87
318	0.865
318	0.859
319	0.854
319	0.849
320	0.843
320	0.837
321	0.831
321	0.825
322	0.818
322	0.812
323	0.805
323	0.799
324	0.792
324	0.786
324	0.779
325	0.772
325	0.766
326	0.759
326	0.752
327	0.745
327	0.738
328	0.731
328	0.724
329	0.717
329	0.71
330	0.703
330	0.696
330	0.689
331	0.682
331	0.675
332	0.668
332	0.661
333	0.654
333	0.647
334	0.64
334	0.634
335	0.627
335	0.62
336	0.613
336	0.607
336	0.6
337	0.594
337	0.587
338	0.581
338	0.575
339	0.569
339	0.563
340	0.557
340	0.551
341	0.545
341	0.54
342	0.534
342	0.529
342	0.523
343	0.518
343	0.513
344	0.508
344	0.503
345	0.498
345	0.494
346	0.489
346	0.485
347	0.48
347	0.476
348	0.472
348	0.468
348	0.464
349	0.46
349	0.456
350	0.453
350	0.449
351	0.446
351	0.442
352	0.439
352	0.436
353	0.433
353	0.43
354	0.427
354	0.424
354	0.421
355	0.418
355	0.415
356	0.412
356	0.409
357	0.405
357	0.402
358	0.399
358	0.397
359	0.394
359	0.392
360	0.39
360	0.388
360	0.386
361	0.384
361	0.382
362	0.381
362	0.379
363	0.377
363	0.376
364	0.373
364	0.372
365	0.369
365	0.367
366	0.366
366	0.364
366	0.362
367	0.36
367	0.358
368	0.356
368	0.355
369	0.353
369	0.352
370	0.35
370	0.349
371	0.347
371	0.346
372	0.345
372	0.343
372	0.342
373	0.341
373	0.34
374	0.339
374	0.337
375	0.336
375	0.335
376	0.334
376	0.333
377	0.332
377	0.331
378	0.33
378	0.329
378	0.328
379	0.327
379	0.326
380	0.325
380	0.324
381	0.323
381	0.322
382	0.322
382	0.321
383	0.32
383	0.32
383	0.319
384	0.318
384	0.317
385	0.317
385	0.317
386	0.316
386	0.315
387	0.314
387	0.314
388	0.313
388	0.313
389	0.312
389	0.312
389	0.311
390	0.311
390	0.31
391	0.31
391	0.309
392	0.309
392	0.308
393	0.307
393	0.307
394	0.306
394	0.306
394	0.305
395	0.305
395	0.304
396	0.304
396	0.303
397	0.303
397	0.302
398	0.302
398	0.302
399	0.301
399	0.301
400	0.3
400	0.3
400	0.3
401	0.299
401	0.299
402	0.298
402	0.298
403	0.297
403	0.297
404	0.297
404	0.296
405	0.296
405	0.295
405	0.295
406	0.294
406	0.294
407	0.294
407	0.293
408	0.293
408	0.292
409	0.292
409	0.292
410	0.292
410	0.291
411	0.291
411	0.29
411	0.29
412	0.29
412	0.29
413	0.289
413	0.289
414	0.289
414	0.288
415	0.288
415	0.288
416	0.287
416	0.287
416	0.287
417	0.286
417	0.286
418	0.285
418	0.285
419	0.285
419	0.284
420	0.284
420	0.283
421	0.283
421	0.282
421	0.282
422	0.282
422	0.281
423	0.281
423	0.281
424	0.28
424	0.28
425	0.28
425	0.28
426	0.28
426	0.279
427	0.279
427	0.279
427	0.278
428	0.278
428	0.278
429	0.277
429	0.277
430	0.277
430	0.276
431	0.276
431	0.276
432	0.276
432	0.275
432	0.275
433	0.275
433	0.275
434	0.275
434	0.275
435	0.275
435	0.275
436	0.275
436	0.274
437	0.274
437	0.274
437	0.274
438	0.273
438	0.273
439	0.273
439	0.273
440	0.272
440	0.272
441	0.272
441	0.271
442	0.271
442	0.271
442	0.271
443	0.271
443	0.271
444	0.271
444	0.27
445	0.27
445	0.27
446	0.27
446	0.27
447	0.27
447	0.27
447	0.27
448	0.27
448	0.27
449	0.27
449	0.269
450	0.27
450	0.269
451	0.269
451	0.269
452	0.269
452	0.269
452	0.269
453	0.269
453	0.269
454	0.269
454	0.269
455	0.268
455	0.268
456	0.268
456	0.268
457	0.268
457	0.268
458	0.268
458	0.268
458	0.268
459	0.268
459	0.269
460	0.269
460	0.269
461	0.269
461	0.269
462	0.269
462	0.269
463	0.269
463	0.269
463	0.269
464	0.269
464	0.269
465	0.269
465	0.269
466	0.269
466	0.269
467	0.27
467	0.27
467	0.27
468	0.271
468	0.271
469	0.271
469	0.272
470	0.273
470	0.273
471	0.274
471	0.274
472	0.274
472	0.274
472	0.275
473	0.275
473	0.275
474	0.275
474	0.275
475	0.276
475	0.276
476	0.276
476	0.277
477	0.277
477	0.278
477	0.278
478	0.279
478	0.279
479	0.28
479	0.28
480	0.281
480	0.282
481	0.282
481	0.282
482	0.283
482	0.283
482	0.284
483	0.284
483	0.285
484	0.286
484	0.286
485	0.287
485	0.287
486	0.288
486	0.289
487	0.289
487	0.29
487	0.291
488	0.291
488	0.292
489	0.293
489	0.294
490	0.296
490	0.297
491	0.298
491	0.299
492	0.3
492	0.302
492	0.303
493	0.304
493	0.306
494	0.307
494	0.308
495	0.309
495	0.31
496	0.311
496	0.313
496	0.314
497	0.315
497	0.316
498	0.316
498	0.318
499	0.319
499	0.32
500	0.321
500	0.323
501	0.324
501	0.325
501	0.326
502	0.327
502	0.329
503	0.33
503	0.331
504	0.332
504	0.333
505	0.334
505	0.335
506	0.336
506	0.338
506	0.339
507	0.34
507	0.341
508	0.342
508	0.343
509	0.344
509	0.345
510	0.346
510	0.347
511	0.348
511	0.349
511	0.35
512	0.351
512	0.352
513	0.353
513	0.354
514	0.355
514	0.355
515	0.356
515	0.357
515	0.357
516	0.358
516	0.359
517	0.359
517	0.359
518	0.36
518	0.36
519	0.36
519	0.361
520	0.361
520	0.361
520	0.362
521	0.362
521	0.362
522	0.362
522	0.362
523	0.362
523	0.361
524	0.361
524	0.361
524	0.361
525	0.36
525	0.359
526	0.359
526	0.358
527	0.358
527	0.357
528	0.356
528	0.356
529	0.355
529	0.354
529	0.353
530	0.352
530	0.351
531	0.35
531	0.349
532	0.348
532	0.347
533	0.345
533	0.344
533	0.343
534	0.342
534	0.34
535	0.339
535	0.338
536	0.337
536	0.335
537	0.334
537	0.332
538	0.331
538	0.329
538	0.327
539	0.326
539	0.325
540	0.323
540	0.321
541	0.319
541	0.317
542	0.316
542	0.314
542	0.312
543	0.31
543	0.308
544	0.306
544	0.304
545	0.302
545	0.301
546	0.299
546	0.297
547	0.294
547	0.292
547	0.29
548	0.289
548	0.287
549	0.285
549	0.283
550	0.281
550	0.279
551	0.277
551	0.275
551	0.273
552	0.271
552	0.269
553	0.267
553	0.266
554	0.264
554	0.262
555	0.26
555	0.257
556	0.255
556	0.253
556	0.252
557	0.25
557	0.248
558	0.247
558	0.245
559	0.243
559	0.242
560	0.24
560	0.239
560	0.237
561	0.236
561	0.234
562	0.232
562	0.23
563	0.227
563	0.226
564	0.224
564	0.222
564	0.22
565	0.219
565	0.217
566	0.215
566	0.213
567	0.212
567	0.211
568	0.209
568	0.207
568	0.206
569	0.205
569	0.203
570	0.201
570	0.199
571	0.198
571	0.196
572	0.195
572	0.193
573	0.192
573	0.191
573	0.189
574	0.188
574	0.187
575	0.186
575	0.186
576	0.185
576	0.183
577	0.181
577	0.18
577	0.179
578	0.178
578	0.177
579	0.176
579	0.175
580	0.174
580	0.172
581	0.171
581	0.17
581	0.169
582	0.168
582	0.168
583	0.167
583	0.166
584	0.165
584	0.163
585	0.162
585	0.161
585	0.16
586	0.159
586	0.158
587	0.157
587	0.156
588	0.155
588	0.154
589	0.153
589	0.153
590	0.152
590	0.152
590	0.151
591	0.151
591	0.15
592	0.149
592	0.148
593	0.147
593	0.146
594	0.145
594	0.144
594	0.143
595	0.142
595	0.141
596	0.14
596	0.139
597	0.139
597	0.139
598	0.138
598	0.138
598	0.137
599	0.137
599	0.136
600	0.136
600	0.135
601	0.135
601	0.134
602	0.133
602	0.132
602	0.132
603	0.131
603	0.131
604	0.13
604	0.13
605	0.129
605	0.129
606	0.128
606	0.127
606	0.127
607	0.126
607	0.126
608	0.125
608	0.124
609	0.124
609	0.123
610	0.123
610	0.122
610	0.121
611	0.121
611	0.121
612	0.12
612	0.12
613	0.12
613	0.12
614	0.119
614	0.119
614	0.119
615	0.118
615	0.118
616	0.118
616	0.117
617	0.117
617	0.116
618	0.116
618	0.115
618	0.115
619	0.115
619	0.115
620	0.115
620	0.115
621	0.114
621	0.113
622	0.113
622	0.112
622	0.112
623	0.111
623	0.111
624	0.111
624	0.11
625	0.109
625	0.109
626	0.109
626	0.109
626	0.109
627	0.109
627	0.108
628	0.108
628	0.108
629	0.107
629	0.107
630	0.106
630	0.106
630	0.105
631	0.105
631	0.104
632	0.104
632	0.103
633	0.103
633	0.103
634	0.103
634	0.103
634	0.103
635	0.103
635	0.102
636	0.102
636	0.102
637	0.102
637	0.101
638	0.101
638	0.1
638	0.1
639	0.099
639	0.098
640	0.099
640	0.098
641	0.098
641	0.098
642	0.097
642	0.097
642	0.097
643	0.097
643	0.097
644	0.097
644	0.097
645	0.097
645	0.097
646	0.097
646	0.097
646	0.096
647	0.096
647	0.095
648	0.095
648	0.094
649	0.093
649	0.093
650	0.093
650	0.093
650	0.093
651	0.093
651	0.093
652	0.093
652	0.093
653	0.094
653	0.095
653	0.101
654	0.081
654	0.066
655	0.064
655	0.064
656	0.064
656	0.064
657	0.064
657	0.064
657	0.064
658	0.063
658	0.056
659	0.07
659	0.087
660	0.093
660	0.093
661	0.093
661	0.093
661	0.093
662	0.092
662	0.092
663	0.092
663	0.092
664	0.091
664	0.091
665	0.09
665	0.09
665	0.09
666	0.089
666	0.089
667	0.089
667	0.089
668	0.089
668	0.089
669	0.089
669	0.089
669	0.09
670	0.09
670	0.09
671	0.09
671	0.089
672	0.089
672	0.088
672	0.087
673	0.087
673	0.086
674	0.086
674	0.085
675	0.085
675	0.085
676	0.085
676	0.085
676	0.085
677	0.086
677	0.086
678	0.086
678	0.086
679	0.085
679	0.085
680	0.085
680	0.085
680	0.084
681	0.084
681	0.084
682	0.084
682	0.084
683	0.084
683	0.085
684	0.085
684	0.085
684	0.084
685	0.085
685	0.085
686	0.085
686	0.085
687	0.085
687	0.085
687	0.085
688	0.085
688	0.085
689	0.085
689	0.086
690	0.085
690	0.085
691	0.085
691	0.085
691	0.085
692	0.084
692	0.084
693	0.084
693	0.085
694	0.084
694	0.084
695	0.084
695	0.085
695	0.085
696	0.085
696	0.085
697	0.085
697	0.084
698	0.084
698	0.083
698	0.083
699	0.083
699	0.083
700	0.082
700	0.082
701	0.082
701	0.081
702	0.081
702	0.081
702	0.081
703	0.081
703	0.08
704	0.08
704	0.08
705	0.08
705	0.079
705	0.079
706	0.079
706	0.079
707	0.078
707	0.078
708	0.078
708	0.078
709	0.078
709	0.078
709	0.078
710	0.078
710	0.079
711	0.079
711	0.079
712	0.079
712	0.079
713	0.079
713	0.08
713	0.08
714	0.079
714	0.079
715	0.079
715	0.078
716	0.078
716	0.077
716	0.076
717	0.076
717	0.075
718	0.074
718	0.074
719	0.074
719	0.074
720	0.075
720	0.075
720	0.075
721	0.076
721	0.077
722	0.077
722	0.077
723	0.078
723	0.078
723	0.078
724	0.077
724	0.077
725	0.077
725	0.076
726	0.075
726	0.075
727	0.074
727	0.074
727	0.073
728	0.073
728	0.073
729	0.073
729	0.073
730	0.073
730	0.073
730	0.073
731	0.073
731	0.074
732	0.074
732	0.074
733	0.074
733	0.075
734	0.075
734	0.075
734	0.075
735	0.076
735	0.075
736	0.075
736	0.075
737	0.075
737	0.075
737	0.074
738	0.073
738	0.073
739	0.072
739	0.072
740	0.071
740	0.071
741	0.071
741	0.07
741	0.07
742	0.07
742	0.071
743	0.072
743	0.072
744	0.073
744	0.073
744	0.073
745	0.073
745	0.073
746	0.073
746	0.073
747	0.073
747	0.073
748	0.072
748	0.072
748	0.072
749	0.072
749	0.072
750	0.072
750	0.072
751	0.072
751	0.072
751	0.072
752	0.072
752	0.071
753	0.07
753	0.07
754	0.07
754	0.069
754	0.069
755	0.069
755	0.069
756	0.068
756	0.067
757	0.066
757	0.067
758	0.067
758	0.067
758	0.067
759	0.067
759	0.066
760	0.066
760	0.066
761	0.066
761	0.067
761	0.067
762	0.066
762	0.066
763	0.066
763	0.065
764	0.065
764	0.065
764	0.064
765	0.064
765	0.063
766	0.063
766	0.063
767	0.063
767	0.062
768	0.062
768	0.062
768	0.062
769	0.062
769	0.063
770	0.063
770	0.063
771	0.064
771	0.064
771	0.064
772	0.065
772	0.065
773	0.065
773	0.065
774	0.065
774	0.065
775	0.066
775	0.066
775	0.066
776	0.066
776	0.066
777	0.067
777	0.067
778	0.067
778	0.066
778	0.066
779	0.066
779	0.065
780	0.064
780	0.064
781	0.063
781	0.063
781	0.063
782	0.062
782	0.062
783	0.063
783	0.063
784	0.063
784	0.063
784	0.063
785	0.063
785	0.063
786	0.063
786	0.063
787	0.062
787	0.061
788	0.06
788	0.059
788	0.059
789	0.058
789	0.057
790	0.057
790	0.057
791	0.056
791	0.056
791	0.056
792	0.057
792	0.057
793	0.057
793	0.057
794	0.057
794	0.057
794	0.057
795	0.057
795	0.057
796	0.057
796	0.057
797	0.056
797	0.056
797	0.056
798	0.056
798	0.056
799	0.056
799	0.056
800	0.055
800	0.055
801	0.055
801	0.055
801	0.055
802	0.056
802	0.056
803	0.056
803	0.057
804	0.057
804	0.058
804	0.058
805	0.057
805	0.057
806	0.057
806	0.057
807	0.057
807	0.057
807	0.057
808	0.057
808	0.057
809	0.057
809	0.057
810	0.058
810	0.058
810	0.058
811	0.058
811	0.059
812	0.059
812	0.059
813	0.059
813	0.059
813	0.059
814	0.059
814	0.059
815	0.059
815	0.059
816	0.059
816	0.058
817	0.057
817	0.057
817	0.056
818	0.056
818	0.055
819	0.055
819	0.054
820	0.053
820	0.052
820	0.052
821	0.052
821	0.052
822	0.052
822	0.052
823	0.052
823	0.052
823	0.052
824	0.053
824	0.054
825	0.055
825	0.056
826	0.057
826	0.057
826	0.057
827	0.058
827	0.058
828	0.058
828	0.058
829	0.059
829	0.059
829	0.059
830	0.059
830	0.06
831	0.061
831	0.06
832	0.06
832	0.06
832	0.06
833	0.06
833	0.059
834	0.058
834	0.058
835	0.057
835	0.056
835	0.055
836	0.055
836	0.054
837	0.054
837	0.053
838	0.053
838	0.053
839	0.052
839	0.052
839	0.051
840	0.051
840	0.05
841	0.05
841	0.049
842	0.048
842	0.048
842	0.047
843	0.046
843	0.046
844	0.045
844	0.045
845	0.044
845	0.044
845	0.044
846	0.043
846	0.043
847	0.043
847	0.043
848	0.044
848	0.044
848	0.045
849	0.045
849	0.046
850	0.046
850	0.047
851	0.047
851	0.047
851	0.048
852	0.047
852	0.047
853	0.047
853	0.047
854	0.047
854	0.047
854	0.048
855	0.048
855	0.049
856	0.049
856	0.049
857	0.05
857	0.051
857	0.051
858	0.052
858	0.052
859	0.051
859	0.051
860	0.051
860	0.051
860	0.051
861	0.051
861	0.05
862	0.049
862	0.048
863	0.048
863	0.047
863	0.047
864	0.046
864	0.046
865	0.045
865	0.045
866	0.045
866	0.045
866	0.045
867	0.046
867	0.047
868	0.047
868	0.048
869	0.048
869	0.048
869	0.048
870	0.048
870	0.048
871	0.048
871	0.048
872	0.048
872	0.048
872	0.048
873	0.048
873	0.047
874	0.047
874	0.047
875	0.047
875	0.047
875	0.047
876	0.047
876	0.047
877	0.047
877	0.046
878	0.046
878	0.046
878	0.047
879	0.047
879	0.047
880	0.047
880	0.047
881	0.047
881	0.047
881	0.047
882	0.047
882	0.047
883	0.047
883	0.048
884	0.048
884	0.048
884	0.048
885	0.047
885	0.047
886	0.047
886	0.046
887	0.046
887	0.045
887	0.045
888	0.044
888	0.044
889	0.044
889	0.044
890	0.044
890	0.044
890	0.044
891	0.045
891	0.045
892	0.045
892	0.045
893	0.045
893	0.044
893	0.044
894	0.044
894	0.044
895	0.043
895	0.043
895	0.043
896	0.043
896	0.043
897	0.044
897	0.044
898	0.043
898	0.043
898	0.043
899	0.043
899	0.043
900	0.043
900	0.042
901	0.042
901	0.042
901	0.042
902	0.042
902	0.042
903	0.042
903	0.042
904	0.042
904	0.041
904	0.041
905	0.041
905	0.04
906	0.04
906	0.04
907	0.04
907	0.04
907	0.041
908	0.041
908	0.041
909	0.041
909	0.041
910	0.041
910	0.041
910	0.04
911	0.04
911	0.04
912	0.039
912	0.039
913	0.039
913	0.039
913	0.039
914	0.039
914	0.039
915	0.039
915	0.039
916	0.039
916	0.039
916	0.039
917	0.038
917	0.038
918	0.038
918	0.038
918	0.037
919	0.037
919	0.037
920	0.036
920	0.036
921	0.036
921	0.036
921	0.037
922	0.037
922	0.037
923	0.037
923	0.038
924	0.038
924	0.038
924	0.039
925	0.039
925	0.039
926	0.04
926	0.04
927	0.041
927	0.041
927	0.042
928	0.042
928	0.043
929	0.043
929	0.044
930	0.044
930	0.044
930	0.044
931	0.044
931	0.045
932	0.045
932	0.045
933	0.045
933	0.045
933	0.044
934	0.044
934	0.044
935	0.043
935	0.043
935	0.042
936	0.041
936	0.041
937	0.04
937	0.039
938	0.038
938	0.037
938	0.036
939	0.036
939	0.035
940	0.035
940	0.034
941	0.035
941	0.035
941	0.035
942	0.036
942	0.036
943	0.036
943	0.037
944	0.037
944	0.038
944	0.038
945	0.038
945	0.039
946	0.038
946	0.038
946	0.038
947	0.039
947	0.038
948	0.038
948	0.038
949	0.038
949	0.038
949	0.037
950	0.037
950	0.037
951	0.037
951	0.036
952	0.036
952	0.036
952	0.036
953	0.036
953	0.036
954	0.037
954	0.037
955	0.037
955	0.038
955	0.038
956	0.039
956	0.04
957	0.041
957	0.041
957	0.042
958	0.042
958	0.043
959	0.043
959	0.043
960	0.044
960	0.044
960	0.044
961	0.044
961	0.043
962	0.043
962	0.043
963	0.043
963	0.042
963	0.042
964	0.042
964	0.042
965	0.042
965	0.042
966	0.042
966	0.042
966	0.042
967	0.042
967	0.042
968	0.042
968	0.042
968	0.042
969	0.042
969	0.041
970	0.04
970	0.039
971	0.038
971	0.037
971	0.036
972	0.035
972	0.035
973	0.034
973	0.034
974	0.033
974	0.034
974	0.034
975	0.035
975	0.035
976	0.036
976	0.037
976	0.037
977	0.038
977	0.038
978	0.038
978	0.038
979	0.038
979	0.038
979	0.038
980	0.038
980	0.038
981	0.038
981	0.038
982	0.038
982	0.038
982	0.038
983	0.038
983	0.038
984	0.038
984	0.038
984	0.038
985	0.038
985	0.038
986	0.038
986	0.037
987	0.038
987	0.038
987	0.038
988	0.038
988	0.038
989	0.038
989	0.038
990	0.038
990	0.038
990	0.038
991	0.038
991	0.037
992	0.037
992	0.036
992	0.035
993	0.035
993	0.034
994	0.033
994	0.032
995	0.032
995	0.031
995	0.031
996	0.031
996	0.031
997	0.031
997	0.031
997	0.031
998	0.032
998	0.032
999	0.033
999	0.033
1000	0.034
1000	0.034
1000	0.035
1001	0.035
1001	0.035
1002	0.035
1002	0.035
1003	0.035
1003	0.034
1003	0.033
1004	0.033
1004	0.032
1005	0.031
1005	0.03
1005	0.029
1006	0.028
1006	0.028
1007	0.027
1007	0.026
1008	0.026
1008	0.026
1008	0.026
1009	0.026
1009	0.026
1010	0.026
1010	0.026
1010	0.027
1011	0.027
1011	0.027
1012	0.027
1012	0.027
1013	0.027
1013	0.028
1013	0.027
1014	0.027
1014	0.027
1015	0.027
1015	0.027
1016	0.027
1016	0.027
1016	0.027
1017	0.027
1017	0.027
1018	0.027
1018	0.026
1018	0.026
1019	0.026
1019	0.026
1020	0.026
1020	0.027
1021	0.027
1021	0.027
1021	0.028
1022	0.028
1022	0.028
1023	0.029
1023	0.029
1023	0.03
1024	0.03
1024	0.03
1025	0.03
1025	0.03
1026	0.031
1026	0.031
1026	0.031
1027	0.031
1027	0.031
1028	0.031
1028	0.031
1028	0.031
1029	0.032
1029	0.032
1030	0.032
1030	0.032
1031	0.032
1031	0.033
1031	0.033
1032	0.033
1032	0.033
1033	0.033
1033	0.034
1033	0.034
1034	0.034
1034	0.034
1035	0.034
1035	0.034
1036	0.034
1036	0.034
1036	0.034
1037	0.034
1037	0.034
1038	0.034
1038	0.034
1039	0.034
1039	0.034
1039	0.034
1040	0.034
1040	0.034
1041	0.034
1041	0.034
1041	0.034
1042	0.034
1042	0.034
1043	0.034
1043	0.033
1044	0.033
1044	0.033
1044	0.032
1045	0.032
1045	0.032
1046	0.031
1046	0.031
1046	0.031
1047	0.031
1047	0.031
1048	0.031
1048	0.032
1049	0.032
1049	0.032
1049	0.032
1050	0.032
1050	0.031
1051	0.031
1051	0.031
1051	0.031
1052	0.03
1052	0.03
1053	0.029
1053	0.029
1053	0.028
1054	0.028
1054	0.027
1055	0.027
1055	0.026
1056	0.026
1056	0.025
1056	0.025
1057	0.024
1057	0.023
1058	0.022
1058	0.022
1058	0.021
1059	0.02
1059	0.02
1060	0.019
1060	0.019
1061	0.019
1061	0.019
1061	0.019
1062	0.019
1062	0.019
1063	0.019
1063	0.019
1063	0.019
1064	0.018
1064	0.018
1065	0.018
1065	0.018
1066	0.018
1066	0.017
1066	0.017
1067	0.017
1067	0.017
1068	0.017
1068	0.017
1068	0.017
1069	0.018
1069	0.017
1070	0.017
1070	0.017
1071	0.017
1071	0.017
1071	0.017
1072	0.018
1072	0.018
1073	0.017
1073	0.017
1073	0.017
1074	0.018
1074	0.018
1075	0.018
1075	0.019
1076	0.019
1076	0.02
1076	0.02
1077	0.02
1077	0.02
1078	0.02
1078	0.02
1078	0.021
1079	0.02
1079	0.02
1080	0.019
1080	0.019
1080	0.018
1081	0.018
1081	0.019
1082	0.019
1082	0.019
1083	0.019
1083	0.019
1083	0.019
1084	0.02
1084	0.02
1085	0.021
1085	0.021
1085	0.021
1086	0.021
1086	0.021
1087	0.021
1087	0.021
1088	0.021
1088	0.021
1088	0.021
1089	0.02
1089	0.019
1090	0.018
1090	0.017
1090	0.016
1091	0.016
1091	0.015
1092	0.016
1092	0.016
1092	0.015
1093	0.015
1093	0.016
1094	0.016
1094	0.016
1095	0.016
1095	0.016
1095	0.016
1096	0.015
1096	0.014
1097	0.013
1097	0.013
1097	0.012
1098	0.011
1098	0.01
1099	0.01
1099	0.009
1100	0.008
1100	0.007
1100	0.007
1101	0.005
1101	0.005
1102	0.004
1102	0.002
1102	0.002
1103	0.001
1103	0.001
1104	0
1104	0
1104	-0.001
1105	-0.002
1105	-0.003
1106	-0.004
1106	-0.005
1107	-0.005
1107	-0.006
1107	-0.006
1108	-0.007
1108	-0.008
1109	-0.01
1109	-0.011
1109	-0.01
1110	-0.008
1110	-0.009
1111	-0.008
1111	-0.008
