Data from reversibility-20sec_Absorbance__322__000000000000322.txt Node

Date: Tue Dec 05 14:00:25 CET 2023
User: Marek
Spectrometer: MAYP115816
Trigger mode: 0
Integration Time (sec): 2.000000E-1
Scans to average: 10
Electric dark correction enabled: true
Nonlinearity correction enabled: true
Boxcar width: 5
XAxis mode: Wavelengths
Number of Pixels in Spectrum: 2068
>>>>>Begin Spectral Data<<<<<
199	-0.255
199	-0.223
200	-0.152
200	-0.098
201	-0.064
201	-0.046
202	-0.031
202	-0.021
203	-0.014
203	-0.012
204	0.002
204	0.018
205	0.032
205	0.039
205	0.038
206	0.037
206	0.035
207	0.033
207	0.03
208	0.031
208	0.031
209	0.032
209	0.027
210	0.027
210	0.026
211	0.027
211	0.029
212	0.027
212	0.031
213	0.036
213	0.038
213	0.041
214	0.045
214	0.05
215	0.051
215	0.051
216	0.053
216	0.052
217	0.06
217	0.06
218	0.06
218	0.061
219	0.064
219	0.066
220	0.069
220	0.07
221	0.073
221	0.074
221	0.081
222	0.086
222	0.091
223	0.096
223	0.099
224	0.102
224	0.112
225	0.118
225	0.128
226	0.137
226	0.149
227	0.16
227	0.168
228	0.183
228	0.2
229	0.217
229	0.243
229	0.263
230	0.287
230	0.316
231	0.349
231	0.387
232	0.42
232	0.463
233	0.507
233	0.553
234	0.602
234	0.654
235	0.703
235	0.757
236	0.808
236	0.858
236	0.908
237	0.96
237	1.008
238	1.055
238	1.1
239	1.15
239	1.191
240	1.232
240	1.27
241	1.303
241	1.338
242	1.368
242	1.401
243	1.43
243	1.454
243	1.48
244	1.5
244	1.522
245	1.542
245	1.561
246	1.58
246	1.596
247	1.609
247	1.622
248	1.635
248	1.649
249	1.658
249	1.664
250	1.672
250	1.681
250	1.685
251	1.691
251	1.694
252	1.7
252	1.701
253	1.704
253	1.703
254	1.703
254	1.706
255	1.704
255	1.702
256	1.702
256	1.701
257	1.701
257	1.7
258	1.699
258	1.698
258	1.697
259	1.697
259	1.697
260	1.697
260	1.697
261	1.698
261	1.7
262	1.701
262	1.701
263	1.702
263	1.703
264	1.704
264	1.705
265	1.705
265	1.706
265	1.706
266	1.705
266	1.704
267	1.701
267	1.701
268	1.701
268	1.699
269	1.7
269	1.699
270	1.698
270	1.696
271	1.695
271	1.693
272	1.691
272	1.69
272	1.688
273	1.684
273	1.681
274	1.677
274	1.672
275	1.666
275	1.661
276	1.653
276	1.646
277	1.639
277	1.63
278	1.619
278	1.608
278	1.596
279	1.582
279	1.566
280	1.547
280	1.524
281	1.497
281	1.467
282	1.434
282	1.399
283	1.365
283	1.331
284	1.297
284	1.264
285	1.232
285	1.203
285	1.176
286	1.151
286	1.13
287	1.111
287	1.095
288	1.081
288	1.069
289	1.058
289	1.049
290	1.041
290	1.034
291	1.028
291	1.022
292	1.017
292	1.013
292	1.009
293	1.005
293	1.002
294	0.998
294	0.995
295	0.992
295	0.989
296	0.986
296	0.983
297	0.981
297	0.978
298	0.976
298	0.973
298	0.97
299	0.968
299	0.965
300	0.963
300	0.96
301	0.958
301	0.956
302	0.954
302	0.951
303	0.949
303	0.946
304	0.944
304	0.941
305	0.939
305	0.937
305	0.934
306	0.932
306	0.929
307	0.927
307	0.924
308	0.922
308	0.919
309	0.916
309	0.914
310	0.911
310	0.908
311	0.905
311	0.902
311	0.899
312	0.895
312	0.892
313	0.888
313	0.884
314	0.881
314	0.876
315	0.872
315	0.868
316	0.864
316	0.86
317	0.856
317	0.851
318	0.846
318	0.841
318	0.836
319	0.831
319	0.826
320	0.82
320	0.814
321	0.809
321	0.803
322	0.797
322	0.791
323	0.785
323	0.779
324	0.773
324	0.767
324	0.76
325	0.754
325	0.748
326	0.741
326	0.735
327	0.728
327	0.721
328	0.715
328	0.708
329	0.701
329	0.694
330	0.688
330	0.681
330	0.674
331	0.668
331	0.661
332	0.654
332	0.648
333	0.641
333	0.635
334	0.628
334	0.622
335	0.615
335	0.609
336	0.602
336	0.596
336	0.59
337	0.584
337	0.578
338	0.572
338	0.566
339	0.56
339	0.554
340	0.549
340	0.543
341	0.538
341	0.532
342	0.527
342	0.522
342	0.517
343	0.512
343	0.507
344	0.502
344	0.498
345	0.493
345	0.489
346	0.484
346	0.48
347	0.476
347	0.472
348	0.467
348	0.464
348	0.46
349	0.456
349	0.453
350	0.449
350	0.446
351	0.442
351	0.439
352	0.436
352	0.433
353	0.43
353	0.427
354	0.424
354	0.421
354	0.418
355	0.415
355	0.412
356	0.409
356	0.406
357	0.403
357	0.4
358	0.397
358	0.395
359	0.392
359	0.39
360	0.388
360	0.386
360	0.384
361	0.382
361	0.38
362	0.379
362	0.378
363	0.376
363	0.374
364	0.372
364	0.37
365	0.368
365	0.366
366	0.364
366	0.363
366	0.361
367	0.359
367	0.357
368	0.355
368	0.354
369	0.352
369	0.351
370	0.349
370	0.347
371	0.346
371	0.344
372	0.343
372	0.342
372	0.34
373	0.339
373	0.338
374	0.337
374	0.336
375	0.334
375	0.333
376	0.332
376	0.331
377	0.33
377	0.329
378	0.328
378	0.327
378	0.326
379	0.325
379	0.324
380	0.323
380	0.322
381	0.321
381	0.32
382	0.319
382	0.318
383	0.317
383	0.316
383	0.315
384	0.314
384	0.313
385	0.313
385	0.312
386	0.311
386	0.311
387	0.31
387	0.309
388	0.309
388	0.308
389	0.307
389	0.307
389	0.306
390	0.306
390	0.305
391	0.304
391	0.304
392	0.304
392	0.303
393	0.303
393	0.302
394	0.301
394	0.301
394	0.3
395	0.299
395	0.299
396	0.298
396	0.298
397	0.297
397	0.296
398	0.296
398	0.295
399	0.295
399	0.294
400	0.294
400	0.293
400	0.293
401	0.293
401	0.292
402	0.291
402	0.291
403	0.29
403	0.29
404	0.29
404	0.289
405	0.289
405	0.288
405	0.288
406	0.288
406	0.287
407	0.287
407	0.286
408	0.286
408	0.285
409	0.284
409	0.284
410	0.284
410	0.283
411	0.283
411	0.282
411	0.282
412	0.282
412	0.282
413	0.281
413	0.281
414	0.281
414	0.281
415	0.28
415	0.28
416	0.28
416	0.279
416	0.279
417	0.278
417	0.278
418	0.278
418	0.278
419	0.277
419	0.277
420	0.277
420	0.276
421	0.276
421	0.276
421	0.276
422	0.275
422	0.275
423	0.275
423	0.274
424	0.274
424	0.274
425	0.273
425	0.273
426	0.273
426	0.272
427	0.272
427	0.272
427	0.271
428	0.271
428	0.271
429	0.271
429	0.271
430	0.271
430	0.271
431	0.27
431	0.27
432	0.271
432	0.27
432	0.27
433	0.27
433	0.27
434	0.27
434	0.27
435	0.27
435	0.269
436	0.269
436	0.269
437	0.269
437	0.269
437	0.269
438	0.269
438	0.268
439	0.268
439	0.268
440	0.268
440	0.268
441	0.268
441	0.267
442	0.268
442	0.268
442	0.268
443	0.268
443	0.268
444	0.268
444	0.268
445	0.268
445	0.268
446	0.268
446	0.268
447	0.268
447	0.267
447	0.267
448	0.267
448	0.267
449	0.267
449	0.268
450	0.268
450	0.268
451	0.267
451	0.268
452	0.267
452	0.267
452	0.267
453	0.268
453	0.268
454	0.268
454	0.268
455	0.268
455	0.268
456	0.268
456	0.268
457	0.269
457	0.269
458	0.269
458	0.269
458	0.269
459	0.269
459	0.269
460	0.269
460	0.27
461	0.27
461	0.27
462	0.27
462	0.27
463	0.271
463	0.271
463	0.271
464	0.271
464	0.271
465	0.272
465	0.272
466	0.272
466	0.273
467	0.273
467	0.273
467	0.273
468	0.274
468	0.274
469	0.274
469	0.275
470	0.275
470	0.275
471	0.276
471	0.276
472	0.277
472	0.278
472	0.278
473	0.279
473	0.28
474	0.28
474	0.281
475	0.281
475	0.282
476	0.283
476	0.284
477	0.285
477	0.285
477	0.286
478	0.287
478	0.288
479	0.288
479	0.289
480	0.29
480	0.291
481	0.291
481	0.292
482	0.293
482	0.294
482	0.295
483	0.296
483	0.298
484	0.299
484	0.299
485	0.3
485	0.301
486	0.302
486	0.303
487	0.305
487	0.306
487	0.307
488	0.307
488	0.309
489	0.31
489	0.312
490	0.314
490	0.315
491	0.317
491	0.318
492	0.319
492	0.321
492	0.323
493	0.324
493	0.326
494	0.328
494	0.329
495	0.331
495	0.332
496	0.334
496	0.336
496	0.337
497	0.339
497	0.34
498	0.342
498	0.343
499	0.345
499	0.347
500	0.348
500	0.351
501	0.352
501	0.354
501	0.355
502	0.357
502	0.358
503	0.36
503	0.362
504	0.363
504	0.365
505	0.367
505	0.368
506	0.37
506	0.371
506	0.373
507	0.374
507	0.376
508	0.378
508	0.379
509	0.38
509	0.382
510	0.383
510	0.385
511	0.386
511	0.388
511	0.389
512	0.39
512	0.392
513	0.393
513	0.394
514	0.395
514	0.396
515	0.396
515	0.397
515	0.398
516	0.398
516	0.399
517	0.4
517	0.401
518	0.401
518	0.401
519	0.402
519	0.402
520	0.402
520	0.402
520	0.402
521	0.402
521	0.403
522	0.402
522	0.402
523	0.402
523	0.402
524	0.402
524	0.402
524	0.402
525	0.402
525	0.401
526	0.4
526	0.399
527	0.399
527	0.398
528	0.397
528	0.396
529	0.394
529	0.393
529	0.392
530	0.39
530	0.389
531	0.388
531	0.386
532	0.385
532	0.383
533	0.382
533	0.38
533	0.379
534	0.377
534	0.375
535	0.373
535	0.371
536	0.369
536	0.367
537	0.365
537	0.363
538	0.36
538	0.358
538	0.356
539	0.353
539	0.351
540	0.349
540	0.347
541	0.344
541	0.342
542	0.339
542	0.336
542	0.334
543	0.331
543	0.329
544	0.326
544	0.324
545	0.321
545	0.319
546	0.316
546	0.314
547	0.311
547	0.308
547	0.305
548	0.303
548	0.3
549	0.298
549	0.295
550	0.292
550	0.289
551	0.286
551	0.283
551	0.281
552	0.278
552	0.275
553	0.273
553	0.27
554	0.267
554	0.265
555	0.262
555	0.259
556	0.257
556	0.254
556	0.252
557	0.25
557	0.248
558	0.245
558	0.243
559	0.24
559	0.238
560	0.236
560	0.233
560	0.231
561	0.229
561	0.227
562	0.224
562	0.221
563	0.219
563	0.216
564	0.214
564	0.211
564	0.209
565	0.207
565	0.205
566	0.202
566	0.2
567	0.198
567	0.196
568	0.194
568	0.192
568	0.191
569	0.189
569	0.187
570	0.185
570	0.183
571	0.181
571	0.179
572	0.177
572	0.175
573	0.174
573	0.172
573	0.17
574	0.168
574	0.167
575	0.165
575	0.164
576	0.162
576	0.161
577	0.159
577	0.158
577	0.156
578	0.155
578	0.153
579	0.152
579	0.151
580	0.149
580	0.147
581	0.145
581	0.144
581	0.143
582	0.142
582	0.141
583	0.14
583	0.138
584	0.136
584	0.134
585	0.133
585	0.132
585	0.13
586	0.129
586	0.127
587	0.126
587	0.124
588	0.123
588	0.121
589	0.12
589	0.12
590	0.119
590	0.118
590	0.117
591	0.117
591	0.115
592	0.114
592	0.113
593	0.112
593	0.111
594	0.11
594	0.109
594	0.108
595	0.107
595	0.106
596	0.105
596	0.104
597	0.104
597	0.103
598	0.102
598	0.102
598	0.101
599	0.1
599	0.099
600	0.099
600	0.098
601	0.097
601	0.096
602	0.095
602	0.094
602	0.093
603	0.092
603	0.092
604	0.091
604	0.091
605	0.09
605	0.09
606	0.089
606	0.088
606	0.087
607	0.087
607	0.086
608	0.085
608	0.084
609	0.083
609	0.082
610	0.081
610	0.08
610	0.08
611	0.079
611	0.079
612	0.078
612	0.078
613	0.077
613	0.077
614	0.076
614	0.075
614	0.075
615	0.074
615	0.074
616	0.073
616	0.073
617	0.072
617	0.072
618	0.071
618	0.071
618	0.07
619	0.07
619	0.07
620	0.069
620	0.069
621	0.068
621	0.068
622	0.067
622	0.066
622	0.066
623	0.065
623	0.065
624	0.065
624	0.064
625	0.063
625	0.063
626	0.062
626	0.062
626	0.062
627	0.061
627	0.061
628	0.06
628	0.059
629	0.058
629	0.058
630	0.057
630	0.056
630	0.056
631	0.055
631	0.055
632	0.055
632	0.054
633	0.054
633	0.054
634	0.054
634	0.055
634	0.054
635	0.054
635	0.054
636	0.054
636	0.054
637	0.053
637	0.053
638	0.052
638	0.052
638	0.051
639	0.05
639	0.05
640	0.05
640	0.049
641	0.049
641	0.048
642	0.047
642	0.047
642	0.047
643	0.046
643	0.046
644	0.046
644	0.046
645	0.045
645	0.045
646	0.045
646	0.045
646	0.045
647	0.044
647	0.044
648	0.044
648	0.043
649	0.043
649	0.042
650	0.042
650	0.042
650	0.041
651	0.041
651	0.041
652	0.04
652	0.04
653	0.04
653	0.042
653	0.047
654	0.038
654	0.032
655	0.03
655	0.03
656	0.03
656	0.03
657	0.03
657	0.031
657	0.031
658	0.03
658	0.025
659	0.031
659	0.038
660	0.041
660	0.041
661	0.04
661	0.04
661	0.039
662	0.039
662	0.038
663	0.038
663	0.038
664	0.037
664	0.037
665	0.036
665	0.036
665	0.036
666	0.035
666	0.035
667	0.034
667	0.034
668	0.034
668	0.033
669	0.033
669	0.033
669	0.033
670	0.033
670	0.032
671	0.032
671	0.032
672	0.031
672	0.031
672	0.03
673	0.03
673	0.03
674	0.03
674	0.029
675	0.029
675	0.029
676	0.03
676	0.03
676	0.03
677	0.03
677	0.03
678	0.03
678	0.029
679	0.029
679	0.029
680	0.029
680	0.029
680	0.029
681	0.029
681	0.029
682	0.029
682	0.029
683	0.03
683	0.03
684	0.031
684	0.03
684	0.03
685	0.03
685	0.03
686	0.03
686	0.029
687	0.029
687	0.029
687	0.028
688	0.028
688	0.028
689	0.028
689	0.028
690	0.028
690	0.027
691	0.028
691	0.028
691	0.028
692	0.029
692	0.029
693	0.029
693	0.029
694	0.028
694	0.028
695	0.029
695	0.029
695	0.029
696	0.029
696	0.028
697	0.028
697	0.028
698	0.027
698	0.027
698	0.027
699	0.027
699	0.027
700	0.027
700	0.027
701	0.027
701	0.027
702	0.026
702	0.026
702	0.026
703	0.025
703	0.025
704	0.024
704	0.024
705	0.023
705	0.023
705	0.022
706	0.022
706	0.022
707	0.022
707	0.022
708	0.022
708	0.023
709	0.023
709	0.023
709	0.023
710	0.023
710	0.023
711	0.024
711	0.023
712	0.023
712	0.023
713	0.023
713	0.023
713	0.023
714	0.022
714	0.022
715	0.022
715	0.021
716	0.021
716	0.021
716	0.021
717	0.02
717	0.02
718	0.019
718	0.019
719	0.019
719	0.019
720	0.019
720	0.019
720	0.019
721	0.019
721	0.02
722	0.02
722	0.02
723	0.02
723	0.021
723	0.021
724	0.021
724	0.02
725	0.02
725	0.019
726	0.018
726	0.018
727	0.017
727	0.017
727	0.017
728	0.016
728	0.016
729	0.016
729	0.016
730	0.016
730	0.016
730	0.017
731	0.017
731	0.017
732	0.017
732	0.017
733	0.017
733	0.017
734	0.017
734	0.017
734	0.017
735	0.017
735	0.017
736	0.017
736	0.016
737	0.016
737	0.016
737	0.016
738	0.015
738	0.014
739	0.014
739	0.013
740	0.012
740	0.012
741	0.012
741	0.012
741	0.011
742	0.011
742	0.012
743	0.013
743	0.013
744	0.014
744	0.015
744	0.015
745	0.015
745	0.015
746	0.015
746	0.016
747	0.016
747	0.016
748	0.016
748	0.015
748	0.015
749	0.015
749	0.014
750	0.014
750	0.013
751	0.013
751	0.013
751	0.013
752	0.012
752	0.012
753	0.012
753	0.011
754	0.012
754	0.012
754	0.012
755	0.013
755	0.013
756	0.012
756	0.011
757	0.011
757	0.011
758	0.011
758	0.01
758	0.01
759	0.01
759	0.01
760	0.01
760	0.011
761	0.011
761	0.012
761	0.013
762	0.013
762	0.014
763	0.014
763	0.013
764	0.013
764	0.013
764	0.012
765	0.012
765	0.011
766	0.01
766	0.01
767	0.009
767	0.009
768	0.008
768	0.008
768	0.008
769	0.008
769	0.008
770	0.008
770	0.008
771	0.008
771	0.008
771	0.008
772	0.008
772	0.008
773	0.008
773	0.008
774	0.008
774	0.008
775	0.008
775	0.008
775	0.009
776	0.009
776	0.009
777	0.009
777	0.009
778	0.009
778	0.009
778	0.008
779	0.008
779	0.008
780	0.008
780	0.007
781	0.007
781	0.007
781	0.007
782	0.007
782	0.007
783	0.007
783	0.008
784	0.008
784	0.008
784	0.008
785	0.008
785	0.008
786	0.009
786	0.009
787	0.009
787	0.009
788	0.009
788	0.009
788	0.009
789	0.009
789	0.009
790	0.009
790	0.008
791	0.008
791	0.007
791	0.007
792	0.007
792	0.006
793	0.006
793	0.005
794	0.005
794	0.004
794	0.003
795	0.003
795	0.003
796	0.003
796	0.003
797	0.003
797	0.003
797	0.003
798	0.004
798	0.004
799	0.004
799	0.004
800	0.004
800	0.004
801	0.003
801	0.003
801	0.003
802	0.002
802	0.002
803	0.002
803	0.002
804	0.002
804	0.003
804	0.003
805	0.004
805	0.004
806	0.005
806	0.005
807	0.005
807	0.006
807	0.006
808	0.007
808	0.007
809	0.007
809	0.008
810	0.008
810	0.008
810	0.008
811	0.008
811	0.008
812	0.008
812	0.008
813	0.008
813	0.008
813	0.007
814	0.008
814	0.008
815	0.008
815	0.008
816	0.008
816	0.007
817	0.007
817	0.007
817	0.007
818	0.006
818	0.006
819	0.006
819	0.006
820	0.005
820	0.005
820	0.005
821	0.005
821	0.004
822	0.004
822	0.004
823	0.004
823	0.004
823	0.004
824	0.005
824	0.006
825	0.007
825	0.007
826	0.007
826	0.007
826	0.008
827	0.008
827	0.008
828	0.008
828	0.008
829	0.008
829	0.008
829	0.008
830	0.008
830	0.008
831	0.009
831	0.009
832	0.008
832	0.008
832	0.008
833	0.008
833	0.007
834	0.007
834	0.007
835	0.006
835	0.006
835	0.006
836	0.006
836	0.006
837	0.006
837	0.006
838	0.006
838	0.006
839	0.005
839	0.005
839	0.004
840	0.003
840	0.002
841	0.001
841	0
842	-0
842	-0.001
842	-0.001
843	-0.001
843	-0.001
844	-0.001
844	-0.001
845	-0.001
845	-0.001
845	-0.001
846	-0.001
846	-0.001
847	-0.001
847	-0.001
848	-0
848	0
848	0.001
849	0.002
849	0.002
850	0.002
850	0.003
851	0.003
851	0.003
851	0.003
852	0.002
852	0.002
853	0.001
853	0.001
854	0.001
854	0.001
854	0.001
855	0.002
855	0.002
856	0.003
856	0.003
857	0.004
857	0.004
857	0.004
858	0.004
858	0.004
859	0.003
859	0.002
860	0.002
860	0.001
860	0
861	-0
861	-0.001
862	-0.001
862	-0.002
863	-0.002
863	-0.002
863	-0.002
864	-0.002
864	-0.002
865	-0.002
865	-0.002
866	-0.002
866	-0.002
866	-0.002
867	-0.002
867	-0.001
868	-0.001
868	-0.001
869	-0.001
869	-0.001
869	-0.001
870	-0.001
870	-0
871	0
871	0
872	0.001
872	0.001
872	0.001
873	0.001
873	0.001
874	0.001
874	0.001
875	0.001
875	0.001
875	0.001
876	0.001
876	0.001
877	0.001
877	0.001
878	0.001
878	0.001
878	0.002
879	0.002
879	0.002
880	0.003
880	0.003
881	0.003
881	0.003
881	0.003
882	0.002
882	0.002
883	0.002
883	0.001
884	0
884	-0
884	-0.001
885	-0.002
885	-0.003
886	-0.004
886	-0.005
887	-0.006
887	-0.006
887	-0.007
888	-0.008
888	-0.008
889	-0.009
889	-0.009
890	-0.009
890	-0.008
890	-0.008
891	-0.007
891	-0.007
892	-0.006
892	-0.005
893	-0.004
893	-0.003
893	-0.003
894	-0.002
894	-0.002
895	-0.001
895	-0.001
895	-0.001
896	-0.001
896	-0.002
897	-0.002
897	-0.003
898	-0.003
898	-0.003
898	-0.004
899	-0.004
899	-0.004
900	-0.004
900	-0.004
901	-0.004
901	-0.004
901	-0.004
902	-0.004
902	-0.004
903	-0.004
903	-0.004
904	-0.004
904	-0.004
904	-0.005
905	-0.005
905	-0.005
906	-0.005
906	-0.005
907	-0.004
907	-0.004
907	-0.003
908	-0.003
908	-0.002
909	-0.002
909	-0.002
910	-0.001
910	-0.001
910	-0.001
911	-0.001
911	-0.002
912	-0.002
912	-0.002
913	-0.002
913	-0.002
913	-0.002
914	-0.002
914	-0.002
915	-0.002
915	-0.003
916	-0.003
916	-0.004
916	-0.004
917	-0.005
917	-0.006
918	-0.006
918	-0.007
918	-0.007
919	-0.007
919	-0.007
920	-0.006
920	-0.006
921	-0.005
921	-0.004
921	-0.003
922	-0.002
922	-0.001
923	-0.001
923	0
924	0.001
924	0.001
924	0.002
925	0.002
925	0.002
926	0.002
926	0.002
927	0.002
927	0.002
927	0.001
928	0.001
928	0.001
929	0.001
929	0.001
930	0
930	0
930	-0
931	-0
931	-0
932	-0.001
932	-0.001
933	-0.001
933	-0.002
933	-0.002
934	-0.002
934	-0.003
935	-0.003
935	-0.003
935	-0.003
936	-0.003
936	-0.003
937	-0.003
937	-0.003
938	-0.002
938	-0.002
938	-0.002
939	-0.001
939	-0.001
940	-0.001
940	-0
941	0
941	0.001
941	0.001
942	0.002
942	0.002
943	0.003
943	0.003
944	0.004
944	0.005
944	0.005
945	0.006
945	0.006
946	0.006
946	0.007
946	0.007
947	0.007
947	0.006
948	0.006
948	0.006
949	0.005
949	0.005
949	0.004
950	0.004
950	0.003
951	0.003
951	0.002
952	0.001
952	0.001
952	-0
953	-0.001
953	-0.001
954	-0.002
954	-0.003
955	-0.004
955	-0.004
955	-0.005
956	-0.005
956	-0.005
957	-0.005
957	-0.005
957	-0.004
958	-0.004
958	-0.003
959	-0.003
959	-0.003
960	-0.002
960	-0.001
960	-0.001
961	-0.001
961	-0
962	-0
962	0
963	0
963	0.001
963	0.001
964	0.001
964	0.001
965	0.001
965	0.002
966	0.002
966	0.003
966	0.003
967	0.004
967	0.004
968	0.005
968	0.005
968	0.005
969	0.005
969	0.005
970	0.005
970	0.004
971	0.004
971	0.003
971	0.003
972	0.002
972	0.001
973	0.001
973	0
974	0
974	0
974	0
975	0.001
975	0.001
976	0.001
976	0.002
976	0.002
977	0.002
977	0.002
978	0.001
978	0.001
979	0.001
979	0
979	-0
980	-0.001
980	-0.001
981	-0.002
981	-0.003
982	-0.003
982	-0.004
982	-0.004
983	-0.005
983	-0.005
984	-0.005
984	-0.006
984	-0.006
985	-0.006
985	-0.006
986	-0.006
986	-0.007
987	-0.007
987	-0.007
987	-0.007
988	-0.007
988	-0.007
989	-0.007
989	-0.007
990	-0.007
990	-0.008
990	-0.008
991	-0.008
991	-0.008
992	-0.008
992	-0.008
992	-0.008
993	-0.008
993	-0.008
994	-0.009
994	-0.009
995	-0.009
995	-0.008
995	-0.008
996	-0.007
996	-0.007
997	-0.006
997	-0.005
997	-0.004
998	-0.003
998	-0.002
999	-0.001
999	0
1000	0.001
1000	0.001
1000	0.001
1001	0.001
1001	0.001
1002	0.001
1002	0.001
1003	0
1003	-0
1003	-0.001
1004	-0.002
1004	-0.002
1005	-0.003
1005	-0.004
1005	-0.004
1006	-0.005
1006	-0.005
1007	-0.005
1007	-0.006
1008	-0.006
1008	-0.006
1008	-0.006
1009	-0.005
1009	-0.005
1010	-0.005
1010	-0.005
1010	-0.005
1011	-0.004
1011	-0.004
1012	-0.004
1012	-0.004
1013	-0.004
1013	-0.004
1013	-0.004
1014	-0.004
1014	-0.004
1015	-0.004
1015	-0.004
1016	-0.004
1016	-0.004
1016	-0.004
1017	-0.004
1017	-0.005
1018	-0.005
1018	-0.005
1018	-0.005
1019	-0.005
1019	-0.005
1020	-0.006
1020	-0.006
1021	-0.006
1021	-0.006
1021	-0.006
1022	-0.006
1022	-0.006
1023	-0.006
1023	-0.006
1023	-0.006
1024	-0.007
1024	-0.007
1025	-0.007
1025	-0.008
1026	-0.008
1026	-0.009
1026	-0.009
1027	-0.01
1027	-0.01
1028	-0.011
1028	-0.011
1028	-0.012
1029	-0.012
1029	-0.012
1030	-0.012
1030	-0.012
1031	-0.012
1031	-0.012
1031	-0.012
1032	-0.012
1032	-0.012
1033	-0.012
1033	-0.012
1033	-0.012
1034	-0.012
1034	-0.013
1035	-0.013
1035	-0.013
1036	-0.013
1036	-0.013
1036	-0.013
1037	-0.013
1037	-0.014
1038	-0.014
1038	-0.014
1039	-0.014
1039	-0.013
1039	-0.013
1040	-0.012
1040	-0.012
1041	-0.011
1041	-0.011
1041	-0.011
1042	-0.01
1042	-0.01
1043	-0.01
1043	-0.01
1044	-0.009
1044	-0.009
1044	-0.009
1045	-0.008
1045	-0.008
1046	-0.007
1046	-0.007
1046	-0.006
1047	-0.005
1047	-0.005
1048	-0.004
1048	-0.004
1049	-0.003
1049	-0.003
1049	-0.003
1050	-0.003
1050	-0.004
1051	-0.004
1051	-0.004
1051	-0.005
1052	-0.005
1052	-0.006
1053	-0.007
1053	-0.007
1053	-0.008
1054	-0.009
1054	-0.009
1055	-0.009
1055	-0.009
1056	-0.01
1056	-0.01
1056	-0.01
1057	-0.011
1057	-0.011
1058	-0.012
1058	-0.012
1058	-0.013
1059	-0.013
1059	-0.014
1060	-0.014
1060	-0.014
1061	-0.015
1061	-0.015
1061	-0.015
1062	-0.016
1062	-0.016
1063	-0.016
1063	-0.016
1063	-0.017
1064	-0.017
1064	-0.017
1065	-0.018
1065	-0.018
1066	-0.018
1066	-0.018
1066	-0.018
1067	-0.018
1067	-0.018
1068	-0.018
1068	-0.018
1068	-0.018
1069	-0.018
1069	-0.019
1070	-0.019
1070	-0.019
1071	-0.02
1071	-0.02
1071	-0.02
1072	-0.021
1072	-0.021
1073	-0.022
1073	-0.022
1073	-0.022
1074	-0.022
1074	-0.022
1075	-0.022
1075	-0.022
1076	-0.022
1076	-0.021
1076	-0.021
1077	-0.02
1077	-0.02
1078	-0.019
1078	-0.018
1078	-0.018
1079	-0.017
1079	-0.017
1080	-0.017
1080	-0.017
1080	-0.016
1081	-0.016
1081	-0.016
1082	-0.015
1082	-0.015
1083	-0.015
1083	-0.015
1083	-0.016
1084	-0.016
1084	-0.016
1085	-0.016
1085	-0.017
1085	-0.017
1086	-0.017
1086	-0.018
1087	-0.018
1087	-0.019
1088	-0.019
1088	-0.019
1088	-0.019
1089	-0.019
1089	-0.019
1090	-0.02
1090	-0.02
1090	-0.021
1091	-0.021
1091	-0.022
1092	-0.021
1092	-0.021
1092	-0.021
1093	-0.022
1093	-0.022
1094	-0.022
1094	-0.022
1095	-0.022
1095	-0.022
1095	-0.022
1096	-0.023
1096	-0.023
1097	-0.024
1097	-0.024
1097	-0.024
1098	-0.025
1098	-0.026
1099	-0.026
1099	-0.027
1100	-0.028
1100	-0.028
1100	-0.029
1101	-0.029
1101	-0.029
1102	-0.03
1102	-0.031
1102	-0.032
1103	-0.031
1103	-0.031
1104	-0.031
1104	-0.031
1104	-0.031
1105	-0.033
1105	-0.034
1106	-0.036
1106	-0.038
1107	-0.039
1107	-0.039
1107	-0.041
1108	-0.042
1108	-0.044
1109	-0.046
1109	-0.047
1109	-0.047
1110	-0.045
1110	-0.045
1111	-0.045
1111	-0.045
