Data from reversibility-20sec_Absorbance__6805__000000000006805.txt Node

Date: Thu Dec 07 02:01:25 CET 2023
User: Marek
Spectrometer: MAYP115816
Trigger mode: 0
Integration Time (sec): 2.000000E-1
Scans to average: 10
Electric dark correction enabled: true
Nonlinearity correction enabled: true
Boxcar width: 5
XAxis mode: Wavelengths
Number of Pixels in Spectrum: 2068
>>>>>Begin Spectral Data<<<<<
199	-0.18
199	-0.146
200	-0.076
200	-0.027
201	0.001
201	0.02
202	0.032
202	0.037
203	0.044
203	0.05
204	0.065
204	0.079
205	0.089
205	0.093
205	0.092
206	0.091
206	0.089
207	0.089
207	0.092
208	0.091
208	0.087
209	0.088
209	0.09
210	0.091
210	0.091
211	0.094
211	0.097
212	0.096
212	0.099
213	0.099
213	0.101
213	0.104
214	0.106
214	0.107
215	0.109
215	0.107
216	0.107
216	0.106
217	0.112
217	0.112
218	0.114
218	0.118
219	0.124
219	0.125
220	0.127
220	0.127
221	0.131
221	0.135
221	0.141
222	0.144
222	0.15
223	0.155
223	0.156
224	0.162
224	0.167
225	0.178
225	0.191
226	0.201
226	0.212
227	0.222
227	0.232
228	0.246
228	0.262
229	0.281
229	0.303
229	0.327
230	0.351
230	0.378
231	0.41
231	0.448
232	0.486
232	0.532
233	0.577
233	0.624
234	0.674
234	0.725
235	0.779
235	0.832
236	0.883
236	0.937
236	0.988
237	1.038
237	1.086
238	1.131
238	1.179
239	1.226
239	1.267
240	1.307
240	1.34
241	1.377
241	1.411
242	1.442
242	1.475
243	1.505
243	1.531
243	1.553
244	1.575
244	1.598
245	1.616
245	1.64
246	1.658
246	1.672
247	1.686
247	1.701
248	1.714
248	1.727
249	1.738
249	1.745
250	1.752
250	1.758
250	1.763
251	1.768
251	1.771
252	1.776
252	1.778
253	1.78
253	1.779
254	1.78
254	1.782
255	1.782
255	1.784
256	1.781
256	1.782
257	1.782
257	1.781
258	1.78
258	1.779
258	1.78
259	1.778
259	1.778
260	1.777
260	1.778
261	1.78
261	1.78
262	1.782
262	1.783
263	1.785
263	1.787
264	1.787
264	1.788
265	1.788
265	1.788
265	1.788
266	1.787
266	1.787
267	1.786
267	1.786
268	1.786
268	1.784
269	1.784
269	1.783
270	1.783
270	1.781
271	1.779
271	1.778
272	1.776
272	1.774
272	1.771
273	1.766
273	1.763
274	1.76
274	1.757
275	1.75
275	1.745
276	1.739
276	1.733
277	1.725
277	1.716
278	1.705
278	1.694
278	1.68
279	1.666
279	1.65
280	1.631
280	1.607
281	1.578
281	1.545
282	1.51
282	1.474
283	1.437
283	1.401
284	1.365
284	1.329
285	1.295
285	1.263
285	1.234
286	1.208
286	1.185
287	1.165
287	1.148
288	1.132
288	1.119
289	1.107
289	1.097
290	1.089
290	1.081
291	1.073
291	1.067
292	1.062
292	1.056
292	1.051
293	1.047
293	1.042
294	1.038
294	1.034
295	1.03
295	1.027
296	1.023
296	1.02
297	1.017
297	1.014
298	1.01
298	1.007
298	1.003
299	1
299	0.997
300	0.994
300	0.991
301	0.988
301	0.985
302	0.982
302	0.979
303	0.976
303	0.974
304	0.971
304	0.968
305	0.965
305	0.963
305	0.96
306	0.957
306	0.954
307	0.951
307	0.948
308	0.946
308	0.943
309	0.94
309	0.936
310	0.933
310	0.93
311	0.927
311	0.923
311	0.92
312	0.916
312	0.912
313	0.908
313	0.904
314	0.9
314	0.896
315	0.892
315	0.888
316	0.883
316	0.878
317	0.873
317	0.868
318	0.863
318	0.858
318	0.853
319	0.848
319	0.842
320	0.837
320	0.831
321	0.825
321	0.819
322	0.813
322	0.806
323	0.8
323	0.793
324	0.786
324	0.78
324	0.773
325	0.766
325	0.76
326	0.753
326	0.746
327	0.739
327	0.732
328	0.725
328	0.718
329	0.711
329	0.704
330	0.697
330	0.69
330	0.683
331	0.676
331	0.669
332	0.662
332	0.655
333	0.648
333	0.641
334	0.634
334	0.627
335	0.621
335	0.614
336	0.607
336	0.6
336	0.594
337	0.587
337	0.581
338	0.575
338	0.569
339	0.563
339	0.557
340	0.551
340	0.545
341	0.539
341	0.534
342	0.528
342	0.523
342	0.517
343	0.512
343	0.507
344	0.502
344	0.497
345	0.492
345	0.488
346	0.483
346	0.478
347	0.474
347	0.47
348	0.466
348	0.462
348	0.458
349	0.454
349	0.45
350	0.447
350	0.443
351	0.44
351	0.437
352	0.433
352	0.43
353	0.427
353	0.424
354	0.421
354	0.418
354	0.415
355	0.412
355	0.409
356	0.406
356	0.403
357	0.4
357	0.397
358	0.394
358	0.391
359	0.389
359	0.387
360	0.385
360	0.383
360	0.381
361	0.379
361	0.377
362	0.375
362	0.374
363	0.372
363	0.37
364	0.368
364	0.366
365	0.364
365	0.362
366	0.36
366	0.358
366	0.356
367	0.354
367	0.352
368	0.351
368	0.349
369	0.348
369	0.346
370	0.345
370	0.343
371	0.342
371	0.34
372	0.339
372	0.338
372	0.337
373	0.335
373	0.334
374	0.333
374	0.332
375	0.331
375	0.33
376	0.329
376	0.328
377	0.327
377	0.326
378	0.325
378	0.323
378	0.323
379	0.322
379	0.321
380	0.32
380	0.319
381	0.318
381	0.317
382	0.317
382	0.316
383	0.316
383	0.315
383	0.314
384	0.313
384	0.313
385	0.312
385	0.312
386	0.311
386	0.311
387	0.31
387	0.309
388	0.308
388	0.308
389	0.307
389	0.307
389	0.306
390	0.306
390	0.306
391	0.305
391	0.305
392	0.304
392	0.304
393	0.303
393	0.303
394	0.303
394	0.302
394	0.302
395	0.301
395	0.3
396	0.3
396	0.299
397	0.299
397	0.298
398	0.298
398	0.298
399	0.297
399	0.297
400	0.296
400	0.296
400	0.296
401	0.295
401	0.295
402	0.294
402	0.294
403	0.293
403	0.293
404	0.292
404	0.292
405	0.292
405	0.291
405	0.291
406	0.291
406	0.29
407	0.29
407	0.29
408	0.29
408	0.289
409	0.289
409	0.289
410	0.289
410	0.288
411	0.288
411	0.288
411	0.287
412	0.287
412	0.286
413	0.286
413	0.286
414	0.285
414	0.285
415	0.284
415	0.284
416	0.284
416	0.284
416	0.283
417	0.283
417	0.283
418	0.282
418	0.282
419	0.281
419	0.281
420	0.281
420	0.28
421	0.28
421	0.279
421	0.279
422	0.278
422	0.278
423	0.278
423	0.277
424	0.277
424	0.277
425	0.277
425	0.276
426	0.276
426	0.276
427	0.276
427	0.275
427	0.275
428	0.274
428	0.274
429	0.274
429	0.273
430	0.273
430	0.273
431	0.272
431	0.272
432	0.272
432	0.272
432	0.272
433	0.272
433	0.271
434	0.271
434	0.271
435	0.271
435	0.271
436	0.271
436	0.271
437	0.27
437	0.27
437	0.27
438	0.27
438	0.27
439	0.269
439	0.269
440	0.269
440	0.269
441	0.268
441	0.268
442	0.268
442	0.268
442	0.268
443	0.267
443	0.267
444	0.267
444	0.267
445	0.267
445	0.267
446	0.266
446	0.266
447	0.266
447	0.266
447	0.266
448	0.266
448	0.266
449	0.266
449	0.266
450	0.266
450	0.266
451	0.266
451	0.266
452	0.266
452	0.266
452	0.266
453	0.266
453	0.266
454	0.266
454	0.265
455	0.265
455	0.265
456	0.265
456	0.265
457	0.265
457	0.265
458	0.265
458	0.265
458	0.265
459	0.265
459	0.265
460	0.265
460	0.265
461	0.265
461	0.265
462	0.265
462	0.265
463	0.265
463	0.265
463	0.265
464	0.265
464	0.265
465	0.265
465	0.265
466	0.265
466	0.265
467	0.265
467	0.265
467	0.266
468	0.266
468	0.266
469	0.266
469	0.267
470	0.268
470	0.268
471	0.268
471	0.269
472	0.269
472	0.269
472	0.27
473	0.27
473	0.27
474	0.27
474	0.271
475	0.271
475	0.271
476	0.271
476	0.272
477	0.272
477	0.273
477	0.273
478	0.273
478	0.274
479	0.274
479	0.275
480	0.275
480	0.276
481	0.276
481	0.276
482	0.277
482	0.278
482	0.278
483	0.279
483	0.28
484	0.28
484	0.281
485	0.281
485	0.282
486	0.282
486	0.283
487	0.283
487	0.284
487	0.285
488	0.285
488	0.286
489	0.286
489	0.288
490	0.289
490	0.29
491	0.291
491	0.293
492	0.294
492	0.295
492	0.296
493	0.297
493	0.298
494	0.299
494	0.3
495	0.301
495	0.302
496	0.303
496	0.304
496	0.305
497	0.307
497	0.308
498	0.309
498	0.31
499	0.311
499	0.312
500	0.314
500	0.315
501	0.316
501	0.317
501	0.318
502	0.319
502	0.32
503	0.321
503	0.322
504	0.323
504	0.324
505	0.326
505	0.326
506	0.328
506	0.329
506	0.33
507	0.331
507	0.331
508	0.332
508	0.333
509	0.334
509	0.335
510	0.336
510	0.337
511	0.338
511	0.339
511	0.34
512	0.341
512	0.342
513	0.343
513	0.344
514	0.345
514	0.345
515	0.346
515	0.346
515	0.347
516	0.348
516	0.348
517	0.349
517	0.349
518	0.35
518	0.35
519	0.35
519	0.351
520	0.351
520	0.351
520	0.352
521	0.351
521	0.351
522	0.351
522	0.351
523	0.351
523	0.351
524	0.351
524	0.35
524	0.35
525	0.35
525	0.35
526	0.349
526	0.349
527	0.349
527	0.348
528	0.347
528	0.347
529	0.346
529	0.345
529	0.344
530	0.343
530	0.342
531	0.341
531	0.34
532	0.338
532	0.337
533	0.336
533	0.335
533	0.334
534	0.333
534	0.332
535	0.331
535	0.329
536	0.328
536	0.327
537	0.326
537	0.324
538	0.323
538	0.321
538	0.32
539	0.319
539	0.317
540	0.316
540	0.314
541	0.313
541	0.311
542	0.309
542	0.308
542	0.306
543	0.304
543	0.302
544	0.301
544	0.299
545	0.297
545	0.296
546	0.294
546	0.292
547	0.29
547	0.288
547	0.286
548	0.284
548	0.282
549	0.28
549	0.279
550	0.277
550	0.275
551	0.273
551	0.271
551	0.27
552	0.268
552	0.266
553	0.265
553	0.263
554	0.261
554	0.259
555	0.257
555	0.255
556	0.253
556	0.251
556	0.25
557	0.248
557	0.247
558	0.246
558	0.244
559	0.243
559	0.241
560	0.24
560	0.239
560	0.237
561	0.236
561	0.234
562	0.232
562	0.23
563	0.228
563	0.227
564	0.225
564	0.223
564	0.221
565	0.22
565	0.218
566	0.217
566	0.215
567	0.214
567	0.213
568	0.211
568	0.21
568	0.208
569	0.207
569	0.206
570	0.204
570	0.202
571	0.201
571	0.2
572	0.198
572	0.197
573	0.196
573	0.195
573	0.193
574	0.192
574	0.191
575	0.191
575	0.19
576	0.189
576	0.188
577	0.186
577	0.185
577	0.184
578	0.183
578	0.182
579	0.181
579	0.181
580	0.179
580	0.177
581	0.176
581	0.175
581	0.174
582	0.174
582	0.173
583	0.173
583	0.172
584	0.17
584	0.168
585	0.167
585	0.167
585	0.166
586	0.165
586	0.165
587	0.163
587	0.162
588	0.161
588	0.161
589	0.16
589	0.16
590	0.159
590	0.159
590	0.158
591	0.158
591	0.157
592	0.156
592	0.154
593	0.154
593	0.153
594	0.152
594	0.151
594	0.15
595	0.149
595	0.148
596	0.147
596	0.147
597	0.147
597	0.147
598	0.146
598	0.146
598	0.145
599	0.145
599	0.144
600	0.144
600	0.143
601	0.142
601	0.142
602	0.141
602	0.14
602	0.139
603	0.139
603	0.139
604	0.138
604	0.138
605	0.138
605	0.138
606	0.137
606	0.136
606	0.135
607	0.135
607	0.135
608	0.134
608	0.133
609	0.132
609	0.132
610	0.131
610	0.131
610	0.13
611	0.13
611	0.13
612	0.129
612	0.129
613	0.129
613	0.129
614	0.129
614	0.128
614	0.128
615	0.128
615	0.127
616	0.127
616	0.127
617	0.126
617	0.126
618	0.125
618	0.125
618	0.125
619	0.125
619	0.125
620	0.125
620	0.124
621	0.123
621	0.123
622	0.122
622	0.122
622	0.121
623	0.12
623	0.12
624	0.12
624	0.119
625	0.118
625	0.118
626	0.118
626	0.118
626	0.118
627	0.118
627	0.117
628	0.117
628	0.117
629	0.117
629	0.116
630	0.116
630	0.116
630	0.116
631	0.116
631	0.115
632	0.115
632	0.114
633	0.114
633	0.113
634	0.113
634	0.114
634	0.113
635	0.113
635	0.113
636	0.113
636	0.113
637	0.112
637	0.112
638	0.112
638	0.112
638	0.111
639	0.111
639	0.11
640	0.11
640	0.11
641	0.11
641	0.109
642	0.109
642	0.109
642	0.109
643	0.109
643	0.109
644	0.109
644	0.109
645	0.108
645	0.108
646	0.108
646	0.107
646	0.107
647	0.107
647	0.106
648	0.105
648	0.105
649	0.104
649	0.104
650	0.104
650	0.103
650	0.104
651	0.104
651	0.103
652	0.104
652	0.104
653	0.104
653	0.106
653	0.112
654	0.09
654	0.073
655	0.071
655	0.071
656	0.071
656	0.071
657	0.072
657	0.072
657	0.072
658	0.071
658	0.063
659	0.079
659	0.099
660	0.105
660	0.106
661	0.105
661	0.105
661	0.104
662	0.104
662	0.103
663	0.103
663	0.102
664	0.102
664	0.102
665	0.102
665	0.101
665	0.101
666	0.101
666	0.101
667	0.101
667	0.101
668	0.102
668	0.102
669	0.102
669	0.102
669	0.102
670	0.103
670	0.102
671	0.102
671	0.101
672	0.101
672	0.1
672	0.099
673	0.099
673	0.099
674	0.098
674	0.098
675	0.097
675	0.097
676	0.098
676	0.098
676	0.098
677	0.098
677	0.098
678	0.098
678	0.097
679	0.097
679	0.097
680	0.097
680	0.096
680	0.096
681	0.096
681	0.096
682	0.096
682	0.097
683	0.097
683	0.098
684	0.098
684	0.098
684	0.098
685	0.099
685	0.099
686	0.099
686	0.098
687	0.098
687	0.098
687	0.097
688	0.097
688	0.097
689	0.097
689	0.097
690	0.097
690	0.096
691	0.096
691	0.096
691	0.096
692	0.096
692	0.096
693	0.096
693	0.097
694	0.096
694	0.096
695	0.097
695	0.098
695	0.098
696	0.098
696	0.098
697	0.099
697	0.099
698	0.098
698	0.098
698	0.098
699	0.099
699	0.098
700	0.098
700	0.098
701	0.097
701	0.097
702	0.096
702	0.096
702	0.096
703	0.095
703	0.095
704	0.094
704	0.094
705	0.094
705	0.093
705	0.093
706	0.093
706	0.094
707	0.094
707	0.093
708	0.094
708	0.094
709	0.094
709	0.094
709	0.093
710	0.093
710	0.093
711	0.094
711	0.094
712	0.094
712	0.094
713	0.094
713	0.094
713	0.094
714	0.093
714	0.093
715	0.093
715	0.092
716	0.092
716	0.091
716	0.091
717	0.09
717	0.09
718	0.089
718	0.089
719	0.09
719	0.09
720	0.09
720	0.091
720	0.091
721	0.092
721	0.093
722	0.093
722	0.093
723	0.093
723	0.093
723	0.093
724	0.093
724	0.092
725	0.091
725	0.091
726	0.09
726	0.09
727	0.089
727	0.089
727	0.089
728	0.088
728	0.088
729	0.088
729	0.088
730	0.088
730	0.088
730	0.089
731	0.089
731	0.09
732	0.09
732	0.09
733	0.09
733	0.091
734	0.091
734	0.091
734	0.091
735	0.091
735	0.091
736	0.091
736	0.09
737	0.09
737	0.09
737	0.089
738	0.089
738	0.088
739	0.087
739	0.087
740	0.087
740	0.087
741	0.087
741	0.087
741	0.087
742	0.088
742	0.088
743	0.089
743	0.09
744	0.09
744	0.09
744	0.09
745	0.09
745	0.09
746	0.089
746	0.089
747	0.088
747	0.088
748	0.087
748	0.087
748	0.087
749	0.087
749	0.087
750	0.087
750	0.087
751	0.087
751	0.087
751	0.087
752	0.087
752	0.087
753	0.087
753	0.086
754	0.086
754	0.086
754	0.086
755	0.086
755	0.085
756	0.085
756	0.084
757	0.083
757	0.083
758	0.083
758	0.083
758	0.083
759	0.083
759	0.083
760	0.082
760	0.082
761	0.082
761	0.083
761	0.083
762	0.083
762	0.083
763	0.082
763	0.081
764	0.081
764	0.08
764	0.08
765	0.08
765	0.079
766	0.079
766	0.079
767	0.079
767	0.078
768	0.077
768	0.078
768	0.078
769	0.078
769	0.079
770	0.079
770	0.08
771	0.081
771	0.081
771	0.082
772	0.083
772	0.083
773	0.084
773	0.084
774	0.084
774	0.084
775	0.084
775	0.084
775	0.084
776	0.084
776	0.084
777	0.085
777	0.085
778	0.085
778	0.085
778	0.084
779	0.084
779	0.083
780	0.082
780	0.081
781	0.081
781	0.08
781	0.079
782	0.079
782	0.078
783	0.078
783	0.079
784	0.078
784	0.079
784	0.079
785	0.079
785	0.079
786	0.079
786	0.079
787	0.079
787	0.078
788	0.078
788	0.077
788	0.076
789	0.076
789	0.076
790	0.075
790	0.075
791	0.075
791	0.074
791	0.074
792	0.074
792	0.074
793	0.074
793	0.073
794	0.073
794	0.072
794	0.072
795	0.072
795	0.072
796	0.072
796	0.072
797	0.072
797	0.072
797	0.073
798	0.073
798	0.073
799	0.073
799	0.073
800	0.073
800	0.072
801	0.072
801	0.072
801	0.072
802	0.073
802	0.073
803	0.073
803	0.073
804	0.073
804	0.074
804	0.074
805	0.073
805	0.073
806	0.073
806	0.073
807	0.072
807	0.072
807	0.072
808	0.072
808	0.071
809	0.071
809	0.071
810	0.071
810	0.071
810	0.071
811	0.071
811	0.071
812	0.072
812	0.071
813	0.071
813	0.071
813	0.071
814	0.071
814	0.071
815	0.071
815	0.071
816	0.071
816	0.07
817	0.069
817	0.069
817	0.069
818	0.069
818	0.069
819	0.069
819	0.069
820	0.068
820	0.068
820	0.068
821	0.068
821	0.068
822	0.068
822	0.068
823	0.068
823	0.068
823	0.068
824	0.069
824	0.07
825	0.071
825	0.072
826	0.072
826	0.072
826	0.072
827	0.073
827	0.073
828	0.073
828	0.073
829	0.073
829	0.073
829	0.073
830	0.073
830	0.074
831	0.074
831	0.075
832	0.075
832	0.075
832	0.075
833	0.075
833	0.075
834	0.074
834	0.074
835	0.073
835	0.073
835	0.072
836	0.072
836	0.071
837	0.071
837	0.07
838	0.069
838	0.068
839	0.068
839	0.067
839	0.066
840	0.065
840	0.063
841	0.062
841	0.061
842	0.061
842	0.06
842	0.059
843	0.059
843	0.058
844	0.057
844	0.057
845	0.056
845	0.056
845	0.056
846	0.056
846	0.056
847	0.056
847	0.057
848	0.057
848	0.058
848	0.058
849	0.059
849	0.059
850	0.06
850	0.06
851	0.06
851	0.061
851	0.061
852	0.06
852	0.06
853	0.06
853	0.06
854	0.06
854	0.061
854	0.061
855	0.062
855	0.062
856	0.063
856	0.063
857	0.064
857	0.065
857	0.065
858	0.065
858	0.065
859	0.064
859	0.064
860	0.064
860	0.063
860	0.063
861	0.062
861	0.061
862	0.06
862	0.06
863	0.059
863	0.059
863	0.059
864	0.059
864	0.059
865	0.059
865	0.059
866	0.059
866	0.059
866	0.06
867	0.06
867	0.061
868	0.061
868	0.061
869	0.061
869	0.061
869	0.06
870	0.06
870	0.06
871	0.059
871	0.059
872	0.059
872	0.058
872	0.057
873	0.057
873	0.056
874	0.056
874	0.055
875	0.055
875	0.055
875	0.055
876	0.055
876	0.056
877	0.056
877	0.056
878	0.056
878	0.056
878	0.056
879	0.057
879	0.057
880	0.057
880	0.057
881	0.057
881	0.057
881	0.057
882	0.057
882	0.057
883	0.057
883	0.057
884	0.057
884	0.057
884	0.057
885	0.057
885	0.057
886	0.056
886	0.056
887	0.056
887	0.056
887	0.055
888	0.055
888	0.054
889	0.054
889	0.054
890	0.054
890	0.054
890	0.054
891	0.054
891	0.054
892	0.054
892	0.054
893	0.053
893	0.053
893	0.052
894	0.052
894	0.051
895	0.05
895	0.05
895	0.05
896	0.05
896	0.051
897	0.051
897	0.052
898	0.052
898	0.052
898	0.052
899	0.052
899	0.053
900	0.053
900	0.053
901	0.052
901	0.052
901	0.052
902	0.052
902	0.051
903	0.051
903	0.051
904	0.051
904	0.051
904	0.05
905	0.05
905	0.05
906	0.05
906	0.05
907	0.05
907	0.051
907	0.051
908	0.051
908	0.051
909	0.051
909	0.051
910	0.051
910	0.051
910	0.051
911	0.05
911	0.05
912	0.049
912	0.049
913	0.049
913	0.048
913	0.048
914	0.048
914	0.047
915	0.047
915	0.047
916	0.047
916	0.047
916	0.046
917	0.046
917	0.046
918	0.045
918	0.045
918	0.044
919	0.044
919	0.043
920	0.043
920	0.043
921	0.042
921	0.042
921	0.042
922	0.042
922	0.042
923	0.042
923	0.043
924	0.043
924	0.044
924	0.044
925	0.045
925	0.046
926	0.046
926	0.047
927	0.047
927	0.048
927	0.048
928	0.049
928	0.049
929	0.049
929	0.05
930	0.05
930	0.051
930	0.051
931	0.051
931	0.051
932	0.052
932	0.052
933	0.052
933	0.052
933	0.052
934	0.052
934	0.051
935	0.051
935	0.05
935	0.05
936	0.049
936	0.048
937	0.047
937	0.047
938	0.046
938	0.045
938	0.044
939	0.044
939	0.043
940	0.043
940	0.043
941	0.043
941	0.043
941	0.043
942	0.043
942	0.044
943	0.044
943	0.045
944	0.045
944	0.046
944	0.046
945	0.046
945	0.047
946	0.047
946	0.047
946	0.047
947	0.048
947	0.047
948	0.047
948	0.047
949	0.046
949	0.046
949	0.045
950	0.045
950	0.045
951	0.045
951	0.044
952	0.044
952	0.043
952	0.043
953	0.043
953	0.043
954	0.044
954	0.044
955	0.044
955	0.044
955	0.045
956	0.045
956	0.046
957	0.046
957	0.046
957	0.047
958	0.047
958	0.047
959	0.047
959	0.047
960	0.047
960	0.047
960	0.047
961	0.046
961	0.046
962	0.046
962	0.046
963	0.045
963	0.045
963	0.045
964	0.045
964	0.045
965	0.045
965	0.046
966	0.046
966	0.046
966	0.046
967	0.047
967	0.047
968	0.047
968	0.047
968	0.047
969	0.046
969	0.046
970	0.045
970	0.044
971	0.043
971	0.042
971	0.042
972	0.041
972	0.04
973	0.04
973	0.04
974	0.04
974	0.04
974	0.04
975	0.041
975	0.042
976	0.043
976	0.044
976	0.044
977	0.044
977	0.044
978	0.045
978	0.045
979	0.045
979	0.044
979	0.044
980	0.044
980	0.043
981	0.043
981	0.043
982	0.042
982	0.042
982	0.042
983	0.041
983	0.041
984	0.041
984	0.041
984	0.041
985	0.041
985	0.041
986	0.042
986	0.042
987	0.042
987	0.042
987	0.042
988	0.042
988	0.042
989	0.042
989	0.042
990	0.042
990	0.042
990	0.042
991	0.041
991	0.041
992	0.041
992	0.04
992	0.039
993	0.038
993	0.037
994	0.036
994	0.036
995	0.035
995	0.034
995	0.034
996	0.034
996	0.033
997	0.034
997	0.034
997	0.034
998	0.035
998	0.035
999	0.036
999	0.037
1000	0.037
1000	0.038
1000	0.038
1001	0.038
1001	0.038
1002	0.038
1002	0.037
1003	0.037
1003	0.037
1003	0.036
1004	0.035
1004	0.034
1005	0.033
1005	0.033
1005	0.032
1006	0.031
1006	0.03
1007	0.03
1007	0.029
1008	0.029
1008	0.029
1008	0.029
1009	0.029
1009	0.029
1010	0.029
1010	0.029
1010	0.029
1011	0.029
1011	0.029
1012	0.029
1012	0.029
1013	0.03
1013	0.029
1013	0.029
1014	0.029
1014	0.029
1015	0.029
1015	0.029
1016	0.029
1016	0.029
1016	0.029
1017	0.029
1017	0.03
1018	0.03
1018	0.03
1018	0.031
1019	0.031
1019	0.031
1020	0.032
1020	0.032
1021	0.033
1021	0.033
1021	0.034
1022	0.034
1022	0.034
1023	0.035
1023	0.035
1023	0.035
1024	0.035
1024	0.035
1025	0.035
1025	0.035
1026	0.035
1026	0.035
1026	0.035
1027	0.035
1027	0.035
1028	0.035
1028	0.035
1028	0.035
1029	0.035
1029	0.035
1030	0.035
1030	0.035
1031	0.036
1031	0.036
1031	0.036
1032	0.036
1032	0.037
1033	0.037
1033	0.038
1033	0.038
1034	0.038
1034	0.038
1035	0.038
1035	0.038
1036	0.038
1036	0.038
1036	0.038
1037	0.038
1037	0.038
1038	0.038
1038	0.038
1039	0.038
1039	0.038
1039	0.038
1040	0.038
1040	0.038
1041	0.038
1041	0.038
1041	0.038
1042	0.037
1042	0.037
1043	0.037
1043	0.037
1044	0.036
1044	0.036
1044	0.036
1045	0.036
1045	0.036
1046	0.035
1046	0.035
1046	0.035
1047	0.035
1047	0.036
1048	0.036
1048	0.036
1049	0.036
1049	0.037
1049	0.037
1050	0.037
1050	0.037
1051	0.036
1051	0.036
1051	0.036
1052	0.036
1052	0.035
1053	0.034
1053	0.034
1053	0.033
1054	0.033
1054	0.032
1055	0.032
1055	0.031
1056	0.031
1056	0.031
1056	0.03
1057	0.029
1057	0.029
1058	0.029
1058	0.028
1058	0.028
1059	0.027
1059	0.027
1060	0.027
1060	0.026
1061	0.026
1061	0.026
1061	0.026
1062	0.026
1062	0.026
1063	0.026
1063	0.025
1063	0.025
1064	0.025
1064	0.024
1065	0.024
1065	0.024
1066	0.024
1066	0.024
1066	0.024
1067	0.023
1067	0.023
1068	0.023
1068	0.023
1068	0.023
1069	0.023
1069	0.023
1070	0.023
1070	0.023
1071	0.022
1071	0.023
1071	0.022
1072	0.022
1072	0.022
1073	0.022
1073	0.022
1073	0.022
1074	0.023
1074	0.023
1075	0.023
1075	0.023
1076	0.024
1076	0.024
1076	0.025
1077	0.025
1077	0.025
1078	0.025
1078	0.026
1078	0.026
1079	0.026
1079	0.026
1080	0.025
1080	0.025
1080	0.025
1081	0.024
1081	0.025
1082	0.025
1082	0.025
1083	0.024
1083	0.024
1083	0.024
1084	0.024
1084	0.025
1085	0.025
1085	0.025
1085	0.026
1086	0.026
1086	0.025
1087	0.025
1087	0.025
1088	0.025
1088	0.025
1088	0.025
1089	0.024
1089	0.024
1090	0.023
1090	0.022
1090	0.022
1091	0.022
1091	0.021
1092	0.021
1092	0.021
1092	0.021
1093	0.02
1093	0.02
1094	0.02
1094	0.02
1095	0.02
1095	0.019
1095	0.019
1096	0.018
1096	0.017
1097	0.016
1097	0.015
1097	0.015
1098	0.015
1098	0.013
1099	0.012
1099	0.011
1100	0.01
1100	0.008
1100	0.008
1101	0.007
1101	0.007
1102	0.006
1102	0.005
1102	0.003
1103	0.003
1103	0.003
1104	0.004
1104	0.004
1104	0.003
1105	0.002
1105	-0
1106	-0.001
1106	-0.001
1107	-0.002
1107	-0.001
1107	-0.001
1108	-0.002
1108	-0.003
1109	-0.004
1109	-0.003
1109	-0.002
1110	0.001
1110	-0
1111	0
1111	0.003
