Data from reversibility-20sec_Absorbance__2436__000000000002436.txt Node

Date: Wed Dec 06 01:45:06 CET 2023
User: Marek
Spectrometer: MAYP115816
Trigger mode: 0
Integration Time (sec): 2.000000E-1
Scans to average: 10
Electric dark correction enabled: true
Nonlinearity correction enabled: true
Boxcar width: 5
XAxis mode: Wavelengths
Number of Pixels in Spectrum: 2068
>>>>>Begin Spectral Data<<<<<
199	-0.203
199	-0.169
200	-0.095
200	-0.048
201	-0.019
201	-0
202	0.015
202	0.025
203	0.032
203	0.037
204	0.052
204	0.066
205	0.08
205	0.085
205	0.085
206	0.085
206	0.085
207	0.086
207	0.086
208	0.087
208	0.087
209	0.089
209	0.087
210	0.086
210	0.086
211	0.087
211	0.088
212	0.087
212	0.091
213	0.096
213	0.097
213	0.095
214	0.099
214	0.102
215	0.102
215	0.1
216	0.102
216	0.103
217	0.104
217	0.105
218	0.103
218	0.106
219	0.113
219	0.113
220	0.115
220	0.117
221	0.119
221	0.124
221	0.129
222	0.137
222	0.141
223	0.146
223	0.148
224	0.154
224	0.162
225	0.171
225	0.183
226	0.191
226	0.202
227	0.212
227	0.223
228	0.238
228	0.253
229	0.271
229	0.293
229	0.317
230	0.343
230	0.368
231	0.405
231	0.443
232	0.48
232	0.522
233	0.567
233	0.615
234	0.667
234	0.719
235	0.771
235	0.825
236	0.881
236	0.934
236	0.987
237	1.041
237	1.092
238	1.142
238	1.193
239	1.242
239	1.287
240	1.328
240	1.368
241	1.409
241	1.444
242	1.479
242	1.517
243	1.549
243	1.577
243	1.604
244	1.63
244	1.653
245	1.678
245	1.702
246	1.722
246	1.741
247	1.759
247	1.775
248	1.794
248	1.812
249	1.826
249	1.835
250	1.846
250	1.857
250	1.863
251	1.871
251	1.88
252	1.889
252	1.894
253	1.896
253	1.897
254	1.899
254	1.905
255	1.905
255	1.908
256	1.91
256	1.911
257	1.912
257	1.911
258	1.911
258	1.915
258	1.914
259	1.918
259	1.918
260	1.918
260	1.92
261	1.921
261	1.925
262	1.928
262	1.931
263	1.937
263	1.937
264	1.941
264	1.943
265	1.946
265	1.951
265	1.954
266	1.954
266	1.957
267	1.956
267	1.958
268	1.959
268	1.962
269	1.965
269	1.964
270	1.963
270	1.963
271	1.961
271	1.963
272	1.961
272	1.959
272	1.954
273	1.947
273	1.941
274	1.937
274	1.931
275	1.925
275	1.919
276	1.912
276	1.905
277	1.898
277	1.887
278	1.878
278	1.868
278	1.855
279	1.838
279	1.818
280	1.793
280	1.763
281	1.728
281	1.689
282	1.648
282	1.608
283	1.566
283	1.524
284	1.484
284	1.445
285	1.408
285	1.374
285	1.344
286	1.316
286	1.291
287	1.27
287	1.251
288	1.235
288	1.221
289	1.209
289	1.198
290	1.189
290	1.181
291	1.173
291	1.167
292	1.161
292	1.156
292	1.151
293	1.146
293	1.142
294	1.138
294	1.135
295	1.131
295	1.127
296	1.124
296	1.12
297	1.117
297	1.114
298	1.111
298	1.107
298	1.104
299	1.101
299	1.098
300	1.094
300	1.091
301	1.088
301	1.085
302	1.083
302	1.08
303	1.077
303	1.074
304	1.071
304	1.068
305	1.066
305	1.063
305	1.06
306	1.057
306	1.054
307	1.051
307	1.048
308	1.045
308	1.043
309	1.039
309	1.036
310	1.033
310	1.03
311	1.026
311	1.023
311	1.019
312	1.015
312	1.011
313	1.007
313	1.003
314	0.999
314	0.995
315	0.99
315	0.985
316	0.981
316	0.976
317	0.971
317	0.966
318	0.961
318	0.955
318	0.95
319	0.944
319	0.939
320	0.933
320	0.927
321	0.921
321	0.914
322	0.908
322	0.902
323	0.895
323	0.889
324	0.882
324	0.875
324	0.868
325	0.862
325	0.855
326	0.848
326	0.841
327	0.834
327	0.827
328	0.82
328	0.813
329	0.805
329	0.798
330	0.791
330	0.784
330	0.777
331	0.77
331	0.763
332	0.756
332	0.748
333	0.741
333	0.734
334	0.727
334	0.72
335	0.713
335	0.706
336	0.699
336	0.693
336	0.686
337	0.68
337	0.673
338	0.667
338	0.661
339	0.655
339	0.649
340	0.643
340	0.637
341	0.632
341	0.626
342	0.62
342	0.615
342	0.61
343	0.604
343	0.599
344	0.594
344	0.589
345	0.584
345	0.58
346	0.575
346	0.571
347	0.566
347	0.562
348	0.557
348	0.553
348	0.549
349	0.545
349	0.542
350	0.538
350	0.534
351	0.53
351	0.527
352	0.524
352	0.521
353	0.517
353	0.514
354	0.511
354	0.508
354	0.505
355	0.502
355	0.499
356	0.496
356	0.493
357	0.489
357	0.487
358	0.484
358	0.481
359	0.478
359	0.476
360	0.474
360	0.471
360	0.469
361	0.467
361	0.465
362	0.463
362	0.461
363	0.459
363	0.458
364	0.456
364	0.453
365	0.451
365	0.449
366	0.447
366	0.445
366	0.444
367	0.442
367	0.44
368	0.438
368	0.436
369	0.434
369	0.433
370	0.431
370	0.429
371	0.428
371	0.426
372	0.425
372	0.423
372	0.422
373	0.421
373	0.419
374	0.418
374	0.417
375	0.415
375	0.414
376	0.413
376	0.412
377	0.41
377	0.409
378	0.408
378	0.407
378	0.406
379	0.405
379	0.403
380	0.402
380	0.401
381	0.4
381	0.399
382	0.398
382	0.398
383	0.397
383	0.396
383	0.395
384	0.394
384	0.393
385	0.392
385	0.391
386	0.391
386	0.39
387	0.39
387	0.389
388	0.388
388	0.387
389	0.387
389	0.386
389	0.385
390	0.385
390	0.384
391	0.383
391	0.383
392	0.382
392	0.381
393	0.381
393	0.38
394	0.38
394	0.379
394	0.379
395	0.378
395	0.377
396	0.377
396	0.376
397	0.375
397	0.374
398	0.374
398	0.373
399	0.373
399	0.372
400	0.371
400	0.371
400	0.37
401	0.37
401	0.369
402	0.369
402	0.368
403	0.368
403	0.367
404	0.367
404	0.366
405	0.366
405	0.366
405	0.365
406	0.364
406	0.364
407	0.363
407	0.363
408	0.362
408	0.362
409	0.361
409	0.361
410	0.36
410	0.36
411	0.36
411	0.359
411	0.359
412	0.358
412	0.358
413	0.358
413	0.357
414	0.357
414	0.356
415	0.356
415	0.355
416	0.355
416	0.355
416	0.355
417	0.354
417	0.354
418	0.354
418	0.353
419	0.353
419	0.352
420	0.352
420	0.351
421	0.351
421	0.35
421	0.35
422	0.349
422	0.349
423	0.348
423	0.348
424	0.347
424	0.347
425	0.347
425	0.346
426	0.346
426	0.346
427	0.346
427	0.345
427	0.345
428	0.345
428	0.345
429	0.344
429	0.344
430	0.344
430	0.344
431	0.344
431	0.343
432	0.343
432	0.343
432	0.343
433	0.342
433	0.342
434	0.342
434	0.341
435	0.341
435	0.341
436	0.341
436	0.341
437	0.341
437	0.341
437	0.341
438	0.34
438	0.34
439	0.34
439	0.34
440	0.34
440	0.34
441	0.34
441	0.339
442	0.339
442	0.339
442	0.339
443	0.338
443	0.338
444	0.338
444	0.338
445	0.338
445	0.338
446	0.338
446	0.337
447	0.337
447	0.337
447	0.337
448	0.337
448	0.337
449	0.337
449	0.337
450	0.337
450	0.337
451	0.337
451	0.337
452	0.337
452	0.337
452	0.337
453	0.337
453	0.337
454	0.337
454	0.336
455	0.336
455	0.336
456	0.336
456	0.336
457	0.336
457	0.336
458	0.336
458	0.336
458	0.336
459	0.336
459	0.336
460	0.337
460	0.337
461	0.337
461	0.337
462	0.337
462	0.337
463	0.337
463	0.337
463	0.337
464	0.337
464	0.337
465	0.337
465	0.338
466	0.338
466	0.338
467	0.338
467	0.339
467	0.339
468	0.339
468	0.34
469	0.34
469	0.341
470	0.342
470	0.342
471	0.343
471	0.343
472	0.343
472	0.344
472	0.344
473	0.345
473	0.345
474	0.346
474	0.346
475	0.346
475	0.347
476	0.348
476	0.348
477	0.349
477	0.349
477	0.35
478	0.351
478	0.351
479	0.352
479	0.353
480	0.354
480	0.354
481	0.355
481	0.356
482	0.356
482	0.357
482	0.358
483	0.359
483	0.361
484	0.362
484	0.362
485	0.363
485	0.364
486	0.364
486	0.365
487	0.366
487	0.367
487	0.368
488	0.369
488	0.37
489	0.371
489	0.373
490	0.375
490	0.376
491	0.378
491	0.379
492	0.381
492	0.382
492	0.384
493	0.385
493	0.387
494	0.388
494	0.39
495	0.391
495	0.393
496	0.394
496	0.396
496	0.397
497	0.399
497	0.4
498	0.401
498	0.403
499	0.404
499	0.406
500	0.408
500	0.409
501	0.411
501	0.412
501	0.414
502	0.415
502	0.417
503	0.419
503	0.42
504	0.422
504	0.423
505	0.425
505	0.426
506	0.427
506	0.429
506	0.43
507	0.431
507	0.433
508	0.434
508	0.435
509	0.437
509	0.438
510	0.439
510	0.44
511	0.442
511	0.443
511	0.445
512	0.446
512	0.447
513	0.448
513	0.449
514	0.45
514	0.451
515	0.452
515	0.453
515	0.454
516	0.454
516	0.455
517	0.455
517	0.456
518	0.457
518	0.457
519	0.458
519	0.458
520	0.458
520	0.458
520	0.458
521	0.459
521	0.459
522	0.458
522	0.458
523	0.458
523	0.457
524	0.457
524	0.457
524	0.457
525	0.456
525	0.455
526	0.454
526	0.453
527	0.453
527	0.452
528	0.451
528	0.45
529	0.449
529	0.448
529	0.447
530	0.445
530	0.444
531	0.443
531	0.442
532	0.44
532	0.438
533	0.437
533	0.435
533	0.433
534	0.431
534	0.429
535	0.428
535	0.426
536	0.424
536	0.422
537	0.42
537	0.418
538	0.416
538	0.413
538	0.411
539	0.409
539	0.407
540	0.405
540	0.403
541	0.4
541	0.398
542	0.396
542	0.394
542	0.391
543	0.388
543	0.386
544	0.384
544	0.381
545	0.379
545	0.376
546	0.374
546	0.371
547	0.368
547	0.365
547	0.363
548	0.361
548	0.358
549	0.355
549	0.353
550	0.35
550	0.347
551	0.345
551	0.342
551	0.339
552	0.337
552	0.334
553	0.332
553	0.329
554	0.327
554	0.324
555	0.321
555	0.319
556	0.316
556	0.313
556	0.311
557	0.308
557	0.306
558	0.304
558	0.301
559	0.299
559	0.296
560	0.294
560	0.292
560	0.29
561	0.288
561	0.286
562	0.283
562	0.281
563	0.278
563	0.276
564	0.273
564	0.271
564	0.269
565	0.267
565	0.265
566	0.262
566	0.26
567	0.258
567	0.257
568	0.255
568	0.253
568	0.251
569	0.249
569	0.247
570	0.245
570	0.243
571	0.241
571	0.239
572	0.237
572	0.236
573	0.234
573	0.232
573	0.23
574	0.228
574	0.227
575	0.226
575	0.225
576	0.223
576	0.221
577	0.219
577	0.218
577	0.216
578	0.215
578	0.213
579	0.213
579	0.212
580	0.21
580	0.208
581	0.206
581	0.205
581	0.204
582	0.203
582	0.202
583	0.201
583	0.199
584	0.197
584	0.195
585	0.194
585	0.193
585	0.191
586	0.19
586	0.189
587	0.187
587	0.186
588	0.184
588	0.183
589	0.182
589	0.181
590	0.18
590	0.179
590	0.179
591	0.178
591	0.176
592	0.175
592	0.174
593	0.173
593	0.172
594	0.171
594	0.17
594	0.169
595	0.168
595	0.167
596	0.166
596	0.165
597	0.165
597	0.165
598	0.164
598	0.163
598	0.163
599	0.162
599	0.161
600	0.16
600	0.159
601	0.158
601	0.158
602	0.156
602	0.155
602	0.154
603	0.153
603	0.153
604	0.152
604	0.152
605	0.151
605	0.15
606	0.15
606	0.149
606	0.148
607	0.147
607	0.146
608	0.146
608	0.145
609	0.144
609	0.143
610	0.142
610	0.142
610	0.141
611	0.141
611	0.14
612	0.14
612	0.14
613	0.139
613	0.139
614	0.138
614	0.137
614	0.137
615	0.136
615	0.135
616	0.135
616	0.134
617	0.134
617	0.133
618	0.132
618	0.132
618	0.132
619	0.132
619	0.132
620	0.132
620	0.131
621	0.131
621	0.13
622	0.129
622	0.128
622	0.128
623	0.127
623	0.126
624	0.125
624	0.124
625	0.123
625	0.123
626	0.122
626	0.122
626	0.122
627	0.122
627	0.121
628	0.121
628	0.12
629	0.12
629	0.12
630	0.119
630	0.119
630	0.119
631	0.119
631	0.118
632	0.117
632	0.117
633	0.117
633	0.117
634	0.116
634	0.116
634	0.116
635	0.115
635	0.114
636	0.114
636	0.114
637	0.113
637	0.112
638	0.112
638	0.111
638	0.111
639	0.11
639	0.11
640	0.109
640	0.109
641	0.109
641	0.109
642	0.108
642	0.108
642	0.108
643	0.108
643	0.108
644	0.108
644	0.108
645	0.108
645	0.107
646	0.107
646	0.107
646	0.107
647	0.106
647	0.106
648	0.105
648	0.104
649	0.104
649	0.103
650	0.103
650	0.103
650	0.102
651	0.102
651	0.102
652	0.102
652	0.102
653	0.102
653	0.104
653	0.11
654	0.088
654	0.072
655	0.07
655	0.07
656	0.07
656	0.07
657	0.07
657	0.07
657	0.07
658	0.069
658	0.061
659	0.076
659	0.096
660	0.101
660	0.102
661	0.101
661	0.1
661	0.1
662	0.099
662	0.098
663	0.097
663	0.096
664	0.096
664	0.095
665	0.095
665	0.094
665	0.094
666	0.094
666	0.094
667	0.094
667	0.095
668	0.095
668	0.095
669	0.095
669	0.096
669	0.096
670	0.096
670	0.096
671	0.096
671	0.095
672	0.095
672	0.094
672	0.093
673	0.093
673	0.093
674	0.092
674	0.091
675	0.091
675	0.091
676	0.091
676	0.091
676	0.091
677	0.091
677	0.091
678	0.09
678	0.09
679	0.09
679	0.09
680	0.09
680	0.089
680	0.089
681	0.089
681	0.089
682	0.089
682	0.089
683	0.089
683	0.089
684	0.089
684	0.088
684	0.087
685	0.087
685	0.087
686	0.087
686	0.087
687	0.086
687	0.086
687	0.086
688	0.086
688	0.086
689	0.087
689	0.087
690	0.087
690	0.087
691	0.087
691	0.087
691	0.087
692	0.087
692	0.087
693	0.087
693	0.087
694	0.087
694	0.086
695	0.087
695	0.087
695	0.087
696	0.086
696	0.086
697	0.085
697	0.085
698	0.085
698	0.084
698	0.084
699	0.084
699	0.084
700	0.083
700	0.083
701	0.083
701	0.083
702	0.083
702	0.082
702	0.082
703	0.082
703	0.082
704	0.081
704	0.081
705	0.081
705	0.081
705	0.08
706	0.08
706	0.08
707	0.08
707	0.08
708	0.08
708	0.08
709	0.079
709	0.079
709	0.079
710	0.078
710	0.078
711	0.078
711	0.078
712	0.078
712	0.077
713	0.077
713	0.077
713	0.077
714	0.077
714	0.077
715	0.077
715	0.076
716	0.076
716	0.076
716	0.075
717	0.075
717	0.074
718	0.074
718	0.073
719	0.073
719	0.073
720	0.073
720	0.074
720	0.074
721	0.074
721	0.074
722	0.074
722	0.074
723	0.074
723	0.074
723	0.074
724	0.074
724	0.074
725	0.073
725	0.072
726	0.072
726	0.072
727	0.071
727	0.071
727	0.07
728	0.07
728	0.07
729	0.07
729	0.07
730	0.07
730	0.07
730	0.07
731	0.071
731	0.071
732	0.072
732	0.072
733	0.072
733	0.072
734	0.071
734	0.071
734	0.071
735	0.071
735	0.07
736	0.069
736	0.069
737	0.068
737	0.068
737	0.067
738	0.067
738	0.066
739	0.066
739	0.065
740	0.065
740	0.065
741	0.065
741	0.065
741	0.065
742	0.065
742	0.066
743	0.067
743	0.067
744	0.067
744	0.067
744	0.068
745	0.067
745	0.067
746	0.067
746	0.067
747	0.067
747	0.068
748	0.068
748	0.068
748	0.068
749	0.068
749	0.068
750	0.069
750	0.069
751	0.069
751	0.069
751	0.068
752	0.068
752	0.067
753	0.066
753	0.066
754	0.066
754	0.065
754	0.064
755	0.064
755	0.064
756	0.063
756	0.061
757	0.061
757	0.061
758	0.061
758	0.06
758	0.061
759	0.061
759	0.06
760	0.06
760	0.06
761	0.061
761	0.062
761	0.063
762	0.063
762	0.063
763	0.063
763	0.063
764	0.062
764	0.062
764	0.062
765	0.062
765	0.061
766	0.061
766	0.061
767	0.061
767	0.06
768	0.059
768	0.059
768	0.059
769	0.059
769	0.059
770	0.059
770	0.06
771	0.059
771	0.059
771	0.06
772	0.06
772	0.06
773	0.06
773	0.06
774	0.06
774	0.06
775	0.061
775	0.061
775	0.061
776	0.061
776	0.061
777	0.061
777	0.061
778	0.061
778	0.06
778	0.06
779	0.06
779	0.059
780	0.059
780	0.058
781	0.058
781	0.058
781	0.058
782	0.057
782	0.058
783	0.058
783	0.058
784	0.058
784	0.058
784	0.058
785	0.059
785	0.058
786	0.058
786	0.058
787	0.058
787	0.058
788	0.057
788	0.057
788	0.057
789	0.056
789	0.056
790	0.056
790	0.056
791	0.056
791	0.055
791	0.055
792	0.056
792	0.056
793	0.056
793	0.056
794	0.056
794	0.055
794	0.055
795	0.056
795	0.056
796	0.056
796	0.056
797	0.056
797	0.056
797	0.056
798	0.056
798	0.056
799	0.056
799	0.056
800	0.055
800	0.054
801	0.054
801	0.053
801	0.053
802	0.052
802	0.052
803	0.052
803	0.052
804	0.052
804	0.053
804	0.053
805	0.053
805	0.053
806	0.053
806	0.053
807	0.053
807	0.053
807	0.053
808	0.053
808	0.053
809	0.053
809	0.054
810	0.054
810	0.054
810	0.055
811	0.055
811	0.055
812	0.055
812	0.055
813	0.055
813	0.055
813	0.055
814	0.055
814	0.055
815	0.055
815	0.055
816	0.055
816	0.055
817	0.054
817	0.054
817	0.054
818	0.054
818	0.054
819	0.053
819	0.053
820	0.052
820	0.052
820	0.051
821	0.051
821	0.051
822	0.051
822	0.051
823	0.051
823	0.051
823	0.051
824	0.052
824	0.053
825	0.054
825	0.055
826	0.055
826	0.055
826	0.055
827	0.056
827	0.056
828	0.056
828	0.056
829	0.056
829	0.056
829	0.055
830	0.055
830	0.055
831	0.056
831	0.056
832	0.056
832	0.056
832	0.056
833	0.056
833	0.056
834	0.056
834	0.056
835	0.055
835	0.056
835	0.056
836	0.056
836	0.056
837	0.057
837	0.057
838	0.056
838	0.056
839	0.056
839	0.055
839	0.054
840	0.053
840	0.052
841	0.051
841	0.05
842	0.049
842	0.049
842	0.048
843	0.048
843	0.047
844	0.047
844	0.047
845	0.047
845	0.047
845	0.048
846	0.048
846	0.048
847	0.049
847	0.049
848	0.05
848	0.051
848	0.051
849	0.052
849	0.052
850	0.052
850	0.052
851	0.052
851	0.052
851	0.052
852	0.051
852	0.05
853	0.05
853	0.049
854	0.049
854	0.05
854	0.05
855	0.051
855	0.051
856	0.052
856	0.053
857	0.054
857	0.055
857	0.055
858	0.055
858	0.055
859	0.055
859	0.054
860	0.054
860	0.053
860	0.052
861	0.051
861	0.051
862	0.05
862	0.049
863	0.048
863	0.048
863	0.047
864	0.047
864	0.046
865	0.046
865	0.046
866	0.045
866	0.045
866	0.045
867	0.045
867	0.046
868	0.046
868	0.046
869	0.046
869	0.046
869	0.046
870	0.046
870	0.046
871	0.046
871	0.046
872	0.046
872	0.046
872	0.046
873	0.046
873	0.046
874	0.046
874	0.046
875	0.046
875	0.046
875	0.045
876	0.045
876	0.045
877	0.045
877	0.046
878	0.046
878	0.047
878	0.048
879	0.049
879	0.049
880	0.05
880	0.051
881	0.051
881	0.052
881	0.052
882	0.052
882	0.051
883	0.051
883	0.05
884	0.05
884	0.049
884	0.048
885	0.048
885	0.047
886	0.046
886	0.046
887	0.046
887	0.045
887	0.045
888	0.045
888	0.044
889	0.044
889	0.044
890	0.045
890	0.045
890	0.045
891	0.045
891	0.045
892	0.045
892	0.045
893	0.045
893	0.045
893	0.045
894	0.045
894	0.045
895	0.045
895	0.045
895	0.044
896	0.044
896	0.044
897	0.044
897	0.043
898	0.043
898	0.043
898	0.042
899	0.042
899	0.042
900	0.042
900	0.043
901	0.043
901	0.043
901	0.044
902	0.044
902	0.044
903	0.044
903	0.044
904	0.045
904	0.045
904	0.044
905	0.044
905	0.044
906	0.044
906	0.045
907	0.045
907	0.046
907	0.046
908	0.046
908	0.047
909	0.047
909	0.047
910	0.048
910	0.048
910	0.048
911	0.047
911	0.047
912	0.047
912	0.047
913	0.047
913	0.047
913	0.047
914	0.047
914	0.047
915	0.047
915	0.047
916	0.047
916	0.047
916	0.047
917	0.046
917	0.046
918	0.045
918	0.044
918	0.043
919	0.042
919	0.041
920	0.041
920	0.04
921	0.039
921	0.038
921	0.038
922	0.037
922	0.037
923	0.037
923	0.038
924	0.038
924	0.038
924	0.039
925	0.04
925	0.041
926	0.041
926	0.042
927	0.043
927	0.043
927	0.044
928	0.044
928	0.045
929	0.045
929	0.045
930	0.045
930	0.046
930	0.046
931	0.046
931	0.047
932	0.047
932	0.048
933	0.048
933	0.048
933	0.048
934	0.049
934	0.049
935	0.049
935	0.049
935	0.049
936	0.048
936	0.048
937	0.048
937	0.047
938	0.047
938	0.047
938	0.046
939	0.046
939	0.046
940	0.045
940	0.045
941	0.046
941	0.046
941	0.046
942	0.046
942	0.047
943	0.047
943	0.047
944	0.047
944	0.047
944	0.046
945	0.046
945	0.046
946	0.046
946	0.046
946	0.046
947	0.046
947	0.046
948	0.046
948	0.046
949	0.047
949	0.047
949	0.047
950	0.047
950	0.047
951	0.047
951	0.047
952	0.046
952	0.046
952	0.045
953	0.045
953	0.044
954	0.043
954	0.042
955	0.042
955	0.041
955	0.04
956	0.04
956	0.041
957	0.041
957	0.041
957	0.042
958	0.042
958	0.043
959	0.043
959	0.044
960	0.044
960	0.045
960	0.045
961	0.045
961	0.045
962	0.045
962	0.045
963	0.045
963	0.045
963	0.045
964	0.046
964	0.046
965	0.046
965	0.047
966	0.048
966	0.048
966	0.049
967	0.05
967	0.05
968	0.051
968	0.051
968	0.051
969	0.051
969	0.051
970	0.051
970	0.051
971	0.051
971	0.05
971	0.05
972	0.05
972	0.05
973	0.05
973	0.05
974	0.05
974	0.05
974	0.051
975	0.051
975	0.051
976	0.051
976	0.052
976	0.052
977	0.052
977	0.051
978	0.051
978	0.051
979	0.051
979	0.05
979	0.05
980	0.05
980	0.049
981	0.048
981	0.048
982	0.048
982	0.048
982	0.048
983	0.048
983	0.047
984	0.047
984	0.046
984	0.046
985	0.046
985	0.046
986	0.045
986	0.045
987	0.044
987	0.044
987	0.044
988	0.043
988	0.043
989	0.042
989	0.042
990	0.041
990	0.041
990	0.04
991	0.04
991	0.039
992	0.039
992	0.038
992	0.037
993	0.037
993	0.036
994	0.036
994	0.035
995	0.035
995	0.035
995	0.035
996	0.035
996	0.035
997	0.036
997	0.036
997	0.037
998	0.038
998	0.038
999	0.039
999	0.04
1000	0.041
1000	0.041
1000	0.042
1001	0.042
1001	0.042
1002	0.042
1002	0.042
1003	0.042
1003	0.041
1003	0.041
1004	0.04
1004	0.04
1005	0.039
1005	0.039
1005	0.038
1006	0.038
1006	0.037
1007	0.037
1007	0.037
1008	0.037
1008	0.037
1008	0.037
1009	0.037
1009	0.037
1010	0.036
1010	0.036
1010	0.036
1011	0.036
1011	0.036
1012	0.036
1012	0.036
1013	0.036
1013	0.036
1013	0.036
1014	0.035
1014	0.035
1015	0.035
1015	0.036
1016	0.035
1016	0.035
1016	0.035
1017	0.035
1017	0.035
1018	0.035
1018	0.034
1018	0.034
1019	0.034
1019	0.034
1020	0.034
1020	0.034
1021	0.034
1021	0.035
1021	0.035
1022	0.035
1022	0.035
1023	0.035
1023	0.036
1023	0.036
1024	0.036
1024	0.036
1025	0.036
1025	0.036
1026	0.036
1026	0.036
1026	0.035
1027	0.035
1027	0.035
1028	0.035
1028	0.035
1028	0.035
1029	0.035
1029	0.035
1030	0.035
1030	0.035
1031	0.035
1031	0.036
1031	0.036
1032	0.036
1032	0.036
1033	0.036
1033	0.036
1033	0.036
1034	0.037
1034	0.037
1035	0.036
1035	0.037
1036	0.037
1036	0.037
1036	0.037
1037	0.037
1037	0.037
1038	0.037
1038	0.038
1039	0.038
1039	0.038
1039	0.039
1040	0.039
1040	0.04
1041	0.04
1041	0.04
1041	0.041
1042	0.041
1042	0.041
1043	0.042
1043	0.042
1044	0.042
1044	0.042
1044	0.042
1045	0.042
1045	0.042
1046	0.042
1046	0.043
1046	0.043
1047	0.044
1047	0.044
1048	0.045
1048	0.045
1049	0.046
1049	0.046
1049	0.047
1050	0.047
1050	0.047
1051	0.047
1051	0.047
1051	0.047
1052	0.046
1052	0.046
1053	0.045
1053	0.044
1053	0.044
1054	0.043
1054	0.042
1055	0.042
1055	0.042
1056	0.041
1056	0.041
1056	0.04
1057	0.04
1057	0.039
1058	0.038
1058	0.037
1058	0.037
1059	0.036
1059	0.035
1060	0.035
1060	0.034
1061	0.033
1061	0.033
1061	0.033
1062	0.033
1062	0.033
1063	0.033
1063	0.032
1063	0.032
1064	0.032
1064	0.032
1065	0.032
1065	0.031
1066	0.031
1066	0.031
1066	0.031
1067	0.03
1067	0.03
1068	0.03
1068	0.029
1068	0.029
1069	0.029
1069	0.029
1070	0.029
1070	0.028
1071	0.027
1071	0.027
1071	0.026
1072	0.026
1072	0.026
1073	0.025
1073	0.024
1073	0.024
1074	0.024
1074	0.024
1075	0.024
1075	0.024
1076	0.024
1076	0.025
1076	0.025
1077	0.025
1077	0.026
1078	0.026
1078	0.027
1078	0.028
1079	0.028
1079	0.028
1080	0.028
1080	0.029
1080	0.029
1081	0.029
1081	0.029
1082	0.03
1082	0.03
1083	0.03
1083	0.029
1083	0.029
1084	0.029
1084	0.029
1085	0.029
1085	0.028
1085	0.028
1086	0.028
1086	0.027
1087	0.026
1087	0.026
1088	0.026
1088	0.025
1088	0.025
1089	0.025
1089	0.024
1090	0.024
1090	0.023
1090	0.022
1091	0.022
1091	0.021
1092	0.021
1092	0.021
1092	0.02
1093	0.019
1093	0.019
1094	0.019
1094	0.018
1095	0.018
1095	0.018
1095	0.018
1096	0.018
1096	0.017
1097	0.017
1097	0.017
1097	0.017
1098	0.016
1098	0.015
1099	0.016
1099	0.015
1100	0.014
1100	0.013
1100	0.013
1101	0.013
1101	0.012
1102	0.011
1102	0.01
1102	0.009
1103	0.01
1103	0.009
1104	0.009
1104	0.008
1104	0.007
1105	0.007
1105	0.004
1106	0.003
1106	0.003
1107	0.002
1107	0.001
1107	-0.001
1108	-0.001
1108	-0.002
1109	-0.003
1109	-0.002
1109	-0.003
1110	0.001
1110	0
1111	-0.001
1111	-0.001
