Data from reversibility-20sec_Absorbance__844__000000000000844.txt Node

Date: Tue Dec 05 16:54:27 CET 2023
User: Marek
Spectrometer: MAYP115816
Trigger mode: 0
Integration Time (sec): 2.000000E-1
Scans to average: 10
Electric dark correction enabled: true
Nonlinearity correction enabled: true
Boxcar width: 5
XAxis mode: Wavelengths
Number of Pixels in Spectrum: 2068
>>>>>Begin Spectral Data<<<<<
199	-0.235
199	-0.206
200	-0.147
200	-0.1
201	-0.07
201	-0.052
202	-0.04
202	-0.031
203	-0.023
203	-0.019
204	-0.005
204	0.005
205	0.018
205	0.026
205	0.026
206	0.027
206	0.027
207	0.029
207	0.028
208	0.027
208	0.027
209	0.03
209	0.029
210	0.027
210	0.027
211	0.026
211	0.026
212	0.023
212	0.027
213	0.028
213	0.03
213	0.03
214	0.033
214	0.036
215	0.039
215	0.04
216	0.044
216	0.041
217	0.046
217	0.047
218	0.049
218	0.051
219	0.054
219	0.056
220	0.059
220	0.06
221	0.058
221	0.062
221	0.07
222	0.075
222	0.077
223	0.083
223	0.086
224	0.091
224	0.099
225	0.108
225	0.118
226	0.133
226	0.142
227	0.153
227	0.16
228	0.175
228	0.189
229	0.208
229	0.23
229	0.251
230	0.275
230	0.303
231	0.333
231	0.371
232	0.408
232	0.451
233	0.496
233	0.545
234	0.594
234	0.647
235	0.699
235	0.75
236	0.801
236	0.853
236	0.905
237	0.954
237	1.003
238	1.05
238	1.094
239	1.14
239	1.182
240	1.222
240	1.261
241	1.298
241	1.331
242	1.36
242	1.393
243	1.423
243	1.448
243	1.474
244	1.496
244	1.518
245	1.536
245	1.556
246	1.574
246	1.591
247	1.606
247	1.619
248	1.632
248	1.646
249	1.655
249	1.662
250	1.67
250	1.679
250	1.685
251	1.69
251	1.693
252	1.697
252	1.699
253	1.701
253	1.7
254	1.701
254	1.705
255	1.703
255	1.702
256	1.703
256	1.702
257	1.701
257	1.7
258	1.7
258	1.7
258	1.699
259	1.699
259	1.697
260	1.696
260	1.695
261	1.694
261	1.694
262	1.696
262	1.696
263	1.698
263	1.697
264	1.698
264	1.698
265	1.699
265	1.698
265	1.699
266	1.699
266	1.699
267	1.696
267	1.696
268	1.696
268	1.696
269	1.697
269	1.697
270	1.696
270	1.695
271	1.692
271	1.692
272	1.689
272	1.689
272	1.687
273	1.683
273	1.678
274	1.674
274	1.669
275	1.663
275	1.658
276	1.654
276	1.646
277	1.639
277	1.628
278	1.618
278	1.607
278	1.595
279	1.582
279	1.567
280	1.548
280	1.524
281	1.497
281	1.466
282	1.433
282	1.4
283	1.366
283	1.332
284	1.298
284	1.264
285	1.232
285	1.202
285	1.176
286	1.152
286	1.13
287	1.111
287	1.095
288	1.081
288	1.068
289	1.058
289	1.048
290	1.04
290	1.033
291	1.027
291	1.021
292	1.017
292	1.012
292	1.008
293	1.004
293	1.001
294	0.998
294	0.995
295	0.992
295	0.989
296	0.986
296	0.983
297	0.98
297	0.977
298	0.974
298	0.971
298	0.968
299	0.966
299	0.963
300	0.961
300	0.958
301	0.956
301	0.954
302	0.951
302	0.949
303	0.946
303	0.944
304	0.942
304	0.939
305	0.937
305	0.934
305	0.932
306	0.929
306	0.927
307	0.924
307	0.922
308	0.919
308	0.916
309	0.914
309	0.911
310	0.908
310	0.905
311	0.903
311	0.899
311	0.896
312	0.892
312	0.889
313	0.885
313	0.882
314	0.878
314	0.874
315	0.87
315	0.865
316	0.861
316	0.857
317	0.852
317	0.847
318	0.843
318	0.838
318	0.832
319	0.827
319	0.822
320	0.816
320	0.811
321	0.805
321	0.799
322	0.794
322	0.788
323	0.782
323	0.776
324	0.77
324	0.763
324	0.757
325	0.751
325	0.744
326	0.738
326	0.731
327	0.725
327	0.718
328	0.712
328	0.705
329	0.698
329	0.691
330	0.684
330	0.678
330	0.671
331	0.665
331	0.658
332	0.651
332	0.644
333	0.638
333	0.631
334	0.624
334	0.618
335	0.611
335	0.605
336	0.598
336	0.592
336	0.586
337	0.58
337	0.574
338	0.568
338	0.562
339	0.556
339	0.55
340	0.545
340	0.539
341	0.534
341	0.528
342	0.523
342	0.518
342	0.513
343	0.508
343	0.503
344	0.498
344	0.494
345	0.489
345	0.485
346	0.48
346	0.476
347	0.472
347	0.468
348	0.464
348	0.46
348	0.456
349	0.453
349	0.449
350	0.446
350	0.442
351	0.439
351	0.436
352	0.433
352	0.43
353	0.427
353	0.424
354	0.421
354	0.418
354	0.415
355	0.412
355	0.409
356	0.406
356	0.403
357	0.4
357	0.397
358	0.394
358	0.392
359	0.39
359	0.387
360	0.385
360	0.383
360	0.381
361	0.379
361	0.377
362	0.376
362	0.374
363	0.372
363	0.37
364	0.368
364	0.366
365	0.364
365	0.363
366	0.361
366	0.359
366	0.357
367	0.355
367	0.354
368	0.352
368	0.35
369	0.348
369	0.347
370	0.345
370	0.344
371	0.342
371	0.341
372	0.339
372	0.338
372	0.337
373	0.336
373	0.335
374	0.333
374	0.332
375	0.331
375	0.33
376	0.329
376	0.328
377	0.327
377	0.326
378	0.325
378	0.324
378	0.323
379	0.322
379	0.321
380	0.32
380	0.318
381	0.317
381	0.316
382	0.316
382	0.315
383	0.314
383	0.313
383	0.312
384	0.311
384	0.311
385	0.31
385	0.309
386	0.309
386	0.308
387	0.307
387	0.306
388	0.305
388	0.305
389	0.304
389	0.304
389	0.303
390	0.302
390	0.302
391	0.301
391	0.301
392	0.301
392	0.3
393	0.3
393	0.299
394	0.299
394	0.298
394	0.298
395	0.297
395	0.296
396	0.296
396	0.295
397	0.294
397	0.294
398	0.293
398	0.293
399	0.292
399	0.292
400	0.291
400	0.291
400	0.29
401	0.29
401	0.289
402	0.289
402	0.288
403	0.288
403	0.287
404	0.287
404	0.287
405	0.287
405	0.286
405	0.286
406	0.285
406	0.285
407	0.284
407	0.284
408	0.283
408	0.283
409	0.282
409	0.282
410	0.281
410	0.281
411	0.281
411	0.281
411	0.28
412	0.28
412	0.28
413	0.28
413	0.279
414	0.279
414	0.279
415	0.278
415	0.278
416	0.277
416	0.277
416	0.277
417	0.276
417	0.276
418	0.276
418	0.275
419	0.275
419	0.274
420	0.274
420	0.274
421	0.273
421	0.273
421	0.273
422	0.273
422	0.272
423	0.272
423	0.272
424	0.272
424	0.271
425	0.271
425	0.271
426	0.271
426	0.27
427	0.27
427	0.27
427	0.27
428	0.27
428	0.269
429	0.269
429	0.269
430	0.269
430	0.268
431	0.268
431	0.268
432	0.268
432	0.268
432	0.268
433	0.267
433	0.267
434	0.267
434	0.267
435	0.267
435	0.267
436	0.267
436	0.267
437	0.266
437	0.266
437	0.266
438	0.266
438	0.266
439	0.266
439	0.266
440	0.266
440	0.266
441	0.265
441	0.266
442	0.266
442	0.266
442	0.266
443	0.265
443	0.266
444	0.266
444	0.266
445	0.265
445	0.265
446	0.265
446	0.265
447	0.265
447	0.265
447	0.265
448	0.265
448	0.265
449	0.265
449	0.265
450	0.265
450	0.265
451	0.265
451	0.265
452	0.266
452	0.266
452	0.266
453	0.266
453	0.266
454	0.266
454	0.266
455	0.265
455	0.265
456	0.265
456	0.266
457	0.266
457	0.266
458	0.266
458	0.266
458	0.266
459	0.266
459	0.266
460	0.267
460	0.267
461	0.267
461	0.267
462	0.267
462	0.267
463	0.267
463	0.268
463	0.268
464	0.268
464	0.268
465	0.268
465	0.269
466	0.269
466	0.269
467	0.27
467	0.27
467	0.27
468	0.27
468	0.271
469	0.271
469	0.272
470	0.272
470	0.273
471	0.273
471	0.273
472	0.274
472	0.274
472	0.275
473	0.276
473	0.276
474	0.277
474	0.277
475	0.278
475	0.278
476	0.279
476	0.28
477	0.281
477	0.282
477	0.282
478	0.283
478	0.284
479	0.285
479	0.286
480	0.287
480	0.287
481	0.288
481	0.289
482	0.29
482	0.291
482	0.292
483	0.293
483	0.294
484	0.295
484	0.296
485	0.297
485	0.298
486	0.298
486	0.299
487	0.3
487	0.301
487	0.303
488	0.304
488	0.305
489	0.306
489	0.308
490	0.31
490	0.312
491	0.313
491	0.315
492	0.316
492	0.318
492	0.319
493	0.32
493	0.322
494	0.323
494	0.325
495	0.326
495	0.328
496	0.33
496	0.331
496	0.333
497	0.335
497	0.336
498	0.338
498	0.34
499	0.341
499	0.343
500	0.345
500	0.347
501	0.349
501	0.35
501	0.351
502	0.353
502	0.355
503	0.356
503	0.358
504	0.359
504	0.361
505	0.362
505	0.363
506	0.365
506	0.366
506	0.367
507	0.369
507	0.37
508	0.372
508	0.373
509	0.375
509	0.376
510	0.378
510	0.379
511	0.381
511	0.382
511	0.384
512	0.385
512	0.386
513	0.387
513	0.388
514	0.39
514	0.391
515	0.392
515	0.393
515	0.393
516	0.394
516	0.395
517	0.396
517	0.396
518	0.397
518	0.397
519	0.397
519	0.397
520	0.397
520	0.397
520	0.397
521	0.397
521	0.397
522	0.397
522	0.397
523	0.397
523	0.397
524	0.397
524	0.397
524	0.396
525	0.396
525	0.395
526	0.395
526	0.394
527	0.393
527	0.392
528	0.391
528	0.39
529	0.389
529	0.388
529	0.386
530	0.385
530	0.384
531	0.383
531	0.381
532	0.38
532	0.378
533	0.377
533	0.375
533	0.374
534	0.372
534	0.371
535	0.369
535	0.367
536	0.366
536	0.364
537	0.361
537	0.359
538	0.357
538	0.355
538	0.352
539	0.35
539	0.348
540	0.346
540	0.343
541	0.341
541	0.338
542	0.336
542	0.333
542	0.331
543	0.328
543	0.326
544	0.323
544	0.321
545	0.318
545	0.316
546	0.313
546	0.31
547	0.308
547	0.305
547	0.302
548	0.3
548	0.297
549	0.295
549	0.292
550	0.29
550	0.287
551	0.284
551	0.281
551	0.278
552	0.276
552	0.273
553	0.27
553	0.268
554	0.265
554	0.262
555	0.259
555	0.257
556	0.254
556	0.252
556	0.249
557	0.247
557	0.245
558	0.243
558	0.24
559	0.238
559	0.236
560	0.233
560	0.231
560	0.229
561	0.227
561	0.225
562	0.222
562	0.219
563	0.217
563	0.214
564	0.212
564	0.21
564	0.207
565	0.205
565	0.203
566	0.201
566	0.199
567	0.197
567	0.195
568	0.193
568	0.192
568	0.19
569	0.189
569	0.187
570	0.185
570	0.183
571	0.181
571	0.179
572	0.177
572	0.176
573	0.174
573	0.172
573	0.17
574	0.169
574	0.167
575	0.165
575	0.164
576	0.163
576	0.161
577	0.159
577	0.157
577	0.155
578	0.154
578	0.152
579	0.151
579	0.15
580	0.148
580	0.146
581	0.144
581	0.143
581	0.142
582	0.141
582	0.14
583	0.139
583	0.138
584	0.136
584	0.134
585	0.133
585	0.131
585	0.13
586	0.129
586	0.127
587	0.126
587	0.124
588	0.123
588	0.122
589	0.121
589	0.12
590	0.119
590	0.119
590	0.118
591	0.118
591	0.117
592	0.115
592	0.114
593	0.113
593	0.112
594	0.111
594	0.11
594	0.109
595	0.108
595	0.106
596	0.105
596	0.105
597	0.105
597	0.104
598	0.103
598	0.102
598	0.101
599	0.101
599	0.1
600	0.099
600	0.098
601	0.097
601	0.097
602	0.095
602	0.094
602	0.093
603	0.093
603	0.093
604	0.092
604	0.091
605	0.091
605	0.09
606	0.09
606	0.089
606	0.088
607	0.087
607	0.086
608	0.086
608	0.084
609	0.083
609	0.083
610	0.082
610	0.081
610	0.08
611	0.08
611	0.079
612	0.079
612	0.079
613	0.078
613	0.078
614	0.077
614	0.076
614	0.076
615	0.075
615	0.074
616	0.074
616	0.073
617	0.073
617	0.072
618	0.072
618	0.072
618	0.071
619	0.071
619	0.071
620	0.071
620	0.071
621	0.07
621	0.069
622	0.068
622	0.068
622	0.067
623	0.066
623	0.066
624	0.065
624	0.064
625	0.063
625	0.063
626	0.062
626	0.062
626	0.062
627	0.061
627	0.06
628	0.06
628	0.059
629	0.059
629	0.058
630	0.057
630	0.057
630	0.057
631	0.057
631	0.056
632	0.056
632	0.055
633	0.055
633	0.055
634	0.055
634	0.056
634	0.055
635	0.055
635	0.054
636	0.054
636	0.054
637	0.054
637	0.053
638	0.053
638	0.052
638	0.052
639	0.051
639	0.051
640	0.05
640	0.05
641	0.05
641	0.049
642	0.049
642	0.049
642	0.049
643	0.049
643	0.049
644	0.049
644	0.049
645	0.049
645	0.048
646	0.048
646	0.048
646	0.047
647	0.047
647	0.046
648	0.046
648	0.045
649	0.044
649	0.044
650	0.044
650	0.044
650	0.044
651	0.043
651	0.043
652	0.043
652	0.043
653	0.043
653	0.045
653	0.052
654	0.043
654	0.035
655	0.033
655	0.032
656	0.033
656	0.033
657	0.033
657	0.033
657	0.033
658	0.032
658	0.025
659	0.031
659	0.039
660	0.043
660	0.042
661	0.042
661	0.041
661	0.04
662	0.04
662	0.039
663	0.038
663	0.038
664	0.038
664	0.037
665	0.037
665	0.037
665	0.037
666	0.037
666	0.036
667	0.036
667	0.036
668	0.036
668	0.036
669	0.036
669	0.036
669	0.036
670	0.036
670	0.036
671	0.035
671	0.035
672	0.034
672	0.034
672	0.034
673	0.033
673	0.033
674	0.033
674	0.033
675	0.032
675	0.032
676	0.032
676	0.032
676	0.032
677	0.032
677	0.032
678	0.032
678	0.031
679	0.031
679	0.03
680	0.03
680	0.03
680	0.03
681	0.03
681	0.03
682	0.031
682	0.031
683	0.032
683	0.032
684	0.033
684	0.033
684	0.032
685	0.032
685	0.033
686	0.032
686	0.032
687	0.031
687	0.03
687	0.03
688	0.029
688	0.029
689	0.029
689	0.03
690	0.03
690	0.029
691	0.029
691	0.03
691	0.03
692	0.03
692	0.03
693	0.03
693	0.031
694	0.03
694	0.03
695	0.031
695	0.032
695	0.031
696	0.031
696	0.031
697	0.031
697	0.03
698	0.03
698	0.029
698	0.029
699	0.029
699	0.029
700	0.028
700	0.028
701	0.028
701	0.028
702	0.028
702	0.027
702	0.027
703	0.027
703	0.026
704	0.026
704	0.025
705	0.025
705	0.025
705	0.025
706	0.024
706	0.024
707	0.024
707	0.024
708	0.025
708	0.025
709	0.024
709	0.024
709	0.023
710	0.023
710	0.023
711	0.023
711	0.023
712	0.023
712	0.023
713	0.023
713	0.023
713	0.023
714	0.023
714	0.023
715	0.023
715	0.023
716	0.023
716	0.023
716	0.022
717	0.022
717	0.021
718	0.02
718	0.02
719	0.02
719	0.021
720	0.021
720	0.021
720	0.021
721	0.021
721	0.022
722	0.022
722	0.022
723	0.022
723	0.023
723	0.023
724	0.022
724	0.022
725	0.021
725	0.02
726	0.02
726	0.019
727	0.018
727	0.018
727	0.018
728	0.017
728	0.016
729	0.016
729	0.016
730	0.016
730	0.016
730	0.016
731	0.016
731	0.017
732	0.017
732	0.017
733	0.017
733	0.017
734	0.017
734	0.018
734	0.018
735	0.018
735	0.018
736	0.018
736	0.018
737	0.018
737	0.018
737	0.018
738	0.017
738	0.016
739	0.016
739	0.015
740	0.014
740	0.014
741	0.014
741	0.014
741	0.013
742	0.013
742	0.013
743	0.014
743	0.015
744	0.015
744	0.016
744	0.016
745	0.016
745	0.016
746	0.016
746	0.016
747	0.017
747	0.017
748	0.017
748	0.017
748	0.017
749	0.017
749	0.017
750	0.016
750	0.016
751	0.016
751	0.015
751	0.015
752	0.014
752	0.014
753	0.013
753	0.013
754	0.013
754	0.012
754	0.012
755	0.013
755	0.013
756	0.012
756	0.011
757	0.011
757	0.01
758	0.01
758	0.01
758	0.01
759	0.01
759	0.009
760	0.009
760	0.009
761	0.01
761	0.011
761	0.011
762	0.012
762	0.013
763	0.013
763	0.013
764	0.013
764	0.013
764	0.013
765	0.013
765	0.012
766	0.012
766	0.012
767	0.011
767	0.01
768	0.009
768	0.009
768	0.009
769	0.009
769	0.009
770	0.009
770	0.009
771	0.009
771	0.009
771	0.009
772	0.009
772	0.01
773	0.01
773	0.01
774	0.011
774	0.011
775	0.011
775	0.011
775	0.011
776	0.011
776	0.011
777	0.011
777	0.01
778	0.01
778	0.009
778	0.009
779	0.009
779	0.008
780	0.008
780	0.007
781	0.007
781	0.007
781	0.007
782	0.008
782	0.008
783	0.008
783	0.009
784	0.009
784	0.009
784	0.009
785	0.009
785	0.009
786	0.009
786	0.009
787	0.009
787	0.009
788	0.009
788	0.008
788	0.008
789	0.008
789	0.008
790	0.008
790	0.008
791	0.008
791	0.008
791	0.008
792	0.008
792	0.008
793	0.008
793	0.008
794	0.007
794	0.006
794	0.006
795	0.006
795	0.006
796	0.005
796	0.005
797	0.004
797	0.004
797	0.005
798	0.005
798	0.005
799	0.005
799	0.005
800	0.004
800	0.004
801	0.004
801	0.004
801	0.004
802	0.004
802	0.004
803	0.004
803	0.004
804	0.004
804	0.005
804	0.005
805	0.005
805	0.005
806	0.005
806	0.005
807	0.006
807	0.006
807	0.006
808	0.006
808	0.007
809	0.007
809	0.007
810	0.007
810	0.007
810	0.007
811	0.008
811	0.008
812	0.008
812	0.008
813	0.008
813	0.008
813	0.008
814	0.009
814	0.009
815	0.009
815	0.009
816	0.009
816	0.009
817	0.009
817	0.009
817	0.008
818	0.008
818	0.008
819	0.008
819	0.007
820	0.007
820	0.006
820	0.006
821	0.006
821	0.006
822	0.006
822	0.005
823	0.005
823	0.005
823	0.006
824	0.007
824	0.007
825	0.008
825	0.008
826	0.008
826	0.008
826	0.008
827	0.008
827	0.008
828	0.008
828	0.007
829	0.007
829	0.007
829	0.007
830	0.007
830	0.007
831	0.008
831	0.008
832	0.008
832	0.008
832	0.008
833	0.008
833	0.007
834	0.007
834	0.006
835	0.006
835	0.006
835	0.006
836	0.006
836	0.006
837	0.006
837	0.006
838	0.006
838	0.006
839	0.006
839	0.005
839	0.005
840	0.003
840	0.002
841	0.001
841	-0
842	-0.001
842	-0.001
842	-0.002
843	-0.002
843	-0.002
844	-0.002
844	-0.002
845	-0.002
845	-0.002
845	-0.002
846	-0.002
846	-0.002
847	-0.002
847	-0.001
848	-0.001
848	-0
848	0
849	0.001
849	0.001
850	0.002
850	0.003
851	0.003
851	0.003
851	0.003
852	0.003
852	0.002
853	0.002
853	0.001
854	0.001
854	0.001
854	0.001
855	0.001
855	0.002
856	0.002
856	0.002
857	0.003
857	0.003
857	0.003
858	0.003
858	0.003
859	0.002
859	0.001
860	0
860	-0.001
860	-0.001
861	-0.002
861	-0.003
862	-0.004
862	-0.005
863	-0.005
863	-0.005
863	-0.006
864	-0.006
864	-0.006
865	-0.005
865	-0.005
866	-0.005
866	-0.005
866	-0.005
867	-0.005
867	-0.005
868	-0.005
868	-0.005
869	-0.005
869	-0.005
869	-0.006
870	-0.006
870	-0.005
871	-0.005
871	-0.005
872	-0.004
872	-0.004
872	-0.003
873	-0.002
873	-0.002
874	-0.002
874	-0.002
875	-0.002
875	-0.002
875	-0.002
876	-0.002
876	-0.002
877	-0.002
877	-0.002
878	-0.001
878	-0
878	0
879	0.001
879	0.002
880	0.002
880	0.003
881	0.003
881	0.003
881	0.003
882	0.002
882	0.001
883	0
883	-0.001
884	-0.002
884	-0.003
884	-0.003
885	-0.004
885	-0.005
886	-0.005
886	-0.005
887	-0.006
887	-0.006
887	-0.007
888	-0.007
888	-0.007
889	-0.007
889	-0.007
890	-0.007
890	-0.007
890	-0.007
891	-0.006
891	-0.006
892	-0.005
892	-0.004
893	-0.003
893	-0.002
893	-0.001
894	-0
894	0
895	0.001
895	0.001
895	0.001
896	0.001
896	0.001
897	0.001
897	0
898	-0
898	-0.001
898	-0.002
899	-0.002
899	-0.003
900	-0.004
900	-0.004
901	-0.005
901	-0.005
901	-0.006
902	-0.006
902	-0.006
903	-0.006
903	-0.006
904	-0.006
904	-0.006
904	-0.006
905	-0.006
905	-0.006
906	-0.006
906	-0.005
907	-0.004
907	-0.004
907	-0.003
908	-0.003
908	-0.003
909	-0.003
909	-0.002
910	-0.002
910	-0.002
910	-0.002
911	-0.002
911	-0.002
912	-0.002
912	-0.002
913	-0.002
913	-0.001
913	-0.001
914	-0.001
914	-0.001
915	-0.001
915	-0.001
916	-0.001
916	-0.002
916	-0.002
917	-0.003
917	-0.004
918	-0.005
918	-0.006
918	-0.006
919	-0.006
919	-0.006
920	-0.006
920	-0.006
921	-0.005
921	-0.004
921	-0.004
922	-0.003
922	-0.002
923	-0.001
923	-0
924	0
924	0
924	0.001
925	0.001
925	0.001
926	0
926	0
927	0
927	-0
927	-0.001
928	-0.001
928	-0.001
929	-0.001
929	-0.001
930	-0.002
930	-0.002
930	-0.002
931	-0.002
931	-0.003
932	-0.003
932	-0.003
933	-0.004
933	-0.004
933	-0.005
934	-0.005
934	-0.006
935	-0.006
935	-0.006
935	-0.007
936	-0.007
936	-0.007
937	-0.007
937	-0.007
938	-0.007
938	-0.006
938	-0.006
939	-0.006
939	-0.005
940	-0.005
940	-0.005
941	-0.004
941	-0.003
941	-0.003
942	-0.002
942	-0.002
943	-0.002
943	-0.001
944	-0.001
944	-0.001
944	-0
945	0
945	0
946	0
946	0.001
946	0.001
947	0.001
947	0.001
948	0.002
948	0.002
949	0.002
949	0.002
949	0.002
950	0.002
950	0.003
951	0.003
951	0.002
952	0.002
952	0.001
952	0.001
953	0
953	-0.001
954	-0.002
954	-0.002
955	-0.003
955	-0.004
955	-0.004
956	-0.004
956	-0.004
957	-0.004
957	-0.003
957	-0.003
958	-0.003
958	-0.002
959	-0.002
959	-0.001
960	-0.001
960	-0
960	-0
961	-0.001
961	-0.001
962	-0.001
962	-0.001
963	-0.001
963	-0.001
963	-0.001
964	-0.001
964	-0.001
965	-0.001
965	-0.001
966	-0.001
966	-0
966	0
967	0.001
967	0.001
968	0.001
968	0.002
968	0.002
969	0.002
969	0.001
970	0.001
970	0.001
971	0.001
971	0
971	-0
972	-0.001
972	-0.001
973	-0.001
973	-0.001
974	-0.001
974	-0.001
974	-0.001
975	-0.001
975	-0
976	0
976	0.001
976	0.001
977	0.001
977	0.001
978	0.001
978	0.001
979	0.001
979	0
979	0
980	-0
980	-0.001
981	-0.001
981	-0.002
982	-0.002
982	-0.002
982	-0.003
983	-0.003
983	-0.004
984	-0.005
984	-0.006
984	-0.007
985	-0.007
985	-0.008
986	-0.009
986	-0.009
987	-0.01
987	-0.011
987	-0.011
988	-0.011
988	-0.011
989	-0.012
989	-0.012
990	-0.012
990	-0.012
990	-0.012
991	-0.011
991	-0.011
992	-0.011
992	-0.011
992	-0.011
993	-0.011
993	-0.011
994	-0.011
994	-0.011
995	-0.011
995	-0.01
995	-0.01
996	-0.009
996	-0.009
997	-0.008
997	-0.007
997	-0.007
998	-0.006
998	-0.005
999	-0.003
999	-0.002
1000	-0.001
1000	-0.001
1000	-0
1001	0
1001	0.001
1002	0.001
1002	0.001
1003	0.001
1003	0
1003	-0
1004	-0.001
1004	-0.001
1005	-0.002
1005	-0.002
1005	-0.003
1006	-0.004
1006	-0.004
1007	-0.005
1007	-0.005
1008	-0.005
1008	-0.006
1008	-0.006
1009	-0.006
1009	-0.006
1010	-0.006
1010	-0.006
1010	-0.006
1011	-0.007
1011	-0.007
1012	-0.007
1012	-0.007
1013	-0.008
1013	-0.008
1013	-0.008
1014	-0.008
1014	-0.008
1015	-0.008
1015	-0.008
1016	-0.008
1016	-0.007
1016	-0.007
1017	-0.007
1017	-0.007
1018	-0.007
1018	-0.007
1018	-0.007
1019	-0.007
1019	-0.007
1020	-0.007
1020	-0.007
1021	-0.007
1021	-0.007
1021	-0.007
1022	-0.007
1022	-0.008
1023	-0.008
1023	-0.008
1023	-0.008
1024	-0.008
1024	-0.008
1025	-0.009
1025	-0.009
1026	-0.01
1026	-0.011
1026	-0.011
1027	-0.012
1027	-0.013
1028	-0.013
1028	-0.014
1028	-0.014
1029	-0.015
1029	-0.015
1030	-0.015
1030	-0.015
1031	-0.015
1031	-0.015
1031	-0.015
1032	-0.015
1032	-0.015
1033	-0.014
1033	-0.014
1033	-0.014
1034	-0.014
1034	-0.014
1035	-0.014
1035	-0.014
1036	-0.015
1036	-0.015
1036	-0.014
1037	-0.015
1037	-0.015
1038	-0.015
1038	-0.015
1039	-0.015
1039	-0.014
1039	-0.014
1040	-0.014
1040	-0.013
1041	-0.013
1041	-0.012
1041	-0.012
1042	-0.011
1042	-0.011
1043	-0.011
1043	-0.01
1044	-0.01
1044	-0.009
1044	-0.009
1045	-0.008
1045	-0.008
1046	-0.007
1046	-0.007
1046	-0.006
1047	-0.006
1047	-0.005
1048	-0.005
1048	-0.004
1049	-0.004
1049	-0.004
1049	-0.004
1050	-0.004
1050	-0.004
1051	-0.005
1051	-0.005
1051	-0.006
1052	-0.006
1052	-0.007
1053	-0.008
1053	-0.009
1053	-0.009
1054	-0.01
1054	-0.01
1055	-0.011
1055	-0.011
1056	-0.012
1056	-0.012
1056	-0.013
1057	-0.014
1057	-0.014
1058	-0.015
1058	-0.015
1058	-0.016
1059	-0.016
1059	-0.017
1060	-0.017
1060	-0.018
1061	-0.018
1061	-0.018
1061	-0.018
1062	-0.019
1062	-0.019
1063	-0.019
1063	-0.019
1063	-0.019
1064	-0.019
1064	-0.02
1065	-0.02
1065	-0.02
1066	-0.02
1066	-0.02
1066	-0.02
1067	-0.02
1067	-0.02
1068	-0.02
1068	-0.02
1068	-0.02
1069	-0.02
1069	-0.02
1070	-0.02
1070	-0.02
1071	-0.021
1071	-0.021
1071	-0.021
1072	-0.022
1072	-0.022
1073	-0.023
1073	-0.023
1073	-0.024
1074	-0.023
1074	-0.023
1075	-0.024
1075	-0.023
1076	-0.023
1076	-0.023
1076	-0.022
1077	-0.022
1077	-0.021
1078	-0.021
1078	-0.021
1078	-0.02
1079	-0.02
1079	-0.02
1080	-0.02
1080	-0.019
1080	-0.019
1081	-0.018
1081	-0.018
1082	-0.017
1082	-0.016
1083	-0.016
1083	-0.017
1083	-0.017
1084	-0.017
1084	-0.017
1085	-0.018
1085	-0.018
1085	-0.018
1086	-0.018
1086	-0.019
1087	-0.02
1087	-0.02
1088	-0.02
1088	-0.02
1088	-0.02
1089	-0.021
1089	-0.021
1090	-0.022
1090	-0.022
1090	-0.023
1091	-0.024
1091	-0.024
1092	-0.024
1092	-0.024
1092	-0.024
1093	-0.025
1093	-0.025
1094	-0.025
1094	-0.025
1095	-0.025
1095	-0.025
1095	-0.024
1096	-0.025
1096	-0.026
1097	-0.026
1097	-0.026
1097	-0.026
1098	-0.027
1098	-0.028
1099	-0.028
1099	-0.029
1100	-0.03
1100	-0.031
1100	-0.031
1101	-0.032
1101	-0.033
1102	-0.034
1102	-0.034
1102	-0.035
1103	-0.035
1103	-0.035
1104	-0.035
1104	-0.036
1104	-0.036
1105	-0.037
1105	-0.039
1106	-0.04
1106	-0.041
1107	-0.042
1107	-0.043
1107	-0.044
1108	-0.045
1108	-0.047
1109	-0.048
1109	-0.048
1109	-0.049
1110	-0.046
1110	-0.048
1111	-0.048
1111	-0.044
