Data from reversibility-20sec_Absorbance__5264__000000000005264.txt Node

Date: Wed Dec 06 17:27:46 CET 2023
User: Marek
Spectrometer: MAYP115816
Trigger mode: 0
Integration Time (sec): 2.000000E-1
Scans to average: 10
Electric dark correction enabled: true
Nonlinearity correction enabled: true
Boxcar width: 5
XAxis mode: Wavelengths
Number of Pixels in Spectrum: 2068
>>>>>Begin Spectral Data<<<<<
199	-0.153
199	-0.141
200	-0.081
200	-0.023
201	0.005
201	0.025
202	0.039
202	0.051
203	0.061
203	0.065
204	0.076
204	0.091
205	0.105
205	0.113
205	0.111
206	0.113
206	0.111
207	0.112
207	0.11
208	0.109
208	0.108
209	0.11
209	0.106
210	0.106
210	0.106
211	0.108
211	0.109
212	0.109
212	0.11
213	0.111
213	0.11
213	0.109
214	0.112
214	0.113
215	0.116
215	0.116
216	0.117
216	0.114
217	0.117
217	0.116
218	0.114
218	0.118
219	0.122
219	0.121
220	0.125
220	0.124
221	0.124
221	0.124
221	0.131
222	0.136
222	0.143
223	0.154
223	0.16
224	0.165
224	0.173
225	0.184
225	0.194
226	0.203
226	0.214
227	0.223
227	0.231
228	0.245
228	0.254
229	0.266
229	0.289
229	0.312
230	0.334
230	0.364
231	0.396
231	0.437
232	0.472
232	0.515
233	0.558
233	0.607
234	0.659
234	0.712
235	0.765
235	0.819
236	0.867
236	0.92
236	0.97
237	1.024
237	1.072
238	1.12
238	1.168
239	1.214
239	1.255
240	1.293
240	1.328
241	1.365
241	1.4
242	1.432
242	1.464
243	1.494
243	1.518
243	1.544
244	1.567
244	1.588
245	1.606
245	1.63
246	1.647
246	1.665
247	1.676
247	1.69
248	1.704
248	1.72
249	1.729
249	1.735
250	1.745
250	1.752
250	1.756
251	1.761
251	1.762
252	1.768
252	1.767
253	1.769
253	1.765
254	1.764
254	1.765
255	1.763
255	1.763
256	1.761
256	1.759
257	1.759
257	1.758
258	1.759
258	1.757
258	1.757
259	1.757
259	1.755
260	1.754
260	1.755
261	1.757
261	1.76
262	1.763
262	1.764
263	1.767
263	1.77
264	1.772
264	1.773
265	1.775
265	1.776
265	1.777
266	1.778
266	1.778
267	1.776
267	1.777
268	1.776
268	1.776
269	1.776
269	1.777
270	1.776
270	1.775
271	1.773
271	1.772
272	1.768
272	1.766
272	1.762
273	1.756
273	1.748
274	1.742
274	1.735
275	1.728
275	1.722
276	1.713
276	1.705
277	1.697
277	1.686
278	1.674
278	1.66
278	1.647
279	1.629
279	1.608
280	1.58
280	1.548
281	1.511
281	1.467
282	1.423
282	1.379
283	1.336
283	1.294
284	1.253
284	1.214
285	1.177
285	1.144
285	1.115
286	1.089
286	1.067
287	1.048
287	1.031
288	1.017
288	1.006
289	0.995
289	0.987
290	0.98
290	0.973
291	0.968
291	0.963
292	0.959
292	0.955
292	0.951
293	0.948
293	0.944
294	0.941
294	0.938
295	0.936
295	0.933
296	0.93
296	0.927
297	0.925
297	0.922
298	0.919
298	0.917
298	0.914
299	0.912
299	0.909
300	0.907
300	0.904
301	0.902
301	0.9
302	0.897
302	0.895
303	0.893
303	0.89
304	0.888
304	0.886
305	0.884
305	0.882
305	0.88
306	0.878
306	0.875
307	0.873
307	0.871
308	0.869
308	0.866
309	0.864
309	0.861
310	0.859
310	0.856
311	0.853
311	0.85
311	0.847
312	0.844
312	0.841
313	0.838
313	0.834
314	0.83
314	0.826
315	0.822
315	0.818
316	0.814
316	0.81
317	0.805
317	0.801
318	0.796
318	0.791
318	0.786
319	0.781
319	0.775
320	0.77
320	0.764
321	0.758
321	0.752
322	0.746
322	0.74
323	0.734
323	0.727
324	0.721
324	0.715
324	0.708
325	0.701
325	0.695
326	0.688
326	0.681
327	0.675
327	0.668
328	0.661
328	0.654
329	0.647
329	0.64
330	0.633
330	0.627
330	0.62
331	0.613
331	0.606
332	0.599
332	0.592
333	0.586
333	0.579
334	0.572
334	0.565
335	0.559
335	0.552
336	0.545
336	0.539
336	0.532
337	0.526
337	0.52
338	0.514
338	0.508
339	0.502
339	0.496
340	0.49
340	0.485
341	0.479
341	0.474
342	0.468
342	0.463
342	0.458
343	0.453
343	0.448
344	0.443
344	0.438
345	0.433
345	0.428
346	0.424
346	0.42
347	0.416
347	0.411
348	0.407
348	0.403
348	0.4
349	0.396
349	0.392
350	0.389
350	0.385
351	0.382
351	0.379
352	0.376
352	0.373
353	0.37
353	0.368
354	0.365
354	0.362
354	0.359
355	0.356
355	0.353
356	0.351
356	0.348
357	0.345
357	0.342
358	0.339
358	0.337
359	0.335
359	0.333
360	0.331
360	0.329
360	0.327
361	0.325
361	0.323
362	0.322
362	0.32
363	0.319
363	0.317
364	0.315
364	0.313
365	0.312
365	0.31
366	0.308
366	0.306
366	0.305
367	0.303
367	0.302
368	0.3
368	0.298
369	0.297
369	0.296
370	0.294
370	0.293
371	0.292
371	0.291
372	0.29
372	0.289
372	0.288
373	0.287
373	0.286
374	0.285
374	0.284
375	0.283
375	0.282
376	0.281
376	0.281
377	0.28
377	0.279
378	0.278
378	0.277
378	0.276
379	0.276
379	0.275
380	0.274
380	0.273
381	0.273
381	0.272
382	0.272
382	0.271
383	0.271
383	0.27
383	0.27
384	0.269
384	0.269
385	0.268
385	0.268
386	0.268
386	0.267
387	0.267
387	0.266
388	0.266
388	0.265
389	0.265
389	0.265
389	0.265
390	0.264
390	0.264
391	0.263
391	0.263
392	0.263
392	0.263
393	0.263
393	0.262
394	0.262
394	0.262
394	0.261
395	0.261
395	0.261
396	0.26
396	0.26
397	0.26
397	0.259
398	0.259
398	0.259
399	0.259
399	0.258
400	0.258
400	0.258
400	0.258
401	0.258
401	0.257
402	0.257
402	0.257
403	0.257
403	0.256
404	0.256
404	0.256
405	0.256
405	0.255
405	0.255
406	0.255
406	0.254
407	0.254
407	0.254
408	0.254
408	0.253
409	0.253
409	0.253
410	0.253
410	0.252
411	0.252
411	0.252
411	0.252
412	0.251
412	0.251
413	0.251
413	0.251
414	0.25
414	0.25
415	0.25
415	0.25
416	0.249
416	0.249
416	0.248
417	0.248
417	0.248
418	0.248
418	0.247
419	0.247
419	0.246
420	0.246
420	0.246
421	0.245
421	0.245
421	0.245
422	0.245
422	0.244
423	0.244
423	0.244
424	0.243
424	0.243
425	0.243
425	0.242
426	0.242
426	0.242
427	0.241
427	0.241
427	0.241
428	0.241
428	0.24
429	0.24
429	0.239
430	0.239
430	0.239
431	0.239
431	0.239
432	0.239
432	0.238
432	0.238
433	0.238
433	0.238
434	0.238
434	0.238
435	0.237
435	0.237
436	0.237
436	0.236
437	0.236
437	0.236
437	0.236
438	0.236
438	0.236
439	0.235
439	0.235
440	0.235
440	0.235
441	0.235
441	0.235
442	0.234
442	0.234
442	0.234
443	0.234
443	0.234
444	0.233
444	0.233
445	0.233
445	0.233
446	0.232
446	0.232
447	0.232
447	0.231
447	0.231
448	0.231
448	0.231
449	0.23
449	0.23
450	0.23
450	0.23
451	0.23
451	0.23
452	0.23
452	0.23
452	0.23
453	0.23
453	0.229
454	0.229
454	0.229
455	0.228
455	0.228
456	0.228
456	0.227
457	0.227
457	0.227
458	0.226
458	0.226
458	0.226
459	0.225
459	0.225
460	0.225
460	0.225
461	0.225
461	0.224
462	0.224
462	0.224
463	0.224
463	0.223
463	0.223
464	0.223
464	0.222
465	0.222
465	0.222
466	0.222
466	0.222
467	0.222
467	0.221
467	0.221
468	0.221
468	0.221
469	0.221
469	0.221
470	0.221
470	0.221
471	0.221
471	0.221
472	0.221
472	0.221
472	0.221
473	0.221
473	0.221
474	0.221
474	0.221
475	0.22
475	0.22
476	0.221
476	0.221
477	0.221
477	0.22
477	0.22
478	0.22
478	0.22
479	0.22
479	0.22
480	0.22
480	0.221
481	0.22
481	0.22
482	0.22
482	0.22
482	0.221
483	0.221
483	0.221
484	0.221
484	0.221
485	0.221
485	0.22
486	0.22
486	0.22
487	0.221
487	0.221
487	0.221
488	0.221
488	0.22
489	0.221
489	0.221
490	0.222
490	0.222
491	0.222
491	0.223
492	0.223
492	0.223
492	0.224
493	0.224
493	0.224
494	0.225
494	0.225
495	0.225
495	0.225
496	0.226
496	0.226
496	0.227
497	0.227
497	0.227
498	0.228
498	0.228
499	0.228
499	0.229
500	0.229
500	0.23
501	0.23
501	0.23
501	0.23
502	0.23
502	0.231
503	0.231
503	0.231
504	0.232
504	0.232
505	0.233
505	0.233
506	0.233
506	0.233
506	0.234
507	0.234
507	0.234
508	0.235
508	0.235
509	0.235
509	0.236
510	0.236
510	0.237
511	0.237
511	0.238
511	0.239
512	0.239
512	0.24
513	0.24
513	0.241
514	0.241
514	0.242
515	0.242
515	0.242
515	0.242
516	0.243
516	0.243
517	0.244
517	0.244
518	0.244
518	0.244
519	0.244
519	0.244
520	0.245
520	0.245
520	0.245
521	0.245
521	0.245
522	0.245
522	0.246
523	0.246
523	0.246
524	0.246
524	0.247
524	0.247
525	0.247
525	0.248
526	0.248
526	0.248
527	0.249
527	0.249
528	0.249
528	0.249
529	0.249
529	0.249
529	0.249
530	0.249
530	0.249
531	0.249
531	0.249
532	0.249
532	0.249
533	0.249
533	0.249
533	0.249
534	0.249
534	0.249
535	0.249
535	0.249
536	0.249
536	0.249
537	0.249
537	0.249
538	0.249
538	0.248
538	0.248
539	0.248
539	0.248
540	0.248
540	0.248
541	0.247
541	0.247
542	0.247
542	0.247
542	0.247
543	0.246
543	0.246
544	0.246
544	0.246
545	0.246
545	0.246
546	0.246
546	0.246
547	0.245
547	0.245
547	0.245
548	0.245
548	0.244
549	0.244
549	0.244
550	0.244
550	0.243
551	0.243
551	0.243
551	0.242
552	0.242
552	0.242
553	0.242
553	0.241
554	0.241
554	0.24
555	0.239
555	0.239
556	0.238
556	0.238
556	0.238
557	0.238
557	0.238
558	0.238
558	0.238
559	0.239
559	0.239
560	0.239
560	0.239
560	0.239
561	0.239
561	0.238
562	0.238
562	0.237
563	0.236
563	0.235
564	0.235
564	0.234
564	0.234
565	0.234
565	0.234
566	0.233
566	0.233
567	0.233
567	0.233
568	0.233
568	0.233
568	0.233
569	0.232
569	0.232
570	0.231
570	0.23
571	0.23
571	0.229
572	0.229
572	0.228
573	0.228
573	0.228
573	0.227
574	0.227
574	0.227
575	0.227
575	0.227
576	0.228
576	0.227
577	0.227
577	0.226
577	0.226
578	0.226
578	0.225
579	0.226
579	0.226
580	0.225
580	0.224
581	0.224
581	0.223
581	0.223
582	0.224
582	0.224
583	0.224
583	0.223
584	0.222
584	0.221
585	0.221
585	0.221
585	0.221
586	0.221
586	0.22
587	0.219
587	0.219
588	0.218
588	0.218
589	0.218
589	0.218
590	0.218
590	0.217
590	0.218
591	0.218
591	0.218
592	0.218
592	0.217
593	0.217
593	0.217
594	0.216
594	0.216
594	0.215
595	0.215
595	0.214
596	0.214
596	0.214
597	0.214
597	0.215
598	0.214
598	0.214
598	0.214
599	0.214
599	0.214
600	0.213
600	0.213
601	0.213
601	0.213
602	0.212
602	0.212
602	0.212
603	0.211
603	0.212
604	0.212
604	0.212
605	0.212
605	0.212
606	0.212
606	0.211
606	0.21
607	0.21
607	0.21
608	0.21
608	0.209
609	0.209
609	0.209
610	0.208
610	0.208
610	0.208
611	0.208
611	0.208
612	0.208
612	0.208
613	0.208
613	0.208
614	0.208
614	0.207
614	0.207
615	0.207
615	0.206
616	0.206
616	0.206
617	0.205
617	0.205
618	0.205
618	0.205
618	0.205
619	0.205
619	0.205
620	0.206
620	0.206
621	0.205
621	0.205
622	0.205
622	0.204
622	0.204
623	0.204
623	0.204
624	0.203
624	0.203
625	0.202
625	0.202
626	0.202
626	0.201
626	0.202
627	0.202
627	0.201
628	0.201
628	0.201
629	0.201
629	0.2
630	0.2
630	0.2
630	0.2
631	0.201
631	0.201
632	0.2
632	0.2
633	0.2
633	0.201
634	0.201
634	0.201
634	0.201
635	0.201
635	0.2
636	0.2
636	0.2
637	0.199
637	0.199
638	0.199
638	0.198
638	0.198
639	0.197
639	0.197
640	0.197
640	0.197
641	0.197
641	0.197
642	0.197
642	0.197
642	0.198
643	0.198
643	0.198
644	0.198
644	0.199
645	0.198
645	0.198
646	0.198
646	0.198
646	0.198
647	0.198
647	0.197
648	0.197
648	0.196
649	0.196
649	0.196
650	0.196
650	0.196
650	0.196
651	0.196
651	0.195
652	0.195
652	0.195
653	0.195
653	0.197
653	0.204
654	0.16
654	0.128
655	0.128
655	0.128
656	0.129
656	0.129
657	0.13
657	0.13
657	0.13
658	0.129
658	0.118
659	0.15
659	0.193
660	0.198
660	0.199
661	0.198
661	0.198
661	0.198
662	0.198
662	0.197
663	0.197
663	0.197
664	0.196
664	0.196
665	0.196
665	0.196
665	0.196
666	0.196
666	0.196
667	0.196
667	0.197
668	0.197
668	0.197
669	0.197
669	0.197
669	0.198
670	0.198
670	0.198
671	0.197
671	0.197
672	0.196
672	0.196
672	0.196
673	0.195
673	0.195
674	0.195
674	0.195
675	0.194
675	0.195
676	0.195
676	0.195
676	0.195
677	0.195
677	0.195
678	0.195
678	0.195
679	0.194
679	0.194
680	0.194
680	0.194
680	0.194
681	0.194
681	0.194
682	0.195
682	0.195
683	0.195
683	0.195
684	0.196
684	0.195
684	0.195
685	0.195
685	0.196
686	0.196
686	0.195
687	0.195
687	0.195
687	0.195
688	0.195
688	0.195
689	0.196
689	0.196
690	0.196
690	0.195
691	0.195
691	0.196
691	0.196
692	0.196
692	0.196
693	0.196
693	0.196
694	0.196
694	0.196
695	0.197
695	0.198
695	0.198
696	0.199
696	0.199
697	0.199
697	0.199
698	0.199
698	0.199
698	0.199
699	0.199
699	0.199
700	0.198
700	0.198
701	0.198
701	0.197
702	0.197
702	0.197
702	0.197
703	0.196
703	0.196
704	0.196
704	0.196
705	0.197
705	0.197
705	0.197
706	0.198
706	0.199
707	0.199
707	0.2
708	0.201
708	0.201
709	0.202
709	0.202
709	0.202
710	0.202
710	0.203
711	0.203
711	0.203
712	0.204
712	0.203
713	0.203
713	0.203
713	0.202
714	0.202
714	0.202
715	0.201
715	0.2
716	0.199
716	0.199
716	0.198
717	0.197
717	0.197
718	0.197
718	0.197
719	0.197
719	0.198
720	0.199
720	0.199
720	0.2
721	0.201
721	0.202
722	0.202
722	0.203
723	0.203
723	0.203
723	0.203
724	0.203
724	0.203
725	0.202
725	0.202
726	0.201
726	0.201
727	0.201
727	0.2
727	0.2
728	0.2
728	0.2
729	0.201
729	0.201
730	0.201
730	0.202
730	0.202
731	0.203
731	0.203
732	0.204
732	0.205
733	0.205
733	0.205
734	0.206
734	0.206
734	0.207
735	0.207
735	0.207
736	0.207
736	0.208
737	0.208
737	0.208
737	0.208
738	0.207
738	0.206
739	0.206
739	0.205
740	0.205
740	0.205
741	0.205
741	0.204
741	0.204
742	0.204
742	0.205
743	0.206
743	0.207
744	0.208
744	0.209
744	0.209
745	0.209
745	0.21
746	0.21
746	0.21
747	0.21
747	0.21
748	0.21
748	0.21
748	0.209
749	0.209
749	0.209
750	0.208
750	0.208
751	0.208
751	0.208
751	0.207
752	0.207
752	0.206
753	0.206
753	0.205
754	0.205
754	0.205
754	0.205
755	0.205
755	0.205
756	0.204
756	0.203
757	0.203
757	0.203
758	0.203
758	0.204
758	0.204
759	0.205
759	0.205
760	0.205
760	0.204
761	0.205
761	0.205
761	0.206
762	0.206
762	0.207
763	0.207
763	0.206
764	0.206
764	0.207
764	0.207
765	0.207
765	0.207
766	0.207
766	0.207
767	0.207
767	0.207
768	0.206
768	0.207
768	0.207
769	0.208
769	0.208
770	0.209
770	0.209
771	0.21
771	0.21
771	0.21
772	0.211
772	0.211
773	0.211
773	0.211
774	0.211
774	0.211
775	0.211
775	0.211
775	0.211
776	0.211
776	0.211
777	0.211
777	0.211
778	0.211
778	0.211
778	0.211
779	0.211
779	0.212
780	0.212
780	0.212
781	0.212
781	0.212
781	0.213
782	0.213
782	0.213
783	0.214
783	0.214
784	0.215
784	0.215
784	0.215
785	0.215
785	0.216
786	0.216
786	0.216
787	0.216
787	0.215
788	0.214
788	0.214
788	0.213
789	0.212
789	0.212
790	0.211
790	0.21
791	0.21
791	0.209
791	0.208
792	0.209
792	0.209
793	0.208
793	0.208
794	0.208
794	0.208
794	0.208
795	0.209
795	0.209
796	0.21
796	0.21
797	0.211
797	0.211
797	0.212
798	0.212
798	0.213
799	0.213
799	0.214
800	0.214
800	0.214
801	0.214
801	0.214
801	0.214
802	0.214
802	0.214
803	0.214
803	0.214
804	0.214
804	0.215
804	0.215
805	0.215
805	0.215
806	0.215
806	0.215
807	0.215
807	0.215
807	0.215
808	0.216
808	0.216
809	0.216
809	0.216
810	0.216
810	0.216
810	0.216
811	0.216
811	0.217
812	0.217
812	0.217
813	0.217
813	0.218
813	0.218
814	0.219
814	0.219
815	0.22
815	0.221
816	0.221
816	0.221
817	0.22
817	0.22
817	0.22
818	0.22
818	0.22
819	0.22
819	0.22
820	0.219
820	0.219
820	0.219
821	0.219
821	0.219
822	0.219
822	0.22
823	0.22
823	0.22
823	0.22
824	0.221
824	0.222
825	0.223
825	0.224
826	0.224
826	0.223
826	0.223
827	0.224
827	0.224
828	0.224
828	0.224
829	0.224
829	0.224
829	0.224
830	0.224
830	0.224
831	0.225
831	0.225
832	0.225
832	0.226
832	0.226
833	0.226
833	0.226
834	0.225
834	0.225
835	0.225
835	0.224
835	0.224
836	0.223
836	0.223
837	0.223
837	0.223
838	0.222
838	0.222
839	0.221
839	0.221
839	0.22
840	0.219
840	0.218
841	0.217
841	0.217
842	0.216
842	0.215
842	0.215
843	0.215
843	0.214
844	0.214
844	0.214
845	0.214
845	0.213
845	0.213
846	0.213
846	0.213
847	0.213
847	0.213
848	0.213
848	0.213
848	0.214
849	0.214
849	0.214
850	0.215
850	0.215
851	0.216
851	0.217
851	0.217
852	0.217
852	0.217
853	0.218
853	0.218
854	0.218
854	0.219
854	0.219
855	0.22
855	0.221
856	0.221
856	0.221
857	0.222
857	0.223
857	0.223
858	0.223
858	0.223
859	0.222
859	0.222
860	0.222
860	0.221
860	0.221
861	0.22
861	0.22
862	0.22
862	0.219
863	0.219
863	0.218
863	0.218
864	0.218
864	0.218
865	0.218
865	0.218
866	0.218
866	0.218
866	0.218
867	0.219
867	0.219
868	0.219
868	0.22
869	0.22
869	0.22
869	0.219
870	0.219
870	0.219
871	0.218
871	0.218
872	0.218
872	0.217
872	0.217
873	0.217
873	0.216
874	0.216
874	0.216
875	0.216
875	0.216
875	0.216
876	0.216
876	0.216
877	0.216
877	0.216
878	0.216
878	0.216
878	0.217
879	0.217
879	0.217
880	0.217
880	0.216
881	0.216
881	0.215
881	0.215
882	0.214
882	0.214
883	0.214
883	0.214
884	0.214
884	0.214
884	0.214
885	0.214
885	0.214
886	0.214
886	0.214
887	0.214
887	0.213
887	0.212
888	0.211
888	0.21
889	0.209
889	0.208
890	0.208
890	0.207
890	0.207
891	0.207
891	0.206
892	0.206
892	0.206
893	0.206
893	0.206
893	0.207
894	0.207
894	0.207
895	0.207
895	0.207
895	0.208
896	0.208
896	0.208
897	0.209
897	0.209
898	0.209
898	0.209
898	0.209
899	0.209
899	0.209
900	0.209
900	0.209
901	0.208
901	0.208
901	0.207
902	0.206
902	0.205
903	0.204
903	0.204
904	0.203
904	0.202
904	0.202
905	0.201
905	0.2
906	0.2
906	0.2
907	0.2
907	0.2
907	0.201
908	0.201
908	0.201
909	0.201
909	0.201
910	0.201
910	0.201
910	0.201
911	0.2
911	0.2
912	0.2
912	0.199
913	0.199
913	0.199
913	0.198
914	0.198
914	0.198
915	0.198
915	0.198
916	0.198
916	0.197
916	0.197
917	0.197
917	0.197
918	0.196
918	0.196
918	0.196
919	0.196
919	0.195
920	0.195
920	0.195
921	0.195
921	0.195
921	0.195
922	0.195
922	0.195
923	0.195
923	0.195
924	0.195
924	0.196
924	0.196
925	0.196
925	0.197
926	0.197
926	0.198
927	0.198
927	0.198
927	0.198
928	0.197
928	0.197
929	0.196
929	0.195
930	0.194
930	0.193
930	0.192
931	0.191
931	0.19
932	0.19
932	0.189
933	0.189
933	0.188
933	0.188
934	0.187
934	0.187
935	0.187
935	0.186
935	0.186
936	0.185
936	0.185
937	0.185
937	0.184
938	0.184
938	0.183
938	0.183
939	0.183
939	0.183
940	0.183
940	0.183
941	0.183
941	0.183
941	0.183
942	0.183
942	0.183
943	0.183
943	0.183
944	0.182
944	0.183
944	0.183
945	0.183
945	0.183
946	0.183
946	0.183
946	0.183
947	0.183
947	0.182
948	0.182
948	0.182
949	0.181
949	0.18
949	0.179
950	0.179
950	0.179
951	0.178
951	0.177
952	0.176
952	0.176
952	0.175
953	0.175
953	0.175
954	0.175
954	0.174
955	0.174
955	0.174
955	0.173
956	0.173
956	0.173
957	0.173
957	0.173
957	0.173
958	0.173
958	0.173
959	0.173
959	0.172
960	0.172
960	0.172
960	0.171
961	0.171
961	0.17
962	0.17
962	0.17
963	0.169
963	0.169
963	0.169
964	0.169
964	0.169
965	0.169
965	0.169
966	0.169
966	0.169
966	0.168
967	0.168
967	0.168
968	0.168
968	0.168
968	0.167
969	0.167
969	0.166
970	0.165
970	0.165
971	0.164
971	0.163
971	0.162
972	0.162
972	0.161
973	0.16
973	0.159
974	0.159
974	0.158
974	0.158
975	0.158
975	0.157
976	0.157
976	0.157
976	0.157
977	0.157
977	0.156
978	0.156
978	0.156
979	0.155
979	0.155
979	0.155
980	0.155
980	0.154
981	0.154
981	0.153
982	0.153
982	0.153
982	0.153
983	0.153
983	0.153
984	0.153
984	0.153
984	0.153
985	0.153
985	0.153
986	0.153
986	0.153
987	0.153
987	0.153
987	0.153
988	0.153
988	0.153
989	0.153
989	0.152
990	0.152
990	0.152
990	0.152
991	0.152
991	0.151
992	0.151
992	0.15
992	0.15
993	0.149
993	0.148
994	0.147
994	0.146
995	0.145
995	0.144
995	0.144
996	0.144
996	0.144
997	0.144
997	0.144
997	0.145
998	0.145
998	0.146
999	0.146
999	0.147
1000	0.148
1000	0.148
1000	0.148
1001	0.148
1001	0.148
1002	0.148
1002	0.147
1003	0.147
1003	0.146
1003	0.145
1004	0.145
1004	0.144
1005	0.143
1005	0.143
1005	0.142
1006	0.142
1006	0.142
1007	0.141
1007	0.141
1008	0.141
1008	0.141
1008	0.141
1009	0.141
1009	0.14
1010	0.14
1010	0.14
1010	0.14
1011	0.139
1011	0.139
1012	0.139
1012	0.138
1013	0.137
1013	0.137
1013	0.136
1014	0.136
1014	0.135
1015	0.135
1015	0.135
1016	0.135
1016	0.134
1016	0.134
1017	0.134
1017	0.134
1018	0.134
1018	0.133
1018	0.133
1019	0.133
1019	0.132
1020	0.132
1020	0.132
1021	0.132
1021	0.132
1021	0.133
1022	0.133
1022	0.133
1023	0.133
1023	0.134
1023	0.134
1024	0.134
1024	0.134
1025	0.135
1025	0.134
1026	0.134
1026	0.134
1026	0.134
1027	0.134
1027	0.134
1028	0.133
1028	0.133
1028	0.133
1029	0.132
1029	0.132
1030	0.132
1030	0.132
1031	0.132
1031	0.132
1031	0.132
1032	0.132
1032	0.132
1033	0.131
1033	0.131
1033	0.131
1034	0.13
1034	0.13
1035	0.129
1035	0.129
1036	0.129
1036	0.128
1036	0.128
1037	0.128
1037	0.127
1038	0.127
1038	0.127
1039	0.127
1039	0.127
1039	0.127
1040	0.127
1040	0.127
1041	0.127
1041	0.126
1041	0.126
1042	0.126
1042	0.125
1043	0.125
1043	0.125
1044	0.124
1044	0.124
1044	0.124
1045	0.124
1045	0.123
1046	0.123
1046	0.124
1046	0.124
1047	0.124
1047	0.124
1048	0.124
1048	0.124
1049	0.124
1049	0.124
1049	0.123
1050	0.123
1050	0.122
1051	0.121
1051	0.12
1051	0.12
1052	0.119
1052	0.118
1053	0.118
1053	0.117
1053	0.116
1054	0.116
1054	0.116
1055	0.116
1055	0.115
1056	0.115
1056	0.114
1056	0.113
1057	0.113
1057	0.112
1058	0.111
1058	0.11
1058	0.109
1059	0.108
1059	0.107
1060	0.107
1060	0.106
1061	0.105
1061	0.105
1061	0.104
1062	0.104
1062	0.104
1063	0.103
1063	0.103
1063	0.103
1064	0.103
1064	0.103
1065	0.103
1065	0.102
1066	0.102
1066	0.102
1066	0.102
1067	0.102
1067	0.102
1068	0.102
1068	0.102
1068	0.102
1069	0.102
1069	0.101
1070	0.101
1070	0.101
1071	0.1
1071	0.1
1071	0.1
1072	0.099
1072	0.099
1073	0.098
1073	0.097
1073	0.097
1074	0.097
1074	0.097
1075	0.097
1075	0.097
1076	0.097
1076	0.097
1076	0.096
1077	0.096
1077	0.096
1078	0.096
1078	0.096
1078	0.095
1079	0.095
1079	0.094
1080	0.094
1080	0.093
1080	0.093
1081	0.093
1081	0.093
1082	0.093
1082	0.093
1083	0.093
1083	0.092
1083	0.092
1084	0.093
1084	0.093
1085	0.093
1085	0.093
1085	0.093
1086	0.093
1086	0.093
1087	0.092
1087	0.092
1088	0.092
1088	0.092
1088	0.091
1089	0.091
1089	0.09
1090	0.089
1090	0.088
1090	0.087
1091	0.087
1091	0.087
1092	0.087
1092	0.087
1092	0.087
1093	0.087
1093	0.087
1094	0.086
1094	0.086
1095	0.086
1095	0.085
1095	0.085
1096	0.085
1096	0.083
1097	0.083
1097	0.082
1097	0.081
1098	0.08
1098	0.079
1099	0.078
1099	0.076
1100	0.074
1100	0.073
1100	0.071
1101	0.07
1101	0.068
1102	0.067
1102	0.066
1102	0.064
1103	0.062
1103	0.062
1104	0.061
1104	0.061
1104	0.061
1105	0.059
1105	0.058
1106	0.056
1106	0.055
1107	0.053
1107	0.053
1107	0.052
1108	0.051
1108	0.051
1109	0.048
1109	0.047
1109	0.047
1110	0.048
1110	0.048
1111	0.049
1111	0.046
