Data from reversibility-20sec_Absorbance__7874__000000000007874.txt Node

Date: Thu Dec 07 07:57:46 CET 2023
User: Marek
Spectrometer: MAYP115816
Trigger mode: 0
Integration Time (sec): 2.000000E-1
Scans to average: 10
Electric dark correction enabled: true
Nonlinearity correction enabled: true
Boxcar width: 5
XAxis mode: Wavelengths
Number of Pixels in Spectrum: 2068
>>>>>Begin Spectral Data<<<<<
199	-0.134
199	-0.106
200	-0.047
200	-0.004
201	0.024
201	0.04
202	0.047
202	0.058
203	0.067
203	0.07
204	0.084
204	0.099
205	0.108
205	0.112
205	0.112
206	0.112
206	0.113
207	0.115
207	0.115
208	0.114
208	0.113
209	0.113
209	0.11
210	0.112
210	0.113
211	0.116
211	0.116
212	0.114
212	0.117
213	0.118
213	0.12
213	0.12
214	0.125
214	0.128
215	0.129
215	0.132
216	0.133
216	0.13
217	0.136
217	0.137
218	0.138
218	0.141
219	0.147
219	0.15
220	0.154
220	0.153
221	0.155
221	0.158
221	0.167
222	0.171
222	0.175
223	0.181
223	0.186
224	0.19
224	0.197
225	0.203
225	0.214
226	0.224
226	0.235
227	0.245
227	0.258
228	0.273
228	0.289
229	0.303
229	0.327
229	0.347
230	0.372
230	0.403
231	0.433
231	0.47
232	0.508
232	0.55
233	0.594
233	0.644
234	0.698
234	0.75
235	0.805
235	0.857
236	0.907
236	0.959
236	1.011
237	1.061
237	1.108
238	1.154
238	1.199
239	1.241
239	1.281
240	1.32
240	1.358
241	1.394
241	1.431
242	1.461
242	1.492
243	1.52
243	1.546
243	1.569
244	1.59
244	1.614
245	1.632
245	1.653
246	1.671
246	1.686
247	1.699
247	1.714
248	1.726
248	1.739
249	1.749
249	1.756
250	1.762
250	1.77
250	1.774
251	1.781
251	1.784
252	1.79
252	1.792
253	1.796
253	1.797
254	1.796
254	1.799
255	1.799
255	1.799
256	1.799
256	1.798
257	1.797
257	1.794
258	1.793
258	1.794
258	1.794
259	1.795
259	1.794
260	1.793
260	1.795
261	1.793
261	1.795
262	1.798
262	1.8
263	1.802
263	1.801
264	1.801
264	1.801
265	1.803
265	1.803
265	1.802
266	1.802
266	1.802
267	1.8
267	1.801
268	1.799
268	1.797
269	1.799
269	1.797
270	1.795
270	1.794
271	1.792
271	1.792
272	1.788
272	1.787
272	1.784
273	1.781
273	1.777
274	1.772
274	1.767
275	1.763
275	1.757
276	1.75
276	1.743
277	1.737
277	1.728
278	1.717
278	1.706
278	1.692
279	1.679
279	1.664
280	1.643
280	1.62
281	1.593
281	1.561
282	1.526
282	1.49
283	1.454
283	1.417
284	1.382
284	1.345
285	1.311
285	1.278
285	1.249
286	1.222
286	1.199
287	1.178
287	1.16
288	1.144
288	1.13
289	1.118
289	1.108
290	1.099
290	1.091
291	1.083
291	1.077
292	1.071
292	1.065
292	1.06
293	1.055
293	1.051
294	1.047
294	1.043
295	1.039
295	1.035
296	1.031
296	1.027
297	1.024
297	1.02
298	1.017
298	1.014
298	1.01
299	1.007
299	1.003
300	1
300	0.996
301	0.994
301	0.991
302	0.987
302	0.985
303	0.982
303	0.979
304	0.976
304	0.973
305	0.97
305	0.967
305	0.964
306	0.962
306	0.959
307	0.956
307	0.953
308	0.95
308	0.947
309	0.944
309	0.94
310	0.937
310	0.934
311	0.93
311	0.927
311	0.923
312	0.919
312	0.915
313	0.911
313	0.908
314	0.904
314	0.9
315	0.895
315	0.891
316	0.886
316	0.882
317	0.877
317	0.872
318	0.866
318	0.861
318	0.856
319	0.85
319	0.844
320	0.839
320	0.833
321	0.827
321	0.82
322	0.814
322	0.808
323	0.801
323	0.795
324	0.788
324	0.781
324	0.774
325	0.767
325	0.76
326	0.753
326	0.746
327	0.739
327	0.731
328	0.724
328	0.717
329	0.71
329	0.703
330	0.696
330	0.689
330	0.682
331	0.675
331	0.667
332	0.66
332	0.654
333	0.646
333	0.639
334	0.632
334	0.625
335	0.619
335	0.611
336	0.605
336	0.598
336	0.591
337	0.585
337	0.578
338	0.572
338	0.565
339	0.559
339	0.553
340	0.547
340	0.541
341	0.535
341	0.529
342	0.524
342	0.518
342	0.513
343	0.508
343	0.502
344	0.497
344	0.492
345	0.488
345	0.483
346	0.478
346	0.474
347	0.469
347	0.465
348	0.461
348	0.457
348	0.453
349	0.449
349	0.445
350	0.441
350	0.438
351	0.434
351	0.431
352	0.427
352	0.424
353	0.421
353	0.418
354	0.415
354	0.412
354	0.409
355	0.406
355	0.403
356	0.4
356	0.397
357	0.394
357	0.391
358	0.388
358	0.385
359	0.383
359	0.38
360	0.378
360	0.376
360	0.374
361	0.372
361	0.37
362	0.368
362	0.366
363	0.364
363	0.362
364	0.36
364	0.358
365	0.356
365	0.354
366	0.353
366	0.351
366	0.349
367	0.347
367	0.345
368	0.344
368	0.342
369	0.34
369	0.339
370	0.337
370	0.336
371	0.334
371	0.333
372	0.332
372	0.33
372	0.329
373	0.328
373	0.327
374	0.326
374	0.325
375	0.324
375	0.323
376	0.322
376	0.32
377	0.319
377	0.318
378	0.317
378	0.316
378	0.315
379	0.314
379	0.313
380	0.312
380	0.311
381	0.31
381	0.309
382	0.309
382	0.308
383	0.308
383	0.307
383	0.306
384	0.306
384	0.305
385	0.304
385	0.304
386	0.303
386	0.303
387	0.302
387	0.301
388	0.301
388	0.3
389	0.3
389	0.299
389	0.299
390	0.298
390	0.298
391	0.297
391	0.297
392	0.296
392	0.296
393	0.296
393	0.295
394	0.295
394	0.294
394	0.294
395	0.293
395	0.293
396	0.292
396	0.292
397	0.291
397	0.291
398	0.29
398	0.29
399	0.29
399	0.289
400	0.289
400	0.289
400	0.288
401	0.288
401	0.287
402	0.287
402	0.287
403	0.286
403	0.285
404	0.285
404	0.285
405	0.284
405	0.284
405	0.284
406	0.283
406	0.283
407	0.283
407	0.282
408	0.282
408	0.282
409	0.281
409	0.281
410	0.281
410	0.28
411	0.28
411	0.28
411	0.28
412	0.279
412	0.279
413	0.279
413	0.278
414	0.278
414	0.278
415	0.278
415	0.277
416	0.277
416	0.276
416	0.276
417	0.275
417	0.275
418	0.275
418	0.274
419	0.274
419	0.273
420	0.273
420	0.272
421	0.272
421	0.272
421	0.271
422	0.271
422	0.27
423	0.27
423	0.27
424	0.269
424	0.269
425	0.269
425	0.269
426	0.268
426	0.268
427	0.268
427	0.268
427	0.267
428	0.267
428	0.266
429	0.266
429	0.266
430	0.265
430	0.265
431	0.265
431	0.264
432	0.264
432	0.264
432	0.264
433	0.264
433	0.264
434	0.264
434	0.264
435	0.264
435	0.263
436	0.263
436	0.263
437	0.263
437	0.262
437	0.262
438	0.262
438	0.262
439	0.262
439	0.261
440	0.261
440	0.261
441	0.26
441	0.26
442	0.26
442	0.26
442	0.26
443	0.26
443	0.26
444	0.259
444	0.259
445	0.259
445	0.259
446	0.259
446	0.259
447	0.259
447	0.258
447	0.258
448	0.258
448	0.258
449	0.258
449	0.258
450	0.258
450	0.258
451	0.258
451	0.258
452	0.258
452	0.258
452	0.258
453	0.258
453	0.258
454	0.258
454	0.258
455	0.257
455	0.257
456	0.257
456	0.257
457	0.257
457	0.257
458	0.257
458	0.257
458	0.257
459	0.257
459	0.257
460	0.257
460	0.257
461	0.257
461	0.257
462	0.257
462	0.257
463	0.258
463	0.257
463	0.257
464	0.257
464	0.257
465	0.257
465	0.257
466	0.257
466	0.257
467	0.258
467	0.258
467	0.258
468	0.258
468	0.258
469	0.259
469	0.259
470	0.26
470	0.26
471	0.26
471	0.26
472	0.26
472	0.26
472	0.261
473	0.261
473	0.261
474	0.261
474	0.262
475	0.262
475	0.262
476	0.263
476	0.263
477	0.264
477	0.264
477	0.265
478	0.265
478	0.265
479	0.266
479	0.266
480	0.267
480	0.267
481	0.268
481	0.268
482	0.269
482	0.269
482	0.27
483	0.27
483	0.271
484	0.271
484	0.271
485	0.272
485	0.272
486	0.272
486	0.273
487	0.274
487	0.274
487	0.275
488	0.275
488	0.276
489	0.277
489	0.278
490	0.28
490	0.281
491	0.282
491	0.283
492	0.284
492	0.285
492	0.286
493	0.288
493	0.289
494	0.29
494	0.291
495	0.292
495	0.292
496	0.293
496	0.294
496	0.295
497	0.296
497	0.297
498	0.298
498	0.299
499	0.301
499	0.302
500	0.303
500	0.304
501	0.306
501	0.307
501	0.307
502	0.308
502	0.309
503	0.311
503	0.312
504	0.313
504	0.314
505	0.315
505	0.316
506	0.317
506	0.317
506	0.319
507	0.32
507	0.321
508	0.322
508	0.323
509	0.323
509	0.324
510	0.325
510	0.326
511	0.327
511	0.328
511	0.329
512	0.33
512	0.331
513	0.331
513	0.332
514	0.333
514	0.334
515	0.334
515	0.335
515	0.335
516	0.336
516	0.336
517	0.337
517	0.337
518	0.338
518	0.338
519	0.338
519	0.338
520	0.339
520	0.339
520	0.339
521	0.339
521	0.339
522	0.339
522	0.339
523	0.339
523	0.339
524	0.339
524	0.339
524	0.338
525	0.338
525	0.338
526	0.338
526	0.337
527	0.337
527	0.336
528	0.336
528	0.335
529	0.334
529	0.333
529	0.332
530	0.331
530	0.33
531	0.33
531	0.329
532	0.328
532	0.326
533	0.325
533	0.324
533	0.323
534	0.322
534	0.321
535	0.32
535	0.319
536	0.318
536	0.316
537	0.314
537	0.313
538	0.311
538	0.31
538	0.308
539	0.307
539	0.306
540	0.304
540	0.303
541	0.301
541	0.3
542	0.298
542	0.297
542	0.295
543	0.293
543	0.291
544	0.289
544	0.288
545	0.286
545	0.285
546	0.283
546	0.281
547	0.278
547	0.276
547	0.275
548	0.273
548	0.271
549	0.269
549	0.268
550	0.266
550	0.264
551	0.262
551	0.261
551	0.259
552	0.257
552	0.256
553	0.254
553	0.252
554	0.251
554	0.249
555	0.247
555	0.245
556	0.243
556	0.242
556	0.24
557	0.239
557	0.238
558	0.237
558	0.235
559	0.234
559	0.233
560	0.231
560	0.23
560	0.228
561	0.227
561	0.225
562	0.223
562	0.221
563	0.219
563	0.217
564	0.216
564	0.214
564	0.212
565	0.211
565	0.21
566	0.208
566	0.206
567	0.205
567	0.204
568	0.203
568	0.202
568	0.2
569	0.199
569	0.197
570	0.196
570	0.194
571	0.192
571	0.191
572	0.189
572	0.188
573	0.187
573	0.186
573	0.185
574	0.183
574	0.182
575	0.182
575	0.181
576	0.18
576	0.178
577	0.177
577	0.176
577	0.175
578	0.174
578	0.173
579	0.172
579	0.172
580	0.171
580	0.169
581	0.168
581	0.167
581	0.166
582	0.166
582	0.165
583	0.165
583	0.163
584	0.162
584	0.16
585	0.159
585	0.159
585	0.158
586	0.157
586	0.157
587	0.156
587	0.155
588	0.154
588	0.153
589	0.153
589	0.152
590	0.152
590	0.151
590	0.151
591	0.15
591	0.149
592	0.148
592	0.147
593	0.146
593	0.145
594	0.144
594	0.143
594	0.142
595	0.141
595	0.14
596	0.139
596	0.139
597	0.139
597	0.139
598	0.138
598	0.138
598	0.138
599	0.137
599	0.136
600	0.136
600	0.135
601	0.134
601	0.134
602	0.133
602	0.132
602	0.132
603	0.131
603	0.131
604	0.131
604	0.131
605	0.13
605	0.13
606	0.129
606	0.128
606	0.128
607	0.127
607	0.127
608	0.126
608	0.125
609	0.125
609	0.124
610	0.124
610	0.123
610	0.123
611	0.123
611	0.122
612	0.122
612	0.122
613	0.122
613	0.121
614	0.121
614	0.12
614	0.12
615	0.12
615	0.12
616	0.119
616	0.119
617	0.119
617	0.118
618	0.118
618	0.118
618	0.118
619	0.118
619	0.118
620	0.118
620	0.117
621	0.116
621	0.116
622	0.115
622	0.114
622	0.114
623	0.113
623	0.113
624	0.113
624	0.112
625	0.112
625	0.112
626	0.111
626	0.111
626	0.111
627	0.111
627	0.111
628	0.111
628	0.111
629	0.11
629	0.11
630	0.109
630	0.109
630	0.109
631	0.108
631	0.108
632	0.107
632	0.107
633	0.107
633	0.107
634	0.107
634	0.107
634	0.107
635	0.107
635	0.106
636	0.106
636	0.106
637	0.106
637	0.106
638	0.105
638	0.105
638	0.104
639	0.103
639	0.103
640	0.103
640	0.102
641	0.102
641	0.102
642	0.102
642	0.102
642	0.101
643	0.101
643	0.101
644	0.101
644	0.101
645	0.101
645	0.101
646	0.101
646	0.101
646	0.101
647	0.101
647	0.1
648	0.099
648	0.099
649	0.098
649	0.098
650	0.097
650	0.097
650	0.097
651	0.097
651	0.096
652	0.096
652	0.097
653	0.097
653	0.099
653	0.104
654	0.084
654	0.068
655	0.066
655	0.066
656	0.066
656	0.067
657	0.067
657	0.067
657	0.067
658	0.066
658	0.059
659	0.074
659	0.092
660	0.098
660	0.098
661	0.097
661	0.096
661	0.095
662	0.095
662	0.094
663	0.093
663	0.093
664	0.093
664	0.092
665	0.092
665	0.092
665	0.092
666	0.092
666	0.092
667	0.093
667	0.093
668	0.093
668	0.093
669	0.093
669	0.094
669	0.094
670	0.095
670	0.095
671	0.094
671	0.094
672	0.094
672	0.093
672	0.093
673	0.093
673	0.092
674	0.092
674	0.091
675	0.091
675	0.091
676	0.091
676	0.091
676	0.091
677	0.091
677	0.091
678	0.091
678	0.09
679	0.09
679	0.09
680	0.09
680	0.09
680	0.089
681	0.09
681	0.09
682	0.09
682	0.09
683	0.091
683	0.091
684	0.091
684	0.09
684	0.09
685	0.09
685	0.09
686	0.089
686	0.089
687	0.089
687	0.088
687	0.088
688	0.088
688	0.089
689	0.089
689	0.09
690	0.09
690	0.089
691	0.089
691	0.089
691	0.089
692	0.089
692	0.09
693	0.09
693	0.09
694	0.09
694	0.09
695	0.09
695	0.091
695	0.091
696	0.091
696	0.091
697	0.091
697	0.091
698	0.091
698	0.09
698	0.09
699	0.09
699	0.09
700	0.089
700	0.089
701	0.089
701	0.088
702	0.087
702	0.087
702	0.087
703	0.086
703	0.086
704	0.085
704	0.085
705	0.085
705	0.084
705	0.084
706	0.084
706	0.084
707	0.084
707	0.084
708	0.084
708	0.085
709	0.085
709	0.085
709	0.085
710	0.085
710	0.085
711	0.086
711	0.086
712	0.086
712	0.086
713	0.086
713	0.086
713	0.086
714	0.086
714	0.085
715	0.085
715	0.084
716	0.084
716	0.083
716	0.082
717	0.082
717	0.082
718	0.081
718	0.081
719	0.082
719	0.082
720	0.083
720	0.083
720	0.084
721	0.084
721	0.085
722	0.086
722	0.086
723	0.086
723	0.086
723	0.086
724	0.085
724	0.085
725	0.084
725	0.083
726	0.082
726	0.082
727	0.081
727	0.081
727	0.081
728	0.081
728	0.08
729	0.081
729	0.08
730	0.081
730	0.081
730	0.081
731	0.081
731	0.081
732	0.082
732	0.082
733	0.082
733	0.082
734	0.082
734	0.082
734	0.082
735	0.082
735	0.082
736	0.082
736	0.082
737	0.081
737	0.081
737	0.081
738	0.08
738	0.08
739	0.08
739	0.079
740	0.079
740	0.08
741	0.08
741	0.08
741	0.08
742	0.08
742	0.081
743	0.082
743	0.082
744	0.082
744	0.083
744	0.082
745	0.082
745	0.082
746	0.081
746	0.081
747	0.081
747	0.081
748	0.08
748	0.08
748	0.08
749	0.08
749	0.08
750	0.08
750	0.08
751	0.08
751	0.081
751	0.081
752	0.08
752	0.08
753	0.08
753	0.079
754	0.079
754	0.078
754	0.078
755	0.077
755	0.077
756	0.076
756	0.075
757	0.074
757	0.074
758	0.074
758	0.074
758	0.074
759	0.074
759	0.074
760	0.074
760	0.074
761	0.074
761	0.074
761	0.075
762	0.075
762	0.075
763	0.075
763	0.075
764	0.075
764	0.075
764	0.075
765	0.074
765	0.074
766	0.074
766	0.074
767	0.073
767	0.072
768	0.071
768	0.071
768	0.071
769	0.071
769	0.071
770	0.071
770	0.071
771	0.071
771	0.072
771	0.072
772	0.072
772	0.073
773	0.073
773	0.074
774	0.074
774	0.074
775	0.075
775	0.075
775	0.075
776	0.076
776	0.076
777	0.077
777	0.077
778	0.077
778	0.077
778	0.076
779	0.076
779	0.075
780	0.074
780	0.073
781	0.071
781	0.07
781	0.069
782	0.069
782	0.068
783	0.068
783	0.068
784	0.068
784	0.068
784	0.069
785	0.069
785	0.069
786	0.069
786	0.069
787	0.069
787	0.069
788	0.069
788	0.068
788	0.068
789	0.068
789	0.068
790	0.068
790	0.068
791	0.068
791	0.067
791	0.067
792	0.067
792	0.067
793	0.066
793	0.066
794	0.065
794	0.065
794	0.064
795	0.064
795	0.064
796	0.064
796	0.064
797	0.064
797	0.064
797	0.064
798	0.064
798	0.065
799	0.064
799	0.064
800	0.064
800	0.064
801	0.064
801	0.064
801	0.065
802	0.065
802	0.065
803	0.066
803	0.067
804	0.067
804	0.068
804	0.068
805	0.068
805	0.068
806	0.067
806	0.067
807	0.067
807	0.066
807	0.066
808	0.066
808	0.065
809	0.065
809	0.065
810	0.065
810	0.065
810	0.065
811	0.065
811	0.065
812	0.065
812	0.065
813	0.065
813	0.066
813	0.066
814	0.066
814	0.067
815	0.067
815	0.067
816	0.067
816	0.067
817	0.066
817	0.066
817	0.066
818	0.065
818	0.065
819	0.065
819	0.064
820	0.063
820	0.062
820	0.062
821	0.062
821	0.061
822	0.061
822	0.061
823	0.061
823	0.061
823	0.061
824	0.062
824	0.063
825	0.064
825	0.065
826	0.066
826	0.066
826	0.067
827	0.068
827	0.068
828	0.069
828	0.069
829	0.069
829	0.069
829	0.069
830	0.069
830	0.07
831	0.07
831	0.07
832	0.07
832	0.07
832	0.069
833	0.069
833	0.068
834	0.067
834	0.066
835	0.065
835	0.064
835	0.063
836	0.063
836	0.062
837	0.061
837	0.061
838	0.06
838	0.06
839	0.059
839	0.058
839	0.058
840	0.057
840	0.056
841	0.056
841	0.055
842	0.055
842	0.054
842	0.053
843	0.053
843	0.052
844	0.052
844	0.052
845	0.051
845	0.051
845	0.052
846	0.052
846	0.052
847	0.052
847	0.053
848	0.053
848	0.054
848	0.054
849	0.054
849	0.054
850	0.054
850	0.053
851	0.053
851	0.053
851	0.053
852	0.052
852	0.052
853	0.051
853	0.052
854	0.052
854	0.053
854	0.054
855	0.055
855	0.056
856	0.057
856	0.058
857	0.059
857	0.06
857	0.061
858	0.061
858	0.061
859	0.061
859	0.061
860	0.06
860	0.06
860	0.059
861	0.059
861	0.059
862	0.058
862	0.057
863	0.057
863	0.057
863	0.057
864	0.057
864	0.057
865	0.057
865	0.057
866	0.057
866	0.057
866	0.058
867	0.058
867	0.058
868	0.059
868	0.059
869	0.059
869	0.058
869	0.058
870	0.058
870	0.057
871	0.057
871	0.057
872	0.057
872	0.056
872	0.056
873	0.055
873	0.055
874	0.054
874	0.054
875	0.054
875	0.054
875	0.054
876	0.054
876	0.054
877	0.054
877	0.054
878	0.054
878	0.054
878	0.054
879	0.055
879	0.055
880	0.055
880	0.055
881	0.055
881	0.055
881	0.055
882	0.055
882	0.055
883	0.055
883	0.054
884	0.054
884	0.054
884	0.054
885	0.053
885	0.053
886	0.053
886	0.052
887	0.052
887	0.052
887	0.052
888	0.052
888	0.053
889	0.053
889	0.054
890	0.055
890	0.056
890	0.056
891	0.056
891	0.057
892	0.057
892	0.056
893	0.056
893	0.056
893	0.055
894	0.054
894	0.053
895	0.053
895	0.053
895	0.052
896	0.053
896	0.053
897	0.053
897	0.053
898	0.053
898	0.053
898	0.052
899	0.052
899	0.052
900	0.052
900	0.052
901	0.051
901	0.051
901	0.051
902	0.051
902	0.051
903	0.05
903	0.051
904	0.051
904	0.051
904	0.051
905	0.051
905	0.051
906	0.051
906	0.051
907	0.051
907	0.052
907	0.052
908	0.051
908	0.051
909	0.051
909	0.05
910	0.05
910	0.05
910	0.049
911	0.049
911	0.048
912	0.047
912	0.047
913	0.046
913	0.046
913	0.046
914	0.045
914	0.045
915	0.045
915	0.045
916	0.045
916	0.044
916	0.044
917	0.044
917	0.043
918	0.043
918	0.042
918	0.042
919	0.042
919	0.041
920	0.041
920	0.041
921	0.041
921	0.041
921	0.041
922	0.041
922	0.042
923	0.042
923	0.043
924	0.044
924	0.044
924	0.045
925	0.045
925	0.046
926	0.046
926	0.047
927	0.047
927	0.047
927	0.048
928	0.048
928	0.048
929	0.049
929	0.049
930	0.049
930	0.049
930	0.049
931	0.049
931	0.049
932	0.049
932	0.049
933	0.049
933	0.049
933	0.048
934	0.048
934	0.047
935	0.047
935	0.046
935	0.046
936	0.045
936	0.044
937	0.044
937	0.043
938	0.042
938	0.041
938	0.04
939	0.04
939	0.039
940	0.039
940	0.039
941	0.04
941	0.04
941	0.04
942	0.041
942	0.042
943	0.042
943	0.043
944	0.044
944	0.044
944	0.045
945	0.045
945	0.046
946	0.046
946	0.046
946	0.046
947	0.046
947	0.046
948	0.046
948	0.046
949	0.045
949	0.045
949	0.044
950	0.044
950	0.044
951	0.043
951	0.043
952	0.042
952	0.041
952	0.041
953	0.041
953	0.04
954	0.04
954	0.04
955	0.04
955	0.041
955	0.041
956	0.042
956	0.043
957	0.044
957	0.045
957	0.046
958	0.046
958	0.047
959	0.048
959	0.048
960	0.049
960	0.049
960	0.049
961	0.049
961	0.049
962	0.049
962	0.049
963	0.048
963	0.047
963	0.047
964	0.047
964	0.046
965	0.046
965	0.046
966	0.045
966	0.045
966	0.046
967	0.046
967	0.046
968	0.047
968	0.047
968	0.047
969	0.047
969	0.046
970	0.046
970	0.045
971	0.044
971	0.043
971	0.043
972	0.042
972	0.041
973	0.04
973	0.04
974	0.039
974	0.04
974	0.04
975	0.04
975	0.041
976	0.041
976	0.042
976	0.042
977	0.042
977	0.043
978	0.043
978	0.043
979	0.043
979	0.043
979	0.043
980	0.043
980	0.043
981	0.043
981	0.043
982	0.043
982	0.043
982	0.043
983	0.043
983	0.043
984	0.043
984	0.042
984	0.042
985	0.042
985	0.042
986	0.042
986	0.041
987	0.041
987	0.041
987	0.041
988	0.04
988	0.04
989	0.04
989	0.04
990	0.039
990	0.039
990	0.039
991	0.038
991	0.038
992	0.038
992	0.037
992	0.036
993	0.035
993	0.034
994	0.034
994	0.033
995	0.032
995	0.032
995	0.032
996	0.032
996	0.031
997	0.031
997	0.032
997	0.032
998	0.032
998	0.033
999	0.033
999	0.034
1000	0.034
1000	0.035
1000	0.035
1001	0.035
1001	0.036
1002	0.036
1002	0.037
1003	0.037
1003	0.037
1003	0.037
1004	0.037
1004	0.037
1005	0.036
1005	0.036
1005	0.036
1006	0.035
1006	0.035
1007	0.035
1007	0.034
1008	0.034
1008	0.034
1008	0.034
1009	0.034
1009	0.033
1010	0.033
1010	0.033
1010	0.033
1011	0.032
1011	0.032
1012	0.032
1012	0.031
1013	0.031
1013	0.031
1013	0.031
1014	0.031
1014	0.031
1015	0.031
1015	0.031
1016	0.032
1016	0.032
1016	0.032
1017	0.032
1017	0.032
1018	0.032
1018	0.032
1018	0.032
1019	0.032
1019	0.033
1020	0.033
1020	0.033
1021	0.033
1021	0.034
1021	0.034
1022	0.034
1022	0.034
1023	0.035
1023	0.035
1023	0.035
1024	0.035
1024	0.035
1025	0.035
1025	0.035
1026	0.035
1026	0.035
1026	0.035
1027	0.035
1027	0.035
1028	0.035
1028	0.035
1028	0.035
1029	0.035
1029	0.036
1030	0.036
1030	0.036
1031	0.036
1031	0.037
1031	0.037
1032	0.037
1032	0.037
1033	0.037
1033	0.037
1033	0.037
1034	0.037
1034	0.037
1035	0.037
1035	0.037
1036	0.037
1036	0.037
1036	0.037
1037	0.037
1037	0.036
1038	0.036
1038	0.036
1039	0.036
1039	0.036
1039	0.036
1040	0.037
1040	0.037
1041	0.037
1041	0.037
1041	0.036
1042	0.036
1042	0.036
1043	0.036
1043	0.036
1044	0.035
1044	0.035
1044	0.035
1045	0.034
1045	0.034
1046	0.034
1046	0.034
1046	0.034
1047	0.034
1047	0.034
1048	0.034
1048	0.034
1049	0.034
1049	0.034
1049	0.034
1050	0.034
1050	0.033
1051	0.033
1051	0.032
1051	0.032
1052	0.031
1052	0.03
1053	0.03
1053	0.029
1053	0.028
1054	0.028
1054	0.028
1055	0.027
1055	0.027
1056	0.027
1056	0.026
1056	0.026
1057	0.025
1057	0.025
1058	0.025
1058	0.024
1058	0.023
1059	0.023
1059	0.023
1060	0.023
1060	0.023
1061	0.022
1061	0.022
1061	0.023
1062	0.023
1062	0.023
1063	0.023
1063	0.023
1063	0.023
1064	0.023
1064	0.023
1065	0.023
1065	0.023
1066	0.023
1066	0.023
1066	0.023
1067	0.023
1067	0.023
1068	0.023
1068	0.024
1068	0.024
1069	0.024
1069	0.023
1070	0.023
1070	0.023
1071	0.023
1071	0.022
1071	0.022
1072	0.022
1072	0.022
1073	0.022
1073	0.021
1073	0.021
1074	0.022
1074	0.022
1075	0.022
1075	0.023
1076	0.023
1076	0.024
1076	0.024
1077	0.025
1077	0.025
1078	0.025
1078	0.026
1078	0.026
1079	0.026
1079	0.025
1080	0.025
1080	0.025
1080	0.025
1081	0.025
1081	0.025
1082	0.025
1082	0.026
1083	0.026
1083	0.026
1083	0.026
1084	0.026
1084	0.027
1085	0.026
1085	0.026
1085	0.027
1086	0.027
1086	0.027
1087	0.027
1087	0.027
1088	0.027
1088	0.027
1088	0.027
1089	0.026
1089	0.026
1090	0.025
1090	0.025
1090	0.024
1091	0.023
1091	0.023
1092	0.023
1092	0.023
1092	0.023
1093	0.022
1093	0.022
1094	0.022
1094	0.021
1095	0.021
1095	0.021
1095	0.02
1096	0.02
1096	0.019
1097	0.019
1097	0.019
1097	0.018
1098	0.018
1098	0.017
1099	0.016
1099	0.015
1100	0.015
1100	0.014
1100	0.013
1101	0.013
1101	0.012
1102	0.011
1102	0.01
1102	0.009
1103	0.009
1103	0.01
1104	0.01
1104	0.01
1104	0.009
1105	0.009
1105	0.008
1106	0.007
1106	0.006
1107	0.006
1107	0.006
1107	0.006
1108	0.005
1108	0.004
1109	0.003
1109	0.003
1109	0.003
1110	0.004
1110	0.004
1111	0.005
1111	0.005
