Data from reversibility-20sec_Absorbance__4822__000000000004822.txt Node

Date: Wed Dec 06 15:00:27 CET 2023
User: Marek
Spectrometer: MAYP115816
Trigger mode: 0
Integration Time (sec): 2.000000E-1
Scans to average: 10
Electric dark correction enabled: true
Nonlinearity correction enabled: true
Boxcar width: 5
XAxis mode: Wavelengths
Number of Pixels in Spectrum: 2068
>>>>>Begin Spectral Data<<<<<
199	-0.073
199	-0.04
200	0.015
200	0.064
201	0.087
201	0.104
202	0.113
202	0.119
203	0.13
203	0.135
204	0.147
204	0.159
205	0.17
205	0.177
205	0.173
206	0.175
206	0.175
207	0.18
207	0.179
208	0.173
208	0.171
209	0.173
209	0.172
210	0.171
210	0.171
211	0.174
211	0.177
212	0.173
212	0.173
213	0.178
213	0.182
213	0.18
214	0.183
214	0.185
215	0.186
215	0.187
216	0.187
216	0.181
217	0.187
217	0.19
218	0.189
218	0.193
219	0.198
219	0.196
220	0.197
220	0.196
221	0.197
221	0.201
221	0.21
222	0.213
222	0.218
223	0.225
223	0.227
224	0.233
224	0.242
225	0.251
225	0.266
226	0.275
226	0.285
227	0.295
227	0.305
228	0.318
228	0.331
229	0.35
229	0.375
229	0.397
230	0.42
230	0.447
231	0.479
231	0.517
232	0.554
232	0.598
233	0.642
233	0.686
234	0.734
234	0.785
235	0.839
235	0.894
236	0.944
236	0.998
236	1.049
237	1.099
237	1.151
238	1.196
238	1.245
239	1.295
239	1.336
240	1.376
240	1.411
241	1.449
241	1.481
242	1.512
242	1.544
243	1.569
243	1.594
243	1.619
244	1.638
244	1.659
245	1.675
245	1.697
246	1.711
246	1.726
247	1.738
247	1.75
248	1.762
248	1.776
249	1.783
249	1.789
250	1.796
250	1.802
250	1.803
251	1.806
251	1.808
252	1.81
252	1.808
253	1.807
253	1.802
254	1.8
254	1.799
255	1.796
255	1.794
256	1.794
256	1.792
257	1.79
257	1.789
258	1.789
258	1.79
258	1.788
259	1.788
259	1.788
260	1.787
260	1.788
261	1.787
261	1.789
262	1.791
262	1.792
263	1.796
263	1.797
264	1.8
264	1.8
265	1.802
265	1.805
265	1.805
266	1.806
266	1.808
267	1.806
267	1.806
268	1.804
268	1.804
269	1.805
269	1.804
270	1.803
270	1.802
271	1.799
271	1.798
272	1.793
272	1.791
272	1.788
273	1.78
273	1.773
274	1.766
274	1.757
275	1.75
275	1.74
276	1.733
276	1.724
277	1.716
277	1.706
278	1.693
278	1.681
278	1.665
279	1.647
279	1.625
280	1.597
280	1.564
281	1.525
281	1.482
282	1.438
282	1.393
283	1.35
283	1.307
284	1.267
284	1.229
285	1.193
285	1.16
285	1.131
286	1.105
286	1.083
287	1.064
287	1.047
288	1.033
288	1.021
289	1.011
289	1.003
290	0.995
290	0.988
291	0.982
291	0.978
292	0.973
292	0.969
292	0.965
293	0.961
293	0.958
294	0.955
294	0.952
295	0.949
295	0.946
296	0.944
296	0.941
297	0.938
297	0.936
298	0.933
298	0.931
298	0.928
299	0.925
299	0.923
300	0.92
300	0.918
301	0.915
301	0.913
302	0.91
302	0.908
303	0.906
303	0.904
304	0.902
304	0.9
305	0.898
305	0.895
305	0.893
306	0.891
306	0.888
307	0.887
307	0.884
308	0.882
308	0.879
309	0.877
309	0.874
310	0.872
310	0.869
311	0.866
311	0.863
311	0.86
312	0.857
312	0.854
313	0.85
313	0.847
314	0.843
314	0.839
315	0.835
315	0.831
316	0.827
316	0.823
317	0.818
317	0.813
318	0.809
318	0.804
318	0.799
319	0.793
319	0.788
320	0.783
320	0.777
321	0.771
321	0.765
322	0.759
322	0.753
323	0.747
323	0.741
324	0.735
324	0.729
324	0.722
325	0.715
325	0.709
326	0.702
326	0.695
327	0.688
327	0.681
328	0.675
328	0.668
329	0.661
329	0.654
330	0.647
330	0.64
330	0.633
331	0.626
331	0.62
332	0.613
332	0.606
333	0.599
333	0.592
334	0.585
334	0.579
335	0.572
335	0.565
336	0.559
336	0.552
336	0.546
337	0.54
337	0.533
338	0.527
338	0.521
339	0.515
339	0.51
340	0.504
340	0.499
341	0.493
341	0.488
342	0.482
342	0.477
342	0.472
343	0.467
343	0.462
344	0.457
344	0.452
345	0.447
345	0.443
346	0.438
346	0.434
347	0.43
347	0.425
348	0.421
348	0.417
348	0.414
349	0.41
349	0.406
350	0.403
350	0.4
351	0.396
351	0.393
352	0.39
352	0.387
353	0.384
353	0.382
354	0.379
354	0.376
354	0.373
355	0.37
355	0.367
356	0.365
356	0.362
357	0.359
357	0.356
358	0.353
358	0.351
359	0.348
359	0.346
360	0.344
360	0.342
360	0.341
361	0.339
361	0.337
362	0.336
362	0.334
363	0.333
363	0.331
364	0.329
364	0.327
365	0.325
365	0.324
366	0.322
366	0.321
366	0.319
367	0.317
367	0.316
368	0.314
368	0.312
369	0.311
369	0.31
370	0.309
370	0.307
371	0.306
371	0.305
372	0.304
372	0.303
372	0.302
373	0.301
373	0.3
374	0.299
374	0.298
375	0.297
375	0.296
376	0.295
376	0.294
377	0.293
377	0.292
378	0.291
378	0.291
378	0.29
379	0.289
379	0.288
380	0.287
380	0.287
381	0.286
381	0.286
382	0.285
382	0.285
383	0.284
383	0.284
383	0.283
384	0.283
384	0.282
385	0.282
385	0.281
386	0.281
386	0.28
387	0.28
387	0.28
388	0.279
388	0.279
389	0.279
389	0.278
389	0.278
390	0.278
390	0.277
391	0.277
391	0.277
392	0.276
392	0.276
393	0.275
393	0.275
394	0.275
394	0.274
394	0.274
395	0.274
395	0.273
396	0.273
396	0.273
397	0.272
397	0.272
398	0.272
398	0.272
399	0.272
399	0.271
400	0.271
400	0.271
400	0.27
401	0.27
401	0.27
402	0.269
402	0.269
403	0.269
403	0.268
404	0.268
404	0.268
405	0.268
405	0.268
405	0.267
406	0.267
406	0.267
407	0.267
407	0.266
408	0.266
408	0.266
409	0.265
409	0.265
410	0.265
410	0.265
411	0.265
411	0.264
411	0.264
412	0.264
412	0.263
413	0.263
413	0.263
414	0.263
414	0.262
415	0.262
415	0.262
416	0.261
416	0.261
416	0.261
417	0.26
417	0.26
418	0.26
418	0.26
419	0.259
419	0.259
420	0.258
420	0.258
421	0.257
421	0.257
421	0.257
422	0.257
422	0.256
423	0.256
423	0.256
424	0.255
424	0.255
425	0.255
425	0.254
426	0.254
426	0.254
427	0.253
427	0.253
427	0.253
428	0.253
428	0.252
429	0.252
429	0.252
430	0.251
430	0.251
431	0.251
431	0.251
432	0.251
432	0.251
432	0.25
433	0.25
433	0.25
434	0.25
434	0.25
435	0.25
435	0.25
436	0.25
436	0.25
437	0.249
437	0.249
437	0.249
438	0.249
438	0.248
439	0.248
439	0.248
440	0.247
440	0.247
441	0.247
441	0.247
442	0.247
442	0.246
442	0.246
443	0.246
443	0.246
444	0.246
444	0.245
445	0.245
445	0.245
446	0.245
446	0.244
447	0.244
447	0.244
447	0.243
448	0.243
448	0.243
449	0.243
449	0.243
450	0.243
450	0.242
451	0.242
451	0.242
452	0.242
452	0.242
452	0.241
453	0.241
453	0.241
454	0.241
454	0.24
455	0.24
455	0.24
456	0.24
456	0.239
457	0.239
457	0.239
458	0.239
458	0.238
458	0.238
459	0.238
459	0.238
460	0.238
460	0.238
461	0.238
461	0.237
462	0.237
462	0.237
463	0.237
463	0.237
463	0.237
464	0.237
464	0.236
465	0.236
465	0.236
466	0.236
466	0.236
467	0.236
467	0.236
467	0.235
468	0.235
468	0.235
469	0.235
469	0.235
470	0.235
470	0.235
471	0.235
471	0.235
472	0.234
472	0.234
472	0.234
473	0.234
473	0.234
474	0.234
474	0.234
475	0.233
475	0.233
476	0.234
476	0.234
477	0.234
477	0.234
477	0.233
478	0.234
478	0.234
479	0.234
479	0.234
480	0.234
480	0.234
481	0.234
481	0.234
482	0.234
482	0.234
482	0.234
483	0.234
483	0.235
484	0.235
484	0.235
485	0.235
485	0.235
486	0.235
486	0.234
487	0.235
487	0.235
487	0.235
488	0.235
488	0.235
489	0.235
489	0.236
490	0.237
490	0.238
491	0.238
491	0.239
492	0.24
492	0.24
492	0.241
493	0.241
493	0.242
494	0.242
494	0.242
495	0.243
495	0.243
496	0.243
496	0.244
496	0.244
497	0.244
497	0.244
498	0.244
498	0.245
499	0.245
499	0.245
500	0.246
500	0.246
501	0.247
501	0.247
501	0.247
502	0.247
502	0.248
503	0.249
503	0.249
504	0.25
504	0.25
505	0.25
505	0.251
506	0.251
506	0.251
506	0.252
507	0.253
507	0.253
508	0.253
508	0.254
509	0.254
509	0.255
510	0.255
510	0.256
511	0.257
511	0.257
511	0.258
512	0.258
512	0.258
513	0.259
513	0.259
514	0.26
514	0.26
515	0.261
515	0.261
515	0.261
516	0.261
516	0.262
517	0.263
517	0.263
518	0.263
518	0.263
519	0.263
519	0.264
520	0.264
520	0.264
520	0.265
521	0.265
521	0.265
522	0.266
522	0.266
523	0.267
523	0.267
524	0.267
524	0.267
524	0.267
525	0.267
525	0.267
526	0.267
526	0.267
527	0.267
527	0.267
528	0.267
528	0.267
529	0.267
529	0.267
529	0.267
530	0.267
530	0.267
531	0.267
531	0.267
532	0.267
532	0.266
533	0.266
533	0.266
533	0.266
534	0.266
534	0.266
535	0.266
535	0.266
536	0.266
536	0.266
537	0.266
537	0.265
538	0.265
538	0.265
538	0.264
539	0.264
539	0.264
540	0.263
540	0.263
541	0.263
541	0.262
542	0.262
542	0.261
542	0.261
543	0.261
543	0.26
544	0.26
544	0.259
545	0.259
545	0.259
546	0.259
546	0.259
547	0.258
547	0.258
547	0.258
548	0.258
548	0.257
549	0.257
549	0.256
550	0.256
550	0.256
551	0.255
551	0.254
551	0.254
552	0.254
552	0.253
553	0.253
553	0.253
554	0.252
554	0.252
555	0.251
555	0.25
556	0.25
556	0.25
556	0.249
557	0.249
557	0.249
558	0.249
558	0.248
559	0.248
559	0.249
560	0.249
560	0.248
560	0.248
561	0.248
561	0.248
562	0.247
562	0.246
563	0.246
563	0.245
564	0.245
564	0.244
564	0.244
565	0.243
565	0.243
566	0.243
566	0.242
567	0.242
567	0.242
568	0.242
568	0.242
568	0.242
569	0.241
569	0.241
570	0.24
570	0.239
571	0.239
571	0.239
572	0.238
572	0.237
573	0.237
573	0.236
573	0.236
574	0.235
574	0.235
575	0.234
575	0.234
576	0.234
576	0.233
577	0.233
577	0.232
577	0.232
578	0.231
578	0.231
579	0.232
579	0.232
580	0.231
580	0.231
581	0.23
581	0.23
581	0.23
582	0.231
582	0.231
583	0.231
583	0.23
584	0.23
584	0.228
585	0.228
585	0.228
585	0.228
586	0.228
586	0.227
587	0.227
587	0.226
588	0.226
588	0.225
589	0.225
589	0.225
590	0.225
590	0.225
590	0.225
591	0.225
591	0.224
592	0.224
592	0.223
593	0.223
593	0.223
594	0.222
594	0.222
594	0.221
595	0.22
595	0.22
596	0.219
596	0.219
597	0.22
597	0.22
598	0.22
598	0.22
598	0.22
599	0.22
599	0.219
600	0.219
600	0.218
601	0.218
601	0.217
602	0.216
602	0.216
602	0.215
603	0.214
603	0.214
604	0.214
604	0.214
605	0.214
605	0.214
606	0.214
606	0.213
606	0.213
607	0.213
607	0.213
608	0.212
608	0.212
609	0.211
609	0.211
610	0.211
610	0.21
610	0.21
611	0.21
611	0.21
612	0.211
612	0.211
613	0.211
613	0.211
614	0.211
614	0.211
614	0.211
615	0.211
615	0.211
616	0.211
616	0.211
617	0.211
617	0.211
618	0.21
618	0.21
618	0.21
619	0.21
619	0.21
620	0.21
620	0.21
621	0.209
621	0.209
622	0.208
622	0.208
622	0.208
623	0.207
623	0.207
624	0.207
624	0.206
625	0.205
625	0.205
626	0.204
626	0.204
626	0.204
627	0.204
627	0.204
628	0.204
628	0.204
629	0.204
629	0.204
630	0.204
630	0.204
630	0.204
631	0.204
631	0.204
632	0.204
632	0.203
633	0.203
633	0.203
634	0.203
634	0.203
634	0.203
635	0.202
635	0.202
636	0.202
636	0.202
637	0.202
637	0.202
638	0.202
638	0.202
638	0.201
639	0.201
639	0.2
640	0.2
640	0.2
641	0.199
641	0.199
642	0.198
642	0.198
642	0.198
643	0.198
643	0.198
644	0.198
644	0.199
645	0.199
645	0.2
646	0.2
646	0.201
646	0.201
647	0.201
647	0.201
648	0.201
648	0.201
649	0.2
649	0.2
650	0.199
650	0.199
650	0.199
651	0.198
651	0.198
652	0.198
652	0.197
653	0.198
653	0.199
653	0.205
654	0.16
654	0.128
655	0.129
655	0.129
656	0.129
656	0.13
657	0.13
657	0.131
657	0.131
658	0.13
658	0.119
659	0.151
659	0.194
660	0.199
660	0.199
661	0.198
661	0.198
661	0.197
662	0.196
662	0.196
663	0.195
663	0.195
664	0.195
664	0.195
665	0.195
665	0.195
665	0.195
666	0.195
666	0.195
667	0.196
667	0.196
668	0.196
668	0.196
669	0.197
669	0.197
669	0.197
670	0.197
670	0.196
671	0.196
671	0.196
672	0.195
672	0.195
672	0.194
673	0.194
673	0.193
674	0.193
674	0.193
675	0.193
675	0.193
676	0.194
676	0.195
676	0.195
677	0.195
677	0.196
678	0.196
678	0.196
679	0.196
679	0.196
680	0.196
680	0.196
680	0.195
681	0.195
681	0.195
682	0.195
682	0.195
683	0.195
683	0.196
684	0.196
684	0.196
684	0.196
685	0.196
685	0.196
686	0.197
686	0.197
687	0.197
687	0.197
687	0.197
688	0.197
688	0.197
689	0.198
689	0.198
690	0.198
690	0.198
691	0.198
691	0.198
691	0.199
692	0.199
692	0.2
693	0.2
693	0.201
694	0.201
694	0.201
695	0.202
695	0.203
695	0.203
696	0.203
696	0.202
697	0.202
697	0.202
698	0.201
698	0.2
698	0.2
699	0.2
699	0.2
700	0.199
700	0.199
701	0.199
701	0.198
702	0.198
702	0.198
702	0.198
703	0.197
703	0.197
704	0.197
704	0.197
705	0.198
705	0.199
705	0.199
706	0.2
706	0.201
707	0.202
707	0.202
708	0.203
708	0.204
709	0.204
709	0.204
709	0.203
710	0.203
710	0.203
711	0.203
711	0.203
712	0.203
712	0.203
713	0.202
713	0.202
713	0.202
714	0.202
714	0.202
715	0.202
715	0.202
716	0.202
716	0.201
716	0.201
717	0.201
717	0.201
718	0.201
718	0.201
719	0.201
719	0.202
720	0.203
720	0.203
720	0.204
721	0.204
721	0.205
722	0.206
722	0.206
723	0.206
723	0.206
723	0.206
724	0.205
724	0.205
725	0.204
725	0.204
726	0.203
726	0.203
727	0.203
727	0.203
727	0.203
728	0.203
728	0.203
729	0.203
729	0.203
730	0.203
730	0.202
730	0.202
731	0.202
731	0.202
732	0.202
732	0.203
733	0.203
733	0.203
734	0.203
734	0.203
734	0.204
735	0.205
735	0.205
736	0.205
736	0.205
737	0.205
737	0.206
737	0.206
738	0.206
738	0.205
739	0.205
739	0.205
740	0.205
740	0.205
741	0.205
741	0.205
741	0.205
742	0.204
742	0.205
743	0.205
743	0.206
744	0.206
744	0.207
744	0.207
745	0.208
745	0.208
746	0.209
746	0.209
747	0.21
747	0.21
748	0.21
748	0.21
748	0.211
749	0.211
749	0.211
750	0.211
750	0.211
751	0.211
751	0.211
751	0.211
752	0.21
752	0.21
753	0.209
753	0.209
754	0.209
754	0.209
754	0.209
755	0.209
755	0.21
756	0.209
756	0.209
757	0.209
757	0.209
758	0.209
758	0.208
758	0.208
759	0.209
759	0.208
760	0.208
760	0.208
761	0.208
761	0.208
761	0.209
762	0.209
762	0.209
763	0.209
763	0.209
764	0.209
764	0.208
764	0.208
765	0.208
765	0.207
766	0.207
766	0.208
767	0.208
767	0.207
768	0.207
768	0.207
768	0.208
769	0.209
769	0.209
770	0.21
770	0.211
771	0.211
771	0.211
771	0.211
772	0.212
772	0.212
773	0.212
773	0.212
774	0.212
774	0.212
775	0.212
775	0.212
775	0.212
776	0.212
776	0.212
777	0.213
777	0.213
778	0.213
778	0.212
778	0.212
779	0.212
779	0.212
780	0.211
780	0.21
781	0.21
781	0.209
781	0.209
782	0.209
782	0.208
783	0.209
783	0.209
784	0.209
784	0.208
784	0.209
785	0.209
785	0.209
786	0.209
786	0.21
787	0.21
787	0.21
788	0.21
788	0.21
788	0.21
789	0.211
789	0.212
790	0.212
790	0.212
791	0.212
791	0.212
791	0.213
792	0.213
792	0.213
793	0.213
793	0.213
794	0.212
794	0.212
794	0.211
795	0.211
795	0.211
796	0.211
796	0.211
797	0.211
797	0.211
797	0.212
798	0.212
798	0.212
799	0.212
799	0.212
800	0.212
800	0.212
801	0.212
801	0.212
801	0.211
802	0.212
802	0.212
803	0.212
803	0.213
804	0.213
804	0.214
804	0.215
805	0.215
805	0.215
806	0.215
806	0.215
807	0.215
807	0.215
807	0.215
808	0.215
808	0.215
809	0.214
809	0.214
810	0.215
810	0.215
810	0.215
811	0.215
811	0.216
812	0.217
812	0.218
813	0.219
813	0.22
813	0.22
814	0.221
814	0.222
815	0.223
815	0.223
816	0.223
816	0.223
817	0.222
817	0.221
817	0.22
818	0.219
818	0.219
819	0.218
819	0.217
820	0.217
820	0.216
820	0.216
821	0.216
821	0.216
822	0.216
822	0.216
823	0.216
823	0.216
823	0.216
824	0.217
824	0.217
825	0.218
825	0.219
826	0.22
826	0.22
826	0.22
827	0.221
827	0.221
828	0.222
828	0.222
829	0.222
829	0.222
829	0.222
830	0.222
830	0.222
831	0.223
831	0.223
832	0.223
832	0.223
832	0.223
833	0.222
833	0.222
834	0.221
834	0.221
835	0.22
835	0.22
835	0.22
836	0.219
836	0.219
837	0.219
837	0.218
838	0.218
838	0.218
839	0.218
839	0.217
839	0.216
840	0.216
840	0.215
841	0.215
841	0.214
842	0.214
842	0.213
842	0.213
843	0.213
843	0.212
844	0.212
844	0.211
845	0.211
845	0.211
845	0.211
846	0.21
846	0.21
847	0.21
847	0.21
848	0.211
848	0.211
848	0.211
849	0.211
849	0.211
850	0.212
850	0.212
851	0.212
851	0.213
851	0.213
852	0.213
852	0.213
853	0.214
853	0.214
854	0.215
854	0.216
854	0.217
855	0.218
855	0.219
856	0.219
856	0.22
857	0.221
857	0.221
857	0.221
858	0.222
858	0.221
859	0.221
859	0.22
860	0.219
860	0.218
860	0.218
861	0.217
861	0.216
862	0.215
862	0.215
863	0.214
863	0.214
863	0.214
864	0.213
864	0.213
865	0.214
865	0.214
866	0.214
866	0.214
866	0.215
867	0.215
867	0.216
868	0.216
868	0.216
869	0.217
869	0.216
869	0.216
870	0.215
870	0.215
871	0.215
871	0.214
872	0.214
872	0.213
872	0.212
873	0.212
873	0.21
874	0.209
874	0.209
875	0.208
875	0.208
875	0.208
876	0.207
876	0.207
877	0.207
877	0.208
878	0.208
878	0.209
878	0.21
879	0.21
879	0.211
880	0.211
880	0.211
881	0.211
881	0.211
881	0.211
882	0.21
882	0.21
883	0.21
883	0.209
884	0.209
884	0.209
884	0.209
885	0.209
885	0.209
886	0.209
886	0.209
887	0.21
887	0.21
887	0.21
888	0.21
888	0.21
889	0.21
889	0.21
890	0.211
890	0.211
890	0.211
891	0.211
891	0.211
892	0.211
892	0.211
893	0.211
893	0.21
893	0.21
894	0.209
894	0.208
895	0.207
895	0.206
895	0.206
896	0.205
896	0.205
897	0.204
897	0.203
898	0.202
898	0.201
898	0.201
899	0.2
899	0.2
900	0.199
900	0.199
901	0.199
901	0.199
901	0.199
902	0.198
902	0.198
903	0.198
903	0.198
904	0.197
904	0.197
904	0.196
905	0.195
905	0.194
906	0.193
906	0.193
907	0.192
907	0.192
907	0.191
908	0.191
908	0.19
909	0.19
909	0.19
910	0.191
910	0.191
910	0.191
911	0.191
911	0.192
912	0.192
912	0.192
913	0.192
913	0.192
913	0.192
914	0.192
914	0.192
915	0.192
915	0.191
916	0.191
916	0.19
916	0.189
917	0.188
917	0.187
918	0.186
918	0.185
918	0.185
919	0.184
919	0.183
920	0.183
920	0.182
921	0.182
921	0.182
921	0.182
922	0.183
922	0.183
923	0.184
923	0.185
924	0.186
924	0.187
924	0.188
925	0.188
925	0.189
926	0.189
926	0.19
927	0.19
927	0.189
927	0.189
928	0.188
928	0.188
929	0.187
929	0.186
930	0.185
930	0.184
930	0.183
931	0.182
931	0.181
932	0.181
932	0.18
933	0.179
933	0.178
933	0.177
934	0.176
934	0.175
935	0.174
935	0.174
935	0.173
936	0.172
936	0.171
937	0.171
937	0.17
938	0.17
938	0.169
938	0.169
939	0.168
939	0.168
940	0.167
940	0.167
941	0.167
941	0.167
941	0.167
942	0.168
942	0.168
943	0.168
943	0.168
944	0.168
944	0.168
944	0.169
945	0.169
945	0.169
946	0.169
946	0.168
946	0.168
947	0.168
947	0.168
948	0.168
948	0.168
949	0.168
949	0.167
949	0.167
950	0.166
950	0.166
951	0.165
951	0.164
952	0.162
952	0.161
952	0.16
953	0.159
953	0.158
954	0.157
954	0.157
955	0.156
955	0.155
955	0.155
956	0.155
956	0.155
957	0.155
957	0.155
957	0.156
958	0.156
958	0.157
959	0.157
959	0.157
960	0.158
960	0.158
960	0.159
961	0.159
961	0.159
962	0.159
962	0.16
963	0.159
963	0.159
963	0.159
964	0.158
964	0.158
965	0.157
965	0.156
966	0.156
966	0.156
966	0.155
967	0.155
967	0.154
968	0.155
968	0.155
968	0.155
969	0.155
969	0.154
970	0.154
970	0.154
971	0.153
971	0.153
971	0.152
972	0.151
972	0.15
973	0.15
973	0.149
974	0.148
974	0.148
974	0.148
975	0.148
975	0.148
976	0.148
976	0.148
976	0.148
977	0.149
977	0.149
978	0.149
978	0.149
979	0.149
979	0.149
979	0.15
980	0.149
980	0.149
981	0.148
981	0.148
982	0.147
982	0.147
982	0.146
983	0.146
983	0.145
984	0.145
984	0.144
984	0.144
985	0.143
985	0.143
986	0.142
986	0.142
987	0.141
987	0.141
987	0.14
988	0.139
988	0.139
989	0.138
989	0.137
990	0.136
990	0.135
990	0.135
991	0.134
991	0.133
992	0.133
992	0.132
992	0.131
993	0.131
993	0.131
994	0.131
994	0.131
995	0.13
995	0.13
995	0.13
996	0.13
996	0.13
997	0.13
997	0.13
997	0.13
998	0.13
998	0.13
999	0.131
999	0.131
1000	0.131
1000	0.132
1000	0.132
1001	0.133
1001	0.133
1002	0.134
1002	0.134
1003	0.134
1003	0.134
1003	0.134
1004	0.134
1004	0.134
1005	0.133
1005	0.133
1005	0.133
1006	0.132
1006	0.132
1007	0.132
1007	0.132
1008	0.132
1008	0.132
1008	0.132
1009	0.132
1009	0.132
1010	0.132
1010	0.132
1010	0.132
1011	0.132
1011	0.131
1012	0.131
1012	0.13
1013	0.129
1013	0.129
1013	0.128
1014	0.127
1014	0.127
1015	0.126
1015	0.126
1016	0.126
1016	0.126
1016	0.125
1017	0.125
1017	0.125
1018	0.125
1018	0.125
1018	0.124
1019	0.124
1019	0.124
1020	0.123
1020	0.123
1021	0.123
1021	0.123
1021	0.123
1022	0.122
1022	0.122
1023	0.122
1023	0.121
1023	0.121
1024	0.121
1024	0.121
1025	0.12
1025	0.12
1026	0.12
1026	0.12
1026	0.12
1027	0.12
1027	0.12
1028	0.12
1028	0.12
1028	0.12
1029	0.121
1029	0.121
1030	0.121
1030	0.122
1031	0.122
1031	0.122
1031	0.122
1032	0.123
1032	0.123
1033	0.122
1033	0.122
1033	0.122
1034	0.121
1034	0.121
1035	0.12
1035	0.119
1036	0.119
1036	0.118
1036	0.117
1037	0.117
1037	0.116
1038	0.116
1038	0.116
1039	0.115
1039	0.115
1039	0.114
1040	0.114
1040	0.114
1041	0.114
1041	0.113
1041	0.113
1042	0.113
1042	0.113
1043	0.113
1043	0.113
1044	0.113
1044	0.113
1044	0.114
1045	0.114
1045	0.114
1046	0.115
1046	0.115
1046	0.115
1047	0.115
1047	0.115
1048	0.115
1048	0.116
1049	0.115
1049	0.115
1049	0.115
1050	0.114
1050	0.113
1051	0.112
1051	0.112
1051	0.111
1052	0.111
1052	0.11
1053	0.109
1053	0.109
1053	0.108
1054	0.108
1054	0.107
1055	0.107
1055	0.107
1056	0.107
1056	0.107
1056	0.106
1057	0.106
1057	0.105
1058	0.105
1058	0.104
1058	0.103
1059	0.103
1059	0.102
1060	0.101
1060	0.101
1061	0.1
1061	0.1
1061	0.1
1062	0.1
1062	0.1
1063	0.1
1063	0.1
1063	0.1
1064	0.099
1064	0.099
1065	0.099
1065	0.099
1066	0.099
1066	0.098
1066	0.098
1067	0.097
1067	0.097
1068	0.096
1068	0.095
1068	0.095
1069	0.094
1069	0.094
1070	0.093
1070	0.092
1071	0.091
1071	0.091
1071	0.09
1072	0.09
1072	0.089
1073	0.089
1073	0.088
1073	0.088
1074	0.088
1074	0.088
1075	0.088
1075	0.088
1076	0.088
1076	0.088
1076	0.088
1077	0.088
1077	0.089
1078	0.089
1078	0.089
1078	0.089
1079	0.089
1079	0.089
1080	0.089
1080	0.09
1080	0.09
1081	0.091
1081	0.091
1082	0.091
1082	0.092
1083	0.093
1083	0.093
1083	0.093
1084	0.093
1084	0.093
1085	0.093
1085	0.093
1085	0.093
1086	0.093
1086	0.092
1087	0.092
1087	0.092
1088	0.091
1088	0.091
1088	0.092
1089	0.091
1089	0.091
1090	0.091
1090	0.091
1090	0.091
1091	0.091
1091	0.091
1092	0.091
1092	0.091
1092	0.09
1093	0.09
1093	0.09
1094	0.09
1094	0.09
1095	0.089
1095	0.089
1095	0.088
1096	0.087
1096	0.086
1097	0.086
1097	0.085
1097	0.085
1098	0.084
1098	0.083
1099	0.082
1099	0.081
1100	0.08
1100	0.078
1100	0.077
1101	0.076
1101	0.075
1102	0.075
1102	0.073
1102	0.072
1103	0.071
1103	0.07
1104	0.07
1104	0.07
1104	0.071
1105	0.07
1105	0.069
1106	0.067
1106	0.066
1107	0.066
1107	0.066
1107	0.067
1108	0.066
1108	0.064
1109	0.063
1109	0.062
1109	0.063
1110	0.065
1110	0.065
1111	0.065
1111	0.066
