Data from reversibility-20sec_Absorbance__3471__000000000003471.txt Node

Date: Wed Dec 06 07:30:05 CET 2023
User: Marek
Spectrometer: MAYP115816
Trigger mode: 0
Integration Time (sec): 2.000000E-1
Scans to average: 10
Electric dark correction enabled: true
Nonlinearity correction enabled: true
Boxcar width: 5
XAxis mode: Wavelengths
Number of Pixels in Spectrum: 2068
>>>>>Begin Spectral Data<<<<<
199	-0.158
199	-0.119
200	-0.049
200	-0
201	0.028
201	0.041
202	0.053
202	0.066
203	0.071
203	0.073
204	0.086
204	0.099
205	0.109
205	0.114
205	0.113
206	0.113
206	0.113
207	0.114
207	0.111
208	0.111
208	0.111
209	0.112
209	0.112
210	0.113
210	0.114
211	0.114
211	0.116
212	0.116
212	0.119
213	0.125
213	0.128
213	0.129
214	0.135
214	0.135
215	0.138
215	0.137
216	0.141
216	0.142
217	0.147
217	0.149
218	0.147
218	0.15
219	0.156
219	0.156
220	0.16
220	0.157
221	0.16
221	0.16
221	0.167
222	0.171
222	0.174
223	0.179
223	0.182
224	0.183
224	0.192
225	0.202
225	0.214
226	0.221
226	0.234
227	0.242
227	0.255
228	0.273
228	0.29
229	0.309
229	0.335
229	0.355
230	0.38
230	0.409
231	0.444
231	0.481
232	0.514
232	0.555
233	0.595
233	0.644
234	0.693
234	0.748
235	0.798
235	0.85
236	0.902
236	0.95
236	1.001
237	1.053
237	1.101
238	1.15
238	1.196
239	1.242
239	1.28
240	1.323
240	1.359
241	1.396
241	1.431
242	1.461
242	1.496
243	1.528
243	1.554
243	1.578
244	1.601
244	1.623
245	1.644
245	1.667
246	1.686
246	1.703
247	1.717
247	1.73
248	1.743
248	1.755
249	1.766
249	1.772
250	1.78
250	1.785
250	1.787
251	1.789
251	1.793
252	1.8
252	1.8
253	1.799
253	1.798
254	1.797
254	1.799
255	1.798
255	1.799
256	1.799
256	1.8
257	1.8
257	1.797
258	1.796
258	1.797
258	1.797
259	1.796
259	1.796
260	1.794
260	1.794
261	1.792
261	1.794
262	1.795
262	1.794
263	1.796
263	1.796
264	1.798
264	1.799
265	1.798
265	1.798
265	1.798
266	1.798
266	1.798
267	1.797
267	1.797
268	1.796
268	1.796
269	1.795
269	1.795
270	1.794
270	1.794
271	1.791
271	1.792
272	1.789
272	1.788
272	1.786
273	1.782
273	1.778
274	1.773
274	1.768
275	1.762
275	1.755
276	1.749
276	1.74
277	1.732
277	1.722
278	1.712
278	1.7
278	1.686
279	1.671
279	1.653
280	1.631
280	1.605
281	1.574
281	1.54
282	1.504
282	1.466
283	1.429
283	1.392
284	1.355
284	1.32
285	1.286
285	1.255
285	1.227
286	1.202
286	1.18
287	1.161
287	1.145
288	1.131
288	1.118
289	1.108
289	1.099
290	1.091
290	1.084
291	1.078
291	1.072
292	1.067
292	1.062
292	1.058
293	1.053
293	1.049
294	1.046
294	1.043
295	1.04
295	1.036
296	1.033
296	1.03
297	1.027
297	1.024
298	1.021
298	1.018
298	1.015
299	1.012
299	1.009
300	1.006
300	1.003
301	1
301	0.998
302	0.995
302	0.992
303	0.99
303	0.987
304	0.985
304	0.982
305	0.98
305	0.978
305	0.975
306	0.973
306	0.97
307	0.968
307	0.965
308	0.962
308	0.96
309	0.957
309	0.954
310	0.951
310	0.948
311	0.945
311	0.942
311	0.938
312	0.935
312	0.931
313	0.928
313	0.924
314	0.92
314	0.916
315	0.912
315	0.908
316	0.903
316	0.899
317	0.894
317	0.89
318	0.885
318	0.88
318	0.875
319	0.869
319	0.864
320	0.859
320	0.853
321	0.847
321	0.841
322	0.835
322	0.829
323	0.823
323	0.816
324	0.81
324	0.804
324	0.797
325	0.79
325	0.783
326	0.777
326	0.77
327	0.763
327	0.757
328	0.75
328	0.743
329	0.736
329	0.729
330	0.722
330	0.716
330	0.709
331	0.702
331	0.695
332	0.688
332	0.681
333	0.675
333	0.668
334	0.661
334	0.655
335	0.648
335	0.641
336	0.634
336	0.628
336	0.621
337	0.615
337	0.609
338	0.603
338	0.597
339	0.591
339	0.585
340	0.579
340	0.574
341	0.569
341	0.563
342	0.558
342	0.553
342	0.547
343	0.542
343	0.538
344	0.533
344	0.528
345	0.523
345	0.518
346	0.514
346	0.51
347	0.506
347	0.501
348	0.497
348	0.493
348	0.49
349	0.486
349	0.482
350	0.479
350	0.475
351	0.472
351	0.469
352	0.465
352	0.462
353	0.459
353	0.456
354	0.454
354	0.451
354	0.448
355	0.445
355	0.441
356	0.439
356	0.436
357	0.432
357	0.429
358	0.427
358	0.424
359	0.422
359	0.42
360	0.418
360	0.415
360	0.414
361	0.411
361	0.41
362	0.408
362	0.407
363	0.405
363	0.403
364	0.401
364	0.399
365	0.397
365	0.395
366	0.393
366	0.392
366	0.39
367	0.388
367	0.386
368	0.385
368	0.383
369	0.381
369	0.38
370	0.378
370	0.377
371	0.375
371	0.374
372	0.373
372	0.372
372	0.37
373	0.369
373	0.368
374	0.367
374	0.366
375	0.364
375	0.363
376	0.362
376	0.361
377	0.36
377	0.359
378	0.358
378	0.357
378	0.356
379	0.355
379	0.354
380	0.353
380	0.352
381	0.351
381	0.35
382	0.35
382	0.349
383	0.348
383	0.348
383	0.347
384	0.346
384	0.346
385	0.345
385	0.345
386	0.344
386	0.344
387	0.343
387	0.343
388	0.342
388	0.342
389	0.341
389	0.34
389	0.34
390	0.339
390	0.338
391	0.338
391	0.337
392	0.337
392	0.336
393	0.336
393	0.335
394	0.335
394	0.334
394	0.334
395	0.334
395	0.333
396	0.333
396	0.332
397	0.332
397	0.331
398	0.331
398	0.33
399	0.33
399	0.329
400	0.329
400	0.328
400	0.328
401	0.328
401	0.327
402	0.327
402	0.326
403	0.326
403	0.325
404	0.325
404	0.324
405	0.324
405	0.324
405	0.323
406	0.323
406	0.323
407	0.322
407	0.322
408	0.322
408	0.321
409	0.321
409	0.32
410	0.32
410	0.32
411	0.32
411	0.319
411	0.319
412	0.319
412	0.318
413	0.318
413	0.318
414	0.317
414	0.317
415	0.316
415	0.316
416	0.316
416	0.315
416	0.315
417	0.315
417	0.314
418	0.314
418	0.314
419	0.313
419	0.313
420	0.312
420	0.312
421	0.311
421	0.311
421	0.311
422	0.31
422	0.31
423	0.31
423	0.309
424	0.309
424	0.309
425	0.308
425	0.308
426	0.308
426	0.307
427	0.307
427	0.307
427	0.306
428	0.306
428	0.306
429	0.305
429	0.305
430	0.305
430	0.304
431	0.304
431	0.304
432	0.304
432	0.304
432	0.304
433	0.303
433	0.303
434	0.303
434	0.303
435	0.303
435	0.303
436	0.303
436	0.303
437	0.303
437	0.302
437	0.302
438	0.302
438	0.302
439	0.302
439	0.301
440	0.301
440	0.301
441	0.3
441	0.3
442	0.3
442	0.3
442	0.3
443	0.299
443	0.299
444	0.299
444	0.299
445	0.299
445	0.299
446	0.299
446	0.298
447	0.298
447	0.298
447	0.298
448	0.298
448	0.298
449	0.298
449	0.298
450	0.298
450	0.298
451	0.298
451	0.298
452	0.298
452	0.298
452	0.298
453	0.298
453	0.298
454	0.298
454	0.297
455	0.297
455	0.297
456	0.297
456	0.297
457	0.296
457	0.296
458	0.296
458	0.296
458	0.297
459	0.297
459	0.297
460	0.297
460	0.297
461	0.297
461	0.297
462	0.298
462	0.298
463	0.297
463	0.297
463	0.297
464	0.297
464	0.297
465	0.297
465	0.297
466	0.297
466	0.297
467	0.297
467	0.297
467	0.297
468	0.298
468	0.298
469	0.298
469	0.299
470	0.299
470	0.3
471	0.3
471	0.3
472	0.301
472	0.301
472	0.301
473	0.302
473	0.302
474	0.302
474	0.302
475	0.302
475	0.303
476	0.303
476	0.304
477	0.304
477	0.305
477	0.305
478	0.306
478	0.306
479	0.307
479	0.307
480	0.308
480	0.309
481	0.309
481	0.31
482	0.31
482	0.311
482	0.312
483	0.312
483	0.313
484	0.314
484	0.315
485	0.315
485	0.316
486	0.316
486	0.317
487	0.318
487	0.319
487	0.32
488	0.32
488	0.321
489	0.322
489	0.323
490	0.325
490	0.326
491	0.327
491	0.328
492	0.329
492	0.33
492	0.332
493	0.333
493	0.334
494	0.335
494	0.337
495	0.338
495	0.339
496	0.34
496	0.342
496	0.343
497	0.344
497	0.345
498	0.346
498	0.348
499	0.349
499	0.35
500	0.352
500	0.353
501	0.354
501	0.355
501	0.356
502	0.358
502	0.359
503	0.36
503	0.361
504	0.362
504	0.364
505	0.365
505	0.366
506	0.368
506	0.369
506	0.37
507	0.371
507	0.372
508	0.373
508	0.374
509	0.375
509	0.376
510	0.377
510	0.378
511	0.379
511	0.38
511	0.381
512	0.382
512	0.383
513	0.384
513	0.385
514	0.386
514	0.386
515	0.387
515	0.387
515	0.388
516	0.389
516	0.389
517	0.39
517	0.391
518	0.391
518	0.391
519	0.392
519	0.392
520	0.392
520	0.392
520	0.393
521	0.393
521	0.393
522	0.393
522	0.393
523	0.393
523	0.393
524	0.393
524	0.393
524	0.393
525	0.393
525	0.393
526	0.392
526	0.392
527	0.391
527	0.391
528	0.39
528	0.389
529	0.388
529	0.387
529	0.386
530	0.385
530	0.384
531	0.383
531	0.382
532	0.381
532	0.38
533	0.378
533	0.377
533	0.376
534	0.375
534	0.374
535	0.372
535	0.371
536	0.369
536	0.368
537	0.366
537	0.364
538	0.363
538	0.361
538	0.36
539	0.358
539	0.357
540	0.355
540	0.354
541	0.352
541	0.351
542	0.349
542	0.348
542	0.346
543	0.344
543	0.342
544	0.341
544	0.339
545	0.337
545	0.336
546	0.334
546	0.332
547	0.33
547	0.328
547	0.326
548	0.324
548	0.322
549	0.321
549	0.319
550	0.317
550	0.315
551	0.313
551	0.311
551	0.309
552	0.307
552	0.305
553	0.303
553	0.302
554	0.3
554	0.298
555	0.296
555	0.294
556	0.292
556	0.29
556	0.289
557	0.287
557	0.286
558	0.284
558	0.283
559	0.281
559	0.28
560	0.278
560	0.277
560	0.275
561	0.274
561	0.272
562	0.27
562	0.268
563	0.266
563	0.264
564	0.262
564	0.26
564	0.259
565	0.257
565	0.255
566	0.254
566	0.252
567	0.251
567	0.249
568	0.248
568	0.247
568	0.245
569	0.244
569	0.242
570	0.241
570	0.239
571	0.238
571	0.236
572	0.235
572	0.233
573	0.232
573	0.231
573	0.23
574	0.228
574	0.227
575	0.227
575	0.226
576	0.225
576	0.223
577	0.222
577	0.221
577	0.22
578	0.219
578	0.218
579	0.217
579	0.217
580	0.215
580	0.214
581	0.212
581	0.211
581	0.21
582	0.21
582	0.209
583	0.208
583	0.207
584	0.205
584	0.204
585	0.202
585	0.202
585	0.201
586	0.2
586	0.199
587	0.198
587	0.197
588	0.196
588	0.195
589	0.195
589	0.194
590	0.194
590	0.193
590	0.193
591	0.192
591	0.191
592	0.19
592	0.188
593	0.188
593	0.187
594	0.186
594	0.184
594	0.183
595	0.182
595	0.181
596	0.18
596	0.18
597	0.18
597	0.18
598	0.179
598	0.179
598	0.179
599	0.178
599	0.178
600	0.177
600	0.177
601	0.176
601	0.176
602	0.175
602	0.174
602	0.173
603	0.173
603	0.172
604	0.172
604	0.171
605	0.171
605	0.171
606	0.17
606	0.169
606	0.168
607	0.168
607	0.167
608	0.167
608	0.166
609	0.165
609	0.165
610	0.164
610	0.163
610	0.163
611	0.163
611	0.162
612	0.162
612	0.162
613	0.162
613	0.162
614	0.161
614	0.161
614	0.161
615	0.161
615	0.16
616	0.16
616	0.159
617	0.159
617	0.158
618	0.158
618	0.158
618	0.157
619	0.157
619	0.157
620	0.157
620	0.157
621	0.156
621	0.156
622	0.156
622	0.155
622	0.154
623	0.154
623	0.153
624	0.153
624	0.152
625	0.151
625	0.151
626	0.15
626	0.15
626	0.15
627	0.15
627	0.149
628	0.149
628	0.148
629	0.148
629	0.147
630	0.147
630	0.146
630	0.146
631	0.146
631	0.146
632	0.146
632	0.146
633	0.145
633	0.145
634	0.146
634	0.146
634	0.146
635	0.146
635	0.146
636	0.145
636	0.145
637	0.145
637	0.144
638	0.144
638	0.144
638	0.143
639	0.143
639	0.142
640	0.142
640	0.141
641	0.141
641	0.141
642	0.14
642	0.14
642	0.14
643	0.14
643	0.14
644	0.14
644	0.14
645	0.14
645	0.14
646	0.14
646	0.14
646	0.14
647	0.14
647	0.14
648	0.14
648	0.14
649	0.139
649	0.139
650	0.139
650	0.139
650	0.139
651	0.139
651	0.138
652	0.138
652	0.138
653	0.138
653	0.14
653	0.145
654	0.115
654	0.093
655	0.092
655	0.092
656	0.092
656	0.093
657	0.093
657	0.093
657	0.093
658	0.092
658	0.084
659	0.105
659	0.133
660	0.137
660	0.137
661	0.137
661	0.136
661	0.135
662	0.135
662	0.134
663	0.133
663	0.133
664	0.132
664	0.132
665	0.132
665	0.131
665	0.131
666	0.132
666	0.132
667	0.132
667	0.132
668	0.133
668	0.133
669	0.133
669	0.133
669	0.134
670	0.134
670	0.134
671	0.134
671	0.134
672	0.133
672	0.133
672	0.132
673	0.132
673	0.132
674	0.131
674	0.13
675	0.13
675	0.13
676	0.13
676	0.131
676	0.131
677	0.132
677	0.132
678	0.132
678	0.131
679	0.131
679	0.131
680	0.131
680	0.13
680	0.13
681	0.129
681	0.129
682	0.129
682	0.13
683	0.13
683	0.13
684	0.131
684	0.131
684	0.13
685	0.13
685	0.131
686	0.131
686	0.131
687	0.131
687	0.131
687	0.131
688	0.131
688	0.131
689	0.132
689	0.132
690	0.132
690	0.132
691	0.132
691	0.132
691	0.132
692	0.132
692	0.132
693	0.132
693	0.132
694	0.132
694	0.132
695	0.132
695	0.133
695	0.133
696	0.133
696	0.133
697	0.133
697	0.132
698	0.132
698	0.132
698	0.132
699	0.132
699	0.132
700	0.131
700	0.131
701	0.131
701	0.13
702	0.13
702	0.129
702	0.129
703	0.128
703	0.128
704	0.128
704	0.128
705	0.128
705	0.128
705	0.128
706	0.128
706	0.128
707	0.128
707	0.128
708	0.128
708	0.128
709	0.128
709	0.128
709	0.127
710	0.126
710	0.126
711	0.126
711	0.126
712	0.126
712	0.126
713	0.126
713	0.126
713	0.126
714	0.126
714	0.126
715	0.126
715	0.126
716	0.125
716	0.125
716	0.125
717	0.124
717	0.124
718	0.124
718	0.124
719	0.124
719	0.124
720	0.124
720	0.125
720	0.125
721	0.126
721	0.126
722	0.127
722	0.127
723	0.127
723	0.126
723	0.126
724	0.125
724	0.125
725	0.124
725	0.123
726	0.122
726	0.122
727	0.121
727	0.121
727	0.121
728	0.121
728	0.121
729	0.122
729	0.122
730	0.123
730	0.123
730	0.124
731	0.124
731	0.125
732	0.125
732	0.125
733	0.125
733	0.125
734	0.125
734	0.125
734	0.125
735	0.125
735	0.124
736	0.123
736	0.123
737	0.122
737	0.122
737	0.122
738	0.121
738	0.12
739	0.12
739	0.12
740	0.12
740	0.12
741	0.121
741	0.121
741	0.121
742	0.121
742	0.121
743	0.122
743	0.122
744	0.122
744	0.122
744	0.122
745	0.121
745	0.121
746	0.121
746	0.121
747	0.12
747	0.12
748	0.12
748	0.12
748	0.12
749	0.12
749	0.12
750	0.12
750	0.12
751	0.12
751	0.121
751	0.121
752	0.12
752	0.12
753	0.12
753	0.119
754	0.119
754	0.118
754	0.118
755	0.118
755	0.118
756	0.117
756	0.116
757	0.115
757	0.115
758	0.115
758	0.115
758	0.115
759	0.115
759	0.114
760	0.114
760	0.113
761	0.113
761	0.114
761	0.114
762	0.114
762	0.114
763	0.114
763	0.113
764	0.113
764	0.113
764	0.112
765	0.112
765	0.112
766	0.112
766	0.111
767	0.111
767	0.111
768	0.11
768	0.11
768	0.111
769	0.111
769	0.111
770	0.111
770	0.112
771	0.111
771	0.111
771	0.111
772	0.111
772	0.111
773	0.111
773	0.111
774	0.11
774	0.11
775	0.11
775	0.11
775	0.11
776	0.11
776	0.11
777	0.11
777	0.11
778	0.11
778	0.11
778	0.109
779	0.109
779	0.108
780	0.107
780	0.107
781	0.106
781	0.106
781	0.105
782	0.105
782	0.105
783	0.105
783	0.105
784	0.105
784	0.105
784	0.106
785	0.106
785	0.106
786	0.106
786	0.106
787	0.106
787	0.106
788	0.105
788	0.105
788	0.104
789	0.104
789	0.103
790	0.103
790	0.102
791	0.101
791	0.1
791	0.1
792	0.1
792	0.099
793	0.099
793	0.099
794	0.098
794	0.098
794	0.097
795	0.097
795	0.097
796	0.097
796	0.098
797	0.097
797	0.097
797	0.098
798	0.098
798	0.098
799	0.098
799	0.098
800	0.098
800	0.097
801	0.097
801	0.097
801	0.096
802	0.096
802	0.096
803	0.095
803	0.095
804	0.095
804	0.096
804	0.096
805	0.096
805	0.096
806	0.096
806	0.096
807	0.096
807	0.096
807	0.096
808	0.096
808	0.096
809	0.095
809	0.095
810	0.095
810	0.094
810	0.094
811	0.094
811	0.094
812	0.094
812	0.094
813	0.094
813	0.094
813	0.094
814	0.094
814	0.094
815	0.095
815	0.095
816	0.094
816	0.094
817	0.093
817	0.093
817	0.092
818	0.092
818	0.092
819	0.091
819	0.091
820	0.09
820	0.089
820	0.089
821	0.089
821	0.089
822	0.089
822	0.089
823	0.089
823	0.089
823	0.09
824	0.091
824	0.092
825	0.093
825	0.094
826	0.094
826	0.094
826	0.094
827	0.094
827	0.094
828	0.094
828	0.093
829	0.093
829	0.093
829	0.092
830	0.092
830	0.093
831	0.093
831	0.093
832	0.093
832	0.094
832	0.094
833	0.094
833	0.093
834	0.093
834	0.092
835	0.091
835	0.09
835	0.089
836	0.088
836	0.087
837	0.086
837	0.086
838	0.085
838	0.084
839	0.084
839	0.083
839	0.083
840	0.082
840	0.081
841	0.08
841	0.08
842	0.079
842	0.078
842	0.078
843	0.078
843	0.078
844	0.078
844	0.078
845	0.079
845	0.079
845	0.08
846	0.081
846	0.081
847	0.082
847	0.082
848	0.082
848	0.082
848	0.081
849	0.081
849	0.08
850	0.079
850	0.079
851	0.078
851	0.077
851	0.077
852	0.076
852	0.075
853	0.075
853	0.075
854	0.075
854	0.075
854	0.076
855	0.077
855	0.077
856	0.078
856	0.079
857	0.08
857	0.08
857	0.081
858	0.081
858	0.081
859	0.08
859	0.08
860	0.079
860	0.078
860	0.077
861	0.076
861	0.075
862	0.074
862	0.073
863	0.072
863	0.072
863	0.071
864	0.071
864	0.071
865	0.071
865	0.072
866	0.072
866	0.072
866	0.072
867	0.072
867	0.072
868	0.072
868	0.071
869	0.071
869	0.07
869	0.069
870	0.068
870	0.068
871	0.067
871	0.067
872	0.066
872	0.066
872	0.066
873	0.066
873	0.065
874	0.065
874	0.065
875	0.065
875	0.065
875	0.066
876	0.066
876	0.066
877	0.066
877	0.066
878	0.066
878	0.066
878	0.067
879	0.067
879	0.067
880	0.067
880	0.067
881	0.067
881	0.067
881	0.067
882	0.067
882	0.067
883	0.067
883	0.067
884	0.066
884	0.066
884	0.066
885	0.066
885	0.066
886	0.066
886	0.066
887	0.065
887	0.065
887	0.064
888	0.063
888	0.063
889	0.062
889	0.062
890	0.062
890	0.062
890	0.061
891	0.061
891	0.061
892	0.061
892	0.062
893	0.062
893	0.062
893	0.062
894	0.062
894	0.062
895	0.062
895	0.062
895	0.062
896	0.061
896	0.061
897	0.061
897	0.061
898	0.06
898	0.06
898	0.059
899	0.059
899	0.059
900	0.059
900	0.058
901	0.058
901	0.058
901	0.057
902	0.057
902	0.057
903	0.056
903	0.056
904	0.056
904	0.056
904	0.056
905	0.056
905	0.056
906	0.056
906	0.057
907	0.057
907	0.058
907	0.059
908	0.059
908	0.06
909	0.061
909	0.062
910	0.062
910	0.063
910	0.063
911	0.063
911	0.063
912	0.063
912	0.063
913	0.063
913	0.063
913	0.063
914	0.063
914	0.062
915	0.062
915	0.062
916	0.062
916	0.061
916	0.061
917	0.061
917	0.06
918	0.06
918	0.06
918	0.059
919	0.059
919	0.058
920	0.058
920	0.058
921	0.057
921	0.057
921	0.057
922	0.057
922	0.057
923	0.057
923	0.058
924	0.058
924	0.058
924	0.058
925	0.058
925	0.058
926	0.058
926	0.058
927	0.058
927	0.058
927	0.058
928	0.058
928	0.057
929	0.057
929	0.058
930	0.058
930	0.058
930	0.058
931	0.058
931	0.059
932	0.059
932	0.059
933	0.059
933	0.059
933	0.059
934	0.059
934	0.058
935	0.058
935	0.058
935	0.058
936	0.058
936	0.057
937	0.057
937	0.057
938	0.056
938	0.056
938	0.055
939	0.055
939	0.054
940	0.054
940	0.054
941	0.053
941	0.053
941	0.053
942	0.053
942	0.053
943	0.053
943	0.053
944	0.053
944	0.053
944	0.054
945	0.054
945	0.054
946	0.055
946	0.055
946	0.055
947	0.056
947	0.056
948	0.057
948	0.057
949	0.057
949	0.057
949	0.057
950	0.057
950	0.057
951	0.057
951	0.056
952	0.055
952	0.055
952	0.054
953	0.053
953	0.052
954	0.051
954	0.051
955	0.05
955	0.05
955	0.049
956	0.049
956	0.049
957	0.05
957	0.05
957	0.05
958	0.05
958	0.051
959	0.051
959	0.051
960	0.051
960	0.051
960	0.051
961	0.051
961	0.05
962	0.05
962	0.05
963	0.049
963	0.049
963	0.049
964	0.049
964	0.049
965	0.049
965	0.049
966	0.049
966	0.05
966	0.05
967	0.051
967	0.051
968	0.052
968	0.052
968	0.053
969	0.053
969	0.053
970	0.053
970	0.052
971	0.052
971	0.051
971	0.051
972	0.051
972	0.05
973	0.05
973	0.05
974	0.049
974	0.049
974	0.049
975	0.049
975	0.049
976	0.049
976	0.049
976	0.049
977	0.049
977	0.049
978	0.049
978	0.049
979	0.05
979	0.05
979	0.05
980	0.05
980	0.05
981	0.05
981	0.05
982	0.05
982	0.05
982	0.05
983	0.051
983	0.051
984	0.051
984	0.051
984	0.051
985	0.051
985	0.051
986	0.051
986	0.051
987	0.051
987	0.05
987	0.05
988	0.05
988	0.049
989	0.049
989	0.048
990	0.047
990	0.047
990	0.046
991	0.046
991	0.046
992	0.045
992	0.044
992	0.044
993	0.044
993	0.043
994	0.042
994	0.042
995	0.042
995	0.042
995	0.042
996	0.042
996	0.043
997	0.043
997	0.044
997	0.045
998	0.045
998	0.046
999	0.047
999	0.048
1000	0.049
1000	0.049
1000	0.049
1001	0.049
1001	0.049
1002	0.049
1002	0.049
1003	0.048
1003	0.047
1003	0.046
1004	0.045
1004	0.044
1005	0.043
1005	0.042
1005	0.041
1006	0.04
1006	0.039
1007	0.039
1007	0.038
1008	0.038
1008	0.038
1008	0.038
1009	0.039
1009	0.039
1010	0.039
1010	0.04
1010	0.04
1011	0.04
1011	0.04
1012	0.041
1012	0.041
1013	0.041
1013	0.041
1013	0.041
1014	0.04
1014	0.04
1015	0.041
1015	0.041
1016	0.04
1016	0.04
1016	0.04
1017	0.039
1017	0.039
1018	0.039
1018	0.039
1018	0.038
1019	0.038
1019	0.038
1020	0.038
1020	0.038
1021	0.038
1021	0.038
1021	0.039
1022	0.039
1022	0.039
1023	0.039
1023	0.039
1023	0.039
1024	0.039
1024	0.039
1025	0.039
1025	0.039
1026	0.039
1026	0.039
1026	0.039
1027	0.039
1027	0.039
1028	0.039
1028	0.039
1028	0.039
1029	0.039
1029	0.039
1030	0.039
1030	0.039
1031	0.04
1031	0.04
1031	0.04
1032	0.041
1032	0.041
1033	0.041
1033	0.041
1033	0.042
1034	0.042
1034	0.042
1035	0.041
1035	0.041
1036	0.041
1036	0.041
1036	0.04
1037	0.04
1037	0.04
1038	0.04
1038	0.039
1039	0.039
1039	0.039
1039	0.039
1040	0.039
1040	0.039
1041	0.039
1041	0.039
1041	0.039
1042	0.039
1042	0.04
1043	0.04
1043	0.04
1044	0.041
1044	0.041
1044	0.041
1045	0.042
1045	0.042
1046	0.043
1046	0.043
1046	0.043
1047	0.044
1047	0.044
1048	0.044
1048	0.045
1049	0.045
1049	0.045
1049	0.045
1050	0.045
1050	0.044
1051	0.044
1051	0.044
1051	0.044
1052	0.044
1052	0.043
1053	0.043
1053	0.042
1053	0.042
1054	0.041
1054	0.04
1055	0.04
1055	0.039
1056	0.039
1056	0.038
1056	0.037
1057	0.037
1057	0.036
1058	0.036
1058	0.035
1058	0.035
1059	0.034
1059	0.034
1060	0.034
1060	0.034
1061	0.033
1061	0.033
1061	0.033
1062	0.033
1062	0.033
1063	0.033
1063	0.033
1063	0.033
1064	0.032
1064	0.032
1065	0.032
1065	0.032
1066	0.032
1066	0.032
1066	0.032
1067	0.031
1067	0.031
1068	0.031
1068	0.031
1068	0.031
1069	0.031
1069	0.03
1070	0.03
1070	0.03
1071	0.029
1071	0.029
1071	0.028
1072	0.028
1072	0.028
1073	0.027
1073	0.027
1073	0.027
1074	0.028
1074	0.028
1075	0.028
1075	0.028
1076	0.029
1076	0.03
1076	0.03
1077	0.03
1077	0.031
1078	0.031
1078	0.031
1078	0.031
1079	0.031
1079	0.031
1080	0.03
1080	0.03
1080	0.03
1081	0.03
1081	0.03
1082	0.03
1082	0.031
1083	0.03
1083	0.031
1083	0.031
1084	0.031
1084	0.032
1085	0.032
1085	0.032
1085	0.032
1086	0.032
1086	0.031
1087	0.031
1087	0.03
1088	0.03
1088	0.03
1088	0.029
1089	0.028
1089	0.028
1090	0.027
1090	0.026
1090	0.025
1091	0.025
1091	0.024
1092	0.024
1092	0.024
1092	0.024
1093	0.024
1093	0.024
1094	0.024
1094	0.024
1095	0.023
1095	0.024
1095	0.024
1096	0.023
1096	0.023
1097	0.022
1097	0.022
1097	0.021
1098	0.021
1098	0.021
1099	0.021
1099	0.02
1100	0.02
1100	0.02
1100	0.02
1101	0.019
1101	0.019
1102	0.019
1102	0.019
1102	0.018
1103	0.018
1103	0.017
1104	0.018
1104	0.017
1104	0.016
1105	0.015
1105	0.013
1106	0.013
1106	0.012
1107	0.01
1107	0.01
1107	0.009
1108	0.008
1108	0.006
1109	0.005
1109	0.004
1109	0.003
1110	0.005
1110	0.002
1111	0.001
1111	0.002
