Data from reversibility-20sec_Absorbance__6095__000000000006095.txt Node

Date: Wed Dec 06 22:04:47 CET 2023
User: Marek
Spectrometer: MAYP115816
Trigger mode: 0
Integration Time (sec): 2.000000E-1
Scans to average: 10
Electric dark correction enabled: true
Nonlinearity correction enabled: true
Boxcar width: 5
XAxis mode: Wavelengths
Number of Pixels in Spectrum: 2068
>>>>>Begin Spectral Data<<<<<
199	-0.133
199	-0.104
200	-0.045
200	0.003
201	0.035
201	0.053
202	0.065
202	0.074
203	0.08
203	0.083
204	0.098
204	0.115
205	0.128
205	0.136
205	0.136
206	0.134
206	0.133
207	0.134
207	0.13
208	0.131
208	0.133
209	0.134
209	0.131
210	0.131
210	0.132
211	0.133
211	0.134
212	0.133
212	0.134
213	0.136
213	0.138
213	0.136
214	0.138
214	0.138
215	0.138
215	0.135
216	0.138
216	0.137
217	0.14
217	0.141
218	0.144
218	0.148
219	0.152
219	0.152
220	0.154
220	0.153
221	0.153
221	0.155
221	0.162
222	0.166
222	0.171
223	0.173
223	0.176
224	0.18
224	0.187
225	0.196
225	0.207
226	0.219
226	0.228
227	0.238
227	0.249
228	0.263
228	0.279
229	0.295
229	0.321
229	0.342
230	0.363
230	0.392
231	0.423
231	0.462
232	0.498
232	0.539
233	0.582
233	0.631
234	0.681
234	0.732
235	0.787
235	0.841
236	0.893
236	0.945
236	0.996
237	1.048
237	1.099
238	1.145
238	1.19
239	1.237
239	1.279
240	1.319
240	1.357
241	1.391
241	1.425
242	1.457
242	1.487
243	1.516
243	1.542
243	1.568
244	1.588
244	1.609
245	1.626
245	1.648
246	1.666
246	1.685
247	1.698
247	1.713
248	1.725
248	1.739
249	1.749
249	1.756
250	1.762
250	1.77
250	1.771
251	1.775
251	1.775
252	1.777
252	1.775
253	1.777
253	1.773
254	1.772
254	1.774
255	1.772
255	1.772
256	1.771
256	1.771
257	1.772
257	1.771
258	1.772
258	1.771
258	1.771
259	1.769
259	1.768
260	1.769
260	1.77
261	1.77
261	1.772
262	1.774
262	1.776
263	1.778
263	1.78
264	1.782
264	1.785
265	1.787
265	1.786
265	1.787
266	1.788
266	1.787
267	1.786
267	1.786
268	1.787
268	1.787
269	1.788
269	1.788
270	1.787
270	1.787
271	1.784
271	1.784
272	1.781
272	1.778
272	1.774
273	1.768
273	1.76
274	1.752
274	1.744
275	1.737
275	1.731
276	1.723
276	1.714
277	1.705
277	1.695
278	1.683
278	1.669
278	1.654
279	1.638
279	1.615
280	1.587
280	1.554
281	1.515
281	1.473
282	1.429
282	1.384
283	1.34
283	1.298
284	1.257
284	1.217
285	1.181
285	1.147
285	1.118
286	1.092
286	1.069
287	1.049
287	1.033
288	1.02
288	1.007
289	0.997
289	0.989
290	0.981
290	0.974
291	0.969
291	0.964
292	0.96
292	0.955
292	0.951
293	0.947
293	0.944
294	0.941
294	0.938
295	0.935
295	0.932
296	0.929
296	0.926
297	0.924
297	0.921
298	0.919
298	0.916
298	0.914
299	0.911
299	0.908
300	0.905
300	0.903
301	0.901
301	0.898
302	0.895
302	0.893
303	0.891
303	0.889
304	0.887
304	0.884
305	0.882
305	0.88
305	0.878
306	0.876
306	0.874
307	0.872
307	0.869
308	0.867
308	0.864
309	0.862
309	0.859
310	0.857
310	0.854
311	0.851
311	0.848
311	0.845
312	0.841
312	0.838
313	0.834
313	0.831
314	0.827
314	0.823
315	0.819
315	0.815
316	0.811
316	0.806
317	0.802
317	0.797
318	0.792
318	0.787
318	0.782
319	0.777
319	0.771
320	0.766
320	0.76
321	0.754
321	0.748
322	0.742
322	0.736
323	0.73
323	0.723
324	0.717
324	0.71
324	0.703
325	0.696
325	0.69
326	0.683
326	0.676
327	0.669
327	0.663
328	0.656
328	0.649
329	0.642
329	0.635
330	0.628
330	0.621
330	0.614
331	0.607
331	0.6
332	0.593
332	0.586
333	0.579
333	0.572
334	0.565
334	0.558
335	0.552
335	0.545
336	0.538
336	0.532
336	0.525
337	0.519
337	0.513
338	0.506
338	0.5
339	0.495
339	0.489
340	0.483
340	0.477
341	0.472
341	0.466
342	0.461
342	0.455
342	0.45
343	0.445
343	0.44
344	0.435
344	0.43
345	0.425
345	0.421
346	0.416
346	0.412
347	0.408
347	0.403
348	0.399
348	0.396
348	0.392
349	0.388
349	0.384
350	0.381
350	0.378
351	0.374
351	0.371
352	0.367
352	0.365
353	0.362
353	0.359
354	0.356
354	0.353
354	0.35
355	0.347
355	0.344
356	0.342
356	0.339
357	0.337
357	0.334
358	0.332
358	0.329
359	0.327
359	0.324
360	0.322
360	0.321
360	0.319
361	0.317
361	0.315
362	0.313
362	0.312
363	0.31
363	0.308
364	0.307
364	0.305
365	0.303
365	0.301
366	0.3
366	0.298
366	0.297
367	0.295
367	0.293
368	0.292
368	0.29
369	0.289
369	0.288
370	0.286
370	0.285
371	0.283
371	0.282
372	0.281
372	0.28
372	0.279
373	0.278
373	0.277
374	0.276
374	0.275
375	0.275
375	0.274
376	0.273
376	0.272
377	0.271
377	0.27
378	0.269
378	0.269
378	0.268
379	0.267
379	0.266
380	0.266
380	0.265
381	0.265
381	0.264
382	0.263
382	0.263
383	0.263
383	0.262
383	0.262
384	0.261
384	0.261
385	0.26
385	0.26
386	0.259
386	0.259
387	0.259
387	0.258
388	0.258
388	0.257
389	0.257
389	0.257
389	0.257
390	0.256
390	0.256
391	0.256
391	0.256
392	0.255
392	0.255
393	0.255
393	0.254
394	0.254
394	0.254
394	0.253
395	0.253
395	0.253
396	0.252
396	0.252
397	0.252
397	0.251
398	0.251
398	0.251
399	0.251
399	0.25
400	0.25
400	0.25
400	0.25
401	0.25
401	0.249
402	0.249
402	0.249
403	0.249
403	0.248
404	0.248
404	0.248
405	0.248
405	0.248
405	0.247
406	0.247
406	0.247
407	0.247
407	0.246
408	0.246
408	0.246
409	0.245
409	0.245
410	0.245
410	0.245
411	0.244
411	0.244
411	0.244
412	0.244
412	0.243
413	0.243
413	0.243
414	0.243
414	0.243
415	0.242
415	0.242
416	0.242
416	0.241
416	0.241
417	0.241
417	0.241
418	0.24
418	0.24
419	0.239
419	0.239
420	0.238
420	0.238
421	0.238
421	0.237
421	0.237
422	0.236
422	0.236
423	0.236
423	0.235
424	0.235
424	0.235
425	0.234
425	0.234
426	0.234
426	0.233
427	0.233
427	0.233
427	0.232
428	0.232
428	0.232
429	0.231
429	0.231
430	0.231
430	0.231
431	0.23
431	0.23
432	0.23
432	0.23
432	0.23
433	0.23
433	0.23
434	0.229
434	0.229
435	0.229
435	0.229
436	0.229
436	0.229
437	0.228
437	0.228
437	0.228
438	0.228
438	0.228
439	0.227
439	0.227
440	0.227
440	0.226
441	0.226
441	0.226
442	0.226
442	0.225
442	0.225
443	0.225
443	0.225
444	0.225
444	0.224
445	0.224
445	0.224
446	0.224
446	0.224
447	0.223
447	0.223
447	0.223
448	0.222
448	0.222
449	0.222
449	0.222
450	0.221
450	0.221
451	0.221
451	0.221
452	0.221
452	0.221
452	0.221
453	0.221
453	0.22
454	0.22
454	0.22
455	0.22
455	0.219
456	0.219
456	0.219
457	0.219
457	0.218
458	0.218
458	0.218
458	0.218
459	0.217
459	0.217
460	0.217
460	0.217
461	0.217
461	0.216
462	0.216
462	0.216
463	0.216
463	0.215
463	0.215
464	0.215
464	0.214
465	0.214
465	0.214
466	0.213
466	0.213
467	0.213
467	0.213
467	0.213
468	0.213
468	0.213
469	0.213
469	0.213
470	0.214
470	0.213
471	0.213
471	0.213
472	0.213
472	0.213
472	0.213
473	0.213
473	0.213
474	0.213
474	0.212
475	0.212
475	0.212
476	0.212
476	0.212
477	0.212
477	0.212
477	0.212
478	0.212
478	0.211
479	0.211
479	0.211
480	0.211
480	0.211
481	0.211
481	0.211
482	0.211
482	0.211
482	0.211
483	0.211
483	0.212
484	0.212
484	0.211
485	0.211
485	0.211
486	0.211
486	0.211
487	0.211
487	0.211
487	0.212
488	0.212
488	0.212
489	0.212
489	0.212
490	0.213
490	0.213
491	0.213
491	0.214
492	0.214
492	0.214
492	0.215
493	0.215
493	0.215
494	0.216
494	0.216
495	0.216
495	0.217
496	0.217
496	0.217
496	0.218
497	0.218
497	0.218
498	0.218
498	0.219
499	0.219
499	0.219
500	0.22
500	0.22
501	0.221
501	0.221
501	0.221
502	0.221
502	0.221
503	0.222
503	0.222
504	0.222
504	0.223
505	0.223
505	0.223
506	0.223
506	0.224
506	0.224
507	0.224
507	0.225
508	0.225
508	0.225
509	0.226
509	0.226
510	0.227
510	0.227
511	0.228
511	0.228
511	0.229
512	0.23
512	0.23
513	0.23
513	0.23
514	0.231
514	0.231
515	0.231
515	0.232
515	0.232
516	0.232
516	0.233
517	0.233
517	0.234
518	0.234
518	0.234
519	0.234
519	0.235
520	0.235
520	0.235
520	0.236
521	0.236
521	0.236
522	0.236
522	0.236
523	0.236
523	0.237
524	0.237
524	0.237
524	0.237
525	0.237
525	0.237
526	0.237
526	0.237
527	0.237
527	0.238
528	0.238
528	0.238
529	0.238
529	0.238
529	0.238
530	0.239
530	0.239
531	0.239
531	0.239
532	0.239
532	0.239
533	0.238
533	0.239
533	0.239
534	0.238
534	0.239
535	0.239
535	0.239
536	0.239
536	0.239
537	0.239
537	0.239
538	0.239
538	0.238
538	0.238
539	0.238
539	0.238
540	0.237
540	0.237
541	0.237
541	0.237
542	0.236
542	0.236
542	0.236
543	0.236
543	0.236
544	0.236
544	0.236
545	0.236
545	0.236
546	0.236
546	0.236
547	0.235
547	0.235
547	0.235
548	0.235
548	0.235
549	0.234
549	0.234
550	0.234
550	0.234
551	0.233
551	0.233
551	0.233
552	0.233
552	0.233
553	0.232
553	0.232
554	0.231
554	0.231
555	0.23
555	0.23
556	0.229
556	0.229
556	0.229
557	0.229
557	0.229
558	0.229
558	0.229
559	0.229
559	0.229
560	0.229
560	0.229
560	0.229
561	0.229
561	0.229
562	0.228
562	0.228
563	0.227
563	0.227
564	0.226
564	0.226
564	0.225
565	0.225
565	0.225
566	0.224
566	0.224
567	0.224
567	0.224
568	0.224
568	0.224
568	0.223
569	0.223
569	0.223
570	0.222
570	0.221
571	0.221
571	0.221
572	0.22
572	0.22
573	0.219
573	0.219
573	0.218
574	0.218
574	0.218
575	0.218
575	0.218
576	0.218
576	0.217
577	0.217
577	0.216
577	0.216
578	0.216
578	0.216
579	0.216
579	0.216
580	0.215
580	0.215
581	0.214
581	0.214
581	0.214
582	0.214
582	0.214
583	0.215
583	0.215
584	0.214
584	0.213
585	0.213
585	0.213
585	0.212
586	0.212
586	0.211
587	0.211
587	0.21
588	0.209
588	0.209
589	0.209
589	0.209
590	0.209
590	0.209
590	0.209
591	0.209
591	0.209
592	0.209
592	0.208
593	0.208
593	0.208
594	0.208
594	0.207
594	0.206
595	0.206
595	0.206
596	0.205
596	0.206
597	0.206
597	0.206
598	0.206
598	0.206
598	0.206
599	0.206
599	0.205
600	0.205
600	0.204
601	0.204
601	0.204
602	0.203
602	0.203
602	0.203
603	0.202
603	0.202
604	0.202
604	0.203
605	0.203
605	0.203
606	0.202
606	0.202
606	0.201
607	0.201
607	0.201
608	0.201
608	0.201
609	0.2
609	0.2
610	0.2
610	0.199
610	0.199
611	0.199
611	0.199
612	0.199
612	0.199
613	0.199
613	0.199
614	0.199
614	0.198
614	0.198
615	0.198
615	0.198
616	0.199
616	0.198
617	0.198
617	0.198
618	0.198
618	0.199
618	0.199
619	0.199
619	0.199
620	0.2
620	0.2
621	0.199
621	0.199
622	0.198
622	0.197
622	0.197
623	0.196
623	0.196
624	0.195
624	0.195
625	0.194
625	0.194
626	0.193
626	0.193
626	0.193
627	0.193
627	0.193
628	0.193
628	0.193
629	0.192
629	0.192
630	0.192
630	0.192
630	0.192
631	0.192
631	0.191
632	0.191
632	0.191
633	0.191
633	0.191
634	0.191
634	0.191
634	0.191
635	0.191
635	0.191
636	0.191
636	0.191
637	0.191
637	0.191
638	0.191
638	0.19
638	0.19
639	0.19
639	0.19
640	0.19
640	0.19
641	0.189
641	0.189
642	0.189
642	0.19
642	0.19
643	0.19
643	0.19
644	0.19
644	0.19
645	0.19
645	0.19
646	0.19
646	0.19
646	0.19
647	0.189
647	0.189
648	0.189
648	0.188
649	0.188
649	0.187
650	0.187
650	0.187
650	0.187
651	0.187
651	0.187
652	0.187
652	0.188
653	0.188
653	0.19
653	0.196
654	0.154
654	0.123
655	0.124
655	0.124
656	0.124
656	0.125
657	0.125
657	0.125
657	0.126
658	0.124
658	0.114
659	0.144
659	0.186
660	0.191
660	0.191
661	0.191
661	0.19
661	0.19
662	0.19
662	0.189
663	0.188
663	0.188
664	0.188
664	0.188
665	0.187
665	0.187
665	0.187
666	0.187
666	0.188
667	0.188
667	0.188
668	0.189
668	0.189
669	0.189
669	0.19
669	0.19
670	0.191
670	0.191
671	0.191
671	0.191
672	0.191
672	0.19
672	0.19
673	0.19
673	0.19
674	0.189
674	0.189
675	0.188
675	0.188
676	0.188
676	0.188
676	0.187
677	0.187
677	0.187
678	0.187
678	0.187
679	0.186
679	0.187
680	0.187
680	0.187
680	0.187
681	0.187
681	0.188
682	0.188
682	0.189
683	0.189
683	0.19
684	0.19
684	0.19
684	0.19
685	0.19
685	0.19
686	0.19
686	0.189
687	0.189
687	0.189
687	0.189
688	0.188
688	0.188
689	0.189
689	0.189
690	0.189
690	0.189
691	0.189
691	0.189
691	0.189
692	0.189
692	0.189
693	0.19
693	0.19
694	0.19
694	0.19
695	0.191
695	0.191
695	0.191
696	0.191
696	0.191
697	0.191
697	0.191
698	0.19
698	0.19
698	0.19
699	0.19
699	0.19
700	0.189
700	0.19
701	0.19
701	0.19
702	0.19
702	0.191
702	0.191
703	0.191
703	0.191
704	0.192
704	0.192
705	0.192
705	0.192
705	0.192
706	0.192
706	0.192
707	0.192
707	0.192
708	0.192
708	0.193
709	0.193
709	0.193
709	0.192
710	0.193
710	0.193
711	0.194
711	0.194
712	0.194
712	0.194
713	0.194
713	0.194
713	0.193
714	0.193
714	0.193
715	0.192
715	0.192
716	0.192
716	0.192
716	0.191
717	0.191
717	0.19
718	0.19
718	0.19
719	0.19
719	0.19
720	0.191
720	0.191
720	0.191
721	0.192
721	0.192
722	0.193
722	0.193
723	0.194
723	0.194
723	0.195
724	0.195
724	0.194
725	0.194
725	0.194
726	0.193
726	0.193
727	0.192
727	0.192
727	0.192
728	0.191
728	0.191
729	0.191
729	0.191
730	0.192
730	0.192
730	0.193
731	0.193
731	0.194
732	0.195
732	0.195
733	0.196
733	0.196
734	0.196
734	0.197
734	0.197
735	0.198
735	0.198
736	0.197
736	0.197
737	0.197
737	0.197
737	0.197
738	0.197
738	0.196
739	0.196
739	0.196
740	0.195
740	0.195
741	0.195
741	0.195
741	0.195
742	0.195
742	0.196
743	0.197
743	0.197
744	0.198
744	0.199
744	0.199
745	0.2
745	0.2
746	0.2
746	0.2
747	0.2
747	0.2
748	0.2
748	0.2
748	0.2
749	0.199
749	0.199
750	0.199
750	0.199
751	0.199
751	0.199
751	0.199
752	0.198
752	0.198
753	0.197
753	0.197
754	0.197
754	0.196
754	0.196
755	0.196
755	0.196
756	0.196
756	0.195
757	0.195
757	0.195
758	0.195
758	0.196
758	0.196
759	0.197
759	0.196
760	0.197
760	0.197
761	0.197
761	0.198
761	0.198
762	0.198
762	0.199
763	0.199
763	0.198
764	0.198
764	0.198
764	0.198
765	0.198
765	0.198
766	0.198
766	0.198
767	0.197
767	0.196
768	0.196
768	0.196
768	0.196
769	0.196
769	0.197
770	0.197
770	0.198
771	0.198
771	0.199
771	0.2
772	0.201
772	0.202
773	0.203
773	0.203
774	0.204
774	0.204
775	0.205
775	0.205
775	0.205
776	0.205
776	0.206
777	0.206
777	0.207
778	0.207
778	0.206
778	0.206
779	0.207
779	0.206
780	0.206
780	0.205
781	0.205
781	0.204
781	0.204
782	0.204
782	0.204
783	0.204
783	0.205
784	0.205
784	0.205
784	0.206
785	0.206
785	0.207
786	0.207
786	0.208
787	0.207
787	0.207
788	0.206
788	0.206
788	0.205
789	0.204
789	0.204
790	0.204
790	0.203
791	0.203
791	0.202
791	0.202
792	0.203
792	0.204
793	0.204
793	0.204
794	0.205
794	0.205
794	0.205
795	0.205
795	0.206
796	0.206
796	0.207
797	0.207
797	0.207
797	0.207
798	0.207
798	0.208
799	0.207
799	0.207
800	0.207
800	0.206
801	0.206
801	0.206
801	0.206
802	0.206
802	0.207
803	0.207
803	0.207
804	0.207
804	0.208
804	0.208
805	0.208
805	0.208
806	0.208
806	0.208
807	0.207
807	0.207
807	0.207
808	0.207
808	0.207
809	0.207
809	0.207
810	0.207
810	0.208
810	0.208
811	0.209
811	0.209
812	0.21
812	0.211
813	0.211
813	0.212
813	0.213
814	0.213
814	0.214
815	0.215
815	0.215
816	0.215
816	0.214
817	0.214
817	0.214
817	0.214
818	0.213
818	0.213
819	0.213
819	0.212
820	0.211
820	0.211
820	0.21
821	0.211
821	0.211
822	0.211
822	0.211
823	0.211
823	0.211
823	0.212
824	0.213
824	0.214
825	0.215
825	0.216
826	0.216
826	0.216
826	0.216
827	0.216
827	0.216
828	0.216
828	0.216
829	0.217
829	0.217
829	0.217
830	0.217
830	0.218
831	0.219
831	0.219
832	0.219
832	0.219
832	0.219
833	0.219
833	0.219
834	0.219
834	0.218
835	0.218
835	0.217
835	0.217
836	0.217
836	0.217
837	0.217
837	0.217
838	0.217
838	0.216
839	0.216
839	0.215
839	0.214
840	0.213
840	0.212
841	0.211
841	0.21
842	0.209
842	0.208
842	0.208
843	0.207
843	0.207
844	0.206
844	0.206
845	0.206
845	0.206
845	0.206
846	0.206
846	0.206
847	0.206
847	0.207
848	0.207
848	0.208
848	0.209
849	0.209
849	0.21
850	0.211
850	0.211
851	0.212
851	0.212
851	0.212
852	0.212
852	0.211
853	0.211
853	0.211
854	0.211
854	0.211
854	0.212
855	0.212
855	0.213
856	0.213
856	0.214
857	0.215
857	0.215
857	0.216
858	0.217
858	0.217
859	0.216
859	0.216
860	0.215
860	0.215
860	0.214
861	0.213
861	0.212
862	0.211
862	0.21
863	0.21
863	0.209
863	0.209
864	0.209
864	0.209
865	0.209
865	0.209
866	0.209
866	0.209
866	0.21
867	0.21
867	0.211
868	0.211
868	0.212
869	0.212
869	0.212
869	0.212
870	0.212
870	0.212
871	0.212
871	0.212
872	0.212
872	0.212
872	0.212
873	0.212
873	0.211
874	0.211
874	0.21
875	0.21
875	0.21
875	0.209
876	0.209
876	0.209
877	0.209
877	0.209
878	0.208
878	0.209
878	0.209
879	0.21
879	0.21
880	0.21
880	0.211
881	0.211
881	0.211
881	0.211
882	0.211
882	0.211
883	0.211
883	0.212
884	0.212
884	0.212
884	0.212
885	0.211
885	0.211
886	0.21
886	0.21
887	0.209
887	0.208
887	0.207
888	0.207
888	0.206
889	0.205
889	0.205
890	0.204
890	0.204
890	0.204
891	0.204
891	0.204
892	0.204
892	0.204
893	0.203
893	0.203
893	0.203
894	0.203
894	0.203
895	0.203
895	0.203
895	0.203
896	0.204
896	0.204
897	0.204
897	0.204
898	0.203
898	0.203
898	0.203
899	0.202
899	0.202
900	0.201
900	0.201
901	0.2
901	0.199
901	0.199
902	0.198
902	0.198
903	0.197
903	0.197
904	0.196
904	0.196
904	0.196
905	0.195
905	0.195
906	0.195
906	0.195
907	0.195
907	0.195
907	0.195
908	0.195
908	0.195
909	0.195
909	0.195
910	0.195
910	0.195
910	0.194
911	0.194
911	0.194
912	0.193
912	0.193
913	0.193
913	0.193
913	0.193
914	0.193
914	0.193
915	0.194
915	0.194
916	0.194
916	0.194
916	0.194
917	0.193
917	0.193
918	0.192
918	0.192
918	0.191
919	0.19
919	0.189
920	0.189
920	0.188
921	0.188
921	0.188
921	0.187
922	0.187
922	0.187
923	0.187
923	0.188
924	0.188
924	0.189
924	0.189
925	0.19
925	0.19
926	0.191
926	0.191
927	0.192
927	0.192
927	0.192
928	0.192
928	0.192
929	0.192
929	0.192
930	0.191
930	0.191
930	0.19
931	0.189
931	0.188
932	0.188
932	0.187
933	0.186
933	0.186
933	0.185
934	0.185
934	0.184
935	0.184
935	0.184
935	0.183
936	0.183
936	0.183
937	0.183
937	0.182
938	0.182
938	0.182
938	0.181
939	0.181
939	0.181
940	0.18
940	0.18
941	0.18
941	0.18
941	0.18
942	0.18
942	0.18
943	0.18
943	0.18
944	0.179
944	0.18
944	0.18
945	0.18
945	0.18
946	0.18
946	0.18
946	0.18
947	0.18
947	0.18
948	0.179
948	0.179
949	0.178
949	0.178
949	0.177
950	0.177
950	0.176
951	0.176
951	0.175
952	0.175
952	0.174
952	0.174
953	0.173
953	0.173
954	0.173
954	0.173
955	0.173
955	0.172
955	0.172
956	0.172
956	0.172
957	0.171
957	0.171
957	0.171
958	0.171
958	0.17
959	0.17
959	0.169
960	0.169
960	0.169
960	0.168
961	0.168
961	0.168
962	0.167
962	0.167
963	0.167
963	0.167
963	0.168
964	0.168
964	0.168
965	0.169
965	0.169
966	0.169
966	0.169
966	0.169
967	0.168
967	0.168
968	0.168
968	0.167
968	0.166
969	0.165
969	0.165
970	0.164
970	0.163
971	0.162
971	0.162
971	0.161
972	0.161
972	0.16
973	0.16
973	0.16
974	0.16
974	0.16
974	0.16
975	0.16
975	0.16
976	0.161
976	0.162
976	0.162
977	0.162
977	0.162
978	0.162
978	0.161
979	0.161
979	0.161
979	0.161
980	0.16
980	0.16
981	0.159
981	0.159
982	0.158
982	0.158
982	0.158
983	0.158
983	0.158
984	0.157
984	0.157
984	0.157
985	0.157
985	0.157
986	0.157
986	0.157
987	0.157
987	0.156
987	0.156
988	0.156
988	0.155
989	0.155
989	0.154
990	0.154
990	0.154
990	0.153
991	0.152
991	0.152
992	0.151
992	0.15
992	0.149
993	0.148
993	0.147
994	0.146
994	0.145
995	0.144
995	0.143
995	0.143
996	0.143
996	0.142
997	0.143
997	0.143
997	0.144
998	0.144
998	0.145
999	0.146
999	0.146
1000	0.147
1000	0.148
1000	0.148
1001	0.148
1001	0.148
1002	0.148
1002	0.148
1003	0.147
1003	0.147
1003	0.146
1004	0.145
1004	0.144
1005	0.143
1005	0.143
1005	0.142
1006	0.141
1006	0.14
1007	0.14
1007	0.139
1008	0.139
1008	0.139
1008	0.139
1009	0.14
1009	0.14
1010	0.14
1010	0.14
1010	0.141
1011	0.141
1011	0.141
1012	0.141
1012	0.141
1013	0.141
1013	0.14
1013	0.14
1014	0.139
1014	0.139
1015	0.138
1015	0.138
1016	0.137
1016	0.137
1016	0.136
1017	0.136
1017	0.135
1018	0.135
1018	0.134
1018	0.134
1019	0.134
1019	0.133
1020	0.133
1020	0.133
1021	0.133
1021	0.133
1021	0.133
1022	0.134
1022	0.134
1023	0.134
1023	0.134
1023	0.135
1024	0.135
1024	0.135
1025	0.136
1025	0.136
1026	0.136
1026	0.136
1026	0.136
1027	0.136
1027	0.136
1028	0.136
1028	0.136
1028	0.136
1029	0.136
1029	0.136
1030	0.136
1030	0.136
1031	0.136
1031	0.136
1031	0.136
1032	0.136
1032	0.136
1033	0.136
1033	0.136
1033	0.136
1034	0.136
1034	0.136
1035	0.135
1035	0.135
1036	0.135
1036	0.135
1036	0.135
1037	0.134
1037	0.134
1038	0.134
1038	0.133
1039	0.133
1039	0.133
1039	0.133
1040	0.132
1040	0.132
1041	0.132
1041	0.132
1041	0.131
1042	0.131
1042	0.131
1043	0.131
1043	0.131
1044	0.13
1044	0.13
1044	0.13
1045	0.13
1045	0.129
1046	0.129
1046	0.129
1046	0.129
1047	0.129
1047	0.129
1048	0.128
1048	0.128
1049	0.128
1049	0.128
1049	0.128
1050	0.128
1050	0.128
1051	0.127
1051	0.127
1051	0.126
1052	0.126
1052	0.125
1053	0.124
1053	0.123
1053	0.122
1054	0.121
1054	0.121
1055	0.121
1055	0.12
1056	0.119
1056	0.119
1056	0.118
1057	0.117
1057	0.117
1058	0.116
1058	0.115
1058	0.114
1059	0.114
1059	0.113
1060	0.112
1060	0.112
1061	0.111
1061	0.111
1061	0.111
1062	0.11
1062	0.11
1063	0.109
1063	0.109
1063	0.109
1064	0.109
1064	0.109
1065	0.108
1065	0.108
1066	0.108
1066	0.107
1066	0.107
1067	0.106
1067	0.106
1068	0.106
1068	0.105
1068	0.105
1069	0.104
1069	0.104
1070	0.104
1070	0.103
1071	0.103
1071	0.102
1071	0.102
1072	0.101
1072	0.1
1073	0.1
1073	0.099
1073	0.099
1074	0.099
1074	0.099
1075	0.099
1075	0.099
1076	0.1
1076	0.1
1076	0.1
1077	0.101
1077	0.101
1078	0.101
1078	0.1
1078	0.1
1079	0.1
1079	0.099
1080	0.098
1080	0.098
1080	0.097
1081	0.097
1081	0.097
1082	0.098
1082	0.098
1083	0.098
1083	0.097
1083	0.097
1084	0.097
1084	0.097
1085	0.097
1085	0.097
1085	0.097
1086	0.097
1086	0.096
1087	0.096
1087	0.095
1088	0.095
1088	0.095
1088	0.095
1089	0.094
1089	0.094
1090	0.092
1090	0.092
1090	0.091
1091	0.091
1091	0.091
1092	0.091
1092	0.091
1092	0.09
1093	0.09
1093	0.09
1094	0.09
1094	0.09
1095	0.09
1095	0.09
1095	0.089
1096	0.088
1096	0.087
1097	0.086
1097	0.085
1097	0.084
1098	0.083
1098	0.082
1099	0.08
1099	0.078
1100	0.077
1100	0.075
1100	0.073
1101	0.072
1101	0.072
1102	0.07
1102	0.069
1102	0.067
1103	0.066
1103	0.066
1104	0.066
1104	0.065
1104	0.065
1105	0.063
1105	0.062
1106	0.06
1106	0.058
1107	0.057
1107	0.058
1107	0.058
1108	0.057
1108	0.056
1109	0.055
1109	0.055
1109	0.056
1110	0.057
1110	0.059
1111	0.062
1111	0.062
