Data from reversibility-20sec_Absorbance__3052__000000000003052.txt Node

Date: Wed Dec 06 05:10:25 CET 2023
User: Marek
Spectrometer: MAYP115816
Trigger mode: 0
Integration Time (sec): 2.000000E-1
Scans to average: 10
Electric dark correction enabled: true
Nonlinearity correction enabled: true
Boxcar width: 5
XAxis mode: Wavelengths
Number of Pixels in Spectrum: 2068
>>>>>Begin Spectral Data<<<<<
199	-0.153
199	-0.124
200	-0.062
200	-0.009
201	0.021
201	0.038
202	0.048
202	0.056
203	0.063
203	0.065
204	0.079
204	0.09
205	0.101
205	0.107
205	0.105
206	0.103
206	0.105
207	0.107
207	0.106
208	0.105
208	0.107
209	0.109
209	0.109
210	0.11
210	0.11
211	0.111
211	0.113
212	0.11
212	0.114
213	0.118
213	0.118
213	0.118
214	0.12
214	0.122
215	0.124
215	0.124
216	0.126
216	0.124
217	0.128
217	0.128
218	0.127
218	0.134
219	0.137
219	0.137
220	0.137
220	0.137
221	0.139
221	0.14
221	0.147
222	0.152
222	0.157
223	0.164
223	0.167
224	0.175
224	0.186
225	0.197
225	0.209
226	0.221
226	0.231
227	0.243
227	0.255
228	0.271
228	0.288
229	0.305
229	0.33
229	0.353
230	0.377
230	0.406
231	0.437
231	0.478
232	0.513
232	0.556
233	0.598
233	0.646
234	0.693
234	0.744
235	0.798
235	0.851
236	0.904
236	0.96
236	1.012
237	1.066
237	1.118
238	1.169
238	1.218
239	1.269
239	1.313
240	1.357
240	1.398
241	1.435
241	1.472
242	1.507
242	1.546
243	1.579
243	1.608
243	1.636
244	1.66
244	1.684
245	1.705
245	1.728
246	1.753
246	1.773
247	1.789
247	1.802
248	1.82
248	1.835
249	1.847
249	1.859
250	1.872
250	1.886
250	1.893
251	1.899
251	1.905
252	1.914
252	1.919
253	1.921
253	1.924
254	1.926
254	1.93
255	1.93
255	1.929
256	1.93
256	1.932
257	1.933
257	1.931
258	1.933
258	1.935
258	1.936
259	1.938
259	1.939
260	1.94
260	1.942
261	1.944
261	1.948
262	1.954
262	1.959
263	1.963
263	1.965
264	1.968
264	1.969
265	1.97
265	1.972
265	1.974
266	1.976
266	1.978
267	1.977
267	1.98
268	1.978
268	1.98
269	1.983
269	1.986
270	1.988
270	1.986
271	1.985
271	1.985
272	1.981
272	1.977
272	1.973
273	1.967
273	1.959
274	1.952
274	1.945
275	1.937
275	1.932
276	1.924
276	1.916
277	1.909
277	1.899
278	1.888
278	1.878
278	1.863
279	1.846
279	1.824
280	1.798
280	1.766
281	1.728
281	1.686
282	1.642
282	1.599
283	1.555
283	1.511
284	1.47
284	1.43
285	1.392
285	1.357
285	1.326
286	1.299
286	1.275
287	1.254
287	1.235
288	1.22
288	1.207
289	1.195
289	1.185
290	1.176
290	1.169
291	1.162
291	1.156
292	1.151
292	1.146
292	1.141
293	1.137
293	1.133
294	1.129
294	1.126
295	1.122
295	1.119
296	1.115
296	1.112
297	1.109
297	1.105
298	1.102
298	1.099
298	1.095
299	1.092
299	1.089
300	1.086
300	1.083
301	1.08
301	1.076
302	1.073
302	1.071
303	1.068
303	1.065
304	1.062
304	1.06
305	1.057
305	1.054
305	1.051
306	1.049
306	1.046
307	1.043
307	1.04
308	1.037
308	1.034
309	1.031
309	1.028
310	1.025
310	1.022
311	1.018
311	1.014
311	1.011
312	1.007
312	1.003
313	1
313	0.996
314	0.991
314	0.987
315	0.982
315	0.978
316	0.973
316	0.969
317	0.964
317	0.959
318	0.953
318	0.948
318	0.943
319	0.937
319	0.931
320	0.925
320	0.919
321	0.913
321	0.907
322	0.9
322	0.894
323	0.887
323	0.881
324	0.874
324	0.867
324	0.86
325	0.853
325	0.846
326	0.838
326	0.832
327	0.825
327	0.818
328	0.811
328	0.803
329	0.796
329	0.789
330	0.782
330	0.775
330	0.767
331	0.76
331	0.753
332	0.746
332	0.739
333	0.732
333	0.725
334	0.718
334	0.711
335	0.704
335	0.697
336	0.69
336	0.683
336	0.676
337	0.67
337	0.664
338	0.657
338	0.651
339	0.645
339	0.639
340	0.633
340	0.627
341	0.621
341	0.615
342	0.61
342	0.604
342	0.599
343	0.593
343	0.588
344	0.583
344	0.578
345	0.573
345	0.569
346	0.564
346	0.56
347	0.555
347	0.551
348	0.547
348	0.542
348	0.539
349	0.535
349	0.531
350	0.527
350	0.524
351	0.52
351	0.517
352	0.513
352	0.51
353	0.507
353	0.504
354	0.501
354	0.498
354	0.495
355	0.492
355	0.489
356	0.486
356	0.483
357	0.48
357	0.477
358	0.474
358	0.471
359	0.469
359	0.466
360	0.464
360	0.462
360	0.459
361	0.457
361	0.455
362	0.453
362	0.452
363	0.449
363	0.447
364	0.445
364	0.443
365	0.441
365	0.439
366	0.437
366	0.436
366	0.434
367	0.432
367	0.43
368	0.428
368	0.426
369	0.425
369	0.423
370	0.421
370	0.42
371	0.418
371	0.416
372	0.415
372	0.414
372	0.412
373	0.411
373	0.41
374	0.409
374	0.408
375	0.407
375	0.406
376	0.404
376	0.403
377	0.402
377	0.401
378	0.399
378	0.398
378	0.397
379	0.396
379	0.395
380	0.394
380	0.393
381	0.392
381	0.391
382	0.39
382	0.389
383	0.388
383	0.387
383	0.387
384	0.386
384	0.385
385	0.384
385	0.384
386	0.383
386	0.382
387	0.382
387	0.381
388	0.38
388	0.38
389	0.379
389	0.378
389	0.378
390	0.377
390	0.376
391	0.376
391	0.375
392	0.374
392	0.374
393	0.373
393	0.373
394	0.372
394	0.371
394	0.371
395	0.37
395	0.37
396	0.369
396	0.368
397	0.368
397	0.367
398	0.367
398	0.366
399	0.366
399	0.365
400	0.365
400	0.364
400	0.363
401	0.363
401	0.362
402	0.362
402	0.361
403	0.361
403	0.36
404	0.359
404	0.359
405	0.359
405	0.358
405	0.358
406	0.357
406	0.357
407	0.356
407	0.356
408	0.356
408	0.356
409	0.355
409	0.355
410	0.354
410	0.354
411	0.353
411	0.353
411	0.353
412	0.352
412	0.352
413	0.351
413	0.351
414	0.351
414	0.35
415	0.35
415	0.349
416	0.349
416	0.349
416	0.348
417	0.348
417	0.348
418	0.347
418	0.347
419	0.346
419	0.345
420	0.345
420	0.344
421	0.344
421	0.343
421	0.343
422	0.343
422	0.342
423	0.342
423	0.341
424	0.341
424	0.341
425	0.34
425	0.34
426	0.34
426	0.339
427	0.339
427	0.339
427	0.338
428	0.338
428	0.338
429	0.337
429	0.337
430	0.337
430	0.336
431	0.336
431	0.336
432	0.336
432	0.336
432	0.335
433	0.335
433	0.335
434	0.335
434	0.335
435	0.335
435	0.335
436	0.334
436	0.334
437	0.334
437	0.334
437	0.334
438	0.333
438	0.333
439	0.333
439	0.333
440	0.332
440	0.332
441	0.332
441	0.332
442	0.331
442	0.331
442	0.331
443	0.331
443	0.331
444	0.33
444	0.33
445	0.33
445	0.33
446	0.33
446	0.33
447	0.329
447	0.329
447	0.329
448	0.329
448	0.329
449	0.329
449	0.329
450	0.329
450	0.329
451	0.329
451	0.329
452	0.329
452	0.329
452	0.329
453	0.329
453	0.329
454	0.329
454	0.329
455	0.329
455	0.329
456	0.329
456	0.329
457	0.329
457	0.329
458	0.328
458	0.329
458	0.329
459	0.329
459	0.329
460	0.329
460	0.329
461	0.329
461	0.329
462	0.329
462	0.329
463	0.329
463	0.329
463	0.329
464	0.33
464	0.329
465	0.329
465	0.329
466	0.33
466	0.33
467	0.33
467	0.33
467	0.33
468	0.331
468	0.331
469	0.331
469	0.332
470	0.333
470	0.333
471	0.333
471	0.334
472	0.334
472	0.335
472	0.335
473	0.336
473	0.336
474	0.337
474	0.337
475	0.337
475	0.338
476	0.338
476	0.339
477	0.339
477	0.34
477	0.34
478	0.341
478	0.341
479	0.342
479	0.343
480	0.343
480	0.344
481	0.345
481	0.345
482	0.346
482	0.346
482	0.347
483	0.349
483	0.35
484	0.351
484	0.352
485	0.352
485	0.353
486	0.354
486	0.355
487	0.356
487	0.357
487	0.357
488	0.358
488	0.359
489	0.36
489	0.362
490	0.363
490	0.364
491	0.366
491	0.367
492	0.368
492	0.37
492	0.371
493	0.373
493	0.374
494	0.376
494	0.377
495	0.379
495	0.38
496	0.382
496	0.383
496	0.385
497	0.386
497	0.387
498	0.389
498	0.39
499	0.391
499	0.393
500	0.394
500	0.396
501	0.398
501	0.399
501	0.4
502	0.402
502	0.403
503	0.405
503	0.406
504	0.408
504	0.409
505	0.411
505	0.412
506	0.413
506	0.414
506	0.416
507	0.417
507	0.418
508	0.42
508	0.421
509	0.422
509	0.424
510	0.425
510	0.426
511	0.427
511	0.429
511	0.43
512	0.431
512	0.432
513	0.433
513	0.434
514	0.435
514	0.436
515	0.437
515	0.438
515	0.439
516	0.439
516	0.44
517	0.441
517	0.441
518	0.442
518	0.442
519	0.442
519	0.443
520	0.443
520	0.443
520	0.443
521	0.443
521	0.444
522	0.443
522	0.443
523	0.443
523	0.443
524	0.442
524	0.442
524	0.442
525	0.441
525	0.441
526	0.44
526	0.439
527	0.439
527	0.438
528	0.437
528	0.436
529	0.435
529	0.434
529	0.433
530	0.432
530	0.431
531	0.43
531	0.428
532	0.427
532	0.425
533	0.424
533	0.422
533	0.42
534	0.418
534	0.417
535	0.415
535	0.413
536	0.411
536	0.409
537	0.408
537	0.406
538	0.403
538	0.401
538	0.4
539	0.398
539	0.396
540	0.394
540	0.392
541	0.39
541	0.388
542	0.386
542	0.384
542	0.382
543	0.379
543	0.377
544	0.375
544	0.372
545	0.37
545	0.368
546	0.366
546	0.363
547	0.36
547	0.358
547	0.355
548	0.353
548	0.35
549	0.348
549	0.345
550	0.343
550	0.341
551	0.338
551	0.335
551	0.333
552	0.331
552	0.329
553	0.326
553	0.324
554	0.322
554	0.32
555	0.317
555	0.315
556	0.312
556	0.31
556	0.308
557	0.306
557	0.304
558	0.302
558	0.3
559	0.297
559	0.295
560	0.293
560	0.291
560	0.289
561	0.287
561	0.285
562	0.283
562	0.28
563	0.278
563	0.275
564	0.273
564	0.271
564	0.269
565	0.267
565	0.265
566	0.263
566	0.261
567	0.259
567	0.258
568	0.256
568	0.254
568	0.252
569	0.251
569	0.248
570	0.246
570	0.244
571	0.243
571	0.241
572	0.24
572	0.238
573	0.236
573	0.235
573	0.233
574	0.232
574	0.231
575	0.23
575	0.229
576	0.227
576	0.226
577	0.224
577	0.222
577	0.221
578	0.219
578	0.218
579	0.217
579	0.216
580	0.214
580	0.212
581	0.211
581	0.21
581	0.209
582	0.208
582	0.208
583	0.207
583	0.206
584	0.204
584	0.202
585	0.201
585	0.199
585	0.198
586	0.197
586	0.196
587	0.194
587	0.193
588	0.192
588	0.19
589	0.189
589	0.189
590	0.188
590	0.187
590	0.187
591	0.186
591	0.184
592	0.183
592	0.182
593	0.181
593	0.18
594	0.179
594	0.177
594	0.176
595	0.175
595	0.174
596	0.173
596	0.172
597	0.172
597	0.172
598	0.171
598	0.171
598	0.171
599	0.17
599	0.17
600	0.169
600	0.168
601	0.167
601	0.167
602	0.165
602	0.164
602	0.163
603	0.163
603	0.162
604	0.161
604	0.161
605	0.161
605	0.16
606	0.159
606	0.158
606	0.157
607	0.157
607	0.156
608	0.155
608	0.154
609	0.153
609	0.153
610	0.152
610	0.151
610	0.15
611	0.15
611	0.15
612	0.149
612	0.149
613	0.149
613	0.149
614	0.148
614	0.147
614	0.147
615	0.147
615	0.146
616	0.146
616	0.145
617	0.145
617	0.144
618	0.144
618	0.143
618	0.143
619	0.143
619	0.143
620	0.143
620	0.143
621	0.142
621	0.141
622	0.141
622	0.14
622	0.139
623	0.138
623	0.138
624	0.137
624	0.136
625	0.136
625	0.135
626	0.135
626	0.134
626	0.134
627	0.134
627	0.134
628	0.133
628	0.133
629	0.133
629	0.132
630	0.131
630	0.131
630	0.131
631	0.131
631	0.13
632	0.129
632	0.129
633	0.129
633	0.128
634	0.128
634	0.129
634	0.129
635	0.128
635	0.128
636	0.127
636	0.127
637	0.127
637	0.126
638	0.126
638	0.125
638	0.124
639	0.123
639	0.123
640	0.122
640	0.122
641	0.122
641	0.121
642	0.121
642	0.122
642	0.122
643	0.122
643	0.122
644	0.122
644	0.122
645	0.122
645	0.122
646	0.122
646	0.122
646	0.121
647	0.121
647	0.121
648	0.12
648	0.119
649	0.119
649	0.119
650	0.119
650	0.118
650	0.118
651	0.118
651	0.118
652	0.117
652	0.117
653	0.118
653	0.119
653	0.124
654	0.099
654	0.08
655	0.079
655	0.079
656	0.079
656	0.079
657	0.08
657	0.08
657	0.08
658	0.079
658	0.071
659	0.088
659	0.111
660	0.116
660	0.116
661	0.115
661	0.115
661	0.114
662	0.113
662	0.113
663	0.112
663	0.111
664	0.111
664	0.11
665	0.11
665	0.11
665	0.11
666	0.109
666	0.109
667	0.109
667	0.11
668	0.11
668	0.11
669	0.109
669	0.109
669	0.11
670	0.11
670	0.11
671	0.109
671	0.109
672	0.109
672	0.108
672	0.108
673	0.107
673	0.107
674	0.107
674	0.106
675	0.106
675	0.105
676	0.106
676	0.106
676	0.105
677	0.105
677	0.105
678	0.105
678	0.105
679	0.104
679	0.104
680	0.104
680	0.103
680	0.103
681	0.102
681	0.102
682	0.102
682	0.102
683	0.103
683	0.103
684	0.103
684	0.103
684	0.103
685	0.103
685	0.104
686	0.104
686	0.104
687	0.104
687	0.104
687	0.104
688	0.104
688	0.104
689	0.104
689	0.105
690	0.104
690	0.104
691	0.104
691	0.103
691	0.103
692	0.103
692	0.103
693	0.103
693	0.103
694	0.102
694	0.102
695	0.102
695	0.103
695	0.103
696	0.103
696	0.103
697	0.103
697	0.103
698	0.102
698	0.102
698	0.102
699	0.102
699	0.102
700	0.101
700	0.101
701	0.101
701	0.1
702	0.099
702	0.099
702	0.099
703	0.098
703	0.098
704	0.097
704	0.097
705	0.097
705	0.096
705	0.096
706	0.096
706	0.095
707	0.095
707	0.095
708	0.095
708	0.095
709	0.095
709	0.095
709	0.094
710	0.094
710	0.094
711	0.094
711	0.094
712	0.094
712	0.094
713	0.094
713	0.093
713	0.093
714	0.093
714	0.093
715	0.093
715	0.092
716	0.092
716	0.092
716	0.091
717	0.09
717	0.089
718	0.088
718	0.088
719	0.088
719	0.088
720	0.088
720	0.088
720	0.088
721	0.088
721	0.089
722	0.089
722	0.09
723	0.09
723	0.09
723	0.09
724	0.09
724	0.09
725	0.09
725	0.089
726	0.088
726	0.088
727	0.087
727	0.086
727	0.086
728	0.085
728	0.085
729	0.085
729	0.085
730	0.085
730	0.085
730	0.085
731	0.086
731	0.086
732	0.086
732	0.087
733	0.087
733	0.087
734	0.086
734	0.086
734	0.086
735	0.086
735	0.085
736	0.085
736	0.085
737	0.084
737	0.084
737	0.083
738	0.082
738	0.082
739	0.081
739	0.081
740	0.081
740	0.081
741	0.081
741	0.081
741	0.081
742	0.08
742	0.081
743	0.081
743	0.082
744	0.082
744	0.082
744	0.082
745	0.082
745	0.082
746	0.082
746	0.082
747	0.082
747	0.082
748	0.082
748	0.082
748	0.083
749	0.083
749	0.083
750	0.083
750	0.083
751	0.083
751	0.083
751	0.083
752	0.082
752	0.081
753	0.081
753	0.08
754	0.079
754	0.078
754	0.077
755	0.076
755	0.076
756	0.075
756	0.074
757	0.074
757	0.074
758	0.074
758	0.073
758	0.074
759	0.074
759	0.073
760	0.073
760	0.073
761	0.073
761	0.074
761	0.074
762	0.074
762	0.074
763	0.074
763	0.073
764	0.073
764	0.073
764	0.073
765	0.072
765	0.072
766	0.072
766	0.071
767	0.071
767	0.07
768	0.069
768	0.069
768	0.069
769	0.069
769	0.069
770	0.069
770	0.07
771	0.07
771	0.07
771	0.071
772	0.071
772	0.072
773	0.072
773	0.072
774	0.072
774	0.073
775	0.073
775	0.073
775	0.073
776	0.073
776	0.073
777	0.073
777	0.073
778	0.073
778	0.072
778	0.072
779	0.071
779	0.071
780	0.07
780	0.069
781	0.068
781	0.068
781	0.068
782	0.067
782	0.067
783	0.067
783	0.067
784	0.066
784	0.066
784	0.067
785	0.067
785	0.067
786	0.067
786	0.067
787	0.067
787	0.067
788	0.067
788	0.067
788	0.066
789	0.066
789	0.066
790	0.065
790	0.065
791	0.064
791	0.064
791	0.063
792	0.064
792	0.063
793	0.063
793	0.063
794	0.063
794	0.063
794	0.063
795	0.063
795	0.064
796	0.064
796	0.064
797	0.064
797	0.064
797	0.065
798	0.065
798	0.065
799	0.065
799	0.065
800	0.064
800	0.063
801	0.063
801	0.062
801	0.062
802	0.061
802	0.061
803	0.061
803	0.061
804	0.061
804	0.061
804	0.061
805	0.061
805	0.061
806	0.062
806	0.062
807	0.062
807	0.062
807	0.062
808	0.062
808	0.062
809	0.062
809	0.062
810	0.062
810	0.062
810	0.062
811	0.062
811	0.062
812	0.062
812	0.062
813	0.061
813	0.061
813	0.061
814	0.062
814	0.062
815	0.062
815	0.062
816	0.062
816	0.061
817	0.061
817	0.061
817	0.06
818	0.06
818	0.06
819	0.059
819	0.059
820	0.058
820	0.058
820	0.058
821	0.058
821	0.058
822	0.058
822	0.058
823	0.058
823	0.059
823	0.06
824	0.061
824	0.062
825	0.063
825	0.063
826	0.064
826	0.064
826	0.064
827	0.065
827	0.065
828	0.065
828	0.064
829	0.064
829	0.064
829	0.064
830	0.064
830	0.064
831	0.065
831	0.065
832	0.065
832	0.066
832	0.066
833	0.066
833	0.066
834	0.066
834	0.066
835	0.066
835	0.065
835	0.065
836	0.065
836	0.065
837	0.064
837	0.064
838	0.063
838	0.062
839	0.062
839	0.061
839	0.06
840	0.059
840	0.058
841	0.056
841	0.055
842	0.054
842	0.054
842	0.053
843	0.053
843	0.052
844	0.053
844	0.053
845	0.053
845	0.053
845	0.054
846	0.054
846	0.055
847	0.055
847	0.055
848	0.056
848	0.056
848	0.056
849	0.056
849	0.055
850	0.055
850	0.054
851	0.054
851	0.054
851	0.053
852	0.052
852	0.052
853	0.051
853	0.051
854	0.051
854	0.052
854	0.053
855	0.054
855	0.055
856	0.056
856	0.058
857	0.059
857	0.06
857	0.06
858	0.061
858	0.06
859	0.06
859	0.059
860	0.058
860	0.057
860	0.056
861	0.055
861	0.054
862	0.053
862	0.052
863	0.051
863	0.051
863	0.051
864	0.051
864	0.051
865	0.051
865	0.051
866	0.051
866	0.051
866	0.051
867	0.051
867	0.051
868	0.051
868	0.051
869	0.051
869	0.051
869	0.05
870	0.05
870	0.05
871	0.05
871	0.05
872	0.05
872	0.05
872	0.051
873	0.051
873	0.051
874	0.051
874	0.051
875	0.051
875	0.051
875	0.051
876	0.051
876	0.05
877	0.051
877	0.051
878	0.051
878	0.051
878	0.052
879	0.052
879	0.053
880	0.053
880	0.054
881	0.054
881	0.054
881	0.054
882	0.054
882	0.054
883	0.054
883	0.054
884	0.054
884	0.053
884	0.053
885	0.053
885	0.053
886	0.052
886	0.052
887	0.051
887	0.051
887	0.05
888	0.049
888	0.048
889	0.048
889	0.047
890	0.047
890	0.047
890	0.046
891	0.046
891	0.046
892	0.045
892	0.045
893	0.044
893	0.044
893	0.044
894	0.043
894	0.043
895	0.043
895	0.043
895	0.043
896	0.043
896	0.043
897	0.043
897	0.043
898	0.043
898	0.043
898	0.043
899	0.044
899	0.044
900	0.044
900	0.045
901	0.045
901	0.046
901	0.046
902	0.047
902	0.047
903	0.047
903	0.047
904	0.047
904	0.047
904	0.047
905	0.047
905	0.047
906	0.048
906	0.048
907	0.049
907	0.05
907	0.05
908	0.051
908	0.052
909	0.053
909	0.053
910	0.054
910	0.054
910	0.054
911	0.053
911	0.053
912	0.052
912	0.052
913	0.051
913	0.051
913	0.05
914	0.05
914	0.049
915	0.049
915	0.049
916	0.048
916	0.048
916	0.048
917	0.048
917	0.048
918	0.047
918	0.047
918	0.046
919	0.046
919	0.045
920	0.045
920	0.044
921	0.044
921	0.043
921	0.043
922	0.042
922	0.042
923	0.042
923	0.042
924	0.042
924	0.042
924	0.042
925	0.042
925	0.043
926	0.043
926	0.043
927	0.043
927	0.044
927	0.044
928	0.044
928	0.045
929	0.045
929	0.046
930	0.046
930	0.046
930	0.046
931	0.047
931	0.047
932	0.047
932	0.048
933	0.048
933	0.048
933	0.049
934	0.049
934	0.05
935	0.05
935	0.051
935	0.051
936	0.052
936	0.052
937	0.052
937	0.052
938	0.052
938	0.052
938	0.051
939	0.051
939	0.05
940	0.049
940	0.049
941	0.049
941	0.048
941	0.048
942	0.048
942	0.048
943	0.048
943	0.048
944	0.048
944	0.048
944	0.048
945	0.048
945	0.048
946	0.048
946	0.048
946	0.049
947	0.049
947	0.049
948	0.049
948	0.049
949	0.049
949	0.049
949	0.048
950	0.048
950	0.048
951	0.047
951	0.046
952	0.046
952	0.045
952	0.044
953	0.044
953	0.043
954	0.043
954	0.042
955	0.042
955	0.042
955	0.042
956	0.042
956	0.042
957	0.043
957	0.043
957	0.044
958	0.045
958	0.045
959	0.046
959	0.046
960	0.047
960	0.047
960	0.048
961	0.048
961	0.048
962	0.049
962	0.049
963	0.049
963	0.049
963	0.049
964	0.049
964	0.05
965	0.05
965	0.05
966	0.051
966	0.051
966	0.052
967	0.052
967	0.053
968	0.053
968	0.053
968	0.053
969	0.053
969	0.052
970	0.052
970	0.051
971	0.05
971	0.05
971	0.049
972	0.048
972	0.047
973	0.047
973	0.047
974	0.046
974	0.046
974	0.046
975	0.047
975	0.047
976	0.047
976	0.047
976	0.047
977	0.047
977	0.047
978	0.046
978	0.046
979	0.045
979	0.045
979	0.044
980	0.044
980	0.043
981	0.042
981	0.042
982	0.042
982	0.042
982	0.042
983	0.042
983	0.042
984	0.042
984	0.042
984	0.042
985	0.042
985	0.042
986	0.042
986	0.042
987	0.042
987	0.041
987	0.041
988	0.041
988	0.041
989	0.041
989	0.041
990	0.041
990	0.041
990	0.041
991	0.041
991	0.042
992	0.042
992	0.042
992	0.042
993	0.042
993	0.042
994	0.042
994	0.042
995	0.042
995	0.042
995	0.042
996	0.042
996	0.042
997	0.042
997	0.042
997	0.042
998	0.042
998	0.042
999	0.043
999	0.043
1000	0.043
1000	0.043
1000	0.043
1001	0.042
1001	0.042
1002	0.042
1002	0.042
1003	0.042
1003	0.041
1003	0.041
1004	0.04
1004	0.04
1005	0.039
1005	0.039
1005	0.039
1006	0.038
1006	0.038
1007	0.038
1007	0.037
1008	0.037
1008	0.037
1008	0.037
1009	0.037
1009	0.037
1010	0.038
1010	0.038
1010	0.038
1011	0.039
1011	0.039
1012	0.039
1012	0.039
1013	0.039
1013	0.039
1013	0.039
1014	0.039
1014	0.039
1015	0.038
1015	0.038
1016	0.038
1016	0.038
1016	0.037
1017	0.037
1017	0.037
1018	0.037
1018	0.037
1018	0.037
1019	0.037
1019	0.038
1020	0.038
1020	0.038
1021	0.039
1021	0.039
1021	0.04
1022	0.04
1022	0.04
1023	0.041
1023	0.041
1023	0.042
1024	0.043
1024	0.043
1025	0.043
1025	0.043
1026	0.043
1026	0.043
1026	0.042
1027	0.042
1027	0.042
1028	0.042
1028	0.041
1028	0.041
1029	0.041
1029	0.041
1030	0.041
1030	0.041
1031	0.041
1031	0.041
1031	0.041
1032	0.041
1032	0.041
1033	0.041
1033	0.041
1033	0.04
1034	0.04
1034	0.04
1035	0.04
1035	0.039
1036	0.039
1036	0.039
1036	0.038
1037	0.038
1037	0.038
1038	0.038
1038	0.038
1039	0.038
1039	0.038
1039	0.038
1040	0.038
1040	0.039
1041	0.039
1041	0.039
1041	0.039
1042	0.04
1042	0.04
1043	0.041
1043	0.041
1044	0.041
1044	0.041
1044	0.042
1045	0.042
1045	0.042
1046	0.043
1046	0.043
1046	0.044
1047	0.044
1047	0.045
1048	0.045
1048	0.046
1049	0.047
1049	0.047
1049	0.048
1050	0.048
1050	0.048
1051	0.048
1051	0.048
1051	0.048
1052	0.047
1052	0.047
1053	0.046
1053	0.045
1053	0.045
1054	0.044
1054	0.044
1055	0.044
1055	0.043
1056	0.042
1056	0.042
1056	0.042
1057	0.041
1057	0.041
1058	0.04
1058	0.04
1058	0.039
1059	0.039
1059	0.039
1060	0.038
1060	0.038
1061	0.038
1061	0.038
1061	0.038
1062	0.038
1062	0.038
1063	0.038
1063	0.038
1063	0.038
1064	0.038
1064	0.038
1065	0.037
1065	0.037
1066	0.037
1066	0.036
1066	0.036
1067	0.035
1067	0.034
1068	0.034
1068	0.034
1068	0.033
1069	0.033
1069	0.032
1070	0.032
1070	0.031
1071	0.03
1071	0.03
1071	0.029
1072	0.029
1072	0.028
1073	0.028
1073	0.027
1073	0.027
1074	0.027
1074	0.027
1075	0.027
1075	0.027
1076	0.028
1076	0.028
1076	0.028
1077	0.029
1077	0.029
1078	0.029
1078	0.029
1078	0.029
1079	0.029
1079	0.029
1080	0.029
1080	0.029
1080	0.029
1081	0.029
1081	0.029
1082	0.03
1082	0.031
1083	0.031
1083	0.031
1083	0.032
1084	0.032
1084	0.032
1085	0.032
1085	0.033
1085	0.033
1086	0.033
1086	0.033
1087	0.032
1087	0.032
1088	0.032
1088	0.032
1088	0.032
1089	0.032
1089	0.032
1090	0.031
1090	0.031
1090	0.03
1091	0.03
1091	0.03
1092	0.03
1092	0.031
1092	0.031
1093	0.03
1093	0.03
1094	0.03
1094	0.029
1095	0.029
1095	0.03
1095	0.029
1096	0.029
1096	0.028
1097	0.028
1097	0.027
1097	0.028
1098	0.028
1098	0.027
1099	0.027
1099	0.026
1100	0.025
1100	0.024
1100	0.023
1101	0.023
1101	0.022
1102	0.021
1102	0.02
1102	0.019
1103	0.018
1103	0.018
1104	0.019
1104	0.019
1104	0.019
1105	0.018
1105	0.017
1106	0.016
1106	0.015
1107	0.014
1107	0.013
1107	0.012
1108	0.01
1108	0.009
1109	0.007
1109	0.005
1109	0.005
1110	0.007
1110	0.007
1111	0.004
1111	0.003
