Data from reversibility-20sec_Absorbance__4544__000000000004544.txt Node

Date: Wed Dec 06 13:27:45 CET 2023
User: Marek
Spectrometer: MAYP115816
Trigger mode: 0
Integration Time (sec): 2.000000E-1
Scans to average: 10
Electric dark correction enabled: true
Nonlinearity correction enabled: true
Boxcar width: 5
XAxis mode: Wavelengths
Number of Pixels in Spectrum: 2068
>>>>>Begin Spectral Data<<<<<
199	-0.217
199	-0.19
200	-0.118
200	-0.063
201	-0.034
201	-0.015
202	-0
202	0.007
203	0.014
203	0.018
204	0.031
204	0.045
205	0.059
205	0.062
205	0.061
206	0.062
206	0.061
207	0.062
207	0.063
208	0.064
208	0.063
209	0.067
209	0.066
210	0.066
210	0.069
211	0.069
211	0.071
212	0.067
212	0.067
213	0.071
213	0.073
213	0.075
214	0.078
214	0.079
215	0.082
215	0.082
216	0.084
216	0.081
217	0.088
217	0.091
218	0.089
218	0.092
219	0.094
219	0.095
220	0.096
220	0.093
221	0.092
221	0.094
221	0.101
222	0.106
222	0.11
223	0.115
223	0.117
224	0.123
224	0.13
225	0.139
225	0.153
226	0.165
226	0.177
227	0.186
227	0.195
228	0.21
228	0.224
229	0.243
229	0.268
229	0.291
230	0.315
230	0.344
231	0.374
231	0.414
232	0.453
232	0.5
233	0.541
233	0.591
234	0.641
234	0.691
235	0.745
235	0.797
236	0.847
236	0.9
236	0.948
237	0.997
237	1.045
238	1.094
238	1.138
239	1.184
239	1.229
240	1.267
240	1.306
241	1.34
241	1.374
242	1.407
242	1.442
243	1.471
243	1.498
243	1.525
244	1.547
244	1.566
245	1.587
245	1.608
246	1.629
246	1.647
247	1.659
247	1.674
248	1.686
248	1.7
249	1.711
249	1.721
250	1.731
250	1.739
250	1.745
251	1.75
251	1.754
252	1.761
252	1.763
253	1.765
253	1.765
254	1.765
254	1.766
255	1.765
255	1.765
256	1.763
256	1.764
257	1.765
257	1.764
258	1.765
258	1.765
258	1.763
259	1.764
259	1.763
260	1.762
260	1.764
261	1.765
261	1.767
262	1.767
262	1.767
263	1.769
263	1.769
264	1.77
264	1.77
265	1.772
265	1.773
265	1.772
266	1.772
266	1.772
267	1.771
267	1.772
268	1.77
268	1.77
269	1.773
269	1.771
270	1.77
270	1.768
271	1.766
271	1.765
272	1.763
272	1.763
272	1.762
273	1.759
273	1.755
274	1.749
274	1.745
275	1.74
275	1.735
276	1.729
276	1.722
277	1.715
277	1.705
278	1.695
278	1.683
278	1.672
279	1.659
279	1.643
280	1.624
280	1.601
281	1.573
281	1.542
282	1.509
282	1.474
283	1.44
283	1.404
284	1.369
284	1.334
285	1.302
285	1.271
285	1.244
286	1.219
286	1.198
287	1.178
287	1.161
288	1.146
288	1.133
289	1.122
289	1.113
290	1.104
290	1.097
291	1.09
291	1.084
292	1.079
292	1.074
292	1.069
293	1.064
293	1.06
294	1.056
294	1.053
295	1.049
295	1.046
296	1.042
296	1.038
297	1.035
297	1.032
298	1.028
298	1.025
298	1.022
299	1.019
299	1.016
300	1.012
300	1.01
301	1.007
301	1.004
302	1.001
302	0.998
303	0.996
303	0.993
304	0.99
304	0.988
305	0.985
305	0.982
305	0.98
306	0.977
306	0.974
307	0.972
307	0.969
308	0.965
308	0.963
309	0.96
309	0.957
310	0.953
310	0.95
311	0.947
311	0.943
311	0.94
312	0.937
312	0.932
313	0.929
313	0.925
314	0.921
314	0.917
315	0.913
315	0.909
316	0.904
316	0.9
317	0.895
317	0.89
318	0.885
318	0.88
318	0.875
319	0.87
319	0.864
320	0.859
320	0.853
321	0.847
321	0.841
322	0.835
322	0.829
323	0.823
323	0.816
324	0.81
324	0.803
324	0.797
325	0.79
325	0.783
326	0.776
326	0.77
327	0.763
327	0.757
328	0.75
328	0.743
329	0.737
329	0.73
330	0.723
330	0.716
330	0.71
331	0.703
331	0.696
332	0.689
332	0.682
333	0.675
333	0.668
334	0.662
334	0.655
335	0.648
335	0.641
336	0.635
336	0.628
336	0.622
337	0.616
337	0.61
338	0.604
338	0.598
339	0.592
339	0.586
340	0.581
340	0.575
341	0.569
341	0.564
342	0.559
342	0.553
342	0.548
343	0.543
343	0.538
344	0.533
344	0.528
345	0.523
345	0.519
346	0.515
346	0.51
347	0.506
347	0.502
348	0.498
348	0.494
348	0.49
349	0.486
349	0.483
350	0.479
350	0.475
351	0.472
351	0.469
352	0.465
352	0.462
353	0.459
353	0.456
354	0.453
354	0.45
354	0.447
355	0.444
355	0.441
356	0.438
356	0.435
357	0.432
357	0.429
358	0.426
358	0.423
359	0.421
359	0.419
360	0.416
360	0.414
360	0.413
361	0.411
361	0.409
362	0.408
362	0.406
363	0.404
363	0.402
364	0.4
364	0.398
365	0.396
365	0.394
366	0.392
366	0.39
366	0.388
367	0.386
367	0.385
368	0.383
368	0.381
369	0.38
369	0.378
370	0.377
370	0.375
371	0.374
371	0.372
372	0.371
372	0.37
372	0.368
373	0.367
373	0.366
374	0.365
374	0.363
375	0.362
375	0.361
376	0.36
376	0.359
377	0.358
377	0.357
378	0.356
378	0.355
378	0.354
379	0.354
379	0.353
380	0.352
380	0.351
381	0.35
381	0.349
382	0.348
382	0.348
383	0.347
383	0.346
383	0.345
384	0.344
384	0.343
385	0.343
385	0.342
386	0.341
386	0.341
387	0.34
387	0.339
388	0.339
388	0.338
389	0.338
389	0.337
389	0.337
390	0.336
390	0.335
391	0.335
391	0.334
392	0.334
392	0.334
393	0.333
393	0.332
394	0.332
394	0.331
394	0.331
395	0.33
395	0.33
396	0.329
396	0.329
397	0.328
397	0.327
398	0.327
398	0.326
399	0.326
399	0.326
400	0.326
400	0.325
400	0.325
401	0.324
401	0.324
402	0.324
402	0.323
403	0.323
403	0.322
404	0.322
404	0.321
405	0.321
405	0.321
405	0.32
406	0.32
406	0.319
407	0.319
407	0.318
408	0.318
408	0.318
409	0.317
409	0.317
410	0.316
410	0.316
411	0.315
411	0.315
411	0.315
412	0.315
412	0.314
413	0.314
413	0.313
414	0.313
414	0.313
415	0.312
415	0.312
416	0.312
416	0.311
416	0.311
417	0.31
417	0.31
418	0.309
418	0.309
419	0.309
419	0.308
420	0.308
420	0.307
421	0.307
421	0.307
421	0.306
422	0.306
422	0.306
423	0.306
423	0.305
424	0.305
424	0.305
425	0.304
425	0.304
426	0.304
426	0.303
427	0.303
427	0.303
427	0.303
428	0.302
428	0.302
429	0.301
429	0.301
430	0.301
430	0.3
431	0.3
431	0.3
432	0.3
432	0.3
432	0.3
433	0.299
433	0.299
434	0.299
434	0.299
435	0.299
435	0.299
436	0.299
436	0.298
437	0.298
437	0.298
437	0.298
438	0.297
438	0.297
439	0.297
439	0.297
440	0.297
440	0.297
441	0.297
441	0.297
442	0.297
442	0.297
442	0.296
443	0.296
443	0.296
444	0.296
444	0.296
445	0.296
445	0.296
446	0.296
446	0.295
447	0.295
447	0.295
447	0.295
448	0.295
448	0.295
449	0.295
449	0.295
450	0.295
450	0.295
451	0.295
451	0.295
452	0.295
452	0.295
452	0.295
453	0.295
453	0.295
454	0.295
454	0.295
455	0.295
455	0.295
456	0.295
456	0.295
457	0.295
457	0.295
458	0.295
458	0.295
458	0.295
459	0.295
459	0.295
460	0.295
460	0.295
461	0.295
461	0.295
462	0.295
462	0.295
463	0.295
463	0.295
463	0.295
464	0.295
464	0.295
465	0.296
465	0.296
466	0.296
466	0.296
467	0.296
467	0.297
467	0.297
468	0.297
468	0.297
469	0.297
469	0.298
470	0.298
470	0.299
471	0.299
471	0.3
472	0.3
472	0.301
472	0.302
473	0.302
473	0.303
474	0.303
474	0.303
475	0.304
475	0.304
476	0.304
476	0.305
477	0.305
477	0.306
477	0.306
478	0.307
478	0.308
479	0.308
479	0.309
480	0.31
480	0.311
481	0.311
481	0.312
482	0.313
482	0.313
482	0.314
483	0.315
483	0.316
484	0.317
484	0.317
485	0.318
485	0.318
486	0.319
486	0.319
487	0.32
487	0.321
487	0.322
488	0.323
488	0.324
489	0.325
489	0.327
490	0.328
490	0.33
491	0.331
491	0.332
492	0.334
492	0.335
492	0.336
493	0.337
493	0.339
494	0.34
494	0.342
495	0.343
495	0.345
496	0.346
496	0.348
496	0.35
497	0.351
497	0.352
498	0.354
498	0.355
499	0.356
499	0.357
500	0.359
500	0.36
501	0.361
501	0.363
501	0.364
502	0.365
502	0.367
503	0.368
503	0.369
504	0.371
504	0.372
505	0.373
505	0.374
506	0.376
506	0.377
506	0.378
507	0.379
507	0.38
508	0.382
508	0.383
509	0.384
509	0.385
510	0.386
510	0.388
511	0.389
511	0.39
511	0.392
512	0.393
512	0.394
513	0.394
513	0.395
514	0.396
514	0.397
515	0.398
515	0.398
515	0.399
516	0.4
516	0.401
517	0.401
517	0.402
518	0.402
518	0.402
519	0.403
519	0.403
520	0.403
520	0.403
520	0.404
521	0.403
521	0.403
522	0.403
522	0.403
523	0.403
523	0.403
524	0.402
524	0.403
524	0.402
525	0.402
525	0.401
526	0.401
526	0.4
527	0.4
527	0.399
528	0.398
528	0.397
529	0.396
529	0.395
529	0.394
530	0.393
530	0.392
531	0.391
531	0.39
532	0.388
532	0.387
533	0.386
533	0.384
533	0.383
534	0.381
534	0.38
535	0.378
535	0.377
536	0.375
536	0.373
537	0.371
537	0.369
538	0.367
538	0.365
538	0.363
539	0.361
539	0.359
540	0.358
540	0.355
541	0.353
541	0.351
542	0.349
542	0.347
542	0.345
543	0.342
543	0.34
544	0.338
544	0.336
545	0.334
545	0.332
546	0.33
546	0.327
547	0.325
547	0.322
547	0.32
548	0.318
548	0.315
549	0.313
549	0.311
550	0.309
550	0.306
551	0.304
551	0.301
551	0.299
552	0.297
552	0.295
553	0.292
553	0.29
554	0.288
554	0.286
555	0.283
555	0.281
556	0.279
556	0.277
556	0.275
557	0.273
557	0.271
558	0.269
558	0.267
559	0.266
559	0.264
560	0.262
560	0.26
560	0.258
561	0.256
561	0.254
562	0.252
562	0.25
563	0.247
563	0.245
564	0.242
564	0.24
564	0.238
565	0.236
565	0.234
566	0.232
566	0.23
567	0.228
567	0.227
568	0.226
568	0.224
568	0.223
569	0.221
569	0.22
570	0.218
570	0.216
571	0.214
571	0.213
572	0.211
572	0.209
573	0.208
573	0.206
573	0.204
574	0.203
574	0.201
575	0.2
575	0.199
576	0.198
576	0.197
577	0.195
577	0.193
577	0.192
578	0.191
578	0.19
579	0.189
579	0.188
580	0.186
580	0.184
581	0.182
581	0.181
581	0.18
582	0.18
582	0.179
583	0.178
583	0.177
584	0.175
584	0.173
585	0.172
585	0.171
585	0.17
586	0.169
586	0.167
587	0.166
587	0.164
588	0.163
588	0.162
589	0.161
589	0.16
590	0.16
590	0.159
590	0.159
591	0.159
591	0.158
592	0.157
592	0.155
593	0.155
593	0.154
594	0.153
594	0.152
594	0.151
595	0.15
595	0.149
596	0.147
596	0.147
597	0.147
597	0.147
598	0.147
598	0.146
598	0.145
599	0.145
599	0.144
600	0.143
600	0.142
601	0.142
601	0.141
602	0.14
602	0.139
602	0.138
603	0.137
603	0.137
604	0.136
604	0.136
605	0.136
605	0.135
606	0.135
606	0.133
606	0.132
607	0.132
607	0.131
608	0.13
608	0.129
609	0.128
609	0.128
610	0.127
610	0.126
610	0.126
611	0.125
611	0.125
612	0.125
612	0.124
613	0.124
613	0.124
614	0.123
614	0.122
614	0.122
615	0.121
615	0.12
616	0.12
616	0.119
617	0.119
617	0.118
618	0.118
618	0.117
618	0.117
619	0.117
619	0.117
620	0.117
620	0.117
621	0.116
621	0.116
622	0.115
622	0.115
622	0.114
623	0.113
623	0.113
624	0.113
624	0.112
625	0.111
625	0.11
626	0.11
626	0.109
626	0.109
627	0.109
627	0.108
628	0.108
628	0.107
629	0.107
629	0.106
630	0.106
630	0.106
630	0.106
631	0.106
631	0.105
632	0.105
632	0.104
633	0.104
633	0.104
634	0.104
634	0.104
634	0.103
635	0.103
635	0.102
636	0.102
636	0.102
637	0.101
637	0.101
638	0.101
638	0.101
638	0.1
639	0.099
639	0.099
640	0.099
640	0.098
641	0.098
641	0.098
642	0.097
642	0.097
642	0.097
643	0.097
643	0.097
644	0.097
644	0.097
645	0.096
645	0.096
646	0.096
646	0.096
646	0.095
647	0.095
647	0.094
648	0.094
648	0.093
649	0.093
649	0.092
650	0.092
650	0.092
650	0.092
651	0.091
651	0.091
652	0.091
652	0.09
653	0.09
653	0.092
653	0.099
654	0.08
654	0.065
655	0.062
655	0.062
656	0.062
656	0.062
657	0.063
657	0.063
657	0.063
658	0.062
658	0.053
659	0.067
659	0.084
660	0.089
660	0.09
661	0.089
661	0.089
661	0.088
662	0.088
662	0.088
663	0.087
663	0.087
664	0.087
664	0.087
665	0.087
665	0.087
665	0.087
666	0.087
666	0.086
667	0.086
667	0.086
668	0.086
668	0.086
669	0.086
669	0.086
669	0.086
670	0.086
670	0.085
671	0.085
671	0.085
672	0.084
672	0.084
672	0.083
673	0.083
673	0.083
674	0.083
674	0.082
675	0.082
675	0.082
676	0.082
676	0.082
676	0.081
677	0.081
677	0.08
678	0.08
678	0.079
679	0.079
679	0.078
680	0.078
680	0.078
680	0.077
681	0.077
681	0.078
682	0.078
682	0.079
683	0.079
683	0.08
684	0.08
684	0.08
684	0.08
685	0.081
685	0.081
686	0.081
686	0.081
687	0.081
687	0.081
687	0.081
688	0.081
688	0.081
689	0.081
689	0.081
690	0.081
690	0.08
691	0.08
691	0.079
691	0.079
692	0.078
692	0.078
693	0.078
693	0.078
694	0.077
694	0.077
695	0.078
695	0.079
695	0.079
696	0.079
696	0.08
697	0.08
697	0.08
698	0.08
698	0.08
698	0.08
699	0.08
699	0.08
700	0.079
700	0.079
701	0.078
701	0.078
702	0.077
702	0.076
702	0.076
703	0.075
703	0.075
704	0.074
704	0.074
705	0.074
705	0.074
705	0.073
706	0.074
706	0.074
707	0.074
707	0.075
708	0.075
708	0.075
709	0.075
709	0.075
709	0.074
710	0.073
710	0.074
711	0.074
711	0.073
712	0.073
712	0.073
713	0.073
713	0.073
713	0.072
714	0.072
714	0.072
715	0.071
715	0.071
716	0.07
716	0.07
716	0.069
717	0.068
717	0.068
718	0.068
718	0.067
719	0.068
719	0.068
720	0.068
720	0.069
720	0.069
721	0.069
721	0.069
722	0.07
722	0.07
723	0.07
723	0.071
723	0.071
724	0.07
724	0.07
725	0.069
725	0.068
726	0.068
726	0.067
727	0.066
727	0.066
727	0.065
728	0.065
728	0.064
729	0.065
729	0.065
730	0.065
730	0.065
730	0.066
731	0.067
731	0.067
732	0.068
732	0.068
733	0.068
733	0.068
734	0.068
734	0.068
734	0.068
735	0.068
735	0.068
736	0.067
736	0.067
737	0.066
737	0.066
737	0.066
738	0.065
738	0.064
739	0.063
739	0.063
740	0.062
740	0.062
741	0.062
741	0.062
741	0.062
742	0.062
742	0.062
743	0.063
743	0.064
744	0.064
744	0.065
744	0.065
745	0.065
745	0.065
746	0.065
746	0.065
747	0.065
747	0.065
748	0.065
748	0.064
748	0.064
749	0.063
749	0.063
750	0.062
750	0.062
751	0.062
751	0.061
751	0.061
752	0.06
752	0.059
753	0.059
753	0.058
754	0.058
754	0.058
754	0.058
755	0.058
755	0.058
756	0.058
756	0.057
757	0.057
757	0.057
758	0.057
758	0.057
758	0.058
759	0.058
759	0.058
760	0.057
760	0.057
761	0.058
761	0.058
761	0.058
762	0.058
762	0.058
763	0.058
763	0.057
764	0.057
764	0.056
764	0.056
765	0.056
765	0.055
766	0.055
766	0.055
767	0.054
767	0.054
768	0.053
768	0.053
768	0.054
769	0.054
769	0.055
770	0.055
770	0.056
771	0.056
771	0.057
771	0.057
772	0.058
772	0.059
773	0.059
773	0.059
774	0.058
774	0.058
775	0.057
775	0.057
775	0.056
776	0.055
776	0.055
777	0.054
777	0.054
778	0.053
778	0.053
778	0.053
779	0.053
779	0.052
780	0.051
780	0.051
781	0.05
781	0.05
781	0.05
782	0.05
782	0.05
783	0.05
783	0.051
784	0.051
784	0.051
784	0.052
785	0.053
785	0.053
786	0.054
786	0.054
787	0.055
787	0.055
788	0.054
788	0.054
788	0.053
789	0.053
789	0.052
790	0.052
790	0.051
791	0.05
791	0.049
791	0.048
792	0.049
792	0.048
793	0.048
793	0.048
794	0.047
794	0.047
794	0.047
795	0.047
795	0.047
796	0.048
796	0.048
797	0.047
797	0.048
797	0.048
798	0.048
798	0.049
799	0.049
799	0.049
800	0.049
800	0.048
801	0.048
801	0.049
801	0.049
802	0.049
802	0.049
803	0.049
803	0.049
804	0.049
804	0.05
804	0.05
805	0.049
805	0.049
806	0.049
806	0.048
807	0.048
807	0.048
807	0.048
808	0.049
808	0.049
809	0.049
809	0.049
810	0.049
810	0.05
810	0.05
811	0.05
811	0.051
812	0.051
812	0.051
813	0.051
813	0.051
813	0.05
814	0.05
814	0.05
815	0.05
815	0.05
816	0.05
816	0.049
817	0.048
817	0.048
817	0.048
818	0.047
818	0.047
819	0.047
819	0.047
820	0.046
820	0.046
820	0.045
821	0.046
821	0.046
822	0.046
822	0.046
823	0.046
823	0.046
823	0.046
824	0.047
824	0.048
825	0.048
825	0.049
826	0.049
826	0.049
826	0.049
827	0.05
827	0.05
828	0.049
828	0.049
829	0.049
829	0.048
829	0.048
830	0.048
830	0.048
831	0.048
831	0.048
832	0.047
832	0.047
832	0.047
833	0.047
833	0.047
834	0.047
834	0.047
835	0.047
835	0.046
835	0.046
836	0.047
836	0.047
837	0.047
837	0.047
838	0.047
838	0.047
839	0.047
839	0.047
839	0.047
840	0.046
840	0.046
841	0.045
841	0.044
842	0.044
842	0.043
842	0.042
843	0.042
843	0.041
844	0.041
844	0.04
845	0.039
845	0.039
845	0.038
846	0.038
846	0.037
847	0.037
847	0.037
848	0.037
848	0.037
848	0.038
849	0.038
849	0.039
850	0.039
850	0.04
851	0.041
851	0.041
851	0.041
852	0.041
852	0.041
853	0.041
853	0.041
854	0.041
854	0.041
854	0.041
855	0.041
855	0.041
856	0.041
856	0.042
857	0.042
857	0.042
857	0.043
858	0.043
858	0.043
859	0.042
859	0.042
860	0.042
860	0.041
860	0.041
861	0.041
861	0.041
862	0.041
862	0.04
863	0.04
863	0.039
863	0.039
864	0.039
864	0.038
865	0.038
865	0.038
866	0.038
866	0.038
866	0.038
867	0.039
867	0.04
868	0.04
868	0.041
869	0.042
869	0.042
869	0.042
870	0.042
870	0.042
871	0.042
871	0.042
872	0.042
872	0.042
872	0.042
873	0.041
873	0.041
874	0.041
874	0.04
875	0.04
875	0.04
875	0.04
876	0.04
876	0.04
877	0.04
877	0.04
878	0.04
878	0.041
878	0.041
879	0.042
879	0.042
880	0.042
880	0.042
881	0.042
881	0.042
881	0.042
882	0.042
882	0.041
883	0.041
883	0.041
884	0.041
884	0.04
884	0.04
885	0.04
885	0.04
886	0.04
886	0.039
887	0.039
887	0.038
887	0.038
888	0.037
888	0.036
889	0.036
889	0.036
890	0.035
890	0.035
890	0.035
891	0.035
891	0.035
892	0.035
892	0.035
893	0.035
893	0.036
893	0.036
894	0.036
894	0.036
895	0.036
895	0.037
895	0.037
896	0.038
896	0.038
897	0.039
897	0.039
898	0.04
898	0.04
898	0.041
899	0.041
899	0.042
900	0.042
900	0.043
901	0.043
901	0.043
901	0.043
902	0.043
902	0.043
903	0.043
903	0.042
904	0.042
904	0.041
904	0.04
905	0.039
905	0.038
906	0.038
906	0.037
907	0.037
907	0.036
907	0.036
908	0.036
908	0.035
909	0.035
909	0.035
910	0.035
910	0.035
910	0.034
911	0.034
911	0.034
912	0.033
912	0.034
913	0.034
913	0.034
913	0.034
914	0.035
914	0.035
915	0.036
915	0.036
916	0.037
916	0.037
916	0.037
917	0.037
917	0.037
918	0.037
918	0.037
918	0.037
919	0.037
919	0.036
920	0.036
920	0.037
921	0.037
921	0.037
921	0.037
922	0.037
922	0.037
923	0.037
923	0.037
924	0.038
924	0.038
924	0.038
925	0.039
925	0.039
926	0.039
926	0.04
927	0.04
927	0.04
927	0.04
928	0.04
928	0.04
929	0.04
929	0.04
930	0.039
930	0.039
930	0.039
931	0.038
931	0.038
932	0.038
932	0.038
933	0.037
933	0.037
933	0.036
934	0.036
934	0.035
935	0.034
935	0.034
935	0.033
936	0.032
936	0.032
937	0.031
937	0.031
938	0.031
938	0.031
938	0.031
939	0.031
939	0.031
940	0.032
940	0.032
941	0.033
941	0.034
941	0.035
942	0.035
942	0.036
943	0.036
943	0.036
944	0.036
944	0.037
944	0.037
945	0.037
945	0.037
946	0.038
946	0.037
946	0.038
947	0.037
947	0.037
948	0.037
948	0.037
949	0.036
949	0.036
949	0.036
950	0.036
950	0.036
951	0.035
951	0.035
952	0.035
952	0.035
952	0.035
953	0.034
953	0.034
954	0.034
954	0.034
955	0.034
955	0.033
955	0.033
956	0.033
956	0.033
957	0.033
957	0.033
957	0.033
958	0.034
958	0.034
959	0.034
959	0.034
960	0.035
960	0.035
960	0.035
961	0.035
961	0.035
962	0.035
962	0.035
963	0.035
963	0.035
963	0.035
964	0.035
964	0.036
965	0.036
965	0.036
966	0.036
966	0.036
966	0.036
967	0.036
967	0.036
968	0.037
968	0.037
968	0.037
969	0.036
969	0.036
970	0.036
970	0.035
971	0.035
971	0.034
971	0.034
972	0.033
972	0.033
973	0.032
973	0.032
974	0.031
974	0.031
974	0.032
975	0.032
975	0.032
976	0.033
976	0.034
976	0.034
977	0.034
977	0.035
978	0.035
978	0.036
979	0.036
979	0.036
979	0.036
980	0.036
980	0.035
981	0.034
981	0.034
982	0.033
982	0.033
982	0.032
983	0.032
983	0.031
984	0.031
984	0.03
984	0.03
985	0.03
985	0.029
986	0.029
986	0.029
987	0.029
987	0.028
987	0.028
988	0.028
988	0.028
989	0.028
989	0.028
990	0.028
990	0.028
990	0.029
991	0.029
991	0.029
992	0.029
992	0.029
992	0.028
993	0.028
993	0.027
994	0.026
994	0.026
995	0.025
995	0.024
995	0.024
996	0.023
996	0.023
997	0.023
997	0.024
997	0.024
998	0.025
998	0.026
999	0.027
999	0.028
1000	0.03
1000	0.031
1000	0.031
1001	0.032
1001	0.032
1002	0.032
1002	0.032
1003	0.032
1003	0.031
1003	0.03
1004	0.03
1004	0.029
1005	0.028
1005	0.027
1005	0.026
1006	0.026
1006	0.025
1007	0.025
1007	0.024
1008	0.024
1008	0.024
1008	0.024
1009	0.024
1009	0.024
1010	0.023
1010	0.023
1010	0.023
1011	0.023
1011	0.023
1012	0.023
1012	0.023
1013	0.023
1013	0.023
1013	0.022
1014	0.022
1014	0.022
1015	0.022
1015	0.022
1016	0.023
1016	0.023
1016	0.023
1017	0.023
1017	0.023
1018	0.023
1018	0.024
1018	0.024
1019	0.024
1019	0.024
1020	0.024
1020	0.025
1021	0.025
1021	0.025
1021	0.026
1022	0.026
1022	0.026
1023	0.026
1023	0.026
1023	0.026
1024	0.026
1024	0.026
1025	0.027
1025	0.027
1026	0.027
1026	0.027
1026	0.027
1027	0.028
1027	0.028
1028	0.028
1028	0.028
1028	0.029
1029	0.029
1029	0.029
1030	0.03
1030	0.03
1031	0.03
1031	0.031
1031	0.031
1032	0.031
1032	0.032
1033	0.032
1033	0.032
1033	0.032
1034	0.032
1034	0.031
1035	0.031
1035	0.031
1036	0.03
1036	0.03
1036	0.03
1037	0.03
1037	0.029
1038	0.029
1038	0.028
1039	0.028
1039	0.028
1039	0.028
1040	0.028
1040	0.028
1041	0.028
1041	0.028
1041	0.028
1042	0.028
1042	0.028
1043	0.028
1043	0.028
1044	0.028
1044	0.028
1044	0.028
1045	0.028
1045	0.028
1046	0.028
1046	0.028
1046	0.028
1047	0.029
1047	0.029
1048	0.029
1048	0.029
1049	0.029
1049	0.029
1049	0.029
1050	0.029
1050	0.029
1051	0.028
1051	0.028
1051	0.027
1052	0.027
1052	0.026
1053	0.025
1053	0.025
1053	0.024
1054	0.023
1054	0.023
1055	0.023
1055	0.023
1056	0.022
1056	0.022
1056	0.021
1057	0.021
1057	0.02
1058	0.02
1058	0.019
1058	0.019
1059	0.018
1059	0.018
1060	0.017
1060	0.016
1061	0.016
1061	0.016
1061	0.016
1062	0.015
1062	0.015
1063	0.015
1063	0.015
1063	0.015
1064	0.014
1064	0.014
1065	0.014
1065	0.014
1066	0.014
1066	0.014
1066	0.014
1067	0.014
1067	0.014
1068	0.014
1068	0.014
1068	0.013
1069	0.013
1069	0.013
1070	0.012
1070	0.012
1071	0.012
1071	0.012
1071	0.012
1072	0.012
1072	0.011
1073	0.011
1073	0.011
1073	0.011
1074	0.011
1074	0.012
1075	0.011
1075	0.011
1076	0.011
1076	0.012
1076	0.012
1077	0.012
1077	0.012
1078	0.012
1078	0.013
1078	0.013
1079	0.013
1079	0.013
1080	0.012
1080	0.012
1080	0.012
1081	0.012
1081	0.012
1082	0.012
1082	0.013
1083	0.013
1083	0.013
1083	0.013
1084	0.013
1084	0.014
1085	0.015
1085	0.015
1085	0.016
1086	0.017
1086	0.017
1087	0.017
1087	0.017
1088	0.017
1088	0.018
1088	0.018
1089	0.018
1089	0.017
1090	0.017
1090	0.017
1090	0.016
1091	0.016
1091	0.015
1092	0.015
1092	0.015
1092	0.014
1093	0.014
1093	0.014
1094	0.014
1094	0.014
1095	0.014
1095	0.014
1095	0.014
1096	0.014
1096	0.013
1097	0.013
1097	0.012
1097	0.012
1098	0.011
1098	0.01
1099	0.009
1099	0.008
1100	0.007
1100	0.005
1100	0.004
1101	0.002
1101	0.002
1102	0.001
1102	-0
1102	-0.002
1103	-0.002
1103	-0.003
1104	-0.003
1104	-0.003
1104	-0.004
1105	-0.005
1105	-0.007
1106	-0.008
1106	-0.01
1107	-0.01
1107	-0.011
1107	-0.012
1108	-0.014
1108	-0.015
1109	-0.017
1109	-0.018
1109	-0.018
1110	-0.016
1110	-0.017
1111	-0.017
1111	-0.022
