Data from reversibility-20sec_Absorbance__5053__000000000005053.txt Node

Date: Wed Dec 06 16:17:26 CET 2023
User: Marek
Spectrometer: MAYP115816
Trigger mode: 0
Integration Time (sec): 2.000000E-1
Scans to average: 10
Electric dark correction enabled: true
Nonlinearity correction enabled: true
Boxcar width: 5
XAxis mode: Wavelengths
Number of Pixels in Spectrum: 2068
>>>>>Begin Spectral Data<<<<<
199	-0.193
199	-0.162
200	-0.093
200	-0.043
201	-0.011
201	0.008
202	0.021
202	0.031
203	0.038
203	0.043
204	0.057
204	0.071
205	0.086
205	0.091
205	0.093
206	0.094
206	0.094
207	0.096
207	0.097
208	0.096
208	0.095
209	0.101
209	0.099
210	0.1
210	0.102
211	0.1
211	0.1
212	0.096
212	0.095
213	0.098
213	0.101
213	0.101
214	0.103
214	0.104
215	0.105
215	0.102
216	0.105
216	0.106
217	0.112
217	0.115
218	0.111
218	0.115
219	0.121
219	0.121
220	0.125
220	0.124
221	0.125
221	0.127
221	0.13
222	0.135
222	0.139
223	0.145
223	0.149
224	0.152
224	0.16
225	0.166
225	0.176
226	0.186
226	0.196
227	0.206
227	0.216
228	0.233
228	0.249
229	0.264
229	0.289
229	0.31
230	0.331
230	0.361
231	0.393
231	0.43
232	0.468
232	0.512
233	0.554
233	0.602
234	0.654
234	0.704
235	0.755
235	0.813
236	0.865
236	0.916
236	0.968
237	1.023
237	1.07
238	1.118
238	1.163
239	1.208
239	1.25
240	1.291
240	1.326
241	1.359
241	1.395
242	1.428
242	1.455
243	1.485
243	1.509
243	1.535
244	1.555
244	1.577
245	1.596
245	1.617
246	1.638
246	1.655
247	1.668
247	1.685
248	1.698
248	1.712
249	1.724
249	1.731
250	1.74
250	1.747
250	1.753
251	1.756
251	1.758
252	1.764
252	1.764
253	1.766
253	1.764
254	1.761
254	1.763
255	1.761
255	1.762
256	1.76
256	1.761
257	1.761
257	1.759
258	1.759
258	1.758
258	1.76
259	1.762
259	1.762
260	1.761
260	1.761
261	1.76
261	1.761
262	1.763
262	1.764
263	1.767
263	1.767
264	1.769
264	1.769
265	1.769
265	1.77
265	1.769
266	1.771
266	1.771
267	1.768
267	1.77
268	1.769
268	1.77
269	1.77
269	1.769
270	1.768
270	1.767
271	1.767
271	1.766
272	1.764
272	1.763
272	1.759
273	1.753
273	1.747
274	1.742
274	1.736
275	1.731
275	1.725
276	1.717
276	1.709
277	1.702
277	1.69
278	1.679
278	1.668
278	1.654
279	1.638
279	1.618
280	1.594
280	1.564
281	1.53
281	1.492
282	1.452
282	1.411
283	1.37
283	1.33
284	1.291
284	1.253
285	1.218
285	1.185
285	1.157
286	1.132
286	1.11
287	1.09
287	1.074
288	1.06
288	1.047
289	1.037
289	1.028
290	1.021
290	1.014
291	1.008
291	1.002
292	0.998
292	0.994
292	0.99
293	0.986
293	0.983
294	0.98
294	0.977
295	0.974
295	0.971
296	0.968
296	0.965
297	0.962
297	0.959
298	0.956
298	0.953
298	0.95
299	0.948
299	0.945
300	0.942
300	0.94
301	0.937
301	0.935
302	0.932
302	0.929
303	0.927
303	0.925
304	0.923
304	0.92
305	0.918
305	0.916
305	0.913
306	0.911
306	0.909
307	0.907
307	0.904
308	0.902
308	0.899
309	0.897
309	0.894
310	0.891
310	0.889
311	0.886
311	0.882
311	0.879
312	0.875
312	0.872
313	0.869
313	0.865
314	0.861
314	0.857
315	0.853
315	0.848
316	0.844
316	0.84
317	0.835
317	0.831
318	0.826
318	0.821
318	0.816
319	0.811
319	0.805
320	0.8
320	0.794
321	0.789
321	0.783
322	0.777
322	0.771
323	0.764
323	0.758
324	0.752
324	0.745
324	0.739
325	0.732
325	0.726
326	0.719
326	0.712
327	0.705
327	0.699
328	0.692
328	0.685
329	0.678
329	0.671
330	0.664
330	0.657
330	0.65
331	0.643
331	0.636
332	0.63
332	0.623
333	0.616
333	0.609
334	0.602
334	0.595
335	0.589
335	0.582
336	0.576
336	0.569
336	0.563
337	0.556
337	0.55
338	0.544
338	0.538
339	0.533
339	0.527
340	0.521
340	0.515
341	0.51
341	0.504
342	0.499
342	0.494
342	0.488
343	0.483
343	0.478
344	0.473
344	0.468
345	0.463
345	0.459
346	0.455
346	0.45
347	0.446
347	0.442
348	0.438
348	0.434
348	0.43
349	0.426
349	0.423
350	0.419
350	0.416
351	0.413
351	0.409
352	0.406
352	0.403
353	0.4
353	0.397
354	0.394
354	0.392
354	0.389
355	0.386
355	0.383
356	0.38
356	0.378
357	0.374
357	0.372
358	0.369
358	0.367
359	0.364
359	0.362
360	0.36
360	0.358
360	0.356
361	0.354
361	0.352
362	0.351
362	0.349
363	0.348
363	0.346
364	0.344
364	0.342
365	0.34
365	0.338
366	0.337
366	0.335
366	0.334
367	0.332
367	0.33
368	0.329
368	0.327
369	0.325
369	0.324
370	0.323
370	0.321
371	0.32
371	0.319
372	0.317
372	0.316
372	0.315
373	0.314
373	0.313
374	0.312
374	0.311
375	0.31
375	0.309
376	0.308
376	0.307
377	0.307
377	0.306
378	0.305
378	0.304
378	0.303
379	0.302
379	0.302
380	0.301
380	0.3
381	0.299
381	0.299
382	0.298
382	0.298
383	0.297
383	0.296
383	0.296
384	0.295
384	0.295
385	0.294
385	0.294
386	0.293
386	0.293
387	0.292
387	0.292
388	0.291
388	0.291
389	0.29
389	0.29
389	0.29
390	0.289
390	0.289
391	0.288
391	0.288
392	0.288
392	0.287
393	0.287
393	0.287
394	0.286
394	0.286
394	0.286
395	0.285
395	0.285
396	0.285
396	0.284
397	0.284
397	0.283
398	0.283
398	0.283
399	0.282
399	0.282
400	0.282
400	0.281
400	0.281
401	0.281
401	0.28
402	0.28
402	0.28
403	0.279
403	0.279
404	0.279
404	0.279
405	0.278
405	0.278
405	0.278
406	0.278
406	0.277
407	0.277
407	0.277
408	0.276
408	0.276
409	0.276
409	0.275
410	0.275
410	0.275
411	0.275
411	0.275
411	0.275
412	0.274
412	0.274
413	0.273
413	0.273
414	0.273
414	0.272
415	0.272
415	0.271
416	0.271
416	0.271
416	0.27
417	0.27
417	0.27
418	0.269
418	0.269
419	0.269
419	0.268
420	0.268
420	0.268
421	0.267
421	0.267
421	0.267
422	0.266
422	0.266
423	0.266
423	0.265
424	0.265
424	0.265
425	0.265
425	0.264
426	0.264
426	0.264
427	0.263
427	0.263
427	0.263
428	0.262
428	0.262
429	0.262
429	0.261
430	0.261
430	0.261
431	0.261
431	0.261
432	0.26
432	0.26
432	0.26
433	0.26
433	0.26
434	0.259
434	0.259
435	0.259
435	0.259
436	0.259
436	0.259
437	0.258
437	0.258
437	0.258
438	0.258
438	0.257
439	0.257
439	0.257
440	0.257
440	0.257
441	0.257
441	0.256
442	0.256
442	0.256
442	0.256
443	0.255
443	0.255
444	0.255
444	0.255
445	0.255
445	0.255
446	0.254
446	0.254
447	0.254
447	0.254
447	0.253
448	0.253
448	0.253
449	0.253
449	0.253
450	0.253
450	0.252
451	0.252
451	0.252
452	0.252
452	0.252
452	0.252
453	0.252
453	0.252
454	0.252
454	0.251
455	0.251
455	0.251
456	0.251
456	0.251
457	0.251
457	0.251
458	0.25
458	0.25
458	0.25
459	0.25
459	0.25
460	0.25
460	0.249
461	0.249
461	0.249
462	0.249
462	0.249
463	0.249
463	0.249
463	0.248
464	0.248
464	0.248
465	0.248
465	0.248
466	0.247
466	0.247
467	0.248
467	0.248
467	0.248
468	0.248
468	0.248
469	0.248
469	0.248
470	0.248
470	0.248
471	0.248
471	0.248
472	0.248
472	0.248
472	0.248
473	0.249
473	0.249
474	0.248
474	0.248
475	0.248
475	0.248
476	0.249
476	0.249
477	0.249
477	0.249
477	0.249
478	0.249
478	0.249
479	0.249
479	0.25
480	0.25
480	0.25
481	0.25
481	0.25
482	0.25
482	0.251
482	0.251
483	0.251
483	0.252
484	0.252
484	0.252
485	0.252
485	0.252
486	0.253
486	0.253
487	0.253
487	0.253
487	0.254
488	0.254
488	0.254
489	0.255
489	0.256
490	0.257
490	0.257
491	0.258
491	0.259
492	0.259
492	0.26
492	0.261
493	0.261
493	0.262
494	0.262
494	0.263
495	0.263
495	0.264
496	0.264
496	0.265
496	0.266
497	0.266
497	0.267
498	0.267
498	0.268
499	0.269
499	0.269
500	0.27
500	0.271
501	0.272
501	0.272
501	0.273
502	0.273
502	0.274
503	0.274
503	0.275
504	0.275
504	0.276
505	0.277
505	0.277
506	0.278
506	0.278
506	0.279
507	0.28
507	0.28
508	0.281
508	0.282
509	0.283
509	0.283
510	0.284
510	0.285
511	0.286
511	0.286
511	0.287
512	0.288
512	0.288
513	0.289
513	0.29
514	0.29
514	0.291
515	0.291
515	0.292
515	0.292
516	0.292
516	0.293
517	0.294
517	0.294
518	0.294
518	0.295
519	0.295
519	0.295
520	0.295
520	0.296
520	0.296
521	0.296
521	0.296
522	0.296
522	0.296
523	0.296
523	0.295
524	0.295
524	0.296
524	0.296
525	0.296
525	0.296
526	0.296
526	0.296
527	0.296
527	0.296
528	0.296
528	0.296
529	0.295
529	0.295
529	0.294
530	0.294
530	0.294
531	0.293
531	0.293
532	0.292
532	0.292
533	0.292
533	0.291
533	0.291
534	0.29
534	0.29
535	0.29
535	0.289
536	0.289
536	0.288
537	0.288
537	0.287
538	0.287
538	0.286
538	0.285
539	0.285
539	0.285
540	0.284
540	0.283
541	0.282
541	0.282
542	0.281
542	0.281
542	0.28
543	0.279
543	0.279
544	0.278
544	0.277
545	0.276
545	0.275
546	0.275
546	0.274
547	0.273
547	0.272
547	0.271
548	0.27
548	0.269
549	0.268
549	0.268
550	0.267
550	0.267
551	0.266
551	0.265
551	0.264
552	0.263
552	0.263
553	0.262
553	0.261
554	0.26
554	0.259
555	0.258
555	0.257
556	0.256
556	0.255
556	0.255
557	0.254
557	0.254
558	0.254
558	0.253
559	0.253
559	0.252
560	0.252
560	0.252
560	0.251
561	0.251
561	0.25
562	0.249
562	0.248
563	0.246
563	0.245
564	0.244
564	0.243
564	0.242
565	0.241
565	0.241
566	0.24
566	0.239
567	0.238
567	0.238
568	0.237
568	0.237
568	0.236
569	0.236
569	0.235
570	0.234
570	0.233
571	0.232
571	0.232
572	0.231
572	0.23
573	0.23
573	0.229
573	0.228
574	0.227
574	0.227
575	0.227
575	0.227
576	0.226
576	0.225
577	0.225
577	0.224
577	0.223
578	0.223
578	0.222
579	0.222
579	0.222
580	0.221
580	0.22
581	0.219
581	0.219
581	0.219
582	0.219
582	0.219
583	0.219
583	0.218
584	0.217
584	0.215
585	0.215
585	0.214
585	0.214
586	0.213
586	0.212
587	0.211
587	0.211
588	0.21
588	0.209
589	0.209
589	0.209
590	0.209
590	0.209
590	0.209
591	0.209
591	0.209
592	0.208
592	0.207
593	0.207
593	0.207
594	0.206
594	0.205
594	0.205
595	0.204
595	0.204
596	0.203
596	0.203
597	0.203
597	0.204
598	0.203
598	0.203
598	0.203
599	0.203
599	0.202
600	0.201
600	0.201
601	0.201
601	0.2
602	0.2
602	0.199
602	0.199
603	0.198
603	0.198
604	0.198
604	0.198
605	0.198
605	0.197
606	0.197
606	0.196
606	0.196
607	0.195
607	0.195
608	0.194
608	0.194
609	0.193
609	0.193
610	0.193
610	0.193
610	0.193
611	0.193
611	0.193
612	0.193
612	0.193
613	0.193
613	0.192
614	0.192
614	0.191
614	0.191
615	0.191
615	0.19
616	0.19
616	0.189
617	0.189
617	0.189
618	0.188
618	0.188
618	0.188
619	0.188
619	0.189
620	0.189
620	0.189
621	0.188
621	0.188
622	0.188
622	0.187
622	0.187
623	0.186
623	0.186
624	0.185
624	0.185
625	0.184
625	0.184
626	0.183
626	0.183
626	0.183
627	0.182
627	0.182
628	0.182
628	0.182
629	0.181
629	0.181
630	0.181
630	0.181
630	0.182
631	0.182
631	0.182
632	0.182
632	0.181
633	0.181
633	0.181
634	0.182
634	0.182
634	0.181
635	0.181
635	0.18
636	0.18
636	0.18
637	0.179
637	0.179
638	0.179
638	0.178
638	0.178
639	0.178
639	0.177
640	0.178
640	0.178
641	0.178
641	0.178
642	0.178
642	0.179
642	0.179
643	0.18
643	0.18
644	0.18
644	0.18
645	0.179
645	0.179
646	0.179
646	0.178
646	0.178
647	0.177
647	0.177
648	0.176
648	0.176
649	0.175
649	0.175
650	0.175
650	0.175
650	0.176
651	0.175
651	0.175
652	0.175
652	0.175
653	0.175
653	0.177
653	0.183
654	0.144
654	0.116
655	0.116
655	0.116
656	0.116
656	0.117
657	0.117
657	0.117
657	0.118
658	0.116
658	0.106
659	0.134
659	0.171
660	0.177
660	0.177
661	0.176
661	0.176
661	0.176
662	0.176
662	0.176
663	0.175
663	0.175
664	0.175
664	0.175
665	0.175
665	0.175
665	0.175
666	0.176
666	0.176
667	0.176
667	0.176
668	0.177
668	0.177
669	0.177
669	0.177
669	0.177
670	0.178
670	0.177
671	0.177
671	0.176
672	0.176
672	0.175
672	0.174
673	0.174
673	0.174
674	0.174
674	0.173
675	0.173
675	0.173
676	0.173
676	0.173
676	0.173
677	0.173
677	0.173
678	0.173
678	0.172
679	0.172
679	0.172
680	0.172
680	0.172
680	0.172
681	0.172
681	0.172
682	0.173
682	0.173
683	0.174
683	0.174
684	0.175
684	0.174
684	0.174
685	0.174
685	0.174
686	0.174
686	0.174
687	0.174
687	0.174
687	0.174
688	0.174
688	0.174
689	0.175
689	0.175
690	0.175
690	0.175
691	0.175
691	0.175
691	0.175
692	0.175
692	0.175
693	0.174
693	0.175
694	0.174
694	0.174
695	0.175
695	0.176
695	0.176
696	0.176
696	0.176
697	0.176
697	0.176
698	0.176
698	0.176
698	0.177
699	0.177
699	0.176
700	0.176
700	0.176
701	0.175
701	0.175
702	0.174
702	0.174
702	0.174
703	0.174
703	0.173
704	0.173
704	0.173
705	0.174
705	0.174
705	0.174
706	0.175
706	0.175
707	0.176
707	0.176
708	0.177
708	0.177
709	0.177
709	0.178
709	0.177
710	0.177
710	0.178
711	0.178
711	0.178
712	0.178
712	0.178
713	0.177
713	0.177
713	0.176
714	0.176
714	0.176
715	0.175
715	0.174
716	0.174
716	0.174
716	0.173
717	0.172
717	0.172
718	0.172
718	0.172
719	0.172
719	0.172
720	0.173
720	0.174
720	0.174
721	0.174
721	0.175
722	0.176
722	0.177
723	0.178
723	0.178
723	0.178
724	0.178
724	0.178
725	0.178
725	0.177
726	0.177
726	0.177
727	0.176
727	0.176
727	0.176
728	0.176
728	0.176
729	0.176
729	0.176
730	0.176
730	0.176
730	0.177
731	0.177
731	0.178
732	0.179
732	0.179
733	0.179
733	0.18
734	0.18
734	0.181
734	0.182
735	0.182
735	0.182
736	0.182
736	0.182
737	0.182
737	0.182
737	0.182
738	0.181
738	0.18
739	0.18
739	0.179
740	0.179
740	0.178
741	0.178
741	0.178
741	0.178
742	0.178
742	0.179
743	0.18
743	0.181
744	0.182
744	0.182
744	0.183
745	0.183
745	0.183
746	0.183
746	0.183
747	0.182
747	0.182
748	0.182
748	0.181
748	0.181
749	0.18
749	0.181
750	0.18
750	0.18
751	0.18
751	0.18
751	0.18
752	0.18
752	0.179
753	0.179
753	0.179
754	0.179
754	0.179
754	0.18
755	0.18
755	0.181
756	0.181
756	0.18
757	0.18
757	0.18
758	0.181
758	0.181
758	0.182
759	0.182
759	0.182
760	0.182
760	0.182
761	0.182
761	0.183
761	0.183
762	0.183
762	0.184
763	0.184
763	0.183
764	0.183
764	0.183
764	0.183
765	0.183
765	0.183
766	0.183
766	0.183
767	0.182
767	0.182
768	0.181
768	0.181
768	0.181
769	0.181
769	0.182
770	0.182
770	0.183
771	0.183
771	0.184
771	0.184
772	0.185
772	0.186
773	0.186
773	0.186
774	0.186
774	0.186
775	0.186
775	0.186
775	0.185
776	0.185
776	0.185
777	0.185
777	0.184
778	0.184
778	0.184
778	0.184
779	0.184
779	0.184
780	0.184
780	0.184
781	0.184
781	0.184
781	0.184
782	0.185
782	0.185
783	0.186
783	0.186
784	0.186
784	0.187
784	0.187
785	0.188
785	0.188
786	0.189
786	0.189
787	0.189
787	0.19
788	0.189
788	0.189
788	0.188
789	0.188
789	0.188
790	0.187
790	0.186
791	0.186
791	0.185
791	0.184
792	0.184
792	0.184
793	0.184
793	0.183
794	0.183
794	0.183
794	0.183
795	0.183
795	0.183
796	0.183
796	0.184
797	0.183
797	0.184
797	0.184
798	0.184
798	0.185
799	0.185
799	0.185
800	0.185
800	0.184
801	0.184
801	0.184
801	0.184
802	0.184
802	0.184
803	0.184
803	0.184
804	0.184
804	0.185
804	0.185
805	0.185
805	0.185
806	0.185
806	0.185
807	0.185
807	0.185
807	0.185
808	0.186
808	0.186
809	0.186
809	0.186
810	0.186
810	0.186
810	0.186
811	0.186
811	0.186
812	0.187
812	0.186
813	0.186
813	0.186
813	0.187
814	0.187
814	0.187
815	0.188
815	0.188
816	0.188
816	0.188
817	0.187
817	0.187
817	0.187
818	0.187
818	0.187
819	0.187
819	0.187
820	0.186
820	0.185
820	0.185
821	0.185
821	0.186
822	0.186
822	0.185
823	0.185
823	0.185
823	0.185
824	0.186
824	0.186
825	0.187
825	0.187
826	0.188
826	0.187
826	0.187
827	0.188
827	0.188
828	0.188
828	0.188
829	0.188
829	0.188
829	0.188
830	0.188
830	0.188
831	0.188
831	0.188
832	0.187
832	0.187
832	0.187
833	0.186
833	0.186
834	0.186
834	0.185
835	0.185
835	0.184
835	0.184
836	0.184
836	0.184
837	0.183
837	0.183
838	0.182
838	0.182
839	0.181
839	0.18
839	0.179
840	0.178
840	0.178
841	0.177
841	0.176
842	0.175
842	0.175
842	0.174
843	0.173
843	0.172
844	0.172
844	0.171
845	0.17
845	0.17
845	0.169
846	0.169
846	0.168
847	0.168
847	0.168
848	0.168
848	0.168
848	0.169
849	0.169
849	0.169
850	0.17
850	0.17
851	0.171
851	0.171
851	0.171
852	0.171
852	0.171
853	0.172
853	0.172
854	0.172
854	0.173
854	0.174
855	0.174
855	0.175
856	0.175
856	0.176
857	0.176
857	0.176
857	0.176
858	0.175
858	0.175
859	0.174
859	0.172
860	0.171
860	0.171
860	0.17
861	0.169
861	0.169
862	0.168
862	0.167
863	0.167
863	0.167
863	0.166
864	0.166
864	0.166
865	0.167
865	0.167
866	0.167
866	0.166
866	0.167
867	0.167
867	0.167
868	0.168
868	0.168
869	0.168
869	0.168
869	0.167
870	0.167
870	0.167
871	0.166
871	0.166
872	0.166
872	0.166
872	0.165
873	0.165
873	0.165
874	0.164
874	0.164
875	0.164
875	0.164
875	0.164
876	0.164
876	0.164
877	0.164
877	0.164
878	0.164
878	0.164
878	0.164
879	0.164
879	0.163
880	0.163
880	0.162
881	0.162
881	0.161
881	0.161
882	0.16
882	0.16
883	0.159
883	0.159
884	0.159
884	0.159
884	0.159
885	0.16
885	0.159
886	0.159
886	0.159
887	0.158
887	0.158
887	0.157
888	0.156
888	0.155
889	0.154
889	0.153
890	0.153
890	0.153
890	0.152
891	0.152
891	0.151
892	0.151
892	0.151
893	0.15
893	0.15
893	0.149
894	0.149
894	0.148
895	0.147
895	0.147
895	0.147
896	0.147
896	0.147
897	0.148
897	0.148
898	0.148
898	0.149
898	0.149
899	0.15
899	0.15
900	0.15
900	0.15
901	0.15
901	0.149
901	0.149
902	0.148
902	0.148
903	0.147
903	0.146
904	0.146
904	0.145
904	0.145
905	0.144
905	0.144
906	0.143
906	0.144
907	0.144
907	0.144
907	0.144
908	0.144
908	0.143
909	0.143
909	0.143
910	0.142
910	0.142
910	0.141
911	0.141
911	0.14
912	0.14
912	0.139
913	0.139
913	0.139
913	0.139
914	0.139
914	0.139
915	0.139
915	0.139
916	0.139
916	0.139
916	0.139
917	0.138
917	0.138
918	0.138
918	0.137
918	0.137
919	0.137
919	0.136
920	0.136
920	0.136
921	0.136
921	0.136
921	0.136
922	0.136
922	0.137
923	0.137
923	0.137
924	0.138
924	0.138
924	0.139
925	0.139
925	0.14
926	0.14
926	0.14
927	0.14
927	0.14
927	0.14
928	0.14
928	0.139
929	0.139
929	0.138
930	0.137
930	0.137
930	0.136
931	0.135
931	0.134
932	0.134
932	0.133
933	0.133
933	0.133
933	0.132
934	0.132
934	0.131
935	0.131
935	0.13
935	0.129
936	0.129
936	0.128
937	0.128
937	0.127
938	0.127
938	0.126
938	0.126
939	0.126
939	0.126
940	0.126
940	0.126
941	0.126
941	0.126
941	0.126
942	0.126
942	0.125
943	0.125
943	0.125
944	0.125
944	0.125
944	0.125
945	0.125
945	0.125
946	0.125
946	0.125
946	0.125
947	0.125
947	0.124
948	0.124
948	0.124
949	0.123
949	0.123
949	0.123
950	0.123
950	0.123
951	0.122
951	0.122
952	0.121
952	0.121
952	0.12
953	0.119
953	0.119
954	0.118
954	0.117
955	0.116
955	0.115
955	0.115
956	0.115
956	0.115
957	0.114
957	0.114
957	0.114
958	0.114
958	0.114
959	0.114
959	0.114
960	0.113
960	0.113
960	0.113
961	0.113
961	0.113
962	0.113
962	0.113
963	0.113
963	0.113
963	0.113
964	0.114
964	0.114
965	0.114
965	0.114
966	0.114
966	0.114
966	0.114
967	0.113
967	0.113
968	0.113
968	0.113
968	0.112
969	0.112
969	0.111
970	0.11
970	0.11
971	0.109
971	0.108
971	0.108
972	0.107
972	0.107
973	0.106
973	0.106
974	0.106
974	0.106
974	0.106
975	0.106
975	0.107
976	0.107
976	0.107
976	0.107
977	0.107
977	0.106
978	0.106
978	0.106
979	0.105
979	0.105
979	0.104
980	0.103
980	0.103
981	0.102
981	0.101
982	0.1
982	0.1
982	0.1
983	0.099
983	0.099
984	0.099
984	0.099
984	0.098
985	0.098
985	0.098
986	0.098
986	0.098
987	0.098
987	0.098
987	0.099
988	0.099
988	0.099
989	0.099
989	0.099
990	0.099
990	0.099
990	0.1
991	0.1
991	0.1
992	0.099
992	0.098
992	0.098
993	0.097
993	0.096
994	0.095
994	0.094
995	0.093
995	0.093
995	0.092
996	0.092
996	0.092
997	0.092
997	0.092
997	0.093
998	0.093
998	0.094
999	0.095
999	0.096
1000	0.096
1000	0.097
1000	0.097
1001	0.098
1001	0.098
1002	0.097
1002	0.097
1003	0.096
1003	0.095
1003	0.094
1004	0.093
1004	0.092
1005	0.091
1005	0.091
1005	0.09
1006	0.089
1006	0.089
1007	0.088
1007	0.088
1008	0.088
1008	0.088
1008	0.088
1009	0.088
1009	0.089
1010	0.089
1010	0.089
1010	0.089
1011	0.089
1011	0.088
1012	0.088
1012	0.088
1013	0.087
1013	0.087
1013	0.086
1014	0.085
1014	0.085
1015	0.085
1015	0.084
1016	0.084
1016	0.084
1016	0.084
1017	0.084
1017	0.084
1018	0.085
1018	0.085
1018	0.085
1019	0.085
1019	0.085
1020	0.085
1020	0.085
1021	0.085
1021	0.085
1021	0.086
1022	0.086
1022	0.086
1023	0.086
1023	0.086
1023	0.086
1024	0.086
1024	0.086
1025	0.086
1025	0.086
1026	0.086
1026	0.086
1026	0.086
1027	0.086
1027	0.086
1028	0.086
1028	0.086
1028	0.086
1029	0.086
1029	0.086
1030	0.086
1030	0.086
1031	0.086
1031	0.086
1031	0.086
1032	0.086
1032	0.087
1033	0.087
1033	0.087
1033	0.087
1034	0.087
1034	0.086
1035	0.086
1035	0.085
1036	0.085
1036	0.085
1036	0.084
1037	0.084
1037	0.083
1038	0.083
1038	0.083
1039	0.082
1039	0.082
1039	0.082
1040	0.082
1040	0.082
1041	0.082
1041	0.082
1041	0.082
1042	0.082
1042	0.082
1043	0.082
1043	0.082
1044	0.082
1044	0.082
1044	0.082
1045	0.083
1045	0.083
1046	0.083
1046	0.083
1046	0.083
1047	0.084
1047	0.084
1048	0.084
1048	0.084
1049	0.084
1049	0.084
1049	0.084
1050	0.084
1050	0.083
1051	0.083
1051	0.082
1051	0.082
1052	0.081
1052	0.081
1053	0.08
1053	0.079
1053	0.079
1054	0.078
1054	0.078
1055	0.077
1055	0.077
1056	0.076
1056	0.076
1056	0.075
1057	0.074
1057	0.074
1058	0.073
1058	0.072
1058	0.071
1059	0.071
1059	0.07
1060	0.069
1060	0.069
1061	0.068
1061	0.068
1061	0.068
1062	0.068
1062	0.068
1063	0.067
1063	0.067
1063	0.067
1064	0.066
1064	0.066
1065	0.066
1065	0.066
1066	0.066
1066	0.065
1066	0.065
1067	0.065
1067	0.065
1068	0.064
1068	0.064
1068	0.064
1069	0.063
1069	0.063
1070	0.063
1070	0.063
1071	0.062
1071	0.062
1071	0.062
1072	0.062
1072	0.062
1073	0.062
1073	0.062
1073	0.062
1074	0.062
1074	0.063
1075	0.063
1075	0.063
1076	0.063
1076	0.064
1076	0.064
1077	0.064
1077	0.064
1078	0.064
1078	0.064
1078	0.064
1079	0.063
1079	0.063
1080	0.063
1080	0.062
1080	0.062
1081	0.062
1081	0.062
1082	0.062
1082	0.062
1083	0.062
1083	0.061
1083	0.061
1084	0.061
1084	0.062
1085	0.061
1085	0.061
1085	0.061
1086	0.062
1086	0.061
1087	0.061
1087	0.061
1088	0.061
1088	0.061
1088	0.061
1089	0.06
1089	0.06
1090	0.06
1090	0.06
1090	0.059
1091	0.058
1091	0.058
1092	0.058
1092	0.058
1092	0.058
1093	0.057
1093	0.057
1094	0.057
1094	0.057
1095	0.056
1095	0.056
1095	0.055
1096	0.055
1096	0.054
1097	0.053
1097	0.052
1097	0.052
1098	0.051
1098	0.05
1099	0.049
1099	0.047
1100	0.046
1100	0.045
1100	0.044
1101	0.043
1101	0.042
1102	0.041
1102	0.039
1102	0.038
1103	0.038
1103	0.037
1104	0.036
1104	0.035
1104	0.035
1105	0.032
1105	0.03
1106	0.029
1106	0.026
1107	0.026
1107	0.026
1107	0.023
1108	0.023
1108	0.021
1109	0.02
1109	0.018
1109	0.02
1110	0.021
1110	0.02
1111	0.022
1111	0.019
