Data from reversibility-20sec_Absorbance__2978__000000000002978.txt Node

Date: Wed Dec 06 04:45:45 CET 2023
User: Marek
Spectrometer: MAYP115816
Trigger mode: 0
Integration Time (sec): 2.000000E-1
Scans to average: 10
Electric dark correction enabled: true
Nonlinearity correction enabled: true
Boxcar width: 5
XAxis mode: Wavelengths
Number of Pixels in Spectrum: 2068
>>>>>Begin Spectral Data<<<<<
199	-0.173
199	-0.139
200	-0.069
200	-0.013
201	0.016
201	0.033
202	0.045
202	0.053
203	0.062
203	0.064
204	0.081
204	0.095
205	0.108
205	0.111
205	0.108
206	0.108
206	0.108
207	0.11
207	0.108
208	0.108
208	0.108
209	0.112
209	0.111
210	0.111
210	0.114
211	0.116
211	0.118
212	0.116
212	0.118
213	0.126
213	0.126
213	0.127
214	0.128
214	0.129
215	0.128
215	0.127
216	0.129
216	0.127
217	0.129
217	0.131
218	0.128
218	0.13
219	0.134
219	0.135
220	0.137
220	0.139
221	0.14
221	0.143
221	0.15
222	0.157
222	0.16
223	0.165
223	0.171
224	0.175
224	0.183
225	0.192
225	0.204
226	0.214
226	0.222
227	0.233
227	0.246
228	0.263
228	0.277
229	0.292
229	0.316
229	0.341
230	0.364
230	0.392
231	0.424
231	0.465
232	0.501
232	0.541
233	0.584
233	0.635
234	0.688
234	0.741
235	0.791
235	0.845
236	0.899
236	0.953
236	1.007
237	1.063
237	1.116
238	1.165
238	1.215
239	1.264
239	1.31
240	1.355
240	1.398
241	1.437
241	1.476
242	1.51
242	1.547
243	1.577
243	1.607
243	1.635
244	1.662
244	1.686
245	1.707
245	1.733
246	1.753
246	1.775
247	1.787
247	1.805
248	1.823
248	1.84
249	1.852
249	1.863
250	1.874
250	1.885
250	1.891
251	1.898
251	1.903
252	1.915
252	1.918
253	1.921
253	1.923
254	1.926
254	1.929
255	1.929
255	1.932
256	1.933
256	1.934
257	1.934
257	1.933
258	1.933
258	1.935
258	1.935
259	1.935
259	1.935
260	1.937
260	1.938
261	1.94
261	1.945
262	1.951
262	1.954
263	1.958
263	1.959
264	1.962
264	1.965
265	1.968
265	1.97
265	1.972
266	1.974
266	1.976
267	1.974
267	1.977
268	1.978
268	1.98
269	1.983
269	1.984
270	1.983
270	1.983
271	1.98
271	1.981
272	1.977
272	1.976
272	1.972
273	1.965
273	1.958
274	1.951
274	1.946
275	1.939
275	1.934
276	1.926
276	1.919
277	1.911
277	1.901
278	1.89
278	1.878
278	1.864
279	1.846
279	1.823
280	1.795
280	1.761
281	1.724
281	1.68
282	1.635
282	1.59
283	1.545
283	1.503
284	1.462
284	1.422
285	1.384
285	1.351
285	1.32
286	1.293
286	1.269
287	1.248
287	1.23
288	1.215
288	1.202
289	1.19
289	1.181
290	1.172
290	1.165
291	1.158
291	1.152
292	1.147
292	1.142
292	1.137
293	1.133
293	1.129
294	1.125
294	1.121
295	1.118
295	1.114
296	1.111
296	1.107
297	1.104
297	1.101
298	1.098
298	1.094
298	1.091
299	1.088
299	1.085
300	1.082
300	1.079
301	1.076
301	1.073
302	1.07
302	1.067
303	1.065
303	1.062
304	1.06
304	1.057
305	1.055
305	1.052
305	1.049
306	1.046
306	1.044
307	1.041
307	1.038
308	1.035
308	1.032
309	1.029
309	1.026
310	1.022
310	1.019
311	1.016
311	1.012
311	1.009
312	1.005
312	1.001
313	0.997
313	0.993
314	0.989
314	0.985
315	0.98
315	0.976
316	0.971
316	0.966
317	0.962
317	0.956
318	0.951
318	0.946
318	0.94
319	0.934
319	0.928
320	0.923
320	0.916
321	0.91
321	0.904
322	0.897
322	0.891
323	0.884
323	0.877
324	0.871
324	0.864
324	0.857
325	0.85
325	0.844
326	0.837
326	0.829
327	0.822
327	0.815
328	0.808
328	0.801
329	0.794
329	0.787
330	0.78
330	0.772
330	0.765
331	0.758
331	0.751
332	0.744
332	0.737
333	0.73
333	0.723
334	0.716
334	0.709
335	0.702
335	0.695
336	0.688
336	0.681
336	0.675
337	0.668
337	0.661
338	0.655
338	0.649
339	0.643
339	0.636
340	0.63
340	0.625
341	0.619
341	0.613
342	0.608
342	0.602
342	0.597
343	0.591
343	0.586
344	0.581
344	0.576
345	0.572
345	0.567
346	0.562
346	0.558
347	0.553
347	0.549
348	0.544
348	0.54
348	0.536
349	0.532
349	0.528
350	0.525
350	0.521
351	0.518
351	0.514
352	0.511
352	0.508
353	0.505
353	0.502
354	0.499
354	0.496
354	0.493
355	0.49
355	0.486
356	0.484
356	0.481
357	0.477
357	0.474
358	0.471
358	0.468
359	0.466
359	0.464
360	0.461
360	0.459
360	0.457
361	0.455
361	0.452
362	0.451
362	0.449
363	0.447
363	0.445
364	0.443
364	0.441
365	0.439
365	0.437
366	0.435
366	0.433
366	0.432
367	0.43
367	0.428
368	0.426
368	0.424
369	0.423
369	0.421
370	0.42
370	0.418
371	0.416
371	0.415
372	0.413
372	0.412
372	0.411
373	0.41
373	0.408
374	0.407
374	0.406
375	0.405
375	0.404
376	0.402
376	0.401
377	0.4
377	0.399
378	0.397
378	0.396
378	0.395
379	0.394
379	0.393
380	0.392
380	0.391
381	0.39
381	0.389
382	0.388
382	0.387
383	0.387
383	0.386
383	0.385
384	0.384
384	0.383
385	0.383
385	0.382
386	0.381
386	0.381
387	0.38
387	0.379
388	0.379
388	0.378
389	0.377
389	0.377
389	0.376
390	0.375
390	0.375
391	0.374
391	0.373
392	0.373
392	0.372
393	0.372
393	0.371
394	0.37
394	0.37
394	0.369
395	0.369
395	0.368
396	0.368
396	0.367
397	0.367
397	0.366
398	0.366
398	0.365
399	0.365
399	0.364
400	0.364
400	0.363
400	0.362
401	0.362
401	0.362
402	0.361
402	0.361
403	0.36
403	0.36
404	0.359
404	0.358
405	0.358
405	0.358
405	0.357
406	0.356
406	0.356
407	0.355
407	0.355
408	0.354
408	0.354
409	0.353
409	0.353
410	0.352
410	0.352
411	0.352
411	0.351
411	0.351
412	0.351
412	0.35
413	0.35
413	0.35
414	0.349
414	0.349
415	0.349
415	0.348
416	0.348
416	0.347
416	0.347
417	0.346
417	0.346
418	0.346
418	0.346
419	0.345
419	0.345
420	0.344
420	0.344
421	0.344
421	0.343
421	0.343
422	0.342
422	0.342
423	0.341
423	0.34
424	0.34
424	0.34
425	0.339
425	0.339
426	0.339
426	0.338
427	0.338
427	0.338
427	0.337
428	0.337
428	0.337
429	0.337
429	0.336
430	0.336
430	0.336
431	0.335
431	0.335
432	0.335
432	0.335
432	0.334
433	0.334
433	0.334
434	0.334
434	0.334
435	0.334
435	0.334
436	0.333
436	0.333
437	0.333
437	0.333
437	0.332
438	0.332
438	0.332
439	0.332
439	0.331
440	0.331
440	0.331
441	0.33
441	0.33
442	0.33
442	0.33
442	0.33
443	0.33
443	0.33
444	0.329
444	0.329
445	0.329
445	0.329
446	0.329
446	0.329
447	0.329
447	0.328
447	0.328
448	0.328
448	0.328
449	0.328
449	0.328
450	0.328
450	0.328
451	0.327
451	0.327
452	0.327
452	0.328
452	0.328
453	0.328
453	0.327
454	0.328
454	0.327
455	0.327
455	0.327
456	0.327
456	0.327
457	0.327
457	0.327
458	0.327
458	0.327
458	0.327
459	0.327
459	0.327
460	0.327
460	0.328
461	0.328
461	0.328
462	0.328
462	0.328
463	0.328
463	0.328
463	0.328
464	0.328
464	0.327
465	0.327
465	0.327
466	0.327
466	0.328
467	0.328
467	0.328
467	0.328
468	0.329
468	0.329
469	0.33
469	0.33
470	0.331
470	0.331
471	0.332
471	0.332
472	0.332
472	0.333
472	0.333
473	0.334
473	0.334
474	0.334
474	0.334
475	0.335
475	0.335
476	0.336
476	0.336
477	0.337
477	0.337
477	0.338
478	0.338
478	0.339
479	0.339
479	0.34
480	0.34
480	0.341
481	0.342
481	0.342
482	0.343
482	0.344
482	0.344
483	0.345
483	0.346
484	0.347
484	0.348
485	0.348
485	0.349
486	0.35
486	0.351
487	0.352
487	0.353
487	0.353
488	0.354
488	0.355
489	0.356
489	0.358
490	0.359
490	0.36
491	0.362
491	0.363
492	0.365
492	0.366
492	0.367
493	0.369
493	0.37
494	0.372
494	0.373
495	0.374
495	0.376
496	0.377
496	0.378
496	0.38
497	0.381
497	0.382
498	0.384
498	0.385
499	0.386
499	0.388
500	0.39
500	0.392
501	0.393
501	0.395
501	0.396
502	0.397
502	0.399
503	0.4
503	0.401
504	0.402
504	0.404
505	0.405
505	0.406
506	0.407
506	0.409
506	0.41
507	0.411
507	0.413
508	0.414
508	0.416
509	0.417
509	0.418
510	0.419
510	0.42
511	0.422
511	0.423
511	0.424
512	0.425
512	0.426
513	0.427
513	0.428
514	0.429
514	0.431
515	0.431
515	0.432
515	0.433
516	0.434
516	0.434
517	0.435
517	0.436
518	0.436
518	0.436
519	0.437
519	0.437
520	0.437
520	0.437
520	0.438
521	0.438
521	0.438
522	0.438
522	0.438
523	0.438
523	0.438
524	0.437
524	0.437
524	0.437
525	0.437
525	0.436
526	0.435
526	0.435
527	0.434
527	0.433
528	0.432
528	0.431
529	0.431
529	0.429
529	0.428
530	0.427
530	0.426
531	0.425
531	0.424
532	0.422
532	0.421
533	0.419
533	0.418
533	0.416
534	0.414
534	0.413
535	0.411
535	0.409
536	0.407
536	0.405
537	0.403
537	0.401
538	0.399
538	0.397
538	0.395
539	0.393
539	0.392
540	0.39
540	0.388
541	0.386
541	0.384
542	0.382
542	0.38
542	0.378
543	0.376
543	0.374
544	0.372
544	0.369
545	0.367
545	0.365
546	0.363
546	0.361
547	0.358
547	0.356
547	0.353
548	0.351
548	0.349
549	0.347
549	0.344
550	0.342
550	0.34
551	0.337
551	0.335
551	0.332
552	0.33
552	0.328
553	0.326
553	0.324
554	0.321
554	0.319
555	0.317
555	0.314
556	0.312
556	0.31
556	0.308
557	0.306
557	0.304
558	0.302
558	0.3
559	0.298
559	0.296
560	0.294
560	0.293
560	0.291
561	0.289
561	0.287
562	0.285
562	0.282
563	0.28
563	0.278
564	0.275
564	0.273
564	0.271
565	0.27
565	0.268
566	0.266
566	0.264
567	0.262
567	0.261
568	0.259
568	0.257
568	0.255
569	0.254
569	0.252
570	0.25
570	0.248
571	0.246
571	0.245
572	0.243
572	0.242
573	0.24
573	0.239
573	0.238
574	0.236
574	0.235
575	0.234
575	0.233
576	0.232
576	0.23
577	0.228
577	0.227
577	0.225
578	0.224
578	0.223
579	0.222
579	0.221
580	0.219
580	0.217
581	0.216
581	0.215
581	0.214
582	0.214
582	0.213
583	0.212
583	0.211
584	0.209
584	0.207
585	0.206
585	0.205
585	0.203
586	0.202
586	0.201
587	0.2
587	0.199
588	0.197
588	0.196
589	0.196
589	0.195
590	0.194
590	0.193
590	0.193
591	0.192
591	0.19
592	0.189
592	0.187
593	0.186
593	0.186
594	0.184
594	0.183
594	0.182
595	0.181
595	0.18
596	0.179
596	0.179
597	0.179
597	0.179
598	0.178
598	0.178
598	0.178
599	0.177
599	0.176
600	0.176
600	0.175
601	0.174
601	0.174
602	0.172
602	0.171
602	0.17
603	0.169
603	0.169
604	0.168
604	0.168
605	0.167
605	0.167
606	0.166
606	0.165
606	0.164
607	0.164
607	0.163
608	0.162
608	0.161
609	0.16
609	0.16
610	0.159
610	0.158
610	0.158
611	0.157
611	0.157
612	0.157
612	0.157
613	0.157
613	0.156
614	0.156
614	0.155
614	0.155
615	0.154
615	0.154
616	0.153
616	0.153
617	0.153
617	0.152
618	0.151
618	0.151
618	0.151
619	0.151
619	0.151
620	0.151
620	0.15
621	0.15
621	0.149
622	0.148
622	0.148
622	0.147
623	0.146
623	0.146
624	0.145
624	0.144
625	0.143
625	0.143
626	0.143
626	0.142
626	0.142
627	0.142
627	0.141
628	0.141
628	0.141
629	0.141
629	0.14
630	0.14
630	0.139
630	0.139
631	0.139
631	0.138
632	0.137
632	0.137
633	0.137
633	0.136
634	0.137
634	0.137
634	0.137
635	0.136
635	0.136
636	0.136
636	0.135
637	0.135
637	0.134
638	0.134
638	0.133
638	0.133
639	0.132
639	0.131
640	0.131
640	0.13
641	0.13
641	0.13
642	0.129
642	0.13
642	0.13
643	0.13
643	0.13
644	0.13
644	0.13
645	0.13
645	0.13
646	0.13
646	0.13
646	0.13
647	0.13
647	0.13
648	0.129
648	0.129
649	0.128
649	0.128
650	0.128
650	0.128
650	0.128
651	0.127
651	0.127
652	0.126
652	0.126
653	0.127
653	0.128
653	0.133
654	0.106
654	0.086
655	0.085
655	0.085
656	0.085
656	0.085
657	0.085
657	0.086
657	0.086
658	0.084
658	0.076
659	0.095
659	0.121
660	0.125
660	0.125
661	0.125
661	0.124
661	0.123
662	0.122
662	0.122
663	0.121
663	0.121
664	0.12
664	0.12
665	0.119
665	0.119
665	0.119
666	0.119
666	0.119
667	0.119
667	0.12
668	0.12
668	0.12
669	0.119
669	0.119
669	0.12
670	0.12
670	0.12
671	0.119
671	0.119
672	0.119
672	0.118
672	0.118
673	0.117
673	0.117
674	0.117
674	0.116
675	0.116
675	0.116
676	0.116
676	0.116
676	0.115
677	0.115
677	0.115
678	0.115
678	0.115
679	0.114
679	0.114
680	0.114
680	0.113
680	0.113
681	0.112
681	0.113
682	0.113
682	0.113
683	0.113
683	0.114
684	0.114
684	0.114
684	0.114
685	0.114
685	0.115
686	0.115
686	0.115
687	0.114
687	0.114
687	0.114
688	0.114
688	0.114
689	0.115
689	0.115
690	0.115
690	0.115
691	0.114
691	0.114
691	0.114
692	0.114
692	0.114
693	0.114
693	0.114
694	0.113
694	0.113
695	0.113
695	0.114
695	0.114
696	0.114
696	0.114
697	0.114
697	0.114
698	0.114
698	0.114
698	0.114
699	0.114
699	0.114
700	0.113
700	0.113
701	0.112
701	0.112
702	0.111
702	0.11
702	0.11
703	0.11
703	0.109
704	0.109
704	0.109
705	0.109
705	0.108
705	0.108
706	0.107
706	0.107
707	0.107
707	0.107
708	0.107
708	0.107
709	0.107
709	0.107
709	0.106
710	0.106
710	0.106
711	0.106
711	0.106
712	0.106
712	0.106
713	0.106
713	0.106
713	0.106
714	0.105
714	0.105
715	0.105
715	0.105
716	0.105
716	0.104
716	0.104
717	0.103
717	0.102
718	0.101
718	0.101
719	0.1
719	0.1
720	0.1
720	0.1
720	0.1
721	0.1
721	0.101
722	0.102
722	0.102
723	0.103
723	0.103
723	0.103
724	0.103
724	0.103
725	0.102
725	0.102
726	0.101
726	0.101
727	0.1
727	0.099
727	0.099
728	0.098
728	0.098
729	0.098
729	0.098
730	0.098
730	0.098
730	0.099
731	0.099
731	0.099
732	0.099
732	0.099
733	0.099
733	0.099
734	0.099
734	0.099
734	0.099
735	0.099
735	0.098
736	0.098
736	0.097
737	0.097
737	0.096
737	0.096
738	0.095
738	0.094
739	0.094
739	0.093
740	0.093
740	0.093
741	0.093
741	0.093
741	0.093
742	0.093
742	0.093
743	0.094
743	0.094
744	0.094
744	0.094
744	0.094
745	0.094
745	0.094
746	0.094
746	0.094
747	0.094
747	0.094
748	0.094
748	0.095
748	0.095
749	0.095
749	0.096
750	0.096
750	0.096
751	0.096
751	0.096
751	0.095
752	0.095
752	0.094
753	0.093
753	0.092
754	0.091
754	0.09
754	0.089
755	0.088
755	0.088
756	0.087
756	0.086
757	0.085
757	0.086
758	0.086
758	0.086
758	0.086
759	0.086
759	0.086
760	0.085
760	0.085
761	0.086
761	0.086
761	0.086
762	0.086
762	0.086
763	0.085
763	0.085
764	0.084
764	0.084
764	0.084
765	0.084
765	0.084
766	0.083
766	0.083
767	0.083
767	0.082
768	0.081
768	0.081
768	0.081
769	0.081
769	0.081
770	0.081
770	0.081
771	0.081
771	0.082
771	0.082
772	0.083
772	0.083
773	0.083
773	0.083
774	0.083
774	0.084
775	0.084
775	0.084
775	0.084
776	0.083
776	0.083
777	0.083
777	0.083
778	0.083
778	0.082
778	0.082
779	0.081
779	0.081
780	0.08
780	0.079
781	0.079
781	0.078
781	0.078
782	0.077
782	0.077
783	0.077
783	0.076
784	0.076
784	0.076
784	0.076
785	0.077
785	0.076
786	0.076
786	0.077
787	0.077
787	0.076
788	0.076
788	0.076
788	0.076
789	0.075
789	0.075
790	0.075
790	0.074
791	0.074
791	0.073
791	0.073
792	0.074
792	0.073
793	0.073
793	0.073
794	0.073
794	0.073
794	0.073
795	0.073
795	0.073
796	0.074
796	0.074
797	0.073
797	0.073
797	0.074
798	0.074
798	0.074
799	0.074
799	0.073
800	0.073
800	0.072
801	0.071
801	0.071
801	0.071
802	0.07
802	0.07
803	0.07
803	0.07
804	0.07
804	0.07
804	0.07
805	0.07
805	0.07
806	0.07
806	0.07
807	0.07
807	0.07
807	0.07
808	0.07
808	0.07
809	0.07
809	0.07
810	0.07
810	0.07
810	0.07
811	0.07
811	0.07
812	0.07
812	0.07
813	0.07
813	0.07
813	0.07
814	0.07
814	0.07
815	0.07
815	0.07
816	0.07
816	0.069
817	0.068
817	0.068
817	0.068
818	0.068
818	0.067
819	0.067
819	0.066
820	0.065
820	0.065
820	0.065
821	0.065
821	0.065
822	0.065
822	0.066
823	0.066
823	0.066
823	0.067
824	0.068
824	0.069
825	0.07
825	0.071
826	0.071
826	0.071
826	0.071
827	0.072
827	0.072
828	0.072
828	0.071
829	0.071
829	0.071
829	0.071
830	0.071
830	0.071
831	0.072
831	0.072
832	0.072
832	0.072
832	0.073
833	0.073
833	0.073
834	0.073
834	0.072
835	0.072
835	0.071
835	0.071
836	0.071
836	0.071
837	0.071
837	0.07
838	0.07
838	0.069
839	0.068
839	0.067
839	0.066
840	0.065
840	0.064
841	0.063
841	0.062
842	0.061
842	0.06
842	0.059
843	0.059
843	0.059
844	0.059
844	0.059
845	0.059
845	0.06
845	0.06
846	0.061
846	0.061
847	0.061
847	0.062
848	0.062
848	0.062
848	0.062
849	0.062
849	0.061
850	0.061
850	0.06
851	0.059
851	0.059
851	0.058
852	0.058
852	0.057
853	0.057
853	0.057
854	0.057
854	0.058
854	0.059
855	0.06
855	0.061
856	0.062
856	0.063
857	0.065
857	0.066
857	0.066
858	0.066
858	0.066
859	0.066
859	0.065
860	0.064
860	0.063
860	0.062
861	0.061
861	0.06
862	0.059
862	0.058
863	0.057
863	0.057
863	0.057
864	0.056
864	0.056
865	0.056
865	0.056
866	0.056
866	0.056
866	0.056
867	0.056
867	0.056
868	0.056
868	0.056
869	0.055
869	0.055
869	0.055
870	0.054
870	0.054
871	0.054
871	0.055
872	0.055
872	0.055
872	0.056
873	0.056
873	0.056
874	0.056
874	0.056
875	0.056
875	0.056
875	0.056
876	0.056
876	0.055
877	0.055
877	0.056
878	0.056
878	0.056
878	0.057
879	0.057
879	0.058
880	0.058
880	0.058
881	0.058
881	0.058
881	0.058
882	0.058
882	0.058
883	0.058
883	0.058
884	0.058
884	0.058
884	0.057
885	0.057
885	0.057
886	0.057
886	0.056
887	0.056
887	0.055
887	0.054
888	0.054
888	0.053
889	0.052
889	0.052
890	0.052
890	0.051
890	0.051
891	0.05
891	0.05
892	0.049
892	0.049
893	0.049
893	0.049
893	0.048
894	0.048
894	0.048
895	0.047
895	0.047
895	0.047
896	0.047
896	0.048
897	0.048
897	0.048
898	0.048
898	0.048
898	0.048
899	0.048
899	0.049
900	0.049
900	0.049
901	0.049
901	0.05
901	0.05
902	0.05
902	0.051
903	0.051
903	0.051
904	0.051
904	0.051
904	0.051
905	0.051
905	0.051
906	0.051
906	0.052
907	0.052
907	0.053
907	0.054
908	0.055
908	0.055
909	0.056
909	0.057
910	0.057
910	0.057
910	0.057
911	0.056
911	0.056
912	0.056
912	0.055
913	0.054
913	0.054
913	0.053
914	0.053
914	0.052
915	0.052
915	0.052
916	0.051
916	0.051
916	0.051
917	0.05
917	0.05
918	0.05
918	0.05
918	0.049
919	0.049
919	0.048
920	0.047
920	0.047
921	0.046
921	0.046
921	0.045
922	0.045
922	0.044
923	0.044
923	0.044
924	0.044
924	0.044
924	0.044
925	0.045
925	0.045
926	0.045
926	0.046
927	0.046
927	0.046
927	0.047
928	0.047
928	0.047
929	0.048
929	0.048
930	0.048
930	0.048
930	0.049
931	0.049
931	0.049
932	0.05
932	0.05
933	0.051
933	0.051
933	0.051
934	0.052
934	0.052
935	0.053
935	0.053
935	0.054
936	0.054
936	0.054
937	0.055
937	0.055
938	0.054
938	0.054
938	0.054
939	0.053
939	0.053
940	0.052
940	0.052
941	0.052
941	0.051
941	0.051
942	0.051
942	0.051
943	0.051
943	0.051
944	0.051
944	0.051
944	0.051
945	0.051
945	0.051
946	0.052
946	0.051
946	0.052
947	0.052
947	0.051
948	0.051
948	0.051
949	0.051
949	0.051
949	0.05
950	0.05
950	0.049
951	0.049
951	0.048
952	0.048
952	0.047
952	0.046
953	0.046
953	0.045
954	0.045
954	0.045
955	0.044
955	0.044
955	0.044
956	0.045
956	0.045
957	0.045
957	0.046
957	0.047
958	0.047
958	0.048
959	0.049
959	0.049
960	0.05
960	0.05
960	0.05
961	0.051
961	0.051
962	0.051
962	0.051
963	0.051
963	0.051
963	0.051
964	0.051
964	0.052
965	0.052
965	0.052
966	0.053
966	0.053
966	0.053
967	0.054
967	0.054
968	0.054
968	0.054
968	0.054
969	0.054
969	0.054
970	0.053
970	0.052
971	0.052
971	0.051
971	0.05
972	0.05
972	0.049
973	0.048
973	0.048
974	0.048
974	0.048
974	0.048
975	0.048
975	0.049
976	0.049
976	0.049
976	0.049
977	0.049
977	0.049
978	0.048
978	0.048
979	0.048
979	0.047
979	0.047
980	0.046
980	0.045
981	0.045
981	0.045
982	0.044
982	0.044
982	0.044
983	0.044
983	0.044
984	0.044
984	0.044
984	0.044
985	0.044
985	0.044
986	0.044
986	0.043
987	0.043
987	0.043
987	0.043
988	0.043
988	0.043
989	0.042
989	0.042
990	0.042
990	0.042
990	0.043
991	0.043
991	0.043
992	0.043
992	0.044
992	0.043
993	0.044
993	0.044
994	0.044
994	0.044
995	0.044
995	0.044
995	0.044
996	0.044
996	0.044
997	0.044
997	0.044
997	0.044
998	0.044
998	0.044
999	0.044
999	0.044
1000	0.044
1000	0.045
1000	0.044
1001	0.044
1001	0.044
1002	0.044
1002	0.044
1003	0.043
1003	0.043
1003	0.043
1004	0.042
1004	0.042
1005	0.041
1005	0.041
1005	0.041
1006	0.04
1006	0.04
1007	0.04
1007	0.039
1008	0.039
1008	0.039
1008	0.039
1009	0.039
1009	0.039
1010	0.039
1010	0.04
1010	0.04
1011	0.04
1011	0.04
1012	0.04
1012	0.04
1013	0.04
1013	0.04
1013	0.04
1014	0.04
1014	0.04
1015	0.04
1015	0.04
1016	0.039
1016	0.039
1016	0.039
1017	0.039
1017	0.038
1018	0.038
1018	0.038
1018	0.038
1019	0.039
1019	0.038
1020	0.039
1020	0.039
1021	0.039
1021	0.039
1021	0.04
1022	0.041
1022	0.041
1023	0.042
1023	0.042
1023	0.043
1024	0.043
1024	0.043
1025	0.044
1025	0.044
1026	0.044
1026	0.044
1026	0.043
1027	0.043
1027	0.043
1028	0.043
1028	0.042
1028	0.042
1029	0.042
1029	0.042
1030	0.042
1030	0.042
1031	0.042
1031	0.042
1031	0.042
1032	0.042
1032	0.042
1033	0.042
1033	0.042
1033	0.042
1034	0.041
1034	0.041
1035	0.041
1035	0.04
1036	0.04
1036	0.04
1036	0.04
1037	0.039
1037	0.039
1038	0.039
1038	0.039
1039	0.039
1039	0.039
1039	0.04
1040	0.04
1040	0.04
1041	0.041
1041	0.041
1041	0.041
1042	0.042
1042	0.042
1043	0.042
1043	0.043
1044	0.043
1044	0.043
1044	0.043
1045	0.044
1045	0.044
1046	0.044
1046	0.045
1046	0.045
1047	0.046
1047	0.046
1048	0.046
1048	0.047
1049	0.048
1049	0.048
1049	0.049
1050	0.049
1050	0.048
1051	0.049
1051	0.049
1051	0.049
1052	0.048
1052	0.048
1053	0.047
1053	0.047
1053	0.046
1054	0.045
1054	0.045
1055	0.045
1055	0.044
1056	0.044
1056	0.043
1056	0.043
1057	0.042
1057	0.042
1058	0.042
1058	0.041
1058	0.041
1059	0.041
1059	0.041
1060	0.04
1060	0.04
1061	0.04
1061	0.04
1061	0.04
1062	0.04
1062	0.04
1063	0.04
1063	0.04
1063	0.04
1064	0.039
1064	0.039
1065	0.039
1065	0.038
1066	0.038
1066	0.038
1066	0.037
1067	0.036
1067	0.036
1068	0.035
1068	0.035
1068	0.034
1069	0.034
1069	0.033
1070	0.032
1070	0.032
1071	0.031
1071	0.03
1071	0.03
1072	0.029
1072	0.029
1073	0.028
1073	0.028
1073	0.028
1074	0.028
1074	0.028
1075	0.028
1075	0.028
1076	0.029
1076	0.029
1076	0.029
1077	0.03
1077	0.03
1078	0.03
1078	0.03
1078	0.03
1079	0.03
1079	0.03
1080	0.03
1080	0.03
1080	0.03
1081	0.03
1081	0.03
1082	0.031
1082	0.031
1083	0.031
1083	0.031
1083	0.032
1084	0.032
1084	0.032
1085	0.032
1085	0.033
1085	0.033
1086	0.033
1086	0.033
1087	0.033
1087	0.033
1088	0.033
1088	0.033
1088	0.033
1089	0.033
1089	0.033
1090	0.032
1090	0.032
1090	0.031
1091	0.031
1091	0.031
1092	0.031
1092	0.031
1092	0.031
1093	0.031
1093	0.031
1094	0.031
1094	0.031
1095	0.03
1095	0.03
1095	0.03
1096	0.029
1096	0.028
1097	0.028
1097	0.028
1097	0.027
1098	0.026
1098	0.025
1099	0.025
1099	0.024
1100	0.024
1100	0.024
1100	0.023
1101	0.022
1101	0.021
1102	0.021
1102	0.02
1102	0.02
1103	0.02
1103	0.02
1104	0.02
1104	0.02
1104	0.019
1105	0.019
1105	0.018
1106	0.017
1106	0.016
1107	0.016
1107	0.015
1107	0.014
1108	0.014
1108	0.012
1109	0.011
1109	0.01
1109	0.009
1110	0.011
1110	0.01
1111	0.008
1111	0.008
