Data from reversibility-20sec_Absorbance__6657__000000000006657.txt Node

Date: Thu Dec 07 01:12:06 CET 2023
User: Marek
Spectrometer: MAYP115816
Trigger mode: 0
Integration Time (sec): 2.000000E-1
Scans to average: 10
Electric dark correction enabled: true
Nonlinearity correction enabled: true
Boxcar width: 5
XAxis mode: Wavelengths
Number of Pixels in Spectrum: 2068
>>>>>Begin Spectral Data<<<<<
199	-0.171
199	-0.139
200	-0.078
200	-0.029
201	0
201	0.017
202	0.027
202	0.037
203	0.042
203	0.044
204	0.056
204	0.07
205	0.082
205	0.091
205	0.091
206	0.091
206	0.09
207	0.09
207	0.091
208	0.09
208	0.091
209	0.093
209	0.092
210	0.091
210	0.089
211	0.088
211	0.092
212	0.091
212	0.093
213	0.094
213	0.099
213	0.1
214	0.104
214	0.105
215	0.106
215	0.107
216	0.11
216	0.108
217	0.111
217	0.113
218	0.11
218	0.113
219	0.116
219	0.116
220	0.118
220	0.117
221	0.117
221	0.12
221	0.127
222	0.134
222	0.14
223	0.148
223	0.151
224	0.159
224	0.17
225	0.179
225	0.192
226	0.207
226	0.216
227	0.226
227	0.234
228	0.248
228	0.265
229	0.282
229	0.302
229	0.322
230	0.346
230	0.373
231	0.402
231	0.44
232	0.479
232	0.525
233	0.567
233	0.614
234	0.664
234	0.717
235	0.769
235	0.827
236	0.879
236	0.931
236	0.981
237	1.033
237	1.082
238	1.128
238	1.175
239	1.221
239	1.262
240	1.303
240	1.337
241	1.373
241	1.408
242	1.439
242	1.472
243	1.5
243	1.525
243	1.548
244	1.571
244	1.593
245	1.611
245	1.635
246	1.652
246	1.668
247	1.681
247	1.693
248	1.707
248	1.723
249	1.734
249	1.742
250	1.748
250	1.755
250	1.759
251	1.762
251	1.765
252	1.772
252	1.774
253	1.776
253	1.774
254	1.776
254	1.778
255	1.778
255	1.78
256	1.779
256	1.78
257	1.781
257	1.779
258	1.779
258	1.78
258	1.779
259	1.777
259	1.776
260	1.774
260	1.774
261	1.776
261	1.777
262	1.78
262	1.781
263	1.782
263	1.78
264	1.781
264	1.781
265	1.781
265	1.782
265	1.781
266	1.781
266	1.782
267	1.779
267	1.779
268	1.778
268	1.779
269	1.781
269	1.781
270	1.781
270	1.779
271	1.778
271	1.776
272	1.773
272	1.771
272	1.769
273	1.766
273	1.762
274	1.758
274	1.753
275	1.749
275	1.745
276	1.739
276	1.732
277	1.724
277	1.715
278	1.703
278	1.692
278	1.68
279	1.666
279	1.65
280	1.628
280	1.604
281	1.576
281	1.544
282	1.51
282	1.475
283	1.439
283	1.403
284	1.367
284	1.331
285	1.297
285	1.266
285	1.237
286	1.211
286	1.189
287	1.168
287	1.151
288	1.135
288	1.122
289	1.111
289	1.101
290	1.092
290	1.084
291	1.077
291	1.071
292	1.065
292	1.06
292	1.055
293	1.051
293	1.046
294	1.042
294	1.038
295	1.034
295	1.031
296	1.027
296	1.023
297	1.02
297	1.016
298	1.013
298	1.01
298	1.007
299	1.003
299	1
300	0.997
300	0.994
301	0.991
301	0.988
302	0.985
302	0.983
303	0.98
303	0.977
304	0.974
304	0.971
305	0.968
305	0.966
305	0.963
306	0.96
306	0.957
307	0.954
307	0.951
308	0.948
308	0.946
309	0.943
309	0.94
310	0.937
310	0.934
311	0.93
311	0.926
311	0.923
312	0.92
312	0.916
313	0.912
313	0.908
314	0.904
314	0.9
315	0.895
315	0.891
316	0.886
316	0.882
317	0.877
317	0.872
318	0.867
318	0.862
318	0.857
319	0.851
319	0.846
320	0.84
320	0.834
321	0.828
321	0.822
322	0.816
322	0.809
323	0.803
323	0.796
324	0.79
324	0.783
324	0.776
325	0.769
325	0.762
326	0.756
326	0.749
327	0.742
327	0.735
328	0.728
328	0.721
329	0.714
329	0.707
330	0.7
330	0.693
330	0.686
331	0.679
331	0.672
332	0.665
332	0.658
333	0.651
333	0.644
334	0.637
334	0.631
335	0.624
335	0.617
336	0.61
336	0.604
336	0.597
337	0.591
337	0.584
338	0.578
338	0.572
339	0.566
339	0.56
340	0.554
340	0.549
341	0.543
341	0.537
342	0.532
342	0.526
342	0.521
343	0.516
343	0.511
344	0.506
344	0.501
345	0.496
345	0.491
346	0.487
346	0.482
347	0.478
347	0.474
348	0.47
348	0.466
348	0.462
349	0.458
349	0.454
350	0.451
350	0.447
351	0.444
351	0.441
352	0.437
352	0.434
353	0.431
353	0.428
354	0.425
354	0.422
354	0.419
355	0.416
355	0.413
356	0.41
356	0.407
357	0.404
357	0.401
358	0.398
358	0.395
359	0.393
359	0.391
360	0.389
360	0.387
360	0.385
361	0.383
361	0.381
362	0.379
362	0.377
363	0.375
363	0.374
364	0.371
364	0.369
365	0.368
365	0.365
366	0.364
366	0.362
366	0.36
367	0.358
367	0.357
368	0.355
368	0.353
369	0.351
369	0.35
370	0.348
370	0.347
371	0.346
371	0.344
372	0.343
372	0.342
372	0.34
373	0.339
373	0.338
374	0.337
374	0.336
375	0.335
375	0.334
376	0.333
376	0.332
377	0.331
377	0.33
378	0.329
378	0.328
378	0.327
379	0.326
379	0.325
380	0.324
380	0.323
381	0.322
381	0.321
382	0.32
382	0.32
383	0.319
383	0.318
383	0.317
384	0.317
384	0.316
385	0.316
385	0.315
386	0.315
386	0.314
387	0.313
387	0.313
388	0.312
388	0.312
389	0.311
389	0.311
389	0.31
390	0.309
390	0.309
391	0.308
391	0.308
392	0.307
392	0.307
393	0.306
393	0.306
394	0.305
394	0.305
394	0.304
395	0.304
395	0.303
396	0.303
396	0.303
397	0.302
397	0.301
398	0.301
398	0.301
399	0.3
399	0.3
400	0.299
400	0.299
400	0.298
401	0.298
401	0.298
402	0.297
402	0.297
403	0.296
403	0.296
404	0.295
404	0.295
405	0.295
405	0.294
405	0.294
406	0.294
406	0.293
407	0.293
407	0.293
408	0.292
408	0.292
409	0.292
409	0.291
410	0.291
410	0.291
411	0.29
411	0.29
411	0.29
412	0.289
412	0.289
413	0.289
413	0.288
414	0.288
414	0.288
415	0.287
415	0.287
416	0.287
416	0.286
416	0.286
417	0.285
417	0.285
418	0.285
418	0.284
419	0.284
419	0.283
420	0.283
420	0.282
421	0.282
421	0.281
421	0.281
422	0.281
422	0.281
423	0.28
423	0.28
424	0.279
424	0.279
425	0.279
425	0.279
426	0.278
426	0.278
427	0.278
427	0.278
427	0.277
428	0.277
428	0.276
429	0.276
429	0.276
430	0.276
430	0.275
431	0.275
431	0.275
432	0.275
432	0.275
432	0.275
433	0.274
433	0.274
434	0.274
434	0.274
435	0.274
435	0.274
436	0.273
436	0.273
437	0.273
437	0.273
437	0.273
438	0.272
438	0.272
439	0.272
439	0.272
440	0.271
440	0.271
441	0.271
441	0.271
442	0.271
442	0.27
442	0.27
443	0.27
443	0.27
444	0.27
444	0.27
445	0.27
445	0.27
446	0.27
446	0.269
447	0.269
447	0.269
447	0.269
448	0.269
448	0.269
449	0.269
449	0.269
450	0.268
450	0.268
451	0.268
451	0.268
452	0.268
452	0.268
452	0.268
453	0.268
453	0.268
454	0.268
454	0.268
455	0.268
455	0.268
456	0.268
456	0.268
457	0.268
457	0.268
458	0.268
458	0.268
458	0.268
459	0.268
459	0.268
460	0.268
460	0.268
461	0.268
461	0.268
462	0.268
462	0.268
463	0.268
463	0.268
463	0.268
464	0.268
464	0.268
465	0.268
465	0.268
466	0.268
466	0.268
467	0.268
467	0.269
467	0.269
468	0.269
468	0.269
469	0.27
469	0.27
470	0.27
470	0.271
471	0.271
471	0.271
472	0.272
472	0.272
472	0.273
473	0.273
473	0.273
474	0.273
474	0.274
475	0.274
475	0.274
476	0.275
476	0.275
477	0.275
477	0.276
477	0.276
478	0.277
478	0.277
479	0.278
479	0.278
480	0.279
480	0.28
481	0.28
481	0.281
482	0.281
482	0.282
482	0.282
483	0.283
483	0.284
484	0.284
484	0.285
485	0.285
485	0.286
486	0.286
486	0.287
487	0.287
487	0.288
487	0.289
488	0.289
488	0.29
489	0.291
489	0.293
490	0.294
490	0.295
491	0.297
491	0.298
492	0.299
492	0.3
492	0.302
493	0.303
493	0.304
494	0.305
494	0.306
495	0.307
495	0.308
496	0.31
496	0.311
496	0.312
497	0.313
497	0.314
498	0.315
498	0.316
499	0.317
499	0.319
500	0.32
500	0.321
501	0.322
501	0.323
501	0.324
502	0.325
502	0.326
503	0.328
503	0.329
504	0.33
504	0.331
505	0.332
505	0.333
506	0.334
506	0.335
506	0.336
507	0.337
507	0.338
508	0.339
508	0.34
509	0.341
509	0.342
510	0.343
510	0.344
511	0.345
511	0.347
511	0.348
512	0.349
512	0.349
513	0.35
513	0.351
514	0.352
514	0.353
515	0.354
515	0.354
515	0.354
516	0.355
516	0.356
517	0.357
517	0.357
518	0.358
518	0.358
519	0.358
519	0.358
520	0.358
520	0.358
520	0.359
521	0.359
521	0.359
522	0.359
522	0.359
523	0.358
523	0.358
524	0.358
524	0.358
524	0.358
525	0.358
525	0.357
526	0.357
526	0.356
527	0.355
527	0.355
528	0.354
528	0.353
529	0.352
529	0.351
529	0.35
530	0.349
530	0.348
531	0.347
531	0.346
532	0.345
532	0.344
533	0.343
533	0.342
533	0.341
534	0.339
534	0.338
535	0.337
535	0.336
536	0.334
536	0.333
537	0.332
537	0.33
538	0.329
538	0.327
538	0.325
539	0.324
539	0.323
540	0.321
540	0.319
541	0.317
541	0.315
542	0.314
542	0.312
542	0.31
543	0.309
543	0.307
544	0.305
544	0.303
545	0.302
545	0.3
546	0.298
546	0.296
547	0.294
547	0.292
547	0.29
548	0.288
548	0.286
549	0.284
549	0.282
550	0.28
550	0.279
551	0.276
551	0.274
551	0.273
552	0.271
552	0.269
553	0.267
553	0.265
554	0.263
554	0.261
555	0.259
555	0.257
556	0.255
556	0.253
556	0.251
557	0.25
557	0.248
558	0.247
558	0.245
559	0.244
559	0.242
560	0.241
560	0.24
560	0.238
561	0.237
561	0.235
562	0.233
562	0.232
563	0.229
563	0.228
564	0.226
564	0.224
564	0.222
565	0.221
565	0.219
566	0.217
566	0.216
567	0.214
567	0.213
568	0.211
568	0.209
568	0.208
569	0.207
569	0.205
570	0.203
570	0.201
571	0.2
571	0.199
572	0.197
572	0.196
573	0.195
573	0.194
573	0.192
574	0.191
574	0.19
575	0.189
575	0.188
576	0.187
576	0.186
577	0.184
577	0.183
577	0.182
578	0.181
578	0.18
579	0.179
579	0.178
580	0.177
580	0.175
581	0.173
581	0.172
581	0.172
582	0.171
582	0.171
583	0.17
583	0.169
584	0.168
584	0.166
585	0.165
585	0.164
585	0.163
586	0.162
586	0.161
587	0.16
587	0.159
588	0.158
588	0.157
589	0.156
589	0.156
590	0.155
590	0.155
590	0.155
591	0.154
591	0.153
592	0.152
592	0.151
593	0.15
593	0.15
594	0.149
594	0.147
594	0.146
595	0.146
595	0.145
596	0.143
596	0.143
597	0.143
597	0.143
598	0.142
598	0.142
598	0.141
599	0.141
599	0.14
600	0.139
600	0.139
601	0.138
601	0.138
602	0.137
602	0.136
602	0.135
603	0.135
603	0.134
604	0.134
604	0.134
605	0.133
605	0.133
606	0.132
606	0.132
606	0.131
607	0.131
607	0.13
608	0.13
608	0.129
609	0.128
609	0.127
610	0.127
610	0.126
610	0.126
611	0.125
611	0.125
612	0.125
612	0.125
613	0.125
613	0.125
614	0.124
614	0.123
614	0.123
615	0.123
615	0.123
616	0.122
616	0.122
617	0.122
617	0.121
618	0.12
618	0.12
618	0.12
619	0.12
619	0.12
620	0.12
620	0.12
621	0.119
621	0.119
622	0.118
622	0.117
622	0.117
623	0.116
623	0.115
624	0.115
624	0.114
625	0.113
625	0.113
626	0.113
626	0.113
626	0.113
627	0.113
627	0.112
628	0.112
628	0.111
629	0.111
629	0.111
630	0.11
630	0.11
630	0.11
631	0.109
631	0.109
632	0.108
632	0.108
633	0.108
633	0.108
634	0.108
634	0.108
634	0.108
635	0.108
635	0.107
636	0.107
636	0.107
637	0.107
637	0.107
638	0.106
638	0.106
638	0.106
639	0.105
639	0.105
640	0.105
640	0.104
641	0.104
641	0.104
642	0.103
642	0.103
642	0.103
643	0.103
643	0.103
644	0.103
644	0.102
645	0.102
645	0.102
646	0.102
646	0.102
646	0.101
647	0.101
647	0.1
648	0.1
648	0.099
649	0.098
649	0.098
650	0.098
650	0.098
650	0.098
651	0.098
651	0.097
652	0.097
652	0.098
653	0.098
653	0.1
653	0.106
654	0.085
654	0.069
655	0.067
655	0.067
656	0.067
656	0.068
657	0.068
657	0.068
657	0.068
658	0.067
658	0.06
659	0.074
659	0.094
660	0.1
660	0.1
661	0.099
661	0.099
661	0.099
662	0.098
662	0.097
663	0.097
663	0.096
664	0.096
664	0.096
665	0.095
665	0.095
665	0.095
666	0.095
666	0.095
667	0.095
667	0.095
668	0.096
668	0.096
669	0.096
669	0.096
669	0.096
670	0.096
670	0.096
671	0.095
671	0.095
672	0.094
672	0.094
672	0.093
673	0.093
673	0.092
674	0.092
674	0.091
675	0.091
675	0.091
676	0.091
676	0.092
676	0.092
677	0.092
677	0.092
678	0.091
678	0.091
679	0.091
679	0.09
680	0.09
680	0.09
680	0.089
681	0.089
681	0.09
682	0.09
682	0.09
683	0.091
683	0.091
684	0.091
684	0.091
684	0.091
685	0.091
685	0.092
686	0.091
686	0.091
687	0.091
687	0.091
687	0.09
688	0.09
688	0.09
689	0.09
689	0.091
690	0.09
690	0.09
691	0.09
691	0.09
691	0.09
692	0.09
692	0.09
693	0.09
693	0.09
694	0.09
694	0.09
695	0.091
695	0.092
695	0.092
696	0.092
696	0.092
697	0.092
697	0.092
698	0.092
698	0.091
698	0.092
699	0.092
699	0.091
700	0.09
700	0.09
701	0.09
701	0.09
702	0.089
702	0.089
702	0.089
703	0.088
703	0.088
704	0.087
704	0.087
705	0.087
705	0.087
705	0.087
706	0.087
706	0.087
707	0.087
707	0.087
708	0.087
708	0.087
709	0.087
709	0.087
709	0.087
710	0.087
710	0.087
711	0.087
711	0.087
712	0.087
712	0.087
713	0.087
713	0.087
713	0.087
714	0.086
714	0.086
715	0.086
715	0.085
716	0.084
716	0.084
716	0.083
717	0.083
717	0.083
718	0.082
718	0.082
719	0.082
719	0.083
720	0.083
720	0.083
720	0.084
721	0.084
721	0.085
722	0.085
722	0.085
723	0.085
723	0.085
723	0.085
724	0.085
724	0.084
725	0.083
725	0.083
726	0.082
726	0.081
727	0.081
727	0.08
727	0.08
728	0.08
728	0.08
729	0.08
729	0.08
730	0.08
730	0.08
730	0.08
731	0.081
731	0.081
732	0.082
732	0.082
733	0.082
733	0.082
734	0.083
734	0.083
734	0.083
735	0.083
735	0.083
736	0.082
736	0.082
737	0.082
737	0.082
737	0.081
738	0.08
738	0.08
739	0.079
739	0.079
740	0.078
740	0.078
741	0.078
741	0.078
741	0.078
742	0.078
742	0.079
743	0.08
743	0.08
744	0.081
744	0.081
744	0.081
745	0.081
745	0.081
746	0.081
746	0.08
747	0.08
747	0.079
748	0.079
748	0.079
748	0.078
749	0.078
749	0.078
750	0.078
750	0.078
751	0.078
751	0.078
751	0.078
752	0.078
752	0.077
753	0.077
753	0.077
754	0.076
754	0.076
754	0.076
755	0.076
755	0.076
756	0.075
756	0.074
757	0.074
757	0.074
758	0.074
758	0.074
758	0.074
759	0.074
759	0.074
760	0.073
760	0.073
761	0.073
761	0.074
761	0.074
762	0.074
762	0.074
763	0.073
763	0.073
764	0.072
764	0.072
764	0.072
765	0.071
765	0.071
766	0.071
766	0.071
767	0.07
767	0.069
768	0.069
768	0.069
768	0.07
769	0.07
769	0.07
770	0.071
770	0.072
771	0.072
771	0.073
771	0.074
772	0.075
772	0.076
773	0.076
773	0.076
774	0.076
774	0.076
775	0.077
775	0.077
775	0.076
776	0.076
776	0.076
777	0.077
777	0.077
778	0.077
778	0.076
778	0.076
779	0.076
779	0.075
780	0.074
780	0.074
781	0.073
781	0.072
781	0.072
782	0.071
782	0.071
783	0.071
783	0.071
784	0.071
784	0.071
784	0.071
785	0.071
785	0.071
786	0.071
786	0.071
787	0.07
787	0.07
788	0.069
788	0.068
788	0.067
789	0.067
789	0.067
790	0.066
790	0.066
791	0.066
791	0.065
791	0.065
792	0.066
792	0.066
793	0.065
793	0.065
794	0.065
794	0.064
794	0.064
795	0.064
795	0.064
796	0.064
796	0.064
797	0.064
797	0.065
797	0.065
798	0.065
798	0.066
799	0.066
799	0.066
800	0.065
800	0.065
801	0.065
801	0.065
801	0.065
802	0.065
802	0.065
803	0.065
803	0.065
804	0.065
804	0.066
804	0.066
805	0.065
805	0.065
806	0.065
806	0.065
807	0.064
807	0.064
807	0.064
808	0.064
808	0.063
809	0.063
809	0.063
810	0.063
810	0.063
810	0.063
811	0.063
811	0.063
812	0.064
812	0.063
813	0.063
813	0.063
813	0.063
814	0.063
814	0.063
815	0.063
815	0.063
816	0.063
816	0.062
817	0.061
817	0.061
817	0.061
818	0.061
818	0.061
819	0.061
819	0.061
820	0.061
820	0.061
820	0.061
821	0.061
821	0.061
822	0.061
822	0.061
823	0.061
823	0.061
823	0.061
824	0.062
824	0.062
825	0.063
825	0.064
826	0.064
826	0.064
826	0.065
827	0.065
827	0.065
828	0.066
828	0.066
829	0.066
829	0.066
829	0.066
830	0.066
830	0.066
831	0.067
831	0.067
832	0.067
832	0.067
832	0.067
833	0.067
833	0.067
834	0.066
834	0.066
835	0.065
835	0.065
835	0.064
836	0.064
836	0.063
837	0.063
837	0.062
838	0.062
838	0.061
839	0.06
839	0.059
839	0.058
840	0.057
840	0.056
841	0.055
841	0.054
842	0.053
842	0.052
842	0.052
843	0.051
843	0.051
844	0.05
844	0.05
845	0.05
845	0.049
845	0.049
846	0.049
846	0.049
847	0.049
847	0.05
848	0.05
848	0.051
848	0.051
849	0.052
849	0.052
850	0.053
850	0.053
851	0.054
851	0.054
851	0.054
852	0.054
852	0.054
853	0.054
853	0.054
854	0.054
854	0.054
854	0.055
855	0.055
855	0.056
856	0.056
856	0.057
857	0.057
857	0.058
857	0.058
858	0.058
858	0.058
859	0.058
859	0.057
860	0.057
860	0.056
860	0.056
861	0.055
861	0.054
862	0.053
862	0.053
863	0.052
863	0.051
863	0.051
864	0.051
864	0.051
865	0.051
865	0.051
866	0.051
866	0.051
866	0.052
867	0.052
867	0.053
868	0.053
868	0.054
869	0.054
869	0.054
869	0.054
870	0.054
870	0.053
871	0.053
871	0.053
872	0.053
872	0.052
872	0.051
873	0.051
873	0.05
874	0.05
874	0.05
875	0.049
875	0.049
875	0.049
876	0.049
876	0.049
877	0.05
877	0.05
878	0.05
878	0.05
878	0.05
879	0.05
879	0.05
880	0.051
880	0.051
881	0.051
881	0.051
881	0.051
882	0.051
882	0.051
883	0.051
883	0.051
884	0.051
884	0.051
884	0.051
885	0.051
885	0.051
886	0.05
886	0.05
887	0.05
887	0.05
887	0.049
888	0.049
888	0.048
889	0.048
889	0.048
890	0.048
890	0.048
890	0.048
891	0.048
891	0.048
892	0.047
892	0.047
893	0.047
893	0.047
893	0.047
894	0.046
894	0.046
895	0.045
895	0.045
895	0.045
896	0.045
896	0.046
897	0.046
897	0.046
898	0.046
898	0.047
898	0.047
899	0.047
899	0.047
900	0.047
900	0.047
901	0.046
901	0.046
901	0.046
902	0.046
902	0.045
903	0.045
903	0.045
904	0.045
904	0.045
904	0.045
905	0.045
905	0.045
906	0.045
906	0.045
907	0.045
907	0.046
907	0.046
908	0.047
908	0.047
909	0.047
909	0.047
910	0.047
910	0.047
910	0.046
911	0.046
911	0.046
912	0.045
912	0.045
913	0.045
913	0.044
913	0.044
914	0.044
914	0.044
915	0.044
915	0.043
916	0.043
916	0.043
916	0.043
917	0.042
917	0.042
918	0.041
918	0.041
918	0.04
919	0.04
919	0.039
920	0.039
920	0.038
921	0.038
921	0.038
921	0.038
922	0.037
922	0.038
923	0.038
923	0.038
924	0.039
924	0.039
924	0.04
925	0.041
925	0.041
926	0.042
926	0.043
927	0.044
927	0.044
927	0.045
928	0.045
928	0.045
929	0.046
929	0.046
930	0.046
930	0.047
930	0.047
931	0.047
931	0.047
932	0.048
932	0.048
933	0.048
933	0.048
933	0.048
934	0.048
934	0.048
935	0.048
935	0.047
935	0.047
936	0.046
936	0.045
937	0.045
937	0.044
938	0.043
938	0.042
938	0.041
939	0.041
939	0.04
940	0.04
940	0.04
941	0.04
941	0.04
941	0.041
942	0.041
942	0.041
943	0.041
943	0.041
944	0.042
944	0.042
944	0.042
945	0.042
945	0.043
946	0.043
946	0.043
946	0.043
947	0.043
947	0.043
948	0.043
948	0.043
949	0.042
949	0.042
949	0.042
950	0.042
950	0.042
951	0.042
951	0.042
952	0.041
952	0.041
952	0.041
953	0.041
953	0.041
954	0.041
954	0.041
955	0.042
955	0.042
955	0.042
956	0.042
956	0.043
957	0.043
957	0.043
957	0.044
958	0.044
958	0.044
959	0.044
959	0.044
960	0.044
960	0.044
960	0.044
961	0.043
961	0.043
962	0.043
962	0.043
963	0.042
963	0.042
963	0.042
964	0.042
964	0.043
965	0.043
965	0.043
966	0.043
966	0.044
966	0.044
967	0.044
967	0.044
968	0.044
968	0.044
968	0.043
969	0.043
969	0.042
970	0.041
970	0.04
971	0.039
971	0.038
971	0.038
972	0.037
972	0.037
973	0.036
973	0.036
974	0.036
974	0.037
974	0.037
975	0.038
975	0.039
976	0.04
976	0.04
976	0.041
977	0.041
977	0.041
978	0.041
978	0.042
979	0.042
979	0.041
979	0.041
980	0.041
980	0.04
981	0.039
981	0.039
982	0.039
982	0.039
982	0.039
983	0.038
983	0.038
984	0.038
984	0.038
984	0.038
985	0.039
985	0.039
986	0.039
986	0.039
987	0.039
987	0.039
987	0.039
988	0.04
988	0.04
989	0.039
989	0.039
990	0.039
990	0.039
990	0.039
991	0.038
991	0.038
992	0.037
992	0.037
992	0.036
993	0.035
993	0.035
994	0.034
994	0.033
995	0.032
995	0.032
995	0.031
996	0.031
996	0.031
997	0.031
997	0.032
997	0.032
998	0.032
998	0.033
999	0.034
999	0.034
1000	0.035
1000	0.035
1000	0.036
1001	0.036
1001	0.036
1002	0.036
1002	0.036
1003	0.035
1003	0.035
1003	0.034
1004	0.033
1004	0.032
1005	0.031
1005	0.03
1005	0.029
1006	0.028
1006	0.028
1007	0.027
1007	0.027
1008	0.026
1008	0.026
1008	0.026
1009	0.026
1009	0.027
1010	0.027
1010	0.027
1010	0.027
1011	0.027
1011	0.027
1012	0.027
1012	0.027
1013	0.027
1013	0.027
1013	0.027
1014	0.026
1014	0.026
1015	0.027
1015	0.027
1016	0.027
1016	0.027
1016	0.027
1017	0.028
1017	0.028
1018	0.028
1018	0.028
1018	0.028
1019	0.029
1019	0.029
1020	0.03
1020	0.03
1021	0.03
1021	0.031
1021	0.031
1022	0.032
1022	0.032
1023	0.032
1023	0.032
1023	0.033
1024	0.033
1024	0.033
1025	0.033
1025	0.033
1026	0.033
1026	0.033
1026	0.032
1027	0.032
1027	0.032
1028	0.032
1028	0.032
1028	0.032
1029	0.032
1029	0.032
1030	0.032
1030	0.032
1031	0.033
1031	0.033
1031	0.034
1032	0.034
1032	0.035
1033	0.035
1033	0.036
1033	0.036
1034	0.036
1034	0.036
1035	0.036
1035	0.036
1036	0.037
1036	0.037
1036	0.037
1037	0.037
1037	0.036
1038	0.036
1038	0.036
1039	0.036
1039	0.036
1039	0.036
1040	0.036
1040	0.036
1041	0.036
1041	0.036
1041	0.035
1042	0.035
1042	0.035
1043	0.035
1043	0.035
1044	0.035
1044	0.034
1044	0.034
1045	0.034
1045	0.033
1046	0.034
1046	0.034
1046	0.034
1047	0.034
1047	0.034
1048	0.034
1048	0.035
1049	0.035
1049	0.035
1049	0.036
1050	0.036
1050	0.036
1051	0.035
1051	0.035
1051	0.035
1052	0.035
1052	0.034
1053	0.033
1053	0.033
1053	0.032
1054	0.031
1054	0.031
1055	0.031
1055	0.03
1056	0.029
1056	0.029
1056	0.028
1057	0.028
1057	0.027
1058	0.027
1058	0.026
1058	0.026
1059	0.025
1059	0.025
1060	0.024
1060	0.024
1061	0.024
1061	0.023
1061	0.023
1062	0.023
1062	0.023
1063	0.023
1063	0.022
1063	0.022
1064	0.022
1064	0.022
1065	0.022
1065	0.022
1066	0.022
1066	0.021
1066	0.021
1067	0.021
1067	0.021
1068	0.021
1068	0.021
1068	0.021
1069	0.021
1069	0.021
1070	0.021
1070	0.021
1071	0.021
1071	0.021
1071	0.02
1072	0.02
1072	0.02
1073	0.019
1073	0.019
1073	0.019
1074	0.019
1074	0.02
1075	0.02
1075	0.021
1076	0.021
1076	0.022
1076	0.022
1077	0.023
1077	0.023
1078	0.023
1078	0.024
1078	0.024
1079	0.023
1079	0.023
1080	0.022
1080	0.022
1080	0.022
1081	0.021
1081	0.021
1082	0.021
1082	0.022
1083	0.022
1083	0.021
1083	0.022
1084	0.022
1084	0.022
1085	0.022
1085	0.023
1085	0.023
1086	0.024
1086	0.024
1087	0.024
1087	0.023
1088	0.024
1088	0.023
1088	0.023
1089	0.023
1089	0.022
1090	0.021
1090	0.021
1090	0.02
1091	0.019
1091	0.019
1092	0.019
1092	0.018
1092	0.018
1093	0.017
1093	0.017
1094	0.017
1094	0.016
1095	0.016
1095	0.015
1095	0.015
1096	0.014
1096	0.013
1097	0.013
1097	0.012
1097	0.012
1098	0.012
1098	0.011
1099	0.01
1099	0.009
1100	0.008
1100	0.007
1100	0.006
1101	0.006
1101	0.005
1102	0.004
1102	0.003
1102	0.001
1103	0.001
1103	0.001
1104	0.001
1104	0
1104	-0.001
1105	-0.002
1105	-0.004
1106	-0.005
1106	-0.005
1107	-0.006
1107	-0.005
1107	-0.005
1108	-0.007
1108	-0.007
1109	-0.007
1109	-0.008
1109	-0.007
1110	-0.006
1110	-0.005
1111	-0.005
1111	-0.004
