Data from reversibility-20sec_Absorbance__2745__000000000002745.txt Node

Date: Wed Dec 06 03:28:06 CET 2023
User: Marek
Spectrometer: MAYP115816
Trigger mode: 0
Integration Time (sec): 2.000000E-1
Scans to average: 10
Electric dark correction enabled: true
Nonlinearity correction enabled: true
Boxcar width: 5
XAxis mode: Wavelengths
Number of Pixels in Spectrum: 2068
>>>>>Begin Spectral Data<<<<<
199	-0.158
199	-0.134
200	-0.069
200	-0.018
201	0.011
201	0.029
202	0.039
202	0.048
203	0.052
203	0.055
204	0.066
204	0.08
205	0.094
205	0.098
205	0.098
206	0.098
206	0.098
207	0.1
207	0.098
208	0.099
208	0.099
209	0.102
209	0.099
210	0.097
210	0.098
211	0.099
211	0.099
212	0.095
212	0.096
213	0.099
213	0.098
213	0.099
214	0.102
214	0.105
215	0.109
215	0.109
216	0.111
216	0.11
217	0.114
217	0.113
218	0.114
218	0.12
219	0.126
219	0.125
220	0.129
220	0.128
221	0.129
221	0.133
221	0.14
222	0.145
222	0.153
223	0.159
223	0.16
224	0.164
224	0.173
225	0.182
225	0.194
226	0.204
226	0.214
227	0.223
227	0.236
228	0.25
228	0.263
229	0.282
229	0.306
229	0.329
230	0.352
230	0.381
231	0.415
231	0.452
232	0.491
232	0.533
233	0.576
233	0.626
234	0.68
234	0.73
235	0.783
235	0.838
236	0.892
236	0.946
236	1
237	1.051
237	1.103
238	1.155
238	1.205
239	1.255
239	1.303
240	1.349
240	1.39
241	1.429
241	1.467
242	1.501
242	1.539
243	1.573
243	1.602
243	1.627
244	1.65
244	1.675
245	1.693
245	1.718
246	1.739
246	1.759
247	1.774
247	1.79
248	1.808
248	1.825
249	1.84
249	1.849
250	1.86
250	1.874
250	1.881
251	1.886
251	1.894
252	1.904
252	1.908
253	1.911
253	1.912
254	1.914
254	1.921
255	1.917
255	1.917
256	1.919
256	1.92
257	1.92
257	1.92
258	1.922
258	1.924
258	1.926
259	1.928
259	1.928
260	1.93
260	1.934
261	1.933
261	1.937
262	1.941
262	1.945
263	1.949
263	1.951
264	1.951
264	1.952
265	1.954
265	1.956
265	1.958
266	1.96
266	1.962
267	1.961
267	1.963
268	1.963
268	1.966
269	1.97
269	1.971
270	1.97
270	1.971
271	1.968
271	1.971
272	1.969
272	1.967
272	1.963
273	1.957
273	1.949
274	1.941
274	1.937
275	1.931
275	1.925
276	1.92
276	1.911
277	1.904
277	1.895
278	1.884
278	1.874
278	1.861
279	1.846
279	1.825
280	1.798
280	1.766
281	1.73
281	1.689
282	1.646
282	1.602
283	1.559
283	1.516
284	1.475
284	1.436
285	1.398
285	1.365
285	1.334
286	1.306
286	1.283
287	1.262
287	1.244
288	1.228
288	1.215
289	1.203
289	1.193
290	1.184
290	1.176
291	1.169
291	1.163
292	1.157
292	1.152
292	1.146
293	1.141
293	1.137
294	1.133
294	1.129
295	1.126
295	1.123
296	1.119
296	1.116
297	1.113
297	1.11
298	1.106
298	1.104
298	1.1
299	1.097
299	1.094
300	1.091
300	1.088
301	1.084
301	1.082
302	1.079
302	1.075
303	1.073
303	1.07
304	1.067
304	1.064
305	1.061
305	1.059
305	1.056
306	1.053
306	1.05
307	1.048
307	1.045
308	1.041
308	1.038
309	1.035
309	1.032
310	1.029
310	1.025
311	1.022
311	1.018
311	1.015
312	1.011
312	1.007
313	1.003
313	0.999
314	0.995
314	0.991
315	0.986
315	0.982
316	0.977
316	0.972
317	0.967
317	0.962
318	0.956
318	0.951
318	0.945
319	0.94
319	0.934
320	0.928
320	0.922
321	0.916
321	0.909
322	0.903
322	0.897
323	0.89
323	0.884
324	0.877
324	0.87
324	0.863
325	0.856
325	0.85
326	0.843
326	0.836
327	0.829
327	0.821
328	0.815
328	0.807
329	0.8
329	0.793
330	0.786
330	0.779
330	0.771
331	0.764
331	0.757
332	0.75
332	0.743
333	0.736
333	0.729
334	0.722
334	0.715
335	0.708
335	0.701
336	0.694
336	0.688
336	0.681
337	0.674
337	0.668
338	0.662
338	0.655
339	0.649
339	0.643
340	0.637
340	0.631
341	0.625
341	0.62
342	0.614
342	0.609
342	0.604
343	0.599
343	0.593
344	0.588
344	0.583
345	0.579
345	0.574
346	0.569
346	0.565
347	0.56
347	0.556
348	0.551
348	0.547
348	0.543
349	0.539
349	0.536
350	0.532
350	0.528
351	0.525
351	0.521
352	0.518
352	0.515
353	0.512
353	0.509
354	0.505
354	0.502
354	0.499
355	0.496
355	0.493
356	0.49
356	0.487
357	0.484
357	0.481
358	0.478
358	0.475
359	0.473
359	0.47
360	0.468
360	0.466
360	0.463
361	0.461
361	0.459
362	0.458
362	0.456
363	0.454
363	0.452
364	0.45
364	0.448
365	0.445
365	0.443
366	0.441
366	0.44
366	0.438
367	0.436
367	0.434
368	0.432
368	0.43
369	0.428
369	0.427
370	0.425
370	0.424
371	0.422
371	0.42
372	0.419
372	0.417
372	0.416
373	0.415
373	0.414
374	0.412
374	0.411
375	0.41
375	0.408
376	0.407
376	0.406
377	0.405
377	0.403
378	0.402
378	0.401
378	0.4
379	0.399
379	0.398
380	0.397
380	0.396
381	0.395
381	0.394
382	0.393
382	0.392
383	0.391
383	0.39
383	0.39
384	0.389
384	0.388
385	0.387
385	0.386
386	0.386
386	0.385
387	0.384
387	0.383
388	0.383
388	0.382
389	0.381
389	0.381
389	0.38
390	0.379
390	0.378
391	0.378
391	0.377
392	0.377
392	0.376
393	0.376
393	0.375
394	0.374
394	0.374
394	0.373
395	0.373
395	0.372
396	0.371
396	0.371
397	0.37
397	0.37
398	0.369
398	0.369
399	0.368
399	0.367
400	0.367
400	0.366
400	0.366
401	0.366
401	0.365
402	0.364
402	0.364
403	0.363
403	0.363
404	0.362
404	0.361
405	0.361
405	0.361
405	0.36
406	0.36
406	0.359
407	0.358
407	0.358
408	0.357
408	0.357
409	0.356
409	0.356
410	0.355
410	0.355
411	0.355
411	0.354
411	0.354
412	0.354
412	0.353
413	0.353
413	0.352
414	0.352
414	0.352
415	0.351
415	0.351
416	0.35
416	0.35
416	0.35
417	0.349
417	0.349
418	0.349
418	0.349
419	0.348
419	0.347
420	0.347
420	0.346
421	0.346
421	0.345
421	0.345
422	0.344
422	0.344
423	0.344
423	0.343
424	0.343
424	0.342
425	0.342
425	0.342
426	0.342
426	0.341
427	0.341
427	0.341
427	0.341
428	0.34
428	0.34
429	0.339
429	0.339
430	0.339
430	0.339
431	0.338
431	0.338
432	0.338
432	0.338
432	0.337
433	0.337
433	0.337
434	0.337
434	0.337
435	0.337
435	0.337
436	0.337
436	0.337
437	0.337
437	0.336
437	0.336
438	0.336
438	0.335
439	0.335
439	0.335
440	0.335
440	0.335
441	0.334
441	0.334
442	0.334
442	0.334
442	0.334
443	0.333
443	0.333
444	0.333
444	0.333
445	0.333
445	0.332
446	0.332
446	0.332
447	0.332
447	0.332
447	0.331
448	0.332
448	0.332
449	0.332
449	0.332
450	0.332
450	0.332
451	0.331
451	0.332
452	0.332
452	0.332
452	0.332
453	0.332
453	0.332
454	0.332
454	0.332
455	0.331
455	0.331
456	0.331
456	0.331
457	0.331
457	0.331
458	0.331
458	0.331
458	0.332
459	0.332
459	0.332
460	0.332
460	0.332
461	0.333
461	0.333
462	0.333
462	0.333
463	0.333
463	0.333
463	0.333
464	0.333
464	0.333
465	0.332
465	0.333
466	0.333
466	0.333
467	0.333
467	0.334
467	0.334
468	0.334
468	0.335
469	0.335
469	0.336
470	0.336
470	0.337
471	0.337
471	0.338
472	0.338
472	0.339
472	0.339
473	0.34
473	0.34
474	0.341
474	0.341
475	0.341
475	0.342
476	0.342
476	0.343
477	0.343
477	0.344
477	0.345
478	0.345
478	0.346
479	0.347
479	0.347
480	0.348
480	0.349
481	0.349
481	0.35
482	0.351
482	0.352
482	0.353
483	0.354
483	0.355
484	0.356
484	0.356
485	0.357
485	0.358
486	0.359
486	0.36
487	0.361
487	0.361
487	0.362
488	0.363
488	0.364
489	0.366
489	0.368
490	0.369
490	0.37
491	0.372
491	0.373
492	0.375
492	0.376
492	0.378
493	0.379
493	0.381
494	0.382
494	0.384
495	0.385
495	0.386
496	0.388
496	0.39
496	0.391
497	0.392
497	0.394
498	0.395
498	0.397
499	0.398
499	0.4
500	0.402
500	0.404
501	0.405
501	0.406
501	0.408
502	0.409
502	0.411
503	0.412
503	0.414
504	0.415
504	0.417
505	0.418
505	0.419
506	0.421
506	0.422
506	0.424
507	0.425
507	0.427
508	0.428
508	0.429
509	0.431
509	0.432
510	0.434
510	0.435
511	0.437
511	0.438
511	0.439
512	0.441
512	0.442
513	0.443
513	0.444
514	0.445
514	0.446
515	0.447
515	0.447
515	0.448
516	0.448
516	0.449
517	0.45
517	0.45
518	0.451
518	0.451
519	0.452
519	0.452
520	0.452
520	0.452
520	0.453
521	0.453
521	0.453
522	0.453
522	0.453
523	0.452
523	0.452
524	0.452
524	0.451
524	0.451
525	0.45
525	0.449
526	0.449
526	0.448
527	0.447
527	0.446
528	0.445
528	0.445
529	0.444
529	0.443
529	0.441
530	0.44
530	0.438
531	0.437
531	0.435
532	0.434
532	0.432
533	0.431
533	0.429
533	0.427
534	0.426
534	0.424
535	0.422
535	0.421
536	0.419
536	0.417
537	0.415
537	0.413
538	0.411
538	0.408
538	0.406
539	0.404
539	0.402
540	0.4
540	0.398
541	0.395
541	0.393
542	0.39
542	0.388
542	0.386
543	0.384
543	0.381
544	0.379
544	0.376
545	0.374
545	0.372
546	0.369
546	0.366
547	0.363
547	0.361
547	0.358
548	0.356
548	0.353
549	0.35
549	0.348
550	0.345
550	0.343
551	0.34
551	0.337
551	0.335
552	0.332
552	0.33
553	0.328
553	0.325
554	0.323
554	0.32
555	0.318
555	0.315
556	0.312
556	0.31
556	0.307
557	0.305
557	0.303
558	0.3
558	0.298
559	0.296
559	0.293
560	0.291
560	0.289
560	0.287
561	0.285
561	0.282
562	0.28
562	0.277
563	0.275
563	0.272
564	0.27
564	0.268
564	0.266
565	0.264
565	0.261
566	0.259
566	0.257
567	0.255
567	0.253
568	0.251
568	0.249
568	0.247
569	0.246
569	0.244
570	0.241
570	0.239
571	0.238
571	0.236
572	0.234
572	0.232
573	0.231
573	0.229
573	0.227
574	0.226
574	0.224
575	0.223
575	0.222
576	0.221
576	0.219
577	0.217
577	0.215
577	0.214
578	0.212
578	0.211
579	0.21
579	0.209
580	0.207
580	0.205
581	0.203
581	0.201
581	0.201
582	0.2
582	0.199
583	0.198
583	0.197
584	0.195
584	0.193
585	0.191
585	0.19
585	0.189
586	0.188
586	0.186
587	0.185
587	0.184
588	0.182
588	0.181
589	0.18
589	0.18
590	0.179
590	0.178
590	0.178
591	0.177
591	0.175
592	0.173
592	0.172
593	0.171
593	0.17
594	0.169
594	0.167
594	0.166
595	0.165
595	0.164
596	0.163
596	0.163
597	0.163
597	0.162
598	0.162
598	0.161
598	0.161
599	0.16
599	0.159
600	0.159
600	0.158
601	0.157
601	0.156
602	0.155
602	0.154
602	0.153
603	0.152
603	0.151
604	0.151
604	0.15
605	0.15
605	0.149
606	0.148
606	0.147
606	0.146
607	0.145
607	0.145
608	0.144
608	0.143
609	0.142
609	0.141
610	0.141
610	0.14
610	0.139
611	0.139
611	0.139
612	0.138
612	0.138
613	0.138
613	0.137
614	0.137
614	0.136
614	0.135
615	0.135
615	0.134
616	0.134
616	0.133
617	0.133
617	0.132
618	0.131
618	0.131
618	0.13
619	0.13
619	0.13
620	0.13
620	0.13
621	0.129
621	0.128
622	0.128
622	0.127
622	0.127
623	0.126
623	0.125
624	0.125
624	0.124
625	0.123
625	0.123
626	0.122
626	0.122
626	0.122
627	0.122
627	0.121
628	0.121
628	0.12
629	0.12
629	0.119
630	0.119
630	0.118
630	0.118
631	0.117
631	0.117
632	0.116
632	0.115
633	0.115
633	0.115
634	0.115
634	0.115
634	0.115
635	0.115
635	0.114
636	0.114
636	0.114
637	0.113
637	0.113
638	0.112
638	0.111
638	0.111
639	0.11
639	0.109
640	0.109
640	0.109
641	0.108
641	0.108
642	0.108
642	0.108
642	0.108
643	0.108
643	0.108
644	0.108
644	0.108
645	0.108
645	0.108
646	0.108
646	0.108
646	0.107
647	0.107
647	0.106
648	0.105
648	0.105
649	0.104
649	0.104
650	0.104
650	0.103
650	0.103
651	0.103
651	0.102
652	0.102
652	0.102
653	0.102
653	0.104
653	0.109
654	0.088
654	0.071
655	0.069
655	0.069
656	0.069
656	0.069
657	0.069
657	0.07
657	0.07
658	0.069
658	0.061
659	0.076
659	0.096
660	0.101
660	0.102
661	0.101
661	0.1
661	0.1
662	0.099
662	0.098
663	0.097
663	0.097
664	0.096
664	0.095
665	0.095
665	0.094
665	0.094
666	0.094
666	0.094
667	0.094
667	0.094
668	0.095
668	0.095
669	0.095
669	0.095
669	0.095
670	0.095
670	0.095
671	0.095
671	0.094
672	0.094
672	0.093
672	0.093
673	0.092
673	0.092
674	0.092
674	0.091
675	0.091
675	0.091
676	0.091
676	0.091
676	0.091
677	0.091
677	0.091
678	0.09
678	0.09
679	0.089
679	0.089
680	0.089
680	0.088
680	0.088
681	0.088
681	0.088
682	0.088
682	0.088
683	0.088
683	0.088
684	0.088
684	0.088
684	0.087
685	0.087
685	0.088
686	0.088
686	0.088
687	0.087
687	0.087
687	0.087
688	0.087
688	0.087
689	0.087
689	0.087
690	0.087
690	0.086
691	0.086
691	0.086
691	0.086
692	0.086
692	0.086
693	0.086
693	0.087
694	0.086
694	0.086
695	0.086
695	0.087
695	0.086
696	0.086
696	0.085
697	0.085
697	0.084
698	0.084
698	0.084
698	0.084
699	0.084
699	0.083
700	0.083
700	0.083
701	0.083
701	0.083
702	0.082
702	0.082
702	0.082
703	0.081
703	0.081
704	0.081
704	0.08
705	0.08
705	0.08
705	0.079
706	0.079
706	0.079
707	0.079
707	0.078
708	0.078
708	0.078
709	0.078
709	0.078
709	0.078
710	0.077
710	0.078
711	0.078
711	0.078
712	0.078
712	0.078
713	0.078
713	0.078
713	0.078
714	0.077
714	0.077
715	0.077
715	0.076
716	0.076
716	0.075
716	0.075
717	0.074
717	0.073
718	0.072
718	0.072
719	0.072
719	0.072
720	0.072
720	0.072
720	0.072
721	0.072
721	0.072
722	0.073
722	0.073
723	0.074
723	0.074
723	0.074
724	0.074
724	0.074
725	0.074
725	0.074
726	0.073
726	0.073
727	0.072
727	0.071
727	0.071
728	0.07
728	0.07
729	0.07
729	0.07
730	0.07
730	0.07
730	0.07
731	0.071
731	0.071
732	0.071
732	0.072
733	0.072
733	0.071
734	0.071
734	0.071
734	0.07
735	0.07
735	0.07
736	0.069
736	0.069
737	0.068
737	0.068
737	0.068
738	0.067
738	0.066
739	0.066
739	0.066
740	0.066
740	0.066
741	0.066
741	0.066
741	0.066
742	0.066
742	0.066
743	0.067
743	0.067
744	0.068
744	0.068
744	0.067
745	0.067
745	0.067
746	0.067
746	0.067
747	0.066
747	0.067
748	0.067
748	0.067
748	0.067
749	0.067
749	0.067
750	0.067
750	0.067
751	0.068
751	0.068
751	0.067
752	0.067
752	0.066
753	0.066
753	0.065
754	0.065
754	0.064
754	0.064
755	0.064
755	0.063
756	0.063
756	0.061
757	0.061
757	0.061
758	0.06
758	0.06
758	0.06
759	0.061
759	0.061
760	0.06
760	0.061
761	0.061
761	0.062
761	0.062
762	0.062
762	0.062
763	0.062
763	0.062
764	0.062
764	0.062
764	0.061
765	0.061
765	0.061
766	0.061
766	0.06
767	0.06
767	0.059
768	0.058
768	0.058
768	0.058
769	0.058
769	0.058
770	0.058
770	0.058
771	0.058
771	0.058
771	0.058
772	0.058
772	0.059
773	0.059
773	0.059
774	0.059
774	0.059
775	0.059
775	0.059
775	0.059
776	0.059
776	0.06
777	0.06
777	0.06
778	0.06
778	0.06
778	0.06
779	0.06
779	0.059
780	0.058
780	0.058
781	0.057
781	0.057
781	0.056
782	0.056
782	0.056
783	0.055
783	0.055
784	0.055
784	0.055
784	0.056
785	0.056
785	0.056
786	0.056
786	0.056
787	0.056
787	0.056
788	0.055
788	0.055
788	0.055
789	0.054
789	0.054
790	0.054
790	0.053
791	0.053
791	0.053
791	0.053
792	0.053
792	0.053
793	0.053
793	0.053
794	0.053
794	0.053
794	0.054
795	0.054
795	0.054
796	0.054
796	0.055
797	0.055
797	0.055
797	0.055
798	0.055
798	0.055
799	0.055
799	0.054
800	0.054
800	0.053
801	0.053
801	0.052
801	0.052
802	0.051
802	0.051
803	0.051
803	0.051
804	0.052
804	0.052
804	0.052
805	0.052
805	0.052
806	0.052
806	0.052
807	0.052
807	0.052
807	0.053
808	0.053
808	0.053
809	0.053
809	0.054
810	0.054
810	0.055
810	0.055
811	0.055
811	0.056
812	0.056
812	0.056
813	0.056
813	0.056
813	0.056
814	0.057
814	0.057
815	0.057
815	0.056
816	0.056
816	0.055
817	0.055
817	0.054
817	0.054
818	0.054
818	0.053
819	0.053
819	0.052
820	0.051
820	0.051
820	0.051
821	0.051
821	0.051
822	0.051
822	0.051
823	0.051
823	0.052
823	0.053
824	0.054
824	0.055
825	0.056
825	0.057
826	0.057
826	0.057
826	0.058
827	0.058
827	0.058
828	0.058
828	0.057
829	0.057
829	0.056
829	0.056
830	0.055
830	0.055
831	0.056
831	0.056
832	0.055
832	0.056
832	0.056
833	0.056
833	0.056
834	0.056
834	0.056
835	0.056
835	0.056
835	0.056
836	0.056
836	0.056
837	0.056
837	0.056
838	0.055
838	0.055
839	0.054
839	0.054
839	0.053
840	0.052
840	0.051
841	0.05
841	0.049
842	0.048
842	0.047
842	0.047
843	0.046
843	0.046
844	0.045
844	0.045
845	0.045
845	0.045
845	0.046
846	0.046
846	0.046
847	0.046
847	0.046
848	0.047
848	0.047
848	0.047
849	0.048
849	0.048
850	0.048
850	0.049
851	0.049
851	0.049
851	0.049
852	0.048
852	0.048
853	0.048
853	0.048
854	0.048
854	0.048
854	0.049
855	0.049
855	0.05
856	0.051
856	0.052
857	0.053
857	0.054
857	0.054
858	0.055
858	0.055
859	0.054
859	0.054
860	0.053
860	0.053
860	0.052
861	0.051
861	0.05
862	0.049
862	0.048
863	0.048
863	0.047
863	0.047
864	0.047
864	0.047
865	0.047
865	0.047
866	0.047
866	0.047
866	0.047
867	0.047
867	0.047
868	0.047
868	0.047
869	0.048
869	0.047
869	0.047
870	0.046
870	0.046
871	0.046
871	0.046
872	0.046
872	0.046
872	0.046
873	0.046
873	0.046
874	0.046
874	0.046
875	0.047
875	0.047
875	0.047
876	0.047
876	0.047
877	0.047
877	0.048
878	0.048
878	0.049
878	0.05
879	0.05
879	0.051
880	0.052
880	0.052
881	0.053
881	0.053
881	0.053
882	0.053
882	0.052
883	0.051
883	0.051
884	0.05
884	0.049
884	0.049
885	0.048
885	0.047
886	0.046
886	0.046
887	0.045
887	0.045
887	0.044
888	0.044
888	0.043
889	0.043
889	0.042
890	0.042
890	0.042
890	0.042
891	0.041
891	0.041
892	0.041
892	0.041
893	0.041
893	0.041
893	0.041
894	0.041
894	0.041
895	0.041
895	0.041
895	0.042
896	0.042
896	0.042
897	0.042
897	0.043
898	0.043
898	0.043
898	0.043
899	0.043
899	0.043
900	0.043
900	0.043
901	0.044
901	0.044
901	0.044
902	0.045
902	0.045
903	0.045
903	0.045
904	0.046
904	0.046
904	0.046
905	0.046
905	0.046
906	0.046
906	0.046
907	0.046
907	0.047
907	0.047
908	0.047
908	0.048
909	0.048
909	0.048
910	0.048
910	0.048
910	0.048
911	0.047
911	0.047
912	0.046
912	0.046
913	0.045
913	0.045
913	0.044
914	0.044
914	0.043
915	0.043
915	0.043
916	0.043
916	0.043
916	0.042
917	0.042
917	0.042
918	0.042
918	0.042
918	0.041
919	0.041
919	0.04
920	0.04
920	0.04
921	0.039
921	0.039
921	0.039
922	0.038
922	0.038
923	0.038
923	0.038
924	0.038
924	0.038
924	0.038
925	0.038
925	0.038
926	0.039
926	0.039
927	0.039
927	0.039
927	0.04
928	0.04
928	0.041
929	0.041
929	0.042
930	0.043
930	0.043
930	0.044
931	0.044
931	0.045
932	0.046
932	0.046
933	0.047
933	0.047
933	0.048
934	0.048
934	0.048
935	0.048
935	0.048
935	0.048
936	0.048
936	0.048
937	0.048
937	0.047
938	0.047
938	0.047
938	0.046
939	0.045
939	0.045
940	0.045
940	0.044
941	0.044
941	0.044
941	0.044
942	0.044
942	0.044
943	0.045
943	0.045
944	0.045
944	0.045
944	0.045
945	0.045
945	0.045
946	0.045
946	0.045
946	0.045
947	0.045
947	0.045
948	0.045
948	0.045
949	0.045
949	0.045
949	0.045
950	0.044
950	0.044
951	0.044
951	0.043
952	0.042
952	0.042
952	0.041
953	0.041
953	0.04
954	0.04
954	0.04
955	0.04
955	0.039
955	0.04
956	0.04
956	0.04
957	0.041
957	0.042
957	0.042
958	0.043
958	0.044
959	0.045
959	0.045
960	0.046
960	0.047
960	0.047
961	0.047
961	0.048
962	0.048
962	0.048
963	0.048
963	0.048
963	0.048
964	0.049
964	0.049
965	0.05
965	0.05
966	0.051
966	0.052
966	0.052
967	0.053
967	0.053
968	0.054
968	0.054
968	0.054
969	0.053
969	0.053
970	0.052
970	0.051
971	0.051
971	0.05
971	0.05
972	0.05
972	0.049
973	0.049
973	0.049
974	0.049
974	0.049
974	0.049
975	0.049
975	0.049
976	0.049
976	0.049
976	0.049
977	0.049
977	0.049
978	0.048
978	0.048
979	0.047
979	0.047
979	0.046
980	0.046
980	0.045
981	0.045
981	0.044
982	0.044
982	0.044
982	0.044
983	0.044
983	0.044
984	0.044
984	0.043
984	0.043
985	0.042
985	0.042
986	0.042
986	0.041
987	0.041
987	0.04
987	0.04
988	0.04
988	0.04
989	0.039
989	0.039
990	0.039
990	0.039
990	0.039
991	0.039
991	0.039
992	0.039
992	0.038
992	0.038
993	0.037
993	0.037
994	0.036
994	0.036
995	0.036
995	0.035
995	0.035
996	0.035
996	0.035
997	0.036
997	0.036
997	0.036
998	0.037
998	0.037
999	0.038
999	0.038
1000	0.039
1000	0.039
1000	0.039
1001	0.039
1001	0.039
1002	0.039
1002	0.039
1003	0.039
1003	0.039
1003	0.039
1004	0.039
1004	0.038
1005	0.038
1005	0.038
1005	0.038
1006	0.037
1006	0.037
1007	0.037
1007	0.036
1008	0.036
1008	0.036
1008	0.036
1009	0.035
1009	0.035
1010	0.035
1010	0.036
1010	0.036
1011	0.036
1011	0.036
1012	0.036
1012	0.036
1013	0.037
1013	0.037
1013	0.037
1014	0.036
1014	0.036
1015	0.036
1015	0.036
1016	0.035
1016	0.035
1016	0.035
1017	0.034
1017	0.034
1018	0.034
1018	0.034
1018	0.034
1019	0.034
1019	0.035
1020	0.035
1020	0.035
1021	0.036
1021	0.037
1021	0.037
1022	0.038
1022	0.038
1023	0.038
1023	0.039
1023	0.039
1024	0.04
1024	0.04
1025	0.04
1025	0.04
1026	0.04
1026	0.04
1026	0.039
1027	0.039
1027	0.039
1028	0.039
1028	0.039
1028	0.039
1029	0.038
1029	0.038
1030	0.038
1030	0.039
1031	0.039
1031	0.039
1031	0.039
1032	0.039
1032	0.039
1033	0.039
1033	0.039
1033	0.039
1034	0.039
1034	0.039
1035	0.039
1035	0.039
1036	0.039
1036	0.039
1036	0.039
1037	0.039
1037	0.039
1038	0.039
1038	0.04
1039	0.039
1039	0.04
1039	0.04
1040	0.04
1040	0.04
1041	0.041
1041	0.041
1041	0.041
1042	0.041
1042	0.042
1043	0.042
1043	0.042
1044	0.042
1044	0.042
1044	0.042
1045	0.043
1045	0.043
1046	0.043
1046	0.044
1046	0.044
1047	0.044
1047	0.045
1048	0.045
1048	0.046
1049	0.046
1049	0.047
1049	0.048
1050	0.048
1050	0.048
1051	0.048
1051	0.048
1051	0.048
1052	0.048
1052	0.047
1053	0.047
1053	0.046
1053	0.046
1054	0.045
1054	0.044
1055	0.044
1055	0.043
1056	0.042
1056	0.042
1056	0.041
1057	0.041
1057	0.04
1058	0.039
1058	0.038
1058	0.038
1059	0.037
1059	0.037
1060	0.036
1060	0.036
1061	0.035
1061	0.035
1061	0.035
1062	0.035
1062	0.034
1063	0.035
1063	0.034
1063	0.034
1064	0.034
1064	0.034
1065	0.033
1065	0.033
1066	0.033
1066	0.033
1066	0.033
1067	0.032
1067	0.032
1068	0.032
1068	0.031
1068	0.031
1069	0.031
1069	0.03
1070	0.03
1070	0.03
1071	0.029
1071	0.029
1071	0.028
1072	0.028
1072	0.027
1073	0.026
1073	0.025
1073	0.025
1074	0.025
1074	0.025
1075	0.025
1075	0.025
1076	0.025
1076	0.026
1076	0.026
1077	0.026
1077	0.027
1078	0.027
1078	0.028
1078	0.028
1079	0.028
1079	0.029
1080	0.029
1080	0.029
1080	0.029
1081	0.03
1081	0.03
1082	0.03
1082	0.031
1083	0.031
1083	0.031
1083	0.031
1084	0.03
1084	0.031
1085	0.031
1085	0.031
1085	0.031
1086	0.031
1086	0.03
1087	0.03
1087	0.03
1088	0.029
1088	0.029
1088	0.03
1089	0.029
1089	0.028
1090	0.028
1090	0.028
1090	0.027
1091	0.027
1091	0.027
1092	0.028
1092	0.028
1092	0.028
1093	0.027
1093	0.027
1094	0.027
1094	0.026
1095	0.026
1095	0.026
1095	0.026
1096	0.025
1096	0.024
1097	0.023
1097	0.022
1097	0.022
1098	0.022
1098	0.022
1099	0.021
1099	0.02
1100	0.019
1100	0.018
1100	0.017
1101	0.016
1101	0.016
1102	0.016
1102	0.015
1102	0.013
1103	0.012
1103	0.011
1104	0.011
1104	0.01
1104	0.011
1105	0.01
1105	0.008
1106	0.007
1106	0.006
1107	0.006
1107	0.006
1107	0.005
1108	0.004
1108	0.003
1109	0.002
1109	0
1109	0
1110	0.003
1110	0.002
1111	0.001
1111	-0.004
