Data from reversibility-20sec_Absorbance__5290__000000000005290.txt Node

Date: Wed Dec 06 17:36:26 CET 2023
User: Marek
Spectrometer: MAYP115816
Trigger mode: 0
Integration Time (sec): 2.000000E-1
Scans to average: 10
Electric dark correction enabled: true
Nonlinearity correction enabled: true
Boxcar width: 5
XAxis mode: Wavelengths
Number of Pixels in Spectrum: 2068
>>>>>Begin Spectral Data<<<<<
199	-0.217
199	-0.187
200	-0.117
200	-0.064
201	-0.034
201	-0.018
202	-0.006
202	0.005
203	0.013
203	0.016
204	0.03
204	0.045
205	0.058
205	0.066
205	0.063
206	0.062
206	0.062
207	0.065
207	0.066
208	0.064
208	0.064
209	0.065
209	0.062
210	0.061
210	0.061
211	0.062
211	0.065
212	0.061
212	0.062
213	0.063
213	0.064
213	0.063
214	0.068
214	0.07
215	0.073
215	0.073
216	0.074
216	0.073
217	0.078
217	0.081
218	0.08
218	0.084
219	0.09
219	0.089
220	0.091
220	0.092
221	0.091
221	0.094
221	0.098
222	0.104
222	0.108
223	0.112
223	0.114
224	0.119
224	0.126
225	0.133
225	0.141
226	0.15
226	0.161
227	0.168
227	0.176
228	0.191
228	0.209
229	0.226
229	0.249
229	0.27
230	0.296
230	0.325
231	0.36
231	0.397
232	0.436
232	0.481
233	0.522
233	0.572
234	0.627
234	0.678
235	0.732
235	0.787
236	0.839
236	0.889
236	0.94
237	0.991
237	1.04
238	1.09
238	1.134
239	1.178
239	1.219
240	1.258
240	1.293
241	1.326
241	1.362
242	1.394
242	1.427
243	1.456
243	1.481
243	1.506
244	1.529
244	1.553
245	1.573
245	1.596
246	1.616
246	1.634
247	1.647
247	1.662
248	1.679
248	1.693
249	1.703
249	1.711
250	1.719
250	1.727
250	1.734
251	1.74
251	1.743
252	1.751
252	1.753
253	1.755
253	1.754
254	1.757
254	1.759
255	1.759
255	1.76
256	1.76
256	1.76
257	1.761
257	1.759
258	1.759
258	1.759
258	1.759
259	1.757
259	1.759
260	1.758
260	1.759
261	1.759
261	1.762
262	1.763
262	1.764
263	1.768
263	1.768
264	1.769
264	1.77
265	1.77
265	1.769
265	1.77
266	1.77
266	1.771
267	1.769
267	1.769
268	1.769
268	1.769
269	1.77
269	1.77
270	1.768
270	1.768
271	1.764
271	1.762
272	1.76
272	1.758
272	1.756
273	1.751
273	1.746
274	1.742
274	1.738
275	1.733
275	1.728
276	1.723
276	1.717
277	1.709
277	1.701
278	1.69
278	1.679
278	1.667
279	1.654
279	1.636
280	1.617
280	1.592
281	1.564
281	1.532
282	1.498
282	1.461
283	1.426
283	1.389
284	1.355
284	1.32
285	1.286
285	1.256
285	1.228
286	1.203
286	1.181
287	1.161
287	1.144
288	1.129
288	1.117
289	1.105
289	1.095
290	1.087
290	1.08
291	1.073
291	1.067
292	1.062
292	1.057
292	1.052
293	1.048
293	1.044
294	1.04
294	1.037
295	1.034
295	1.03
296	1.026
296	1.023
297	1.02
297	1.016
298	1.013
298	1.01
298	1.007
299	1.003
299	1
300	0.997
300	0.994
301	0.992
301	0.989
302	0.986
302	0.984
303	0.981
303	0.978
304	0.976
304	0.973
305	0.97
305	0.968
305	0.965
306	0.962
306	0.959
307	0.957
307	0.954
308	0.951
308	0.948
309	0.945
309	0.942
310	0.939
310	0.936
311	0.933
311	0.929
311	0.926
312	0.923
312	0.919
313	0.915
313	0.911
314	0.907
314	0.904
315	0.899
315	0.895
316	0.891
316	0.886
317	0.881
317	0.876
318	0.871
318	0.866
318	0.861
319	0.856
319	0.85
320	0.845
320	0.839
321	0.832
321	0.826
322	0.82
322	0.814
323	0.808
323	0.801
324	0.795
324	0.788
324	0.782
325	0.775
325	0.769
326	0.762
326	0.755
327	0.749
327	0.742
328	0.735
328	0.729
329	0.722
329	0.715
330	0.708
330	0.701
330	0.694
331	0.687
331	0.68
332	0.673
332	0.666
333	0.66
333	0.653
334	0.646
334	0.639
335	0.633
335	0.626
336	0.619
336	0.613
336	0.607
337	0.601
337	0.594
338	0.588
338	0.582
339	0.576
339	0.57
340	0.565
340	0.559
341	0.553
341	0.548
342	0.542
342	0.537
342	0.532
343	0.527
343	0.522
344	0.517
344	0.512
345	0.507
345	0.502
346	0.498
346	0.494
347	0.489
347	0.485
348	0.481
348	0.477
348	0.473
349	0.469
349	0.466
350	0.462
350	0.459
351	0.455
351	0.452
352	0.449
352	0.446
353	0.443
353	0.44
354	0.437
354	0.434
354	0.431
355	0.428
355	0.425
356	0.422
356	0.419
357	0.415
357	0.413
358	0.41
358	0.407
359	0.405
359	0.402
360	0.4
360	0.398
360	0.397
361	0.395
361	0.393
362	0.391
362	0.39
363	0.388
363	0.386
364	0.384
364	0.382
365	0.38
365	0.378
366	0.376
366	0.374
366	0.372
367	0.371
367	0.369
368	0.367
368	0.365
369	0.364
369	0.362
370	0.361
370	0.359
371	0.358
371	0.357
372	0.355
372	0.354
372	0.353
373	0.352
373	0.351
374	0.35
374	0.348
375	0.347
375	0.346
376	0.345
376	0.344
377	0.343
377	0.342
378	0.341
378	0.34
378	0.339
379	0.338
379	0.337
380	0.336
380	0.336
381	0.335
381	0.334
382	0.333
382	0.332
383	0.332
383	0.331
383	0.33
384	0.33
384	0.329
385	0.328
385	0.328
386	0.327
386	0.327
387	0.326
387	0.325
388	0.325
388	0.324
389	0.324
389	0.323
389	0.323
390	0.322
390	0.321
391	0.321
391	0.32
392	0.32
392	0.32
393	0.319
393	0.319
394	0.318
394	0.317
394	0.317
395	0.316
395	0.316
396	0.315
396	0.315
397	0.315
397	0.314
398	0.314
398	0.313
399	0.313
399	0.312
400	0.312
400	0.312
400	0.311
401	0.311
401	0.311
402	0.31
402	0.31
403	0.31
403	0.309
404	0.309
404	0.309
405	0.308
405	0.308
405	0.308
406	0.307
406	0.307
407	0.306
407	0.306
408	0.305
408	0.305
409	0.305
409	0.304
410	0.304
410	0.303
411	0.303
411	0.303
411	0.302
412	0.302
412	0.302
413	0.301
413	0.301
414	0.301
414	0.301
415	0.3
415	0.3
416	0.299
416	0.299
416	0.298
417	0.298
417	0.298
418	0.298
418	0.297
419	0.297
419	0.297
420	0.296
420	0.296
421	0.295
421	0.295
421	0.295
422	0.294
422	0.294
423	0.293
423	0.293
424	0.293
424	0.292
425	0.292
425	0.292
426	0.292
426	0.291
427	0.291
427	0.291
427	0.291
428	0.29
428	0.29
429	0.29
429	0.289
430	0.289
430	0.289
431	0.289
431	0.289
432	0.288
432	0.288
432	0.288
433	0.288
433	0.288
434	0.287
434	0.287
435	0.287
435	0.287
436	0.287
436	0.286
437	0.286
437	0.286
437	0.286
438	0.285
438	0.285
439	0.285
439	0.285
440	0.285
440	0.285
441	0.285
441	0.285
442	0.284
442	0.284
442	0.284
443	0.284
443	0.284
444	0.284
444	0.283
445	0.283
445	0.283
446	0.283
446	0.283
447	0.283
447	0.283
447	0.282
448	0.283
448	0.282
449	0.282
449	0.282
450	0.282
450	0.282
451	0.282
451	0.282
452	0.282
452	0.282
452	0.282
453	0.282
453	0.283
454	0.283
454	0.282
455	0.282
455	0.282
456	0.282
456	0.282
457	0.282
457	0.282
458	0.282
458	0.282
458	0.281
459	0.281
459	0.281
460	0.281
460	0.281
461	0.281
461	0.281
462	0.281
462	0.281
463	0.281
463	0.281
463	0.282
464	0.282
464	0.282
465	0.281
465	0.282
466	0.282
466	0.282
467	0.282
467	0.282
467	0.283
468	0.283
468	0.283
469	0.283
469	0.284
470	0.284
470	0.285
471	0.285
471	0.285
472	0.286
472	0.286
472	0.287
473	0.287
473	0.288
474	0.288
474	0.288
475	0.288
475	0.289
476	0.289
476	0.29
477	0.29
477	0.291
477	0.291
478	0.292
478	0.292
479	0.292
479	0.293
480	0.293
480	0.294
481	0.294
481	0.295
482	0.295
482	0.296
482	0.296
483	0.297
483	0.298
484	0.299
484	0.299
485	0.3
485	0.3
486	0.301
486	0.302
487	0.303
487	0.303
487	0.304
488	0.305
488	0.306
489	0.307
489	0.309
490	0.31
490	0.311
491	0.312
491	0.314
492	0.315
492	0.316
492	0.317
493	0.318
493	0.319
494	0.32
494	0.322
495	0.323
495	0.324
496	0.325
496	0.326
496	0.328
497	0.329
497	0.33
498	0.331
498	0.332
499	0.333
499	0.335
500	0.336
500	0.338
501	0.339
501	0.34
501	0.341
502	0.342
502	0.343
503	0.344
503	0.345
504	0.347
504	0.348
505	0.349
505	0.35
506	0.351
506	0.352
506	0.353
507	0.354
507	0.356
508	0.357
508	0.358
509	0.358
509	0.36
510	0.361
510	0.362
511	0.363
511	0.364
511	0.365
512	0.367
512	0.368
513	0.369
513	0.37
514	0.371
514	0.371
515	0.372
515	0.373
515	0.373
516	0.374
516	0.375
517	0.375
517	0.376
518	0.376
518	0.376
519	0.377
519	0.377
520	0.377
520	0.378
520	0.378
521	0.378
521	0.378
522	0.377
522	0.377
523	0.377
523	0.377
524	0.377
524	0.376
524	0.376
525	0.376
525	0.376
526	0.375
526	0.374
527	0.374
527	0.373
528	0.372
528	0.371
529	0.37
529	0.369
529	0.369
530	0.368
530	0.367
531	0.366
531	0.365
532	0.364
532	0.362
533	0.361
533	0.36
533	0.359
534	0.358
534	0.356
535	0.355
535	0.354
536	0.352
536	0.351
537	0.35
537	0.348
538	0.347
538	0.345
538	0.343
539	0.342
539	0.34
540	0.339
540	0.337
541	0.335
541	0.333
542	0.331
542	0.329
542	0.327
543	0.326
543	0.324
544	0.322
544	0.32
545	0.318
545	0.316
546	0.314
546	0.312
547	0.31
547	0.308
547	0.306
548	0.305
548	0.302
549	0.301
549	0.299
550	0.297
550	0.295
551	0.293
551	0.291
551	0.289
552	0.287
552	0.284
553	0.282
553	0.28
554	0.278
554	0.276
555	0.274
555	0.272
556	0.27
556	0.268
556	0.266
557	0.265
557	0.264
558	0.262
558	0.261
559	0.259
559	0.258
560	0.256
560	0.255
560	0.253
561	0.252
561	0.25
562	0.248
562	0.246
563	0.243
563	0.241
564	0.239
564	0.238
564	0.236
565	0.234
565	0.233
566	0.231
566	0.229
567	0.228
567	0.227
568	0.225
568	0.224
568	0.223
569	0.221
569	0.22
570	0.218
570	0.216
571	0.215
571	0.214
572	0.212
572	0.21
573	0.209
573	0.208
573	0.206
574	0.205
574	0.204
575	0.203
575	0.202
576	0.201
576	0.2
577	0.199
577	0.198
577	0.197
578	0.196
578	0.195
579	0.194
579	0.193
580	0.192
580	0.19
581	0.188
581	0.187
581	0.186
582	0.186
582	0.185
583	0.185
583	0.184
584	0.182
584	0.18
585	0.179
585	0.179
585	0.178
586	0.176
586	0.175
587	0.174
587	0.173
588	0.171
588	0.17
589	0.17
589	0.169
590	0.169
590	0.168
590	0.168
591	0.168
591	0.167
592	0.166
592	0.165
593	0.164
593	0.164
594	0.163
594	0.162
594	0.161
595	0.16
595	0.159
596	0.158
596	0.157
597	0.158
597	0.158
598	0.157
598	0.156
598	0.155
599	0.155
599	0.154
600	0.153
600	0.152
601	0.152
601	0.151
602	0.15
602	0.15
602	0.149
603	0.148
603	0.148
604	0.148
604	0.148
605	0.148
605	0.147
606	0.147
606	0.146
606	0.145
607	0.144
607	0.144
608	0.143
608	0.142
609	0.141
609	0.141
610	0.14
610	0.139
610	0.139
611	0.139
611	0.139
612	0.138
612	0.138
613	0.138
613	0.138
614	0.138
614	0.137
614	0.137
615	0.136
615	0.136
616	0.136
616	0.135
617	0.135
617	0.134
618	0.134
618	0.134
618	0.134
619	0.134
619	0.134
620	0.134
620	0.134
621	0.133
621	0.133
622	0.132
622	0.132
622	0.131
623	0.13
623	0.13
624	0.129
624	0.128
625	0.127
625	0.127
626	0.126
626	0.126
626	0.125
627	0.125
627	0.124
628	0.124
628	0.123
629	0.123
629	0.122
630	0.122
630	0.121
630	0.121
631	0.121
631	0.121
632	0.12
632	0.12
633	0.12
633	0.12
634	0.12
634	0.12
634	0.12
635	0.12
635	0.12
636	0.119
636	0.119
637	0.119
637	0.119
638	0.118
638	0.118
638	0.118
639	0.117
639	0.117
640	0.117
640	0.117
641	0.116
641	0.116
642	0.116
642	0.116
642	0.116
643	0.116
643	0.116
644	0.116
644	0.116
645	0.116
645	0.116
646	0.115
646	0.115
646	0.115
647	0.115
647	0.114
648	0.113
648	0.113
649	0.112
649	0.112
650	0.112
650	0.112
650	0.112
651	0.111
651	0.111
652	0.11
652	0.11
653	0.11
653	0.111
653	0.118
654	0.095
654	0.077
655	0.075
655	0.075
656	0.075
656	0.075
657	0.076
657	0.076
657	0.076
658	0.075
658	0.067
659	0.083
659	0.105
660	0.111
660	0.111
661	0.111
661	0.11
661	0.11
662	0.109
662	0.109
663	0.108
663	0.108
664	0.107
664	0.107
665	0.107
665	0.107
665	0.107
666	0.108
666	0.108
667	0.108
667	0.109
668	0.109
668	0.109
669	0.11
669	0.11
669	0.11
670	0.11
670	0.11
671	0.109
671	0.109
672	0.108
672	0.107
672	0.107
673	0.107
673	0.106
674	0.106
674	0.105
675	0.105
675	0.105
676	0.105
676	0.105
676	0.105
677	0.105
677	0.104
678	0.104
678	0.103
679	0.103
679	0.102
680	0.102
680	0.102
680	0.101
681	0.101
681	0.102
682	0.102
682	0.102
683	0.103
683	0.103
684	0.104
684	0.104
684	0.104
685	0.104
685	0.104
686	0.104
686	0.104
687	0.104
687	0.104
687	0.104
688	0.103
688	0.103
689	0.104
689	0.104
690	0.104
690	0.103
691	0.103
691	0.103
691	0.103
692	0.103
692	0.102
693	0.102
693	0.102
694	0.102
694	0.101
695	0.102
695	0.103
695	0.103
696	0.103
696	0.103
697	0.104
697	0.104
698	0.104
698	0.104
698	0.104
699	0.104
699	0.104
700	0.103
700	0.103
701	0.103
701	0.103
702	0.103
702	0.103
702	0.103
703	0.102
703	0.102
704	0.102
704	0.102
705	0.102
705	0.102
705	0.102
706	0.102
706	0.102
707	0.102
707	0.102
708	0.102
708	0.102
709	0.102
709	0.102
709	0.101
710	0.101
710	0.101
711	0.101
711	0.1
712	0.1
712	0.1
713	0.1
713	0.1
713	0.099
714	0.099
714	0.099
715	0.099
715	0.098
716	0.098
716	0.098
716	0.097
717	0.096
717	0.096
718	0.095
718	0.095
719	0.095
719	0.095
720	0.095
720	0.096
720	0.096
721	0.096
721	0.097
722	0.097
722	0.097
723	0.098
723	0.099
723	0.099
724	0.098
724	0.098
725	0.097
725	0.096
726	0.096
726	0.095
727	0.094
727	0.093
727	0.093
728	0.092
728	0.092
729	0.092
729	0.092
730	0.091
730	0.092
730	0.092
731	0.092
731	0.093
732	0.093
732	0.094
733	0.094
733	0.094
734	0.094
734	0.095
734	0.095
735	0.096
735	0.096
736	0.095
736	0.095
737	0.095
737	0.096
737	0.096
738	0.095
738	0.094
739	0.094
739	0.093
740	0.093
740	0.093
741	0.093
741	0.092
741	0.092
742	0.092
742	0.092
743	0.093
743	0.093
744	0.093
744	0.094
744	0.094
745	0.094
745	0.093
746	0.093
746	0.093
747	0.093
747	0.093
748	0.093
748	0.093
748	0.093
749	0.092
749	0.092
750	0.091
750	0.091
751	0.09
751	0.09
751	0.089
752	0.088
752	0.087
753	0.086
753	0.086
754	0.085
754	0.085
754	0.085
755	0.086
755	0.086
756	0.086
756	0.085
757	0.085
757	0.086
758	0.086
758	0.086
758	0.086
759	0.087
759	0.087
760	0.087
760	0.086
761	0.087
761	0.087
761	0.088
762	0.088
762	0.088
763	0.088
763	0.087
764	0.087
764	0.087
764	0.086
765	0.086
765	0.085
766	0.085
766	0.084
767	0.083
767	0.082
768	0.081
768	0.081
768	0.081
769	0.081
769	0.08
770	0.08
770	0.081
771	0.081
771	0.081
771	0.082
772	0.083
772	0.083
773	0.084
773	0.084
774	0.084
774	0.084
775	0.085
775	0.085
775	0.084
776	0.084
776	0.084
777	0.083
777	0.083
778	0.083
778	0.082
778	0.082
779	0.082
779	0.082
780	0.081
780	0.081
781	0.081
781	0.08
781	0.08
782	0.08
782	0.08
783	0.081
783	0.081
784	0.081
784	0.081
784	0.082
785	0.082
785	0.083
786	0.083
786	0.083
787	0.084
787	0.083
788	0.082
788	0.081
788	0.08
789	0.079
789	0.079
790	0.078
790	0.077
791	0.076
791	0.074
791	0.074
792	0.074
792	0.074
793	0.073
793	0.073
794	0.072
794	0.072
794	0.072
795	0.072
795	0.072
796	0.072
796	0.072
797	0.071
797	0.071
797	0.071
798	0.071
798	0.071
799	0.071
799	0.071
800	0.071
800	0.071
801	0.07
801	0.071
801	0.071
802	0.071
802	0.071
803	0.071
803	0.072
804	0.072
804	0.073
804	0.073
805	0.073
805	0.073
806	0.072
806	0.072
807	0.072
807	0.071
807	0.071
808	0.07
808	0.07
809	0.07
809	0.07
810	0.07
810	0.07
810	0.07
811	0.07
811	0.071
812	0.071
812	0.072
813	0.072
813	0.072
813	0.073
814	0.073
814	0.074
815	0.074
815	0.074
816	0.074
816	0.073
817	0.073
817	0.073
817	0.072
818	0.072
818	0.072
819	0.071
819	0.07
820	0.07
820	0.069
820	0.069
821	0.069
821	0.069
822	0.069
822	0.069
823	0.068
823	0.068
823	0.068
824	0.069
824	0.069
825	0.07
825	0.07
826	0.07
826	0.07
826	0.07
827	0.071
827	0.071
828	0.071
828	0.071
829	0.071
829	0.071
829	0.071
830	0.071
830	0.072
831	0.072
831	0.072
832	0.072
832	0.072
832	0.072
833	0.071
833	0.071
834	0.07
834	0.07
835	0.07
835	0.069
835	0.069
836	0.068
836	0.068
837	0.068
837	0.067
838	0.067
838	0.067
839	0.066
839	0.065
839	0.064
840	0.063
840	0.062
841	0.061
841	0.06
842	0.06
842	0.059
842	0.058
843	0.057
843	0.057
844	0.056
844	0.056
845	0.055
845	0.054
845	0.054
846	0.054
846	0.054
847	0.054
847	0.054
848	0.055
848	0.055
848	0.056
849	0.057
849	0.058
850	0.059
850	0.059
851	0.06
851	0.06
851	0.06
852	0.059
852	0.059
853	0.058
853	0.058
854	0.057
854	0.057
854	0.057
855	0.057
855	0.058
856	0.058
856	0.058
857	0.058
857	0.059
857	0.059
858	0.059
858	0.058
859	0.058
859	0.057
860	0.057
860	0.056
860	0.056
861	0.055
861	0.055
862	0.054
862	0.054
863	0.054
863	0.054
863	0.054
864	0.054
864	0.054
865	0.054
865	0.055
866	0.055
866	0.055
866	0.055
867	0.056
867	0.056
868	0.057
868	0.057
869	0.058
869	0.058
869	0.058
870	0.058
870	0.058
871	0.058
871	0.059
872	0.059
872	0.058
872	0.058
873	0.058
873	0.058
874	0.057
874	0.057
875	0.056
875	0.056
875	0.056
876	0.056
876	0.056
877	0.055
877	0.055
878	0.055
878	0.055
878	0.055
879	0.055
879	0.055
880	0.055
880	0.054
881	0.054
881	0.054
881	0.054
882	0.054
882	0.054
883	0.054
883	0.054
884	0.054
884	0.054
884	0.054
885	0.054
885	0.054
886	0.053
886	0.053
887	0.052
887	0.051
887	0.05
888	0.05
888	0.049
889	0.048
889	0.048
890	0.048
890	0.048
890	0.048
891	0.047
891	0.047
892	0.047
892	0.047
893	0.047
893	0.047
893	0.046
894	0.046
894	0.046
895	0.046
895	0.046
895	0.046
896	0.047
896	0.047
897	0.048
897	0.048
898	0.049
898	0.049
898	0.05
899	0.05
899	0.05
900	0.05
900	0.05
901	0.05
901	0.05
901	0.05
902	0.05
902	0.05
903	0.049
903	0.049
904	0.049
904	0.048
904	0.048
905	0.048
905	0.048
906	0.048
906	0.048
907	0.048
907	0.049
907	0.049
908	0.049
908	0.049
909	0.049
909	0.049
910	0.048
910	0.048
910	0.047
911	0.046
911	0.046
912	0.045
912	0.045
913	0.044
913	0.044
913	0.044
914	0.044
914	0.045
915	0.045
915	0.045
916	0.045
916	0.046
916	0.046
917	0.046
917	0.046
918	0.045
918	0.045
918	0.045
919	0.045
919	0.045
920	0.045
920	0.045
921	0.045
921	0.046
921	0.046
922	0.046
922	0.046
923	0.047
923	0.047
924	0.048
924	0.049
924	0.049
925	0.05
925	0.051
926	0.052
926	0.052
927	0.053
927	0.053
927	0.053
928	0.053
928	0.052
929	0.052
929	0.051
930	0.05
930	0.05
930	0.049
931	0.048
931	0.047
932	0.047
932	0.046
933	0.046
933	0.045
933	0.045
934	0.045
934	0.044
935	0.044
935	0.044
935	0.044
936	0.043
936	0.043
937	0.043
937	0.043
938	0.043
938	0.043
938	0.043
939	0.043
939	0.043
940	0.043
940	0.043
941	0.044
941	0.044
941	0.044
942	0.045
942	0.045
943	0.045
943	0.045
944	0.045
944	0.045
944	0.045
945	0.046
945	0.046
946	0.046
946	0.046
946	0.046
947	0.046
947	0.046
948	0.046
948	0.046
949	0.046
949	0.046
949	0.046
950	0.046
950	0.046
951	0.046
951	0.046
952	0.046
952	0.046
952	0.046
953	0.046
953	0.046
954	0.046
954	0.045
955	0.045
955	0.044
955	0.044
956	0.044
956	0.044
957	0.043
957	0.043
957	0.043
958	0.042
958	0.042
959	0.042
959	0.042
960	0.042
960	0.042
960	0.041
961	0.041
961	0.041
962	0.041
962	0.041
963	0.041
963	0.041
963	0.042
964	0.042
964	0.042
965	0.043
965	0.043
966	0.043
966	0.043
966	0.043
967	0.043
967	0.043
968	0.043
968	0.043
968	0.042
969	0.042
969	0.042
970	0.041
970	0.041
971	0.041
971	0.04
971	0.04
972	0.04
972	0.039
973	0.039
973	0.039
974	0.039
974	0.039
974	0.039
975	0.04
975	0.04
976	0.04
976	0.041
976	0.041
977	0.041
977	0.04
978	0.04
978	0.04
979	0.039
979	0.039
979	0.038
980	0.038
980	0.037
981	0.036
981	0.035
982	0.035
982	0.035
982	0.034
983	0.034
983	0.034
984	0.034
984	0.033
984	0.033
985	0.033
985	0.033
986	0.033
986	0.033
987	0.033
987	0.033
987	0.033
988	0.033
988	0.033
989	0.033
989	0.033
990	0.033
990	0.033
990	0.033
991	0.034
991	0.034
992	0.034
992	0.033
992	0.033
993	0.033
993	0.032
994	0.031
994	0.031
995	0.03
995	0.029
995	0.029
996	0.029
996	0.029
997	0.029
997	0.029
997	0.029
998	0.029
998	0.03
999	0.031
999	0.032
1000	0.032
1000	0.033
1000	0.033
1001	0.033
1001	0.034
1002	0.034
1002	0.034
1003	0.033
1003	0.033
1003	0.032
1004	0.031
1004	0.03
1005	0.03
1005	0.029
1005	0.028
1006	0.028
1006	0.027
1007	0.027
1007	0.027
1008	0.028
1008	0.028
1008	0.029
1009	0.029
1009	0.03
1010	0.03
1010	0.031
1010	0.031
1011	0.032
1011	0.032
1012	0.032
1012	0.032
1013	0.032
1013	0.031
1013	0.031
1014	0.031
1014	0.031
1015	0.03
1015	0.03
1016	0.03
1016	0.03
1016	0.03
1017	0.03
1017	0.03
1018	0.03
1018	0.03
1018	0.03
1019	0.03
1019	0.03
1020	0.03
1020	0.031
1021	0.031
1021	0.031
1021	0.032
1022	0.032
1022	0.032
1023	0.033
1023	0.033
1023	0.034
1024	0.034
1024	0.034
1025	0.034
1025	0.034
1026	0.034
1026	0.034
1026	0.034
1027	0.034
1027	0.034
1028	0.034
1028	0.033
1028	0.033
1029	0.033
1029	0.033
1030	0.033
1030	0.033
1031	0.033
1031	0.033
1031	0.033
1032	0.034
1032	0.034
1033	0.034
1033	0.034
1033	0.034
1034	0.034
1034	0.034
1035	0.034
1035	0.034
1036	0.034
1036	0.034
1036	0.033
1037	0.033
1037	0.033
1038	0.033
1038	0.033
1039	0.033
1039	0.034
1039	0.034
1040	0.034
1040	0.034
1041	0.034
1041	0.034
1041	0.034
1042	0.034
1042	0.034
1043	0.034
1043	0.034
1044	0.034
1044	0.033
1044	0.034
1045	0.034
1045	0.034
1046	0.035
1046	0.035
1046	0.035
1047	0.036
1047	0.036
1048	0.036
1048	0.036
1049	0.036
1049	0.036
1049	0.036
1050	0.036
1050	0.035
1051	0.035
1051	0.035
1051	0.034
1052	0.033
1052	0.033
1053	0.032
1053	0.031
1053	0.03
1054	0.03
1054	0.029
1055	0.029
1055	0.028
1056	0.028
1056	0.028
1056	0.027
1057	0.027
1057	0.027
1058	0.026
1058	0.026
1058	0.026
1059	0.025
1059	0.025
1060	0.025
1060	0.025
1061	0.025
1061	0.025
1061	0.025
1062	0.025
1062	0.025
1063	0.024
1063	0.024
1063	0.025
1064	0.024
1064	0.024
1065	0.024
1065	0.024
1066	0.024
1066	0.024
1066	0.024
1067	0.024
1067	0.024
1068	0.024
1068	0.023
1068	0.023
1069	0.023
1069	0.023
1070	0.022
1070	0.022
1071	0.021
1071	0.02
1071	0.02
1072	0.019
1072	0.019
1073	0.018
1073	0.018
1073	0.018
1074	0.018
1074	0.018
1075	0.018
1075	0.019
1076	0.019
1076	0.02
1076	0.02
1077	0.02
1077	0.021
1078	0.021
1078	0.021
1078	0.021
1079	0.021
1079	0.021
1080	0.021
1080	0.021
1080	0.021
1081	0.021
1081	0.021
1082	0.021
1082	0.021
1083	0.021
1083	0.021
1083	0.021
1084	0.02
1084	0.021
1085	0.021
1085	0.02
1085	0.021
1086	0.021
1086	0.021
1087	0.021
1087	0.021
1088	0.022
1088	0.022
1088	0.022
1089	0.022
1089	0.022
1090	0.021
1090	0.021
1090	0.02
1091	0.02
1091	0.019
1092	0.019
1092	0.019
1092	0.019
1093	0.018
1093	0.018
1094	0.018
1094	0.017
1095	0.017
1095	0.017
1095	0.017
1096	0.016
1096	0.015
1097	0.014
1097	0.013
1097	0.012
1098	0.012
1098	0.011
1099	0.01
1099	0.008
1100	0.007
1100	0.006
1100	0.005
1101	0.004
1101	0.003
1102	0.003
1102	0.002
1102	0
1103	-0.001
1103	-0.001
1104	-0.002
1104	-0.003
1104	-0.004
1105	-0.005
1105	-0.007
1106	-0.009
1106	-0.011
1107	-0.012
1107	-0.013
1107	-0.014
1108	-0.015
1108	-0.016
1109	-0.017
1109	-0.018
1109	-0.018
1110	-0.016
1110	-0.017
1111	-0.015
1111	-0.014
