Data from reversibility-20sec_Absorbance__837__000000000000837.txt Node

Date: Tue Dec 05 16:52:07 CET 2023
User: Marek
Spectrometer: MAYP115816
Trigger mode: 0
Integration Time (sec): 2.000000E-1
Scans to average: 10
Electric dark correction enabled: true
Nonlinearity correction enabled: true
Boxcar width: 5
XAxis mode: Wavelengths
Number of Pixels in Spectrum: 2068
>>>>>Begin Spectral Data<<<<<
199	-0.251
199	-0.219
200	-0.154
200	-0.104
201	-0.074
201	-0.057
202	-0.043
202	-0.032
203	-0.027
203	-0.023
204	-0.01
204	0.003
205	0.015
205	0.023
205	0.022
206	0.023
206	0.023
207	0.025
207	0.025
208	0.025
208	0.025
209	0.027
209	0.025
210	0.024
210	0.024
211	0.024
211	0.025
212	0.024
212	0.026
213	0.029
213	0.032
213	0.031
214	0.033
214	0.036
215	0.039
215	0.037
216	0.038
216	0.038
217	0.042
217	0.044
218	0.042
218	0.045
219	0.051
219	0.053
220	0.055
220	0.054
221	0.056
221	0.059
221	0.066
222	0.071
222	0.073
223	0.079
223	0.084
224	0.089
224	0.096
225	0.106
225	0.116
226	0.128
226	0.137
227	0.146
227	0.156
228	0.171
228	0.186
229	0.203
229	0.226
229	0.249
230	0.274
230	0.304
231	0.335
231	0.376
232	0.413
232	0.455
233	0.499
233	0.546
234	0.593
234	0.642
235	0.691
235	0.742
236	0.793
236	0.846
236	0.896
237	0.948
237	0.994
238	1.042
238	1.088
239	1.138
239	1.18
240	1.224
240	1.26
241	1.295
241	1.329
242	1.36
242	1.39
243	1.421
243	1.446
243	1.471
244	1.491
244	1.513
245	1.531
245	1.553
246	1.57
246	1.587
247	1.601
247	1.616
248	1.63
248	1.644
249	1.653
249	1.661
250	1.67
250	1.679
250	1.684
251	1.689
251	1.692
252	1.699
252	1.702
253	1.703
253	1.702
254	1.703
254	1.705
255	1.703
255	1.702
256	1.702
256	1.7
257	1.699
257	1.697
258	1.696
258	1.696
258	1.695
259	1.695
259	1.694
260	1.694
260	1.695
261	1.694
261	1.697
262	1.699
262	1.699
263	1.701
263	1.702
264	1.702
264	1.703
265	1.704
265	1.704
265	1.705
266	1.704
266	1.704
267	1.702
267	1.702
268	1.7
268	1.699
269	1.701
269	1.699
270	1.698
270	1.697
271	1.695
271	1.693
272	1.69
272	1.688
272	1.686
273	1.683
273	1.677
274	1.674
274	1.669
275	1.664
275	1.658
276	1.652
276	1.646
277	1.639
277	1.629
278	1.619
278	1.608
278	1.596
279	1.581
279	1.564
280	1.546
280	1.522
281	1.494
281	1.463
282	1.429
282	1.395
283	1.36
283	1.326
284	1.292
284	1.259
285	1.226
285	1.196
285	1.17
286	1.145
286	1.124
287	1.106
287	1.09
288	1.076
288	1.064
289	1.054
289	1.045
290	1.037
290	1.03
291	1.025
291	1.019
292	1.015
292	1.01
292	1.006
293	1.002
293	0.999
294	0.995
294	0.992
295	0.989
295	0.987
296	0.983
296	0.981
297	0.978
297	0.975
298	0.973
298	0.97
298	0.967
299	0.965
299	0.962
300	0.96
300	0.957
301	0.955
301	0.952
302	0.95
302	0.948
303	0.945
303	0.943
304	0.941
304	0.939
305	0.936
305	0.934
305	0.932
306	0.929
306	0.927
307	0.924
307	0.922
308	0.919
308	0.916
309	0.914
309	0.911
310	0.908
310	0.905
311	0.902
311	0.899
311	0.896
312	0.892
312	0.889
313	0.885
313	0.881
314	0.878
314	0.874
315	0.87
315	0.865
316	0.861
316	0.856
317	0.852
317	0.847
318	0.843
318	0.838
318	0.833
319	0.827
319	0.822
320	0.817
320	0.811
321	0.805
321	0.8
322	0.794
322	0.788
323	0.782
323	0.775
324	0.769
324	0.763
324	0.756
325	0.75
325	0.744
326	0.737
326	0.731
327	0.724
327	0.717
328	0.711
328	0.704
329	0.697
329	0.691
330	0.684
330	0.677
330	0.67
331	0.663
331	0.657
332	0.65
332	0.644
333	0.637
333	0.63
334	0.624
334	0.617
335	0.611
335	0.604
336	0.598
336	0.591
336	0.585
337	0.579
337	0.573
338	0.566
338	0.561
339	0.555
339	0.549
340	0.543
340	0.538
341	0.532
341	0.527
342	0.522
342	0.517
342	0.512
343	0.507
343	0.502
344	0.497
344	0.493
345	0.488
345	0.484
346	0.479
346	0.475
347	0.471
347	0.467
348	0.463
348	0.459
348	0.456
349	0.452
349	0.448
350	0.445
350	0.441
351	0.438
351	0.435
352	0.431
352	0.428
353	0.425
353	0.422
354	0.419
354	0.416
354	0.413
355	0.41
355	0.407
356	0.404
356	0.402
357	0.398
357	0.395
358	0.393
358	0.39
359	0.388
359	0.386
360	0.384
360	0.382
360	0.38
361	0.378
361	0.376
362	0.375
362	0.373
363	0.372
363	0.37
364	0.367
364	0.366
365	0.364
365	0.362
366	0.36
366	0.358
366	0.357
367	0.355
367	0.353
368	0.351
368	0.35
369	0.348
369	0.347
370	0.345
370	0.343
371	0.342
371	0.34
372	0.339
372	0.337
372	0.336
373	0.335
373	0.333
374	0.332
374	0.331
375	0.33
375	0.329
376	0.328
376	0.327
377	0.326
377	0.325
378	0.324
378	0.323
378	0.322
379	0.321
379	0.32
380	0.319
380	0.318
381	0.317
381	0.316
382	0.316
382	0.315
383	0.314
383	0.313
383	0.312
384	0.311
384	0.311
385	0.31
385	0.309
386	0.309
386	0.308
387	0.307
387	0.306
388	0.306
388	0.305
389	0.304
389	0.304
389	0.303
390	0.303
390	0.302
391	0.302
391	0.301
392	0.301
392	0.3
393	0.3
393	0.299
394	0.298
394	0.298
394	0.297
395	0.296
395	0.296
396	0.295
396	0.294
397	0.294
397	0.293
398	0.293
398	0.292
399	0.292
399	0.291
400	0.291
400	0.29
400	0.29
401	0.29
401	0.289
402	0.289
402	0.288
403	0.288
403	0.288
404	0.287
404	0.287
405	0.287
405	0.286
405	0.286
406	0.286
406	0.285
407	0.285
407	0.284
408	0.283
408	0.283
409	0.282
409	0.282
410	0.281
410	0.281
411	0.281
411	0.28
411	0.28
412	0.28
412	0.279
413	0.279
413	0.279
414	0.279
414	0.278
415	0.278
415	0.278
416	0.277
416	0.277
416	0.277
417	0.277
417	0.276
418	0.276
418	0.275
419	0.275
419	0.275
420	0.274
420	0.274
421	0.274
421	0.273
421	0.273
422	0.273
422	0.273
423	0.273
423	0.272
424	0.272
424	0.271
425	0.271
425	0.271
426	0.271
426	0.27
427	0.27
427	0.27
427	0.27
428	0.269
428	0.269
429	0.269
429	0.269
430	0.269
430	0.269
431	0.268
431	0.268
432	0.268
432	0.268
432	0.268
433	0.268
433	0.268
434	0.267
434	0.268
435	0.268
435	0.267
436	0.267
436	0.267
437	0.267
437	0.267
437	0.267
438	0.267
438	0.266
439	0.266
439	0.266
440	0.266
440	0.266
441	0.266
441	0.266
442	0.266
442	0.265
442	0.265
443	0.265
443	0.265
444	0.265
444	0.265
445	0.265
445	0.265
446	0.265
446	0.265
447	0.265
447	0.265
447	0.265
448	0.265
448	0.265
449	0.265
449	0.265
450	0.265
450	0.265
451	0.265
451	0.265
452	0.265
452	0.265
452	0.265
453	0.265
453	0.265
454	0.265
454	0.265
455	0.265
455	0.265
456	0.265
456	0.265
457	0.265
457	0.265
458	0.265
458	0.265
458	0.266
459	0.266
459	0.266
460	0.266
460	0.267
461	0.267
461	0.267
462	0.267
462	0.267
463	0.268
463	0.268
463	0.268
464	0.268
464	0.268
465	0.268
465	0.268
466	0.268
466	0.268
467	0.269
467	0.269
467	0.269
468	0.269
468	0.27
469	0.27
469	0.271
470	0.271
470	0.271
471	0.272
471	0.272
472	0.273
472	0.273
472	0.274
473	0.275
473	0.275
474	0.276
474	0.276
475	0.277
475	0.278
476	0.278
476	0.279
477	0.28
477	0.281
477	0.281
478	0.282
478	0.283
479	0.284
479	0.285
480	0.286
480	0.286
481	0.287
481	0.288
482	0.289
482	0.29
482	0.29
483	0.291
483	0.293
484	0.294
484	0.294
485	0.295
485	0.296
486	0.297
486	0.298
487	0.299
487	0.3
487	0.301
488	0.302
488	0.303
489	0.304
489	0.306
490	0.308
490	0.31
491	0.311
491	0.313
492	0.315
492	0.316
492	0.317
493	0.318
493	0.32
494	0.322
494	0.323
495	0.324
495	0.326
496	0.327
496	0.329
496	0.331
497	0.332
497	0.334
498	0.336
498	0.337
499	0.339
499	0.341
500	0.343
500	0.345
501	0.346
501	0.348
501	0.349
502	0.351
502	0.352
503	0.354
503	0.355
504	0.356
504	0.358
505	0.359
505	0.361
506	0.362
506	0.364
506	0.365
507	0.367
507	0.368
508	0.37
508	0.371
509	0.373
509	0.374
510	0.376
510	0.377
511	0.379
511	0.38
511	0.381
512	0.382
512	0.383
513	0.385
513	0.386
514	0.386
514	0.387
515	0.388
515	0.389
515	0.39
516	0.391
516	0.391
517	0.392
517	0.393
518	0.393
518	0.394
519	0.394
519	0.395
520	0.395
520	0.395
520	0.395
521	0.395
521	0.395
522	0.395
522	0.395
523	0.394
523	0.394
524	0.394
524	0.394
524	0.394
525	0.393
525	0.393
526	0.392
526	0.391
527	0.391
527	0.39
528	0.389
528	0.388
529	0.387
529	0.386
529	0.384
530	0.383
530	0.382
531	0.38
531	0.379
532	0.378
532	0.376
533	0.375
533	0.373
533	0.372
534	0.37
534	0.369
535	0.367
535	0.366
536	0.364
536	0.362
537	0.36
537	0.358
538	0.356
538	0.354
538	0.351
539	0.349
539	0.347
540	0.345
540	0.342
541	0.34
541	0.337
542	0.335
542	0.332
542	0.33
543	0.327
543	0.325
544	0.322
544	0.32
545	0.318
545	0.315
546	0.313
546	0.31
547	0.308
547	0.305
547	0.303
548	0.301
548	0.298
549	0.296
549	0.293
550	0.29
550	0.288
551	0.285
551	0.282
551	0.279
552	0.277
552	0.274
553	0.272
553	0.269
554	0.266
554	0.264
555	0.261
555	0.258
556	0.256
556	0.253
556	0.251
557	0.249
557	0.247
558	0.245
558	0.243
559	0.241
559	0.239
560	0.236
560	0.234
560	0.232
561	0.23
561	0.228
562	0.225
562	0.223
563	0.22
563	0.218
564	0.215
564	0.213
564	0.211
565	0.209
565	0.207
566	0.205
566	0.203
567	0.201
567	0.199
568	0.197
568	0.196
568	0.194
569	0.193
569	0.191
570	0.189
570	0.187
571	0.185
571	0.184
572	0.182
572	0.18
573	0.178
573	0.177
573	0.175
574	0.173
574	0.172
575	0.17
575	0.169
576	0.168
576	0.166
577	0.164
577	0.162
577	0.161
578	0.16
578	0.158
579	0.158
579	0.156
580	0.155
580	0.153
581	0.151
581	0.149
581	0.148
582	0.148
582	0.147
583	0.146
583	0.145
584	0.143
584	0.14
585	0.139
585	0.138
585	0.137
586	0.135
586	0.134
587	0.132
587	0.131
588	0.13
588	0.128
589	0.127
589	0.127
590	0.126
590	0.125
590	0.125
591	0.125
591	0.123
592	0.122
592	0.121
593	0.12
593	0.119
594	0.118
594	0.117
594	0.116
595	0.115
595	0.114
596	0.112
596	0.112
597	0.112
597	0.111
598	0.111
598	0.11
598	0.109
599	0.108
599	0.107
600	0.107
600	0.106
601	0.105
601	0.104
602	0.103
602	0.102
602	0.101
603	0.101
603	0.1
604	0.1
604	0.099
605	0.099
605	0.098
606	0.098
606	0.096
606	0.096
607	0.095
607	0.095
608	0.094
608	0.093
609	0.092
609	0.091
610	0.09
610	0.089
610	0.089
611	0.088
611	0.088
612	0.087
612	0.087
613	0.087
613	0.086
614	0.086
614	0.085
614	0.085
615	0.084
615	0.084
616	0.083
616	0.083
617	0.082
617	0.082
618	0.081
618	0.081
618	0.081
619	0.08
619	0.08
620	0.08
620	0.08
621	0.079
621	0.078
622	0.078
622	0.077
622	0.076
623	0.075
623	0.075
624	0.074
624	0.074
625	0.073
625	0.072
626	0.072
626	0.071
626	0.071
627	0.07
627	0.07
628	0.069
628	0.069
629	0.068
629	0.067
630	0.067
630	0.066
630	0.066
631	0.066
631	0.065
632	0.065
632	0.065
633	0.065
633	0.065
634	0.065
634	0.066
634	0.066
635	0.065
635	0.065
636	0.065
636	0.064
637	0.064
637	0.063
638	0.063
638	0.062
638	0.062
639	0.061
639	0.061
640	0.061
640	0.06
641	0.06
641	0.06
642	0.059
642	0.059
642	0.059
643	0.059
643	0.059
644	0.059
644	0.059
645	0.058
645	0.058
646	0.058
646	0.058
646	0.057
647	0.057
647	0.057
648	0.056
648	0.055
649	0.054
649	0.054
650	0.054
650	0.054
650	0.054
651	0.054
651	0.053
652	0.053
652	0.053
653	0.053
653	0.055
653	0.062
654	0.05
654	0.042
655	0.039
655	0.039
656	0.039
656	0.039
657	0.039
657	0.039
657	0.039
658	0.038
658	0.031
659	0.038
659	0.048
660	0.052
660	0.052
661	0.051
661	0.051
661	0.05
662	0.05
662	0.049
663	0.049
663	0.048
664	0.048
664	0.047
665	0.047
665	0.047
665	0.047
666	0.047
666	0.047
667	0.046
667	0.046
668	0.046
668	0.046
669	0.046
669	0.046
669	0.047
670	0.047
670	0.046
671	0.046
671	0.046
672	0.045
672	0.045
672	0.045
673	0.044
673	0.044
674	0.044
674	0.043
675	0.042
675	0.042
676	0.042
676	0.042
676	0.042
677	0.042
677	0.042
678	0.042
678	0.042
679	0.041
679	0.041
680	0.041
680	0.041
680	0.041
681	0.041
681	0.042
682	0.042
682	0.043
683	0.043
683	0.044
684	0.044
684	0.044
684	0.043
685	0.044
685	0.044
686	0.043
686	0.043
687	0.042
687	0.042
687	0.041
688	0.041
688	0.04
689	0.04
689	0.041
690	0.04
690	0.04
691	0.04
691	0.04
691	0.04
692	0.04
692	0.04
693	0.041
693	0.041
694	0.041
694	0.041
695	0.041
695	0.042
695	0.042
696	0.041
696	0.041
697	0.041
697	0.04
698	0.039
698	0.039
698	0.039
699	0.039
699	0.038
700	0.038
700	0.038
701	0.038
701	0.038
702	0.038
702	0.038
702	0.038
703	0.037
703	0.037
704	0.036
704	0.036
705	0.036
705	0.036
705	0.035
706	0.035
706	0.035
707	0.035
707	0.035
708	0.035
708	0.035
709	0.035
709	0.034
709	0.033
710	0.033
710	0.033
711	0.033
711	0.033
712	0.033
712	0.032
713	0.032
713	0.033
713	0.033
714	0.032
714	0.033
715	0.032
715	0.032
716	0.032
716	0.032
716	0.031
717	0.03
717	0.029
718	0.029
718	0.028
719	0.028
719	0.028
720	0.029
720	0.029
720	0.029
721	0.03
721	0.031
722	0.031
722	0.031
723	0.032
723	0.032
723	0.032
724	0.031
724	0.031
725	0.03
725	0.029
726	0.028
726	0.028
727	0.027
727	0.027
727	0.027
728	0.026
728	0.026
729	0.026
729	0.026
730	0.026
730	0.026
730	0.026
731	0.026
731	0.026
732	0.027
732	0.027
733	0.026
733	0.026
734	0.026
734	0.026
734	0.026
735	0.026
735	0.026
736	0.025
736	0.025
737	0.025
737	0.025
737	0.025
738	0.024
738	0.023
739	0.023
739	0.022
740	0.022
740	0.021
741	0.021
741	0.021
741	0.021
742	0.02
742	0.021
743	0.022
743	0.022
744	0.023
744	0.023
744	0.023
745	0.023
745	0.023
746	0.023
746	0.023
747	0.023
747	0.023
748	0.023
748	0.023
748	0.023
749	0.022
749	0.022
750	0.022
750	0.022
751	0.022
751	0.021
751	0.021
752	0.021
752	0.02
753	0.02
753	0.019
754	0.019
754	0.019
754	0.019
755	0.019
755	0.019
756	0.019
756	0.018
757	0.017
757	0.017
758	0.017
758	0.016
758	0.016
759	0.016
759	0.016
760	0.015
760	0.015
761	0.015
761	0.016
761	0.016
762	0.017
762	0.017
763	0.018
763	0.018
764	0.018
764	0.018
764	0.018
765	0.018
765	0.018
766	0.017
766	0.017
767	0.017
767	0.016
768	0.015
768	0.015
768	0.014
769	0.014
769	0.014
770	0.014
770	0.014
771	0.014
771	0.014
771	0.015
772	0.015
772	0.016
773	0.016
773	0.016
774	0.016
774	0.016
775	0.016
775	0.016
775	0.016
776	0.016
776	0.016
777	0.016
777	0.015
778	0.014
778	0.014
778	0.014
779	0.013
779	0.013
780	0.013
780	0.012
781	0.013
781	0.012
781	0.013
782	0.013
782	0.013
783	0.014
783	0.014
784	0.014
784	0.014
784	0.014
785	0.014
785	0.014
786	0.014
786	0.013
787	0.013
787	0.013
788	0.012
788	0.012
788	0.012
789	0.012
789	0.012
790	0.012
790	0.012
791	0.012
791	0.012
791	0.012
792	0.013
792	0.013
793	0.012
793	0.012
794	0.012
794	0.011
794	0.011
795	0.011
795	0.011
796	0.01
796	0.01
797	0.01
797	0.01
797	0.01
798	0.01
798	0.01
799	0.01
799	0.01
800	0.009
800	0.009
801	0.009
801	0.009
801	0.008
802	0.008
802	0.008
803	0.008
803	0.008
804	0.009
804	0.009
804	0.01
805	0.01
805	0.01
806	0.01
806	0.011
807	0.011
807	0.011
807	0.011
808	0.012
808	0.012
809	0.011
809	0.011
810	0.011
810	0.011
810	0.011
811	0.011
811	0.012
812	0.012
812	0.012
813	0.012
813	0.012
813	0.012
814	0.013
814	0.013
815	0.013
815	0.013
816	0.013
816	0.013
817	0.012
817	0.012
817	0.012
818	0.011
818	0.011
819	0.011
819	0.01
820	0.01
820	0.009
820	0.009
821	0.009
821	0.009
822	0.009
822	0.009
823	0.009
823	0.009
823	0.009
824	0.01
824	0.011
825	0.012
825	0.012
826	0.012
826	0.011
826	0.011
827	0.011
827	0.011
828	0.01
828	0.01
829	0.009
829	0.009
829	0.009
830	0.009
830	0.009
831	0.01
831	0.01
832	0.01
832	0.01
832	0.01
833	0.01
833	0.01
834	0.01
834	0.01
835	0.009
835	0.009
835	0.009
836	0.01
836	0.01
837	0.01
837	0.01
838	0.01
838	0.01
839	0.01
839	0.009
839	0.008
840	0.007
840	0.006
841	0.005
841	0.004
842	0.003
842	0.003
842	0.002
843	0.002
843	0.001
844	0.001
844	0.001
845	0.001
845	0.001
845	0.001
846	0.001
846	0.001
847	0.001
847	0.002
848	0.002
848	0.003
848	0.003
849	0.004
849	0.004
850	0.005
850	0.006
851	0.006
851	0.007
851	0.007
852	0.006
852	0.006
853	0.005
853	0.005
854	0.004
854	0.004
854	0.004
855	0.005
855	0.005
856	0.005
856	0.005
857	0.006
857	0.006
857	0.007
858	0.006
858	0.006
859	0.005
859	0.004
860	0.003
860	0.002
860	0.001
861	0
861	-0.001
862	-0.002
862	-0.003
863	-0.003
863	-0.004
863	-0.004
864	-0.004
864	-0.004
865	-0.004
865	-0.004
866	-0.004
866	-0.004
866	-0.004
867	-0.004
867	-0.004
868	-0.004
868	-0.004
869	-0.004
869	-0.004
869	-0.004
870	-0.004
870	-0.004
871	-0.003
871	-0.002
872	-0.002
872	-0.001
872	-0.001
873	-0
873	-0
874	-0
874	-0
875	-0
875	-0
875	-0.001
876	-0.001
876	-0.001
877	-0.001
877	-0.001
878	-0
878	0
878	0.001
879	0.002
879	0.002
880	0.003
880	0.003
881	0.004
881	0.004
881	0.003
882	0.003
882	0.002
883	0.001
883	0.001
884	0
884	-0.001
884	-0.001
885	-0.002
885	-0.002
886	-0.003
886	-0.003
887	-0.003
887	-0.003
887	-0.003
888	-0.004
888	-0.004
889	-0.004
889	-0.004
890	-0.004
890	-0.004
890	-0.004
891	-0.003
891	-0.003
892	-0.002
892	-0.001
893	-0.001
893	0
893	0.001
894	0.002
894	0.002
895	0.003
895	0.003
895	0.003
896	0.003
896	0.003
897	0.003
897	0.002
898	0.001
898	0
898	-0
899	-0.001
899	-0.002
900	-0.002
900	-0.003
901	-0.003
901	-0.003
901	-0.004
902	-0.004
902	-0.004
903	-0.004
903	-0.004
904	-0.004
904	-0.004
904	-0.004
905	-0.004
905	-0.004
906	-0.004
906	-0.004
907	-0.003
907	-0.003
907	-0.003
908	-0.002
908	-0.002
909	-0.002
909	-0.002
910	-0.001
910	-0.001
910	-0.001
911	-0.001
911	-0.001
912	-0.001
912	-0
913	0
913	0
913	0.001
914	0.001
914	0.001
915	0.001
915	0.001
916	0
916	-0
916	-0.001
917	-0.002
917	-0.002
918	-0.003
918	-0.004
918	-0.004
919	-0.004
919	-0.004
920	-0.004
920	-0.004
921	-0.003
921	-0.002
921	-0.001
922	-0.001
922	0
923	0.001
923	0.002
924	0.002
924	0.003
924	0.003
925	0.003
925	0.003
926	0.002
926	0.002
927	0.002
927	0.001
927	0.001
928	0
928	0
929	-0
929	-0
930	-0
930	-0.001
930	-0.001
931	-0.001
931	-0.001
932	-0.001
932	-0.002
933	-0.002
933	-0.003
933	-0.003
934	-0.004
934	-0.004
935	-0.005
935	-0.005
935	-0.006
936	-0.006
936	-0.007
937	-0.007
937	-0.007
938	-0.007
938	-0.006
938	-0.006
939	-0.005
939	-0.005
940	-0.004
940	-0.004
941	-0.003
941	-0.002
941	-0.001
942	-0.001
942	-0
943	0
943	0
944	0.001
944	0.001
944	0.001
945	0.002
945	0.002
946	0.002
946	0.002
946	0.002
947	0.003
947	0.003
948	0.003
948	0.003
949	0.003
949	0.003
949	0.003
950	0.003
950	0.003
951	0.003
951	0.003
952	0.002
952	0.002
952	0.001
953	0.001
953	0
954	-0.001
954	-0.002
955	-0.002
955	-0.003
955	-0.004
956	-0.004
956	-0.004
957	-0.004
957	-0.004
957	-0.003
958	-0.003
958	-0.002
959	-0.002
959	-0.002
960	-0.001
960	-0.001
960	-0.001
961	-0.001
961	-0.001
962	-0.002
962	-0.002
963	-0.002
963	-0.002
963	-0.002
964	-0.002
964	-0.002
965	-0.002
965	-0.001
966	-0.001
966	-0
966	0
967	0.001
967	0.001
968	0.002
968	0.002
968	0.002
969	0.002
969	0.002
970	0.002
970	0.001
971	0.001
971	0.001
971	0
972	-0
972	-0
973	-0
973	-0
974	-0
974	-0
974	0
975	0.001
975	0.001
976	0.001
976	0.002
976	0.002
977	0.002
977	0.002
978	0.001
978	0.001
979	0.001
979	0.001
979	0
980	-0
980	-0.001
981	-0.001
981	-0.001
982	-0.002
982	-0.002
982	-0.002
983	-0.003
983	-0.003
984	-0.004
984	-0.004
984	-0.005
985	-0.006
985	-0.006
986	-0.007
986	-0.008
987	-0.008
987	-0.009
987	-0.01
988	-0.01
988	-0.011
989	-0.011
989	-0.012
990	-0.012
990	-0.012
990	-0.012
991	-0.013
991	-0.013
992	-0.013
992	-0.013
992	-0.013
993	-0.013
993	-0.013
994	-0.013
994	-0.012
995	-0.012
995	-0.012
995	-0.011
996	-0.011
996	-0.01
997	-0.009
997	-0.008
997	-0.007
998	-0.006
998	-0.005
999	-0.004
999	-0.003
1000	-0.001
1000	-0.001
1000	-0
1001	0
1001	0
1002	0
1002	-0
1003	-0
1003	-0.001
1003	-0.001
1004	-0.002
1004	-0.002
1005	-0.002
1005	-0.003
1005	-0.003
1006	-0.004
1006	-0.004
1007	-0.004
1007	-0.004
1008	-0.004
1008	-0.004
1008	-0.004
1009	-0.004
1009	-0.004
1010	-0.005
1010	-0.005
1010	-0.005
1011	-0.005
1011	-0.005
1012	-0.005
1012	-0.005
1013	-0.005
1013	-0.005
1013	-0.005
1014	-0.006
1014	-0.006
1015	-0.006
1015	-0.005
1016	-0.005
1016	-0.005
1016	-0.006
1017	-0.006
1017	-0.006
1018	-0.005
1018	-0.006
1018	-0.005
1019	-0.005
1019	-0.006
1020	-0.006
1020	-0.005
1021	-0.005
1021	-0.005
1021	-0.005
1022	-0.005
1022	-0.005
1023	-0.005
1023	-0.006
1023	-0.006
1024	-0.006
1024	-0.007
1025	-0.007
1025	-0.008
1026	-0.008
1026	-0.009
1026	-0.009
1027	-0.01
1027	-0.011
1028	-0.012
1028	-0.012
1028	-0.012
1029	-0.013
1029	-0.013
1030	-0.013
1030	-0.013
1031	-0.013
1031	-0.013
1031	-0.012
1032	-0.012
1032	-0.012
1033	-0.012
1033	-0.012
1033	-0.011
1034	-0.011
1034	-0.011
1035	-0.012
1035	-0.012
1036	-0.012
1036	-0.012
1036	-0.012
1037	-0.012
1037	-0.012
1038	-0.013
1038	-0.012
1039	-0.013
1039	-0.012
1039	-0.012
1040	-0.012
1040	-0.011
1041	-0.011
1041	-0.01
1041	-0.01
1042	-0.01
1042	-0.009
1043	-0.009
1043	-0.008
1044	-0.008
1044	-0.008
1044	-0.007
1045	-0.007
1045	-0.006
1046	-0.006
1046	-0.005
1046	-0.005
1047	-0.004
1047	-0.004
1048	-0.004
1048	-0.003
1049	-0.003
1049	-0.003
1049	-0.003
1050	-0.004
1050	-0.004
1051	-0.005
1051	-0.005
1051	-0.006
1052	-0.007
1052	-0.007
1053	-0.008
1053	-0.009
1053	-0.009
1054	-0.01
1054	-0.01
1055	-0.01
1055	-0.01
1056	-0.011
1056	-0.011
1056	-0.012
1057	-0.012
1057	-0.013
1058	-0.013
1058	-0.014
1058	-0.015
1059	-0.015
1059	-0.016
1060	-0.016
1060	-0.016
1061	-0.017
1061	-0.017
1061	-0.017
1062	-0.017
1062	-0.017
1063	-0.017
1063	-0.017
1063	-0.017
1064	-0.018
1064	-0.018
1065	-0.018
1065	-0.018
1066	-0.018
1066	-0.018
1066	-0.019
1067	-0.019
1067	-0.019
1068	-0.019
1068	-0.019
1068	-0.02
1069	-0.02
1069	-0.02
1070	-0.02
1070	-0.02
1071	-0.021
1071	-0.021
1071	-0.022
1072	-0.022
1072	-0.022
1073	-0.023
1073	-0.024
1073	-0.024
1074	-0.024
1074	-0.024
1075	-0.024
1075	-0.024
1076	-0.024
1076	-0.024
1076	-0.023
1077	-0.023
1077	-0.022
1078	-0.022
1078	-0.021
1078	-0.021
1079	-0.021
1079	-0.02
1080	-0.02
1080	-0.019
1080	-0.019
1081	-0.018
1081	-0.018
1082	-0.017
1082	-0.017
1083	-0.017
1083	-0.017
1083	-0.017
1084	-0.017
1084	-0.017
1085	-0.017
1085	-0.017
1085	-0.018
1086	-0.018
1086	-0.019
1087	-0.02
1087	-0.02
1088	-0.021
1088	-0.021
1088	-0.021
1089	-0.021
1089	-0.022
1090	-0.023
1090	-0.023
1090	-0.024
1091	-0.024
1091	-0.025
1092	-0.024
1092	-0.024
1092	-0.025
1093	-0.026
1093	-0.026
1094	-0.025
1094	-0.025
1095	-0.025
1095	-0.025
1095	-0.025
1096	-0.026
1096	-0.026
1097	-0.026
1097	-0.026
1097	-0.026
1098	-0.026
1098	-0.027
1099	-0.027
1099	-0.028
1100	-0.028
1100	-0.029
1100	-0.03
1101	-0.031
1101	-0.032
1102	-0.033
1102	-0.034
1102	-0.036
1103	-0.036
1103	-0.037
1104	-0.037
1104	-0.037
1104	-0.037
1105	-0.038
1105	-0.04
1106	-0.04
1106	-0.041
1107	-0.042
1107	-0.042
1107	-0.043
1108	-0.044
1108	-0.045
1109	-0.046
1109	-0.047
1109	-0.047
1110	-0.045
1110	-0.047
1111	-0.049
1111	-0.048
