Data from reversibility-20sec_Absorbance__2762__000000000002762.txt Node

Date: Wed Dec 06 03:33:45 CET 2023
User: Marek
Spectrometer: MAYP115816
Trigger mode: 0
Integration Time (sec): 2.000000E-1
Scans to average: 10
Electric dark correction enabled: true
Nonlinearity correction enabled: true
Boxcar width: 5
XAxis mode: Wavelengths
Number of Pixels in Spectrum: 2068
>>>>>Begin Spectral Data<<<<<
199	-0.139
199	-0.113
200	-0.048
200	0.008
201	0.035
201	0.054
202	0.067
202	0.079
203	0.086
203	0.09
204	0.104
204	0.118
205	0.131
205	0.138
205	0.136
206	0.135
206	0.137
207	0.139
207	0.138
208	0.137
208	0.137
209	0.138
209	0.137
210	0.136
210	0.136
211	0.136
211	0.14
212	0.135
212	0.137
213	0.138
213	0.14
213	0.14
214	0.145
214	0.148
215	0.15
215	0.15
216	0.153
216	0.15
217	0.154
217	0.157
218	0.155
218	0.16
219	0.163
219	0.161
220	0.165
220	0.166
221	0.167
221	0.168
221	0.176
222	0.18
222	0.181
223	0.191
223	0.193
224	0.198
224	0.208
225	0.216
225	0.225
226	0.234
226	0.247
227	0.259
227	0.271
228	0.289
228	0.3
229	0.316
229	0.342
229	0.361
230	0.384
230	0.414
231	0.445
231	0.483
232	0.519
232	0.56
233	0.604
233	0.653
234	0.705
234	0.757
235	0.812
235	0.867
236	0.921
236	0.976
236	1.029
237	1.084
237	1.136
238	1.186
238	1.236
239	1.287
239	1.332
240	1.377
240	1.416
241	1.452
241	1.489
242	1.523
242	1.558
243	1.59
243	1.62
243	1.649
244	1.669
244	1.693
245	1.712
245	1.737
246	1.761
246	1.783
247	1.798
247	1.815
248	1.832
248	1.848
249	1.859
249	1.868
250	1.879
250	1.891
250	1.894
251	1.899
251	1.899
252	1.907
252	1.909
253	1.912
253	1.908
254	1.91
254	1.913
255	1.913
255	1.912
256	1.915
256	1.913
257	1.916
257	1.915
258	1.916
258	1.916
258	1.92
259	1.921
259	1.923
260	1.923
260	1.926
261	1.926
261	1.931
262	1.935
262	1.937
263	1.943
263	1.946
264	1.948
264	1.95
265	1.954
265	1.957
265	1.961
266	1.964
266	1.967
267	1.967
267	1.971
268	1.972
268	1.975
269	1.98
269	1.98
270	1.98
270	1.98
271	1.976
271	1.978
272	1.972
272	1.969
272	1.964
273	1.955
273	1.944
274	1.933
274	1.925
275	1.916
275	1.907
276	1.9
276	1.89
277	1.882
277	1.872
278	1.86
278	1.847
278	1.832
279	1.812
279	1.786
280	1.754
280	1.715
281	1.67
281	1.622
282	1.572
282	1.522
283	1.474
283	1.427
284	1.383
284	1.342
285	1.303
285	1.268
285	1.238
286	1.21
286	1.187
287	1.167
287	1.15
288	1.135
288	1.122
289	1.112
289	1.102
290	1.094
290	1.087
291	1.081
291	1.076
292	1.071
292	1.067
292	1.063
293	1.059
293	1.056
294	1.053
294	1.05
295	1.047
295	1.044
296	1.041
296	1.038
297	1.035
297	1.033
298	1.03
298	1.027
298	1.024
299	1.021
299	1.019
300	1.016
300	1.013
301	1.011
301	1.009
302	1.006
302	1.004
303	1.001
303	0.999
304	0.997
304	0.995
305	0.993
305	0.99
305	0.988
306	0.986
306	0.984
307	0.981
307	0.979
308	0.977
308	0.974
309	0.971
309	0.969
310	0.966
310	0.963
311	0.96
311	0.956
311	0.953
312	0.949
312	0.946
313	0.942
313	0.938
314	0.934
314	0.93
315	0.926
315	0.921
316	0.917
316	0.913
317	0.908
317	0.903
318	0.898
318	0.893
318	0.888
319	0.882
319	0.877
320	0.871
320	0.865
321	0.859
321	0.853
322	0.846
322	0.84
323	0.833
323	0.827
324	0.82
324	0.814
324	0.807
325	0.8
325	0.793
326	0.786
326	0.779
327	0.772
327	0.765
328	0.758
328	0.751
329	0.744
329	0.737
330	0.73
330	0.723
330	0.715
331	0.708
331	0.701
332	0.694
332	0.687
333	0.68
333	0.673
334	0.666
334	0.659
335	0.652
335	0.645
336	0.638
336	0.632
336	0.625
337	0.619
337	0.612
338	0.606
338	0.6
339	0.594
339	0.588
340	0.582
340	0.576
341	0.571
341	0.565
342	0.56
342	0.554
342	0.548
343	0.543
343	0.538
344	0.533
344	0.528
345	0.523
345	0.518
346	0.514
346	0.509
347	0.505
347	0.501
348	0.496
348	0.492
348	0.488
349	0.485
349	0.481
350	0.477
350	0.474
351	0.47
351	0.467
352	0.464
352	0.461
353	0.457
353	0.455
354	0.451
354	0.448
354	0.446
355	0.443
355	0.44
356	0.437
356	0.434
357	0.431
357	0.428
358	0.425
358	0.423
359	0.42
359	0.418
360	0.416
360	0.414
360	0.411
361	0.409
361	0.407
362	0.406
362	0.404
363	0.403
363	0.401
364	0.399
364	0.397
365	0.395
365	0.393
366	0.391
366	0.39
366	0.388
367	0.386
367	0.385
368	0.383
368	0.381
369	0.38
369	0.378
370	0.377
370	0.375
371	0.374
371	0.372
372	0.371
372	0.37
372	0.369
373	0.368
373	0.367
374	0.366
374	0.364
375	0.363
375	0.362
376	0.361
376	0.36
377	0.359
377	0.358
378	0.357
378	0.356
378	0.355
379	0.355
379	0.354
380	0.353
380	0.352
381	0.351
381	0.351
382	0.35
382	0.349
383	0.348
383	0.348
383	0.347
384	0.346
384	0.345
385	0.345
385	0.344
386	0.343
386	0.343
387	0.342
387	0.342
388	0.341
388	0.341
389	0.34
389	0.34
389	0.339
390	0.339
390	0.339
391	0.338
391	0.337
392	0.337
392	0.336
393	0.336
393	0.336
394	0.335
394	0.335
394	0.334
395	0.334
395	0.333
396	0.333
396	0.332
397	0.332
397	0.332
398	0.331
398	0.331
399	0.33
399	0.33
400	0.33
400	0.329
400	0.329
401	0.328
401	0.328
402	0.327
402	0.327
403	0.326
403	0.326
404	0.326
404	0.325
405	0.325
405	0.325
405	0.324
406	0.324
406	0.324
407	0.323
407	0.323
408	0.323
408	0.322
409	0.322
409	0.322
410	0.321
410	0.321
411	0.321
411	0.321
411	0.32
412	0.32
412	0.319
413	0.319
413	0.319
414	0.318
414	0.318
415	0.318
415	0.317
416	0.317
416	0.316
416	0.316
417	0.316
417	0.316
418	0.315
418	0.315
419	0.314
419	0.314
420	0.313
420	0.313
421	0.313
421	0.312
421	0.312
422	0.311
422	0.311
423	0.31
423	0.31
424	0.31
424	0.309
425	0.309
425	0.309
426	0.309
426	0.308
427	0.308
427	0.307
427	0.307
428	0.307
428	0.307
429	0.306
429	0.306
430	0.305
430	0.305
431	0.305
431	0.305
432	0.305
432	0.304
432	0.304
433	0.304
433	0.304
434	0.303
434	0.303
435	0.303
435	0.303
436	0.303
436	0.303
437	0.303
437	0.303
437	0.302
438	0.302
438	0.302
439	0.302
439	0.301
440	0.301
440	0.3
441	0.3
441	0.3
442	0.3
442	0.299
442	0.299
443	0.299
443	0.299
444	0.298
444	0.298
445	0.298
445	0.298
446	0.298
446	0.297
447	0.297
447	0.297
447	0.296
448	0.297
448	0.296
449	0.296
449	0.296
450	0.296
450	0.296
451	0.295
451	0.295
452	0.295
452	0.295
452	0.295
453	0.295
453	0.295
454	0.295
454	0.294
455	0.294
455	0.294
456	0.294
456	0.293
457	0.293
457	0.293
458	0.293
458	0.293
458	0.293
459	0.292
459	0.292
460	0.292
460	0.292
461	0.292
461	0.292
462	0.292
462	0.292
463	0.292
463	0.292
463	0.292
464	0.292
464	0.291
465	0.291
465	0.291
466	0.291
466	0.291
467	0.291
467	0.291
467	0.291
468	0.291
468	0.291
469	0.291
469	0.291
470	0.291
470	0.291
471	0.291
471	0.291
472	0.291
472	0.291
472	0.292
473	0.292
473	0.292
474	0.292
474	0.292
475	0.292
475	0.292
476	0.292
476	0.292
477	0.292
477	0.292
477	0.292
478	0.292
478	0.292
479	0.292
479	0.293
480	0.293
480	0.293
481	0.293
481	0.294
482	0.294
482	0.294
482	0.295
483	0.295
483	0.296
484	0.296
484	0.296
485	0.296
485	0.296
486	0.297
486	0.297
487	0.297
487	0.298
487	0.298
488	0.298
488	0.298
489	0.299
489	0.3
490	0.301
490	0.301
491	0.302
491	0.303
492	0.303
492	0.304
492	0.305
493	0.306
493	0.306
494	0.307
494	0.308
495	0.309
495	0.309
496	0.31
496	0.311
496	0.312
497	0.312
497	0.313
498	0.313
498	0.314
499	0.314
499	0.315
500	0.316
500	0.317
501	0.318
501	0.319
501	0.319
502	0.32
502	0.321
503	0.322
503	0.323
504	0.324
504	0.324
505	0.325
505	0.326
506	0.326
506	0.327
506	0.327
507	0.328
507	0.329
508	0.329
508	0.33
509	0.331
509	0.332
510	0.332
510	0.333
511	0.334
511	0.335
511	0.336
512	0.337
512	0.338
513	0.338
513	0.339
514	0.339
514	0.34
515	0.341
515	0.341
515	0.341
516	0.342
516	0.342
517	0.343
517	0.343
518	0.343
518	0.344
519	0.344
519	0.344
520	0.344
520	0.344
520	0.345
521	0.345
521	0.345
522	0.346
522	0.346
523	0.346
523	0.347
524	0.347
524	0.347
524	0.347
525	0.347
525	0.347
526	0.347
526	0.347
527	0.346
527	0.346
528	0.346
528	0.346
529	0.345
529	0.345
529	0.344
530	0.344
530	0.344
531	0.343
531	0.343
532	0.342
532	0.342
533	0.341
533	0.34
533	0.34
534	0.339
534	0.339
535	0.338
535	0.338
536	0.337
536	0.336
537	0.336
537	0.335
538	0.334
538	0.334
538	0.333
539	0.332
539	0.332
540	0.331
540	0.33
541	0.329
541	0.329
542	0.328
542	0.327
542	0.326
543	0.325
543	0.324
544	0.324
544	0.323
545	0.322
545	0.321
546	0.321
546	0.319
547	0.318
547	0.317
547	0.316
548	0.316
548	0.315
549	0.314
549	0.313
550	0.312
550	0.311
551	0.31
551	0.309
551	0.308
552	0.308
552	0.307
553	0.306
553	0.305
554	0.304
554	0.303
555	0.302
555	0.301
556	0.3
556	0.299
556	0.298
557	0.297
557	0.297
558	0.296
558	0.295
559	0.295
559	0.294
560	0.293
560	0.293
560	0.292
561	0.292
561	0.291
562	0.29
562	0.288
563	0.287
563	0.286
564	0.284
564	0.283
564	0.283
565	0.282
565	0.281
566	0.28
566	0.279
567	0.278
567	0.278
568	0.277
568	0.277
568	0.276
569	0.275
569	0.274
570	0.273
570	0.272
571	0.271
571	0.27
572	0.269
572	0.269
573	0.268
573	0.268
573	0.267
574	0.266
574	0.266
575	0.266
575	0.266
576	0.265
576	0.264
577	0.263
577	0.262
577	0.262
578	0.261
578	0.26
579	0.26
579	0.259
580	0.258
580	0.257
581	0.256
581	0.255
581	0.255
582	0.255
582	0.255
583	0.255
583	0.254
584	0.253
584	0.252
585	0.252
585	0.251
585	0.251
586	0.25
586	0.25
587	0.249
587	0.248
588	0.247
588	0.246
589	0.246
589	0.245
590	0.245
590	0.245
590	0.245
591	0.244
591	0.243
592	0.242
592	0.241
593	0.241
593	0.24
594	0.24
594	0.239
594	0.238
595	0.238
595	0.237
596	0.236
596	0.237
597	0.237
597	0.237
598	0.237
598	0.237
598	0.237
599	0.236
599	0.236
600	0.235
600	0.235
601	0.234
601	0.234
602	0.233
602	0.232
602	0.231
603	0.231
603	0.231
604	0.23
604	0.23
605	0.23
605	0.23
606	0.229
606	0.229
606	0.228
607	0.228
607	0.227
608	0.227
608	0.226
609	0.225
609	0.225
610	0.224
610	0.224
610	0.224
611	0.224
611	0.224
612	0.223
612	0.224
613	0.224
613	0.224
614	0.223
614	0.223
614	0.223
615	0.222
615	0.222
616	0.222
616	0.222
617	0.222
617	0.221
618	0.221
618	0.221
618	0.221
619	0.221
619	0.221
620	0.221
620	0.22
621	0.22
621	0.219
622	0.219
622	0.218
622	0.218
623	0.217
623	0.217
624	0.217
624	0.216
625	0.215
625	0.215
626	0.215
626	0.215
626	0.215
627	0.214
627	0.214
628	0.214
628	0.214
629	0.214
629	0.213
630	0.213
630	0.213
630	0.213
631	0.213
631	0.213
632	0.213
632	0.212
633	0.212
633	0.212
634	0.212
634	0.212
634	0.211
635	0.211
635	0.211
636	0.21
636	0.21
637	0.21
637	0.21
638	0.209
638	0.209
638	0.208
639	0.208
639	0.208
640	0.208
640	0.208
641	0.207
641	0.207
642	0.207
642	0.207
642	0.208
643	0.208
643	0.208
644	0.208
644	0.208
645	0.208
645	0.208
646	0.208
646	0.208
646	0.208
647	0.208
647	0.208
648	0.207
648	0.207
649	0.207
649	0.206
650	0.206
650	0.206
650	0.206
651	0.205
651	0.205
652	0.205
652	0.205
653	0.206
653	0.207
653	0.213
654	0.166
654	0.133
655	0.134
655	0.134
656	0.135
656	0.135
657	0.136
657	0.136
657	0.136
658	0.135
658	0.124
659	0.158
659	0.203
660	0.208
660	0.208
661	0.207
661	0.207
661	0.206
662	0.205
662	0.204
663	0.204
663	0.203
664	0.203
664	0.203
665	0.202
665	0.202
665	0.203
666	0.203
666	0.203
667	0.203
667	0.204
668	0.205
668	0.205
669	0.205
669	0.205
669	0.205
670	0.205
670	0.205
671	0.205
671	0.205
672	0.204
672	0.204
672	0.204
673	0.203
673	0.203
674	0.203
674	0.203
675	0.202
675	0.202
676	0.203
676	0.203
676	0.203
677	0.203
677	0.203
678	0.203
678	0.203
679	0.202
679	0.203
680	0.203
680	0.202
680	0.202
681	0.202
681	0.202
682	0.202
682	0.202
683	0.202
683	0.203
684	0.203
684	0.203
684	0.203
685	0.203
685	0.203
686	0.203
686	0.203
687	0.203
687	0.203
687	0.203
688	0.203
688	0.204
689	0.204
689	0.205
690	0.205
690	0.205
691	0.205
691	0.205
691	0.205
692	0.205
692	0.205
693	0.205
693	0.206
694	0.206
694	0.206
695	0.206
695	0.207
695	0.207
696	0.207
696	0.206
697	0.206
697	0.206
698	0.206
698	0.205
698	0.205
699	0.205
699	0.205
700	0.204
700	0.205
701	0.204
701	0.204
702	0.204
702	0.204
702	0.204
703	0.204
703	0.204
704	0.203
704	0.203
705	0.203
705	0.203
705	0.203
706	0.202
706	0.202
707	0.202
707	0.202
708	0.202
708	0.202
709	0.203
709	0.202
709	0.202
710	0.202
710	0.203
711	0.203
711	0.203
712	0.204
712	0.204
713	0.204
713	0.204
713	0.204
714	0.204
714	0.204
715	0.204
715	0.204
716	0.203
716	0.203
716	0.203
717	0.202
717	0.202
718	0.201
718	0.2
719	0.2
719	0.2
720	0.2
720	0.2
720	0.201
721	0.201
721	0.202
722	0.202
722	0.203
723	0.203
723	0.204
723	0.204
724	0.204
724	0.204
725	0.204
725	0.203
726	0.202
726	0.202
727	0.201
727	0.2
727	0.2
728	0.2
728	0.2
729	0.2
729	0.2
730	0.2
730	0.201
730	0.202
731	0.202
731	0.203
732	0.204
732	0.204
733	0.204
733	0.204
734	0.205
734	0.205
734	0.205
735	0.205
735	0.204
736	0.204
736	0.203
737	0.203
737	0.202
737	0.202
738	0.201
738	0.201
739	0.201
739	0.2
740	0.2
740	0.201
741	0.201
741	0.201
741	0.201
742	0.201
742	0.202
743	0.203
743	0.203
744	0.203
744	0.204
744	0.204
745	0.203
745	0.203
746	0.203
746	0.203
747	0.204
747	0.204
748	0.204
748	0.205
748	0.205
749	0.205
749	0.206
750	0.206
750	0.207
751	0.207
751	0.207
751	0.207
752	0.207
752	0.206
753	0.206
753	0.205
754	0.205
754	0.204
754	0.204
755	0.203
755	0.203
756	0.202
756	0.201
757	0.201
757	0.201
758	0.2
758	0.2
758	0.201
759	0.201
759	0.201
760	0.201
760	0.201
761	0.202
761	0.202
761	0.203
762	0.203
762	0.204
763	0.204
763	0.204
764	0.204
764	0.205
764	0.205
765	0.205
765	0.205
766	0.205
766	0.205
767	0.204
767	0.204
768	0.203
768	0.203
768	0.203
769	0.203
769	0.203
770	0.203
770	0.204
771	0.204
771	0.204
771	0.204
772	0.205
772	0.205
773	0.206
773	0.206
774	0.206
774	0.207
775	0.207
775	0.207
775	0.207
776	0.207
776	0.207
777	0.207
777	0.207
778	0.207
778	0.206
778	0.206
779	0.206
779	0.205
780	0.204
780	0.204
781	0.204
781	0.204
781	0.204
782	0.203
782	0.203
783	0.204
783	0.204
784	0.204
784	0.204
784	0.205
785	0.205
785	0.205
786	0.205
786	0.205
787	0.206
787	0.206
788	0.205
788	0.205
788	0.204
789	0.204
789	0.204
790	0.204
790	0.204
791	0.204
791	0.203
791	0.204
792	0.205
792	0.205
793	0.205
793	0.206
794	0.206
794	0.206
794	0.206
795	0.206
795	0.206
796	0.207
796	0.207
797	0.206
797	0.206
797	0.206
798	0.206
798	0.206
799	0.206
799	0.205
800	0.205
800	0.204
801	0.204
801	0.203
801	0.203
802	0.203
802	0.203
803	0.203
803	0.203
804	0.203
804	0.204
804	0.204
805	0.204
805	0.204
806	0.205
806	0.205
807	0.205
807	0.205
807	0.205
808	0.206
808	0.206
809	0.206
809	0.206
810	0.207
810	0.207
810	0.207
811	0.207
811	0.207
812	0.207
812	0.207
813	0.207
813	0.207
813	0.207
814	0.207
814	0.207
815	0.207
815	0.207
816	0.207
816	0.206
817	0.205
817	0.205
817	0.204
818	0.204
818	0.203
819	0.203
819	0.202
820	0.201
820	0.2
820	0.2
821	0.2
821	0.2
822	0.201
822	0.201
823	0.201
823	0.201
823	0.202
824	0.203
824	0.204
825	0.205
825	0.206
826	0.206
826	0.206
826	0.206
827	0.207
827	0.206
828	0.206
828	0.206
829	0.205
829	0.205
829	0.204
830	0.204
830	0.204
831	0.204
831	0.204
832	0.204
832	0.204
832	0.204
833	0.204
833	0.204
834	0.204
834	0.203
835	0.203
835	0.203
835	0.202
836	0.202
836	0.202
837	0.202
837	0.201
838	0.2
838	0.2
839	0.199
839	0.199
839	0.198
840	0.197
840	0.196
841	0.195
841	0.194
842	0.194
842	0.193
842	0.192
843	0.192
843	0.192
844	0.192
844	0.191
845	0.192
845	0.192
845	0.192
846	0.192
846	0.192
847	0.192
847	0.193
848	0.193
848	0.194
848	0.194
849	0.194
849	0.194
850	0.194
850	0.194
851	0.193
851	0.193
851	0.192
852	0.191
852	0.191
853	0.19
853	0.189
854	0.189
854	0.189
854	0.189
855	0.189
855	0.189
856	0.19
856	0.19
857	0.191
857	0.192
857	0.192
858	0.192
858	0.191
859	0.191
859	0.19
860	0.189
860	0.188
860	0.187
861	0.186
861	0.185
862	0.184
862	0.183
863	0.183
863	0.182
863	0.182
864	0.182
864	0.181
865	0.182
865	0.181
866	0.181
866	0.181
866	0.181
867	0.18
867	0.18
868	0.18
868	0.179
869	0.179
869	0.178
869	0.177
870	0.176
870	0.176
871	0.176
871	0.175
872	0.175
872	0.175
872	0.175
873	0.175
873	0.175
874	0.174
874	0.174
875	0.174
875	0.173
875	0.173
876	0.172
876	0.172
877	0.172
877	0.172
878	0.172
878	0.173
878	0.174
879	0.175
879	0.176
880	0.176
880	0.177
881	0.177
881	0.178
881	0.178
882	0.177
882	0.177
883	0.176
883	0.175
884	0.174
884	0.173
884	0.172
885	0.172
885	0.171
886	0.17
886	0.169
887	0.168
887	0.167
887	0.166
888	0.165
888	0.164
889	0.164
889	0.163
890	0.163
890	0.162
890	0.161
891	0.161
891	0.16
892	0.16
892	0.16
893	0.159
893	0.159
893	0.159
894	0.159
894	0.158
895	0.158
895	0.158
895	0.157
896	0.157
896	0.157
897	0.156
897	0.156
898	0.156
898	0.156
898	0.155
899	0.155
899	0.155
900	0.155
900	0.156
901	0.156
901	0.156
901	0.156
902	0.156
902	0.156
903	0.155
903	0.155
904	0.155
904	0.154
904	0.154
905	0.154
905	0.154
906	0.154
906	0.154
907	0.155
907	0.155
907	0.155
908	0.156
908	0.156
909	0.156
909	0.156
910	0.156
910	0.156
910	0.155
911	0.154
911	0.153
912	0.152
912	0.152
913	0.151
913	0.15
913	0.149
914	0.148
914	0.147
915	0.147
915	0.146
916	0.145
916	0.145
916	0.144
917	0.144
917	0.143
918	0.143
918	0.142
918	0.141
919	0.14
919	0.14
920	0.139
920	0.138
921	0.138
921	0.137
921	0.136
922	0.136
922	0.136
923	0.135
923	0.135
924	0.135
924	0.135
924	0.135
925	0.136
925	0.136
926	0.136
926	0.137
927	0.137
927	0.137
927	0.138
928	0.138
928	0.138
929	0.139
929	0.139
930	0.139
930	0.139
930	0.14
931	0.14
931	0.14
932	0.14
932	0.141
933	0.141
933	0.141
933	0.141
934	0.141
934	0.141
935	0.141
935	0.141
935	0.14
936	0.14
936	0.139
937	0.139
937	0.138
938	0.137
938	0.136
938	0.136
939	0.135
939	0.134
940	0.133
940	0.132
941	0.132
941	0.132
941	0.131
942	0.131
942	0.13
943	0.13
943	0.13
944	0.13
944	0.129
944	0.129
945	0.129
945	0.128
946	0.128
946	0.128
946	0.128
947	0.128
947	0.127
948	0.127
948	0.127
949	0.126
949	0.126
949	0.125
950	0.124
950	0.124
951	0.123
951	0.122
952	0.121
952	0.12
952	0.119
953	0.118
953	0.117
954	0.116
954	0.116
955	0.115
955	0.115
955	0.115
956	0.115
956	0.116
957	0.116
957	0.117
957	0.117
958	0.118
958	0.118
959	0.119
959	0.119
960	0.119
960	0.12
960	0.12
961	0.12
961	0.12
962	0.12
962	0.12
963	0.12
963	0.12
963	0.12
964	0.121
964	0.121
965	0.121
965	0.122
966	0.122
966	0.122
966	0.123
967	0.123
967	0.123
968	0.123
968	0.123
968	0.123
969	0.122
969	0.122
970	0.121
970	0.121
971	0.12
971	0.12
971	0.12
972	0.119
972	0.119
973	0.118
973	0.118
974	0.118
974	0.118
974	0.118
975	0.119
975	0.118
976	0.118
976	0.118
976	0.118
977	0.118
977	0.117
978	0.117
978	0.116
979	0.116
979	0.115
979	0.114
980	0.114
980	0.113
981	0.112
981	0.111
982	0.111
982	0.11
982	0.11
983	0.109
983	0.108
984	0.108
984	0.107
984	0.107
985	0.106
985	0.106
986	0.105
986	0.105
987	0.104
987	0.104
987	0.103
988	0.103
988	0.102
989	0.102
989	0.102
990	0.102
990	0.101
990	0.101
991	0.101
991	0.101
992	0.101
992	0.101
992	0.1
993	0.1
993	0.099
994	0.099
994	0.099
995	0.098
995	0.098
995	0.098
996	0.097
996	0.097
997	0.097
997	0.098
997	0.098
998	0.098
998	0.098
999	0.098
999	0.099
1000	0.099
1000	0.099
1000	0.099
1001	0.099
1001	0.099
1002	0.099
1002	0.099
1003	0.099
1003	0.098
1003	0.098
1004	0.098
1004	0.097
1005	0.097
1005	0.097
1005	0.096
1006	0.096
1006	0.096
1007	0.096
1007	0.096
1008	0.095
1008	0.096
1008	0.095
1009	0.096
1009	0.096
1010	0.096
1010	0.096
1010	0.096
1011	0.096
1011	0.097
1012	0.097
1012	0.097
1013	0.097
1013	0.097
1013	0.097
1014	0.096
1014	0.096
1015	0.096
1015	0.095
1016	0.095
1016	0.094
1016	0.093
1017	0.092
1017	0.092
1018	0.091
1018	0.091
1018	0.091
1019	0.09
1019	0.09
1020	0.09
1020	0.09
1021	0.091
1021	0.091
1021	0.092
1022	0.092
1022	0.092
1023	0.092
1023	0.092
1023	0.093
1024	0.093
1024	0.093
1025	0.093
1025	0.093
1026	0.092
1026	0.092
1026	0.092
1027	0.092
1027	0.092
1028	0.092
1028	0.092
1028	0.091
1029	0.092
1029	0.091
1030	0.092
1030	0.092
1031	0.092
1031	0.092
1031	0.092
1032	0.092
1032	0.092
1033	0.092
1033	0.092
1033	0.092
1034	0.092
1034	0.091
1035	0.091
1035	0.091
1036	0.091
1036	0.09
1036	0.09
1037	0.09
1037	0.09
1038	0.09
1038	0.09
1039	0.09
1039	0.09
1039	0.09
1040	0.09
1040	0.091
1041	0.091
1041	0.091
1041	0.091
1042	0.091
1042	0.091
1043	0.092
1043	0.092
1044	0.092
1044	0.092
1044	0.092
1045	0.092
1045	0.093
1046	0.093
1046	0.093
1046	0.093
1047	0.094
1047	0.094
1048	0.095
1048	0.095
1049	0.095
1049	0.096
1049	0.096
1050	0.096
1050	0.096
1051	0.096
1051	0.096
1051	0.095
1052	0.095
1052	0.094
1053	0.093
1053	0.092
1053	0.092
1054	0.091
1054	0.09
1055	0.09
1055	0.089
1056	0.088
1056	0.087
1056	0.086
1057	0.085
1057	0.085
1058	0.084
1058	0.083
1058	0.083
1059	0.082
1059	0.082
1060	0.081
1060	0.081
1061	0.08
1061	0.08
1061	0.08
1062	0.08
1062	0.08
1063	0.08
1063	0.08
1063	0.079
1064	0.079
1064	0.079
1065	0.078
1065	0.078
1066	0.077
1066	0.077
1066	0.077
1067	0.076
1067	0.076
1068	0.075
1068	0.075
1068	0.075
1069	0.074
1069	0.074
1070	0.073
1070	0.072
1071	0.071
1071	0.071
1071	0.07
1072	0.069
1072	0.069
1073	0.068
1073	0.067
1073	0.067
1074	0.067
1074	0.067
1075	0.068
1075	0.068
1076	0.068
1076	0.069
1076	0.069
1077	0.07
1077	0.07
1078	0.07
1078	0.07
1078	0.07
1079	0.07
1079	0.07
1080	0.069
1080	0.069
1080	0.069
1081	0.069
1081	0.069
1082	0.07
1082	0.07
1083	0.069
1083	0.069
1083	0.069
1084	0.069
1084	0.07
1085	0.07
1085	0.07
1085	0.07
1086	0.07
1086	0.069
1087	0.069
1087	0.069
1088	0.068
1088	0.068
1088	0.069
1089	0.068
1089	0.067
1090	0.066
1090	0.065
1090	0.064
1091	0.065
1091	0.065
1092	0.065
1092	0.065
1092	0.064
1093	0.064
1093	0.064
1094	0.064
1094	0.064
1095	0.064
1095	0.064
1095	0.064
1096	0.063
1096	0.062
1097	0.062
1097	0.061
1097	0.061
1098	0.06
1098	0.059
1099	0.059
1099	0.058
1100	0.058
1100	0.056
1100	0.055
1101	0.055
1101	0.054
1102	0.054
1102	0.053
1102	0.051
1103	0.052
1103	0.051
1104	0.051
1104	0.05
1104	0.05
1105	0.05
1105	0.048
1106	0.047
1106	0.046
1107	0.046
1107	0.047
1107	0.046
1108	0.046
1108	0.044
1109	0.042
1109	0.042
1109	0.042
1110	0.044
1110	0.045
1111	0.043
1111	0.042
