Data from reversibility-20sec_Absorbance__4480__000000000004480.txt Node

Date: Wed Dec 06 13:06:25 CET 2023
User: Marek
Spectrometer: MAYP115816
Trigger mode: 0
Integration Time (sec): 2.000000E-1
Scans to average: 10
Electric dark correction enabled: true
Nonlinearity correction enabled: true
Boxcar width: 5
XAxis mode: Wavelengths
Number of Pixels in Spectrum: 2068
>>>>>Begin Spectral Data<<<<<
199	-0.217
199	-0.181
200	-0.115
200	-0.063
201	-0.032
201	-0.013
202	-0.001
202	0.009
203	0.015
203	0.018
204	0.034
204	0.048
205	0.058
205	0.066
205	0.063
206	0.063
206	0.062
207	0.064
207	0.062
208	0.064
208	0.065
209	0.065
209	0.064
210	0.065
210	0.064
211	0.068
211	0.069
212	0.068
212	0.07
213	0.073
213	0.074
213	0.073
214	0.076
214	0.079
215	0.082
215	0.081
216	0.081
216	0.079
217	0.083
217	0.086
218	0.086
218	0.087
219	0.093
219	0.093
220	0.094
220	0.094
221	0.097
221	0.102
221	0.11
222	0.115
222	0.119
223	0.124
223	0.128
224	0.134
224	0.142
225	0.152
225	0.161
226	0.169
226	0.179
227	0.186
227	0.194
228	0.21
228	0.227
229	0.244
229	0.266
229	0.29
230	0.313
230	0.344
231	0.375
231	0.412
232	0.451
232	0.497
233	0.539
233	0.586
234	0.634
234	0.685
235	0.736
235	0.788
236	0.84
236	0.894
236	0.947
237	0.999
237	1.047
238	1.093
238	1.141
239	1.19
239	1.233
240	1.274
240	1.313
241	1.347
241	1.379
242	1.411
242	1.445
243	1.474
243	1.502
243	1.526
244	1.546
244	1.567
245	1.587
245	1.608
246	1.627
246	1.647
247	1.659
247	1.673
248	1.687
248	1.701
249	1.713
249	1.721
250	1.73
250	1.739
250	1.746
251	1.754
251	1.756
252	1.762
252	1.764
253	1.769
253	1.768
254	1.769
254	1.772
255	1.772
255	1.775
256	1.776
256	1.772
257	1.773
257	1.772
258	1.772
258	1.77
258	1.77
259	1.771
259	1.769
260	1.769
260	1.769
261	1.767
261	1.771
262	1.773
262	1.774
263	1.776
263	1.776
264	1.777
264	1.778
265	1.779
265	1.78
265	1.78
266	1.782
266	1.781
267	1.78
267	1.78
268	1.778
268	1.779
269	1.781
269	1.779
270	1.779
270	1.778
271	1.774
271	1.773
272	1.771
272	1.77
272	1.769
273	1.765
273	1.761
274	1.755
274	1.751
275	1.745
275	1.74
276	1.735
276	1.728
277	1.72
277	1.71
278	1.7
278	1.689
278	1.675
279	1.663
279	1.646
280	1.627
280	1.603
281	1.575
281	1.544
282	1.511
282	1.476
283	1.441
283	1.406
284	1.372
284	1.338
285	1.304
285	1.273
285	1.246
286	1.221
286	1.199
287	1.18
287	1.163
288	1.148
288	1.135
289	1.124
289	1.114
290	1.106
290	1.099
291	1.092
291	1.086
292	1.08
292	1.075
292	1.07
293	1.066
293	1.062
294	1.058
294	1.054
295	1.05
295	1.047
296	1.044
296	1.04
297	1.037
297	1.034
298	1.031
298	1.027
298	1.024
299	1.021
299	1.018
300	1.015
300	1.012
301	1.009
301	1.007
302	1.003
302	1.001
303	0.998
303	0.995
304	0.993
304	0.99
305	0.987
305	0.985
305	0.982
306	0.979
306	0.976
307	0.974
307	0.971
308	0.968
308	0.965
309	0.962
309	0.958
310	0.956
310	0.953
311	0.949
311	0.946
311	0.942
312	0.939
312	0.935
313	0.931
313	0.927
314	0.924
314	0.92
315	0.915
315	0.911
316	0.906
316	0.902
317	0.897
317	0.892
318	0.887
318	0.882
318	0.877
319	0.872
319	0.866
320	0.861
320	0.855
321	0.849
321	0.843
322	0.837
322	0.831
323	0.824
323	0.818
324	0.812
324	0.805
324	0.799
325	0.792
325	0.786
326	0.779
326	0.772
327	0.766
327	0.759
328	0.752
328	0.746
329	0.739
329	0.732
330	0.725
330	0.718
330	0.711
331	0.704
331	0.697
332	0.691
332	0.684
333	0.677
333	0.67
334	0.664
334	0.657
335	0.65
335	0.644
336	0.637
336	0.631
336	0.624
337	0.618
337	0.612
338	0.606
338	0.6
339	0.594
339	0.588
340	0.582
340	0.577
341	0.571
341	0.566
342	0.561
342	0.555
342	0.55
343	0.545
343	0.54
344	0.535
344	0.53
345	0.526
345	0.521
346	0.517
346	0.512
347	0.508
347	0.503
348	0.499
348	0.495
348	0.491
349	0.488
349	0.484
350	0.48
350	0.477
351	0.474
351	0.47
352	0.467
352	0.464
353	0.461
353	0.459
354	0.456
354	0.452
354	0.449
355	0.446
355	0.443
356	0.441
356	0.437
357	0.435
357	0.432
358	0.429
358	0.426
359	0.424
359	0.421
360	0.419
360	0.417
360	0.415
361	0.413
361	0.411
362	0.41
362	0.408
363	0.406
363	0.404
364	0.402
364	0.4
365	0.398
365	0.396
366	0.395
366	0.393
366	0.391
367	0.389
367	0.387
368	0.385
368	0.384
369	0.382
369	0.38
370	0.379
370	0.377
371	0.376
371	0.375
372	0.373
372	0.372
372	0.371
373	0.369
373	0.368
374	0.367
374	0.366
375	0.365
375	0.364
376	0.363
376	0.362
377	0.36
377	0.359
378	0.358
378	0.357
378	0.356
379	0.355
379	0.354
380	0.353
380	0.352
381	0.351
381	0.35
382	0.35
382	0.349
383	0.348
383	0.347
383	0.347
384	0.346
384	0.345
385	0.345
385	0.344
386	0.343
386	0.343
387	0.342
387	0.341
388	0.341
388	0.34
389	0.339
389	0.339
389	0.338
390	0.338
390	0.337
391	0.336
391	0.336
392	0.336
392	0.335
393	0.334
393	0.334
394	0.334
394	0.333
394	0.332
395	0.332
395	0.331
396	0.331
396	0.33
397	0.33
397	0.329
398	0.329
398	0.328
399	0.328
399	0.327
400	0.327
400	0.326
400	0.326
401	0.325
401	0.325
402	0.325
402	0.324
403	0.324
403	0.323
404	0.323
404	0.323
405	0.322
405	0.322
405	0.322
406	0.321
406	0.321
407	0.32
407	0.32
408	0.319
408	0.319
409	0.318
409	0.318
410	0.317
410	0.317
411	0.317
411	0.317
411	0.316
412	0.316
412	0.315
413	0.315
413	0.315
414	0.314
414	0.314
415	0.313
415	0.313
416	0.313
416	0.312
416	0.312
417	0.311
417	0.311
418	0.311
418	0.311
419	0.31
419	0.31
420	0.31
420	0.309
421	0.309
421	0.308
421	0.308
422	0.308
422	0.307
423	0.307
423	0.307
424	0.306
424	0.306
425	0.306
425	0.305
426	0.305
426	0.305
427	0.304
427	0.304
427	0.304
428	0.303
428	0.303
429	0.303
429	0.303
430	0.302
430	0.302
431	0.302
431	0.302
432	0.302
432	0.302
432	0.301
433	0.301
433	0.301
434	0.301
434	0.301
435	0.301
435	0.301
436	0.301
436	0.3
437	0.3
437	0.3
437	0.3
438	0.299
438	0.299
439	0.299
439	0.299
440	0.299
440	0.299
441	0.298
441	0.298
442	0.298
442	0.298
442	0.298
443	0.298
443	0.298
444	0.298
444	0.297
445	0.297
445	0.297
446	0.297
446	0.297
447	0.297
447	0.297
447	0.297
448	0.297
448	0.296
449	0.296
449	0.297
450	0.297
450	0.297
451	0.296
451	0.297
452	0.297
452	0.297
452	0.297
453	0.297
453	0.297
454	0.297
454	0.297
455	0.297
455	0.296
456	0.296
456	0.296
457	0.296
457	0.296
458	0.296
458	0.296
458	0.296
459	0.296
459	0.296
460	0.296
460	0.297
461	0.297
461	0.297
462	0.297
462	0.297
463	0.297
463	0.297
463	0.297
464	0.297
464	0.297
465	0.297
465	0.297
466	0.297
466	0.297
467	0.298
467	0.298
467	0.298
468	0.299
468	0.299
469	0.299
469	0.3
470	0.3
470	0.301
471	0.301
471	0.302
472	0.302
472	0.303
472	0.303
473	0.304
473	0.304
474	0.305
474	0.305
475	0.305
475	0.306
476	0.306
476	0.307
477	0.307
477	0.308
477	0.308
478	0.309
478	0.309
479	0.31
479	0.311
480	0.311
480	0.312
481	0.313
481	0.313
482	0.314
482	0.315
482	0.315
483	0.316
483	0.317
484	0.318
484	0.319
485	0.319
485	0.32
486	0.321
486	0.322
487	0.323
487	0.323
487	0.325
488	0.325
488	0.326
489	0.327
489	0.329
490	0.33
490	0.331
491	0.333
491	0.334
492	0.336
492	0.337
492	0.338
493	0.34
493	0.341
494	0.342
494	0.344
495	0.345
495	0.346
496	0.348
496	0.349
496	0.35
497	0.352
497	0.353
498	0.354
498	0.356
499	0.357
499	0.359
500	0.36
500	0.362
501	0.363
501	0.365
501	0.366
502	0.367
502	0.369
503	0.37
503	0.372
504	0.373
504	0.374
505	0.376
505	0.377
506	0.378
506	0.379
506	0.38
507	0.382
507	0.383
508	0.384
508	0.385
509	0.387
509	0.388
510	0.389
510	0.391
511	0.392
511	0.393
511	0.395
512	0.396
512	0.397
513	0.397
513	0.398
514	0.399
514	0.4
515	0.401
515	0.401
515	0.402
516	0.403
516	0.403
517	0.404
517	0.405
518	0.405
518	0.406
519	0.406
519	0.406
520	0.406
520	0.407
520	0.407
521	0.407
521	0.407
522	0.407
522	0.407
523	0.407
523	0.406
524	0.406
524	0.406
524	0.405
525	0.405
525	0.404
526	0.404
526	0.403
527	0.402
527	0.401
528	0.4
528	0.4
529	0.399
529	0.398
529	0.396
530	0.395
530	0.394
531	0.393
531	0.392
532	0.39
532	0.389
533	0.388
533	0.386
533	0.385
534	0.383
534	0.382
535	0.38
535	0.379
536	0.377
536	0.375
537	0.373
537	0.372
538	0.37
538	0.368
538	0.366
539	0.364
539	0.362
540	0.36
540	0.358
541	0.355
541	0.353
542	0.351
542	0.349
542	0.347
543	0.344
543	0.342
544	0.34
544	0.338
545	0.336
545	0.333
546	0.332
546	0.329
547	0.327
547	0.325
547	0.322
548	0.32
548	0.318
549	0.316
549	0.313
550	0.311
550	0.308
551	0.306
551	0.303
551	0.301
552	0.298
552	0.296
553	0.293
553	0.291
554	0.289
554	0.286
555	0.284
555	0.281
556	0.279
556	0.277
556	0.275
557	0.273
557	0.271
558	0.269
558	0.267
559	0.265
559	0.263
560	0.261
560	0.259
560	0.257
561	0.256
561	0.254
562	0.251
562	0.249
563	0.247
563	0.245
564	0.242
564	0.24
564	0.238
565	0.236
565	0.234
566	0.232
566	0.231
567	0.229
567	0.228
568	0.226
568	0.225
568	0.223
569	0.222
569	0.22
570	0.218
570	0.216
571	0.214
571	0.213
572	0.211
572	0.209
573	0.207
573	0.206
573	0.204
574	0.202
574	0.201
575	0.2
575	0.199
576	0.198
576	0.196
577	0.194
577	0.192
577	0.191
578	0.19
578	0.189
579	0.188
579	0.187
580	0.185
580	0.184
581	0.182
581	0.181
581	0.18
582	0.179
582	0.179
583	0.178
583	0.177
584	0.175
584	0.173
585	0.171
585	0.171
585	0.169
586	0.169
586	0.168
587	0.166
587	0.165
588	0.163
588	0.162
589	0.161
589	0.16
590	0.16
590	0.159
590	0.158
591	0.158
591	0.156
592	0.155
592	0.154
593	0.153
593	0.152
594	0.151
594	0.149
594	0.148
595	0.147
595	0.146
596	0.145
596	0.145
597	0.145
597	0.145
598	0.144
598	0.144
598	0.144
599	0.143
599	0.143
600	0.142
600	0.141
601	0.141
601	0.14
602	0.139
602	0.138
602	0.138
603	0.137
603	0.136
604	0.136
604	0.135
605	0.135
605	0.134
606	0.133
606	0.132
606	0.131
607	0.13
607	0.129
608	0.129
608	0.127
609	0.126
609	0.126
610	0.125
610	0.124
610	0.124
611	0.123
611	0.123
612	0.123
612	0.123
613	0.123
613	0.122
614	0.122
614	0.121
614	0.12
615	0.12
615	0.119
616	0.119
616	0.119
617	0.118
617	0.117
618	0.116
618	0.116
618	0.116
619	0.116
619	0.115
620	0.115
620	0.115
621	0.114
621	0.113
622	0.113
622	0.112
622	0.112
623	0.111
623	0.11
624	0.11
624	0.109
625	0.108
625	0.108
626	0.108
626	0.107
626	0.107
627	0.107
627	0.106
628	0.106
628	0.106
629	0.106
629	0.105
630	0.105
630	0.104
630	0.104
631	0.104
631	0.103
632	0.103
632	0.102
633	0.102
633	0.101
634	0.101
634	0.101
634	0.101
635	0.101
635	0.1
636	0.1
636	0.1
637	0.099
637	0.099
638	0.098
638	0.098
638	0.097
639	0.097
639	0.096
640	0.096
640	0.095
641	0.095
641	0.095
642	0.095
642	0.095
642	0.095
643	0.095
643	0.095
644	0.095
644	0.094
645	0.094
645	0.094
646	0.093
646	0.093
646	0.093
647	0.092
647	0.092
648	0.091
648	0.09
649	0.09
649	0.089
650	0.089
650	0.089
650	0.089
651	0.089
651	0.089
652	0.088
652	0.088
653	0.089
653	0.09
653	0.097
654	0.079
654	0.064
655	0.061
655	0.061
656	0.061
656	0.061
657	0.061
657	0.061
657	0.061
658	0.06
658	0.052
659	0.064
659	0.081
660	0.086
660	0.087
661	0.086
661	0.086
661	0.086
662	0.085
662	0.085
663	0.085
663	0.085
664	0.084
664	0.084
665	0.083
665	0.083
665	0.082
666	0.082
666	0.082
667	0.082
667	0.082
668	0.082
668	0.083
669	0.083
669	0.083
669	0.084
670	0.085
670	0.085
671	0.085
671	0.085
672	0.084
672	0.084
672	0.083
673	0.082
673	0.082
674	0.081
674	0.081
675	0.08
675	0.08
676	0.08
676	0.08
676	0.079
677	0.079
677	0.079
678	0.079
678	0.078
679	0.078
679	0.077
680	0.077
680	0.077
680	0.076
681	0.076
681	0.076
682	0.076
682	0.077
683	0.077
683	0.078
684	0.078
684	0.078
684	0.078
685	0.079
685	0.079
686	0.079
686	0.079
687	0.078
687	0.078
687	0.078
688	0.077
688	0.077
689	0.077
689	0.077
690	0.077
690	0.076
691	0.076
691	0.076
691	0.076
692	0.076
692	0.076
693	0.076
693	0.076
694	0.076
694	0.075
695	0.076
695	0.077
695	0.077
696	0.077
696	0.076
697	0.076
697	0.075
698	0.075
698	0.074
698	0.074
699	0.074
699	0.074
700	0.073
700	0.073
701	0.073
701	0.073
702	0.072
702	0.072
702	0.072
703	0.071
703	0.071
704	0.07
704	0.07
705	0.07
705	0.07
705	0.069
706	0.069
706	0.069
707	0.069
707	0.069
708	0.07
708	0.07
709	0.07
709	0.07
709	0.069
710	0.069
710	0.069
711	0.07
711	0.07
712	0.07
712	0.07
713	0.07
713	0.07
713	0.07
714	0.07
714	0.069
715	0.069
715	0.068
716	0.067
716	0.067
716	0.066
717	0.065
717	0.065
718	0.064
718	0.063
719	0.064
719	0.064
720	0.064
720	0.065
720	0.065
721	0.065
721	0.066
722	0.067
722	0.067
723	0.067
723	0.068
723	0.068
724	0.068
724	0.067
725	0.067
725	0.066
726	0.066
726	0.065
727	0.065
727	0.065
727	0.064
728	0.064
728	0.064
729	0.064
729	0.064
730	0.063
730	0.063
730	0.063
731	0.063
731	0.064
732	0.064
732	0.064
733	0.064
733	0.063
734	0.063
734	0.063
734	0.064
735	0.064
735	0.063
736	0.063
736	0.063
737	0.062
737	0.062
737	0.061
738	0.061
738	0.06
739	0.059
739	0.059
740	0.058
740	0.059
741	0.059
741	0.059
741	0.059
742	0.059
742	0.059
743	0.06
743	0.06
744	0.061
744	0.061
744	0.061
745	0.061
745	0.061
746	0.061
746	0.061
747	0.061
747	0.061
748	0.061
748	0.061
748	0.061
749	0.06
749	0.061
750	0.061
750	0.06
751	0.06
751	0.06
751	0.06
752	0.059
752	0.058
753	0.058
753	0.057
754	0.057
754	0.056
754	0.056
755	0.056
755	0.056
756	0.056
756	0.055
757	0.055
757	0.055
758	0.055
758	0.056
758	0.056
759	0.056
759	0.055
760	0.055
760	0.055
761	0.055
761	0.055
761	0.055
762	0.054
762	0.054
763	0.054
763	0.053
764	0.053
764	0.053
764	0.052
765	0.052
765	0.052
766	0.052
766	0.051
767	0.051
767	0.05
768	0.05
768	0.05
768	0.05
769	0.05
769	0.051
770	0.051
770	0.051
771	0.052
771	0.052
771	0.052
772	0.052
772	0.053
773	0.053
773	0.052
774	0.052
774	0.052
775	0.052
775	0.051
775	0.051
776	0.051
776	0.051
777	0.051
777	0.051
778	0.051
778	0.051
778	0.051
779	0.051
779	0.05
780	0.05
780	0.049
781	0.049
781	0.048
781	0.048
782	0.048
782	0.048
783	0.048
783	0.048
784	0.048
784	0.048
784	0.048
785	0.049
785	0.049
786	0.049
786	0.049
787	0.049
787	0.049
788	0.048
788	0.048
788	0.048
789	0.047
789	0.047
790	0.047
790	0.047
791	0.047
791	0.046
791	0.046
792	0.047
792	0.047
793	0.046
793	0.046
794	0.046
794	0.045
794	0.045
795	0.045
795	0.045
796	0.044
796	0.044
797	0.043
797	0.043
797	0.043
798	0.043
798	0.043
799	0.043
799	0.043
800	0.043
800	0.043
801	0.044
801	0.044
801	0.044
802	0.045
802	0.045
803	0.045
803	0.045
804	0.045
804	0.046
804	0.046
805	0.046
805	0.045
806	0.045
806	0.045
807	0.045
807	0.045
807	0.045
808	0.046
808	0.046
809	0.046
809	0.046
810	0.046
810	0.046
810	0.046
811	0.046
811	0.047
812	0.047
812	0.047
813	0.047
813	0.047
813	0.047
814	0.047
814	0.047
815	0.047
815	0.047
816	0.047
816	0.046
817	0.045
817	0.045
817	0.044
818	0.044
818	0.044
819	0.043
819	0.042
820	0.042
820	0.041
820	0.041
821	0.042
821	0.042
822	0.042
822	0.043
823	0.043
823	0.044
823	0.045
824	0.046
824	0.047
825	0.048
825	0.049
826	0.049
826	0.049
826	0.049
827	0.049
827	0.049
828	0.049
828	0.048
829	0.048
829	0.048
829	0.048
830	0.047
830	0.047
831	0.048
831	0.048
832	0.047
832	0.047
832	0.047
833	0.047
833	0.047
834	0.047
834	0.047
835	0.047
835	0.047
835	0.047
836	0.047
836	0.047
837	0.048
837	0.048
838	0.047
838	0.047
839	0.047
839	0.047
839	0.046
840	0.045
840	0.044
841	0.043
841	0.042
842	0.041
842	0.04
842	0.04
843	0.039
843	0.038
844	0.037
844	0.037
845	0.036
845	0.036
845	0.035
846	0.035
846	0.035
847	0.035
847	0.035
848	0.035
848	0.036
848	0.036
849	0.037
849	0.037
850	0.037
850	0.037
851	0.038
851	0.038
851	0.038
852	0.037
852	0.037
853	0.037
853	0.036
854	0.036
854	0.037
854	0.037
855	0.037
855	0.038
856	0.038
856	0.039
857	0.04
857	0.041
857	0.041
858	0.041
858	0.042
859	0.041
859	0.041
860	0.041
860	0.041
860	0.041
861	0.04
861	0.04
862	0.039
862	0.039
863	0.039
863	0.038
863	0.038
864	0.038
864	0.038
865	0.038
865	0.038
866	0.038
866	0.039
866	0.039
867	0.039
867	0.04
868	0.04
868	0.041
869	0.041
869	0.041
869	0.041
870	0.04
870	0.041
871	0.041
871	0.041
872	0.041
872	0.041
872	0.041
873	0.041
873	0.041
874	0.041
874	0.041
875	0.041
875	0.041
875	0.041
876	0.041
876	0.041
877	0.041
877	0.042
878	0.042
878	0.042
878	0.043
879	0.043
879	0.043
880	0.043
880	0.043
881	0.043
881	0.043
881	0.043
882	0.043
882	0.042
883	0.042
883	0.041
884	0.041
884	0.041
884	0.04
885	0.04
885	0.039
886	0.038
886	0.038
887	0.037
887	0.037
887	0.036
888	0.036
888	0.036
889	0.036
889	0.036
890	0.037
890	0.037
890	0.038
891	0.038
891	0.038
892	0.039
892	0.039
893	0.039
893	0.039
893	0.039
894	0.039
894	0.039
895	0.039
895	0.039
895	0.039
896	0.039
896	0.039
897	0.04
897	0.04
898	0.04
898	0.039
898	0.039
899	0.039
899	0.039
900	0.039
900	0.039
901	0.039
901	0.04
901	0.04
902	0.04
902	0.04
903	0.039
903	0.039
904	0.039
904	0.038
904	0.037
905	0.037
905	0.036
906	0.035
906	0.034
907	0.033
907	0.033
907	0.033
908	0.033
908	0.033
909	0.033
909	0.033
910	0.033
910	0.033
910	0.033
911	0.033
911	0.033
912	0.033
912	0.033
913	0.033
913	0.032
913	0.032
914	0.032
914	0.032
915	0.033
915	0.033
916	0.033
916	0.034
916	0.034
917	0.035
917	0.035
918	0.035
918	0.035
918	0.035
919	0.035
919	0.035
920	0.035
920	0.035
921	0.035
921	0.034
921	0.034
922	0.034
922	0.033
923	0.033
923	0.033
924	0.033
924	0.033
924	0.033
925	0.034
925	0.034
926	0.034
926	0.035
927	0.035
927	0.035
927	0.036
928	0.036
928	0.037
929	0.037
929	0.038
930	0.038
930	0.038
930	0.038
931	0.038
931	0.038
932	0.038
932	0.038
933	0.038
933	0.037
933	0.037
934	0.037
934	0.036
935	0.035
935	0.035
935	0.034
936	0.034
936	0.033
937	0.033
937	0.032
938	0.032
938	0.032
938	0.032
939	0.032
939	0.032
940	0.032
940	0.032
941	0.033
941	0.033
941	0.034
942	0.035
942	0.035
943	0.036
943	0.036
944	0.036
944	0.037
944	0.037
945	0.037
945	0.037
946	0.037
946	0.037
946	0.037
947	0.037
947	0.037
948	0.037
948	0.036
949	0.035
949	0.035
949	0.034
950	0.033
950	0.033
951	0.032
951	0.031
952	0.03
952	0.03
952	0.029
953	0.029
953	0.029
954	0.029
954	0.029
955	0.029
955	0.029
955	0.029
956	0.029
956	0.03
957	0.03
957	0.031
957	0.031
958	0.032
958	0.032
959	0.033
959	0.033
960	0.033
960	0.033
960	0.034
961	0.034
961	0.034
962	0.034
962	0.034
963	0.034
963	0.035
963	0.035
964	0.035
964	0.035
965	0.035
965	0.035
966	0.036
966	0.036
966	0.036
967	0.036
967	0.036
968	0.037
968	0.037
968	0.036
969	0.036
969	0.035
970	0.034
970	0.033
971	0.032
971	0.03
971	0.029
972	0.028
972	0.027
973	0.026
973	0.025
974	0.026
974	0.026
974	0.026
975	0.027
975	0.028
976	0.029
976	0.031
976	0.031
977	0.032
977	0.033
978	0.034
978	0.034
979	0.035
979	0.035
979	0.036
980	0.036
980	0.036
981	0.036
981	0.036
982	0.036
982	0.036
982	0.037
983	0.036
983	0.036
984	0.036
984	0.035
984	0.035
985	0.034
985	0.034
986	0.033
986	0.033
987	0.033
987	0.032
987	0.032
988	0.032
988	0.032
989	0.032
989	0.032
990	0.032
990	0.032
990	0.032
991	0.032
991	0.032
992	0.032
992	0.031
992	0.031
993	0.03
993	0.029
994	0.028
994	0.028
995	0.027
995	0.027
995	0.026
996	0.026
996	0.026
997	0.026
997	0.027
997	0.027
998	0.028
998	0.028
999	0.029
999	0.03
1000	0.031
1000	0.032
1000	0.032
1001	0.033
1001	0.033
1002	0.033
1002	0.033
1003	0.033
1003	0.033
1003	0.032
1004	0.031
1004	0.03
1005	0.029
1005	0.028
1005	0.027
1006	0.026
1006	0.025
1007	0.025
1007	0.024
1008	0.023
1008	0.023
1008	0.023
1009	0.023
1009	0.022
1010	0.022
1010	0.022
1010	0.022
1011	0.021
1011	0.021
1012	0.021
1012	0.02
1013	0.02
1013	0.02
1013	0.02
1014	0.02
1014	0.02
1015	0.02
1015	0.02
1016	0.02
1016	0.02
1016	0.02
1017	0.02
1017	0.02
1018	0.02
1018	0.02
1018	0.019
1019	0.019
1019	0.02
1020	0.02
1020	0.02
1021	0.021
1021	0.021
1021	0.022
1022	0.023
1022	0.023
1023	0.024
1023	0.024
1023	0.025
1024	0.025
1024	0.026
1025	0.026
1025	0.026
1026	0.027
1026	0.027
1026	0.027
1027	0.027
1027	0.027
1028	0.027
1028	0.027
1028	0.027
1029	0.027
1029	0.027
1030	0.027
1030	0.028
1031	0.028
1031	0.028
1031	0.028
1032	0.029
1032	0.029
1033	0.029
1033	0.03
1033	0.03
1034	0.03
1034	0.03
1035	0.03
1035	0.03
1036	0.03
1036	0.03
1036	0.03
1037	0.029
1037	0.029
1038	0.029
1038	0.029
1039	0.028
1039	0.028
1039	0.028
1040	0.028
1040	0.028
1041	0.028
1041	0.028
1041	0.028
1042	0.028
1042	0.027
1043	0.027
1043	0.027
1044	0.027
1044	0.026
1044	0.026
1045	0.026
1045	0.026
1046	0.026
1046	0.026
1046	0.026
1047	0.026
1047	0.026
1048	0.026
1048	0.027
1049	0.027
1049	0.027
1049	0.027
1050	0.027
1050	0.027
1051	0.026
1051	0.026
1051	0.026
1052	0.025
1052	0.024
1053	0.023
1053	0.023
1053	0.022
1054	0.022
1054	0.021
1055	0.021
1055	0.02
1056	0.02
1056	0.019
1056	0.018
1057	0.017
1057	0.016
1058	0.016
1058	0.015
1058	0.014
1059	0.013
1059	0.013
1060	0.012
1060	0.012
1061	0.012
1061	0.012
1061	0.012
1062	0.012
1062	0.013
1063	0.013
1063	0.013
1063	0.013
1064	0.013
1064	0.013
1065	0.013
1065	0.013
1066	0.013
1066	0.013
1066	0.013
1067	0.012
1067	0.013
1068	0.012
1068	0.012
1068	0.012
1069	0.012
1069	0.012
1070	0.012
1070	0.011
1071	0.011
1071	0.011
1071	0.011
1072	0.011
1072	0.011
1073	0.011
1073	0.011
1073	0.011
1074	0.011
1074	0.011
1075	0.012
1075	0.012
1076	0.012
1076	0.013
1076	0.013
1077	0.013
1077	0.013
1078	0.013
1078	0.013
1078	0.013
1079	0.012
1079	0.012
1080	0.012
1080	0.011
1080	0.011
1081	0.011
1081	0.011
1082	0.011
1082	0.012
1083	0.012
1083	0.012
1083	0.012
1084	0.012
1084	0.013
1085	0.013
1085	0.014
1085	0.015
1086	0.015
1086	0.015
1087	0.015
1087	0.015
1088	0.015
1088	0.015
1088	0.015
1089	0.014
1089	0.013
1090	0.012
1090	0.011
1090	0.01
1091	0.01
1091	0.009
1092	0.009
1092	0.01
1092	0.009
1093	0.009
1093	0.009
1094	0.009
1094	0.009
1095	0.009
1095	0.009
1095	0.009
1096	0.008
1096	0.008
1097	0.007
1097	0.007
1097	0.007
1098	0.006
1098	0.004
1099	0.004
1099	0.002
1100	0.001
1100	0
1100	-0
1101	-0.002
1101	-0.002
1102	-0.003
1102	-0.005
1102	-0.006
1103	-0.006
1103	-0.006
1104	-0.006
1104	-0.007
1104	-0.007
1105	-0.008
1105	-0.009
1106	-0.011
1106	-0.012
1107	-0.012
1107	-0.013
1107	-0.013
1108	-0.014
1108	-0.016
1109	-0.017
1109	-0.018
1109	-0.018
1110	-0.018
1110	-0.02
1111	-0.019
1111	-0.022
