Data from reversibility-20sec_Absorbance__1377__000000000001377.txt Node

Date: Tue Dec 05 19:52:06 CET 2023
User: Marek
Spectrometer: MAYP115816
Trigger mode: 0
Integration Time (sec): 2.000000E-1
Scans to average: 10
Electric dark correction enabled: true
Nonlinearity correction enabled: true
Boxcar width: 5
XAxis mode: Wavelengths
Number of Pixels in Spectrum: 2068
>>>>>Begin Spectral Data<<<<<
199	-0.22
199	-0.186
200	-0.114
200	-0.065
201	-0.031
201	-0.015
202	-0.002
202	0.007
203	0.015
203	0.019
204	0.034
204	0.047
205	0.059
205	0.065
205	0.065
206	0.062
206	0.063
207	0.065
207	0.065
208	0.065
208	0.065
209	0.066
209	0.065
210	0.065
210	0.066
211	0.067
211	0.07
212	0.068
212	0.07
213	0.073
213	0.074
213	0.076
214	0.08
214	0.082
215	0.083
215	0.083
216	0.086
216	0.085
217	0.09
217	0.094
218	0.095
218	0.098
219	0.103
219	0.104
220	0.104
220	0.107
221	0.106
221	0.109
221	0.114
222	0.119
222	0.12
223	0.127
223	0.131
224	0.134
224	0.141
225	0.151
225	0.16
226	0.172
226	0.183
227	0.194
227	0.203
228	0.217
228	0.229
229	0.245
229	0.268
229	0.291
230	0.316
230	0.347
231	0.377
231	0.415
232	0.452
232	0.497
233	0.543
233	0.592
234	0.643
234	0.694
235	0.746
235	0.8
236	0.852
236	0.906
236	0.958
237	1.012
237	1.063
238	1.111
238	1.159
239	1.21
239	1.258
240	1.303
240	1.341
241	1.383
241	1.421
242	1.46
242	1.496
243	1.531
243	1.561
243	1.593
244	1.617
244	1.644
245	1.668
245	1.692
246	1.714
246	1.735
247	1.746
247	1.764
248	1.781
248	1.798
249	1.811
249	1.825
250	1.836
250	1.845
250	1.857
251	1.865
251	1.872
252	1.883
252	1.887
253	1.893
253	1.894
254	1.898
254	1.902
255	1.903
255	1.907
256	1.909
256	1.913
257	1.914
257	1.916
258	1.917
258	1.918
258	1.921
259	1.921
259	1.921
260	1.923
260	1.926
261	1.926
261	1.929
262	1.933
262	1.936
263	1.943
263	1.945
264	1.949
264	1.954
265	1.956
265	1.957
265	1.96
266	1.962
266	1.964
267	1.964
267	1.966
268	1.967
268	1.97
269	1.975
269	1.974
270	1.974
270	1.974
271	1.972
271	1.974
272	1.971
272	1.971
272	1.968
273	1.962
273	1.955
274	1.948
274	1.944
275	1.939
275	1.933
276	1.928
276	1.92
277	1.914
277	1.903
278	1.893
278	1.882
278	1.869
279	1.854
279	1.834
280	1.81
280	1.782
281	1.748
281	1.708
282	1.668
282	1.626
283	1.585
283	1.544
284	1.504
284	1.465
285	1.427
285	1.393
285	1.363
286	1.336
286	1.312
287	1.29
287	1.272
288	1.255
288	1.242
289	1.23
289	1.219
290	1.211
290	1.203
291	1.195
291	1.189
292	1.183
292	1.178
292	1.173
293	1.169
293	1.165
294	1.16
294	1.157
295	1.153
295	1.149
296	1.146
296	1.143
297	1.139
297	1.136
298	1.132
298	1.129
298	1.127
299	1.124
299	1.121
300	1.118
300	1.115
301	1.112
301	1.109
302	1.106
302	1.103
303	1.101
303	1.098
304	1.096
304	1.093
305	1.09
305	1.087
305	1.085
306	1.082
306	1.079
307	1.076
307	1.073
308	1.07
308	1.066
309	1.063
309	1.06
310	1.057
310	1.053
311	1.05
311	1.046
311	1.043
312	1.039
312	1.036
313	1.031
313	1.027
314	1.023
314	1.018
315	1.014
315	1.009
316	1.004
316	1
317	0.995
317	0.99
318	0.984
318	0.979
318	0.974
319	0.968
319	0.962
320	0.957
320	0.95
321	0.944
321	0.938
322	0.931
322	0.925
323	0.919
323	0.912
324	0.905
324	0.899
324	0.892
325	0.885
325	0.878
326	0.871
326	0.864
327	0.856
327	0.849
328	0.842
328	0.835
329	0.828
329	0.82
330	0.813
330	0.806
330	0.799
331	0.792
331	0.785
332	0.778
332	0.771
333	0.763
333	0.756
334	0.749
334	0.742
335	0.735
335	0.728
336	0.721
336	0.715
336	0.708
337	0.701
337	0.695
338	0.688
338	0.682
339	0.676
339	0.67
340	0.664
340	0.658
341	0.652
341	0.647
342	0.641
342	0.635
342	0.63
343	0.625
343	0.619
344	0.614
344	0.609
345	0.604
345	0.6
346	0.595
346	0.59
347	0.585
347	0.581
348	0.576
348	0.572
348	0.568
349	0.564
349	0.56
350	0.557
350	0.553
351	0.549
351	0.546
352	0.542
352	0.539
353	0.536
353	0.533
354	0.53
354	0.527
354	0.523
355	0.52
355	0.517
356	0.514
356	0.511
357	0.509
357	0.506
358	0.503
358	0.5
359	0.497
359	0.495
360	0.492
360	0.49
360	0.488
361	0.486
361	0.484
362	0.481
362	0.479
363	0.477
363	0.475
364	0.473
364	0.471
365	0.468
365	0.466
366	0.464
366	0.462
366	0.46
367	0.459
367	0.456
368	0.454
368	0.453
369	0.451
369	0.449
370	0.447
370	0.445
371	0.444
371	0.442
372	0.44
372	0.439
372	0.437
373	0.436
373	0.434
374	0.433
374	0.432
375	0.43
375	0.429
376	0.428
376	0.427
377	0.426
377	0.425
378	0.423
378	0.422
378	0.421
379	0.42
379	0.419
380	0.417
380	0.416
381	0.415
381	0.414
382	0.413
382	0.412
383	0.411
383	0.41
383	0.409
384	0.408
384	0.407
385	0.406
385	0.405
386	0.405
386	0.404
387	0.403
387	0.402
388	0.401
388	0.401
389	0.4
389	0.399
389	0.398
390	0.398
390	0.397
391	0.397
391	0.396
392	0.396
392	0.395
393	0.394
393	0.393
394	0.393
394	0.392
394	0.391
395	0.391
395	0.39
396	0.389
396	0.389
397	0.388
397	0.387
398	0.386
398	0.386
399	0.385
399	0.385
400	0.384
400	0.383
400	0.383
401	0.382
401	0.382
402	0.381
402	0.381
403	0.38
403	0.38
404	0.379
404	0.379
405	0.378
405	0.377
405	0.377
406	0.376
406	0.376
407	0.375
407	0.375
408	0.374
408	0.374
409	0.373
409	0.373
410	0.372
410	0.372
411	0.372
411	0.371
411	0.371
412	0.371
412	0.37
413	0.369
413	0.369
414	0.369
414	0.369
415	0.368
415	0.367
416	0.367
416	0.366
416	0.365
417	0.365
417	0.365
418	0.364
418	0.364
419	0.363
419	0.363
420	0.362
420	0.362
421	0.362
421	0.361
421	0.361
422	0.361
422	0.36
423	0.36
423	0.359
424	0.359
424	0.358
425	0.358
425	0.358
426	0.358
426	0.357
427	0.357
427	0.357
427	0.356
428	0.356
428	0.355
429	0.355
429	0.355
430	0.355
430	0.354
431	0.354
431	0.354
432	0.354
432	0.353
432	0.353
433	0.353
433	0.353
434	0.352
434	0.352
435	0.352
435	0.352
436	0.351
436	0.351
437	0.351
437	0.35
437	0.35
438	0.35
438	0.35
439	0.35
439	0.349
440	0.349
440	0.349
441	0.349
441	0.349
442	0.349
442	0.349
442	0.349
443	0.348
443	0.348
444	0.348
444	0.348
445	0.348
445	0.348
446	0.347
446	0.347
447	0.347
447	0.347
447	0.347
448	0.347
448	0.347
449	0.347
449	0.347
450	0.347
450	0.347
451	0.346
451	0.346
452	0.346
452	0.346
452	0.346
453	0.346
453	0.346
454	0.346
454	0.346
455	0.346
455	0.346
456	0.346
456	0.346
457	0.346
457	0.346
458	0.346
458	0.346
458	0.346
459	0.346
459	0.347
460	0.347
460	0.347
461	0.347
461	0.347
462	0.347
462	0.347
463	0.347
463	0.347
463	0.347
464	0.347
464	0.347
465	0.348
465	0.348
466	0.348
466	0.348
467	0.349
467	0.349
467	0.349
468	0.349
468	0.349
469	0.349
469	0.35
470	0.35
470	0.351
471	0.351
471	0.351
472	0.352
472	0.353
472	0.353
473	0.354
473	0.355
474	0.355
474	0.356
475	0.356
475	0.356
476	0.357
476	0.358
477	0.358
477	0.359
477	0.36
478	0.361
478	0.361
479	0.362
479	0.363
480	0.364
480	0.364
481	0.365
481	0.366
482	0.366
482	0.367
482	0.368
483	0.369
483	0.37
484	0.371
484	0.372
485	0.373
485	0.374
486	0.374
486	0.375
487	0.376
487	0.378
487	0.379
488	0.38
488	0.38
489	0.382
489	0.384
490	0.385
490	0.387
491	0.389
491	0.39
492	0.391
492	0.393
492	0.394
493	0.395
493	0.397
494	0.399
494	0.401
495	0.402
495	0.403
496	0.405
496	0.407
496	0.408
497	0.409
497	0.411
498	0.412
498	0.414
499	0.415
499	0.417
500	0.419
500	0.421
501	0.422
501	0.424
501	0.425
502	0.427
502	0.428
503	0.43
503	0.431
504	0.433
504	0.434
505	0.435
505	0.437
506	0.438
506	0.439
506	0.441
507	0.442
507	0.444
508	0.445
508	0.447
509	0.448
509	0.45
510	0.451
510	0.452
511	0.454
511	0.455
511	0.457
512	0.458
512	0.459
513	0.46
513	0.461
514	0.462
514	0.463
515	0.464
515	0.465
515	0.465
516	0.466
516	0.467
517	0.468
517	0.468
518	0.469
518	0.469
519	0.469
519	0.469
520	0.469
520	0.469
520	0.47
521	0.469
521	0.469
522	0.469
522	0.469
523	0.469
523	0.469
524	0.469
524	0.468
524	0.468
525	0.468
525	0.468
526	0.467
526	0.466
527	0.465
527	0.464
528	0.463
528	0.462
529	0.461
529	0.459
529	0.458
530	0.456
530	0.455
531	0.454
531	0.452
532	0.45
532	0.449
533	0.447
533	0.446
533	0.444
534	0.442
534	0.441
535	0.439
535	0.437
536	0.435
536	0.433
537	0.431
537	0.429
538	0.427
538	0.424
538	0.422
539	0.42
539	0.418
540	0.415
540	0.413
541	0.411
541	0.408
542	0.406
542	0.403
542	0.4
543	0.398
543	0.395
544	0.393
544	0.39
545	0.387
545	0.384
546	0.382
546	0.379
547	0.376
547	0.373
547	0.371
548	0.368
548	0.366
549	0.363
549	0.361
550	0.358
550	0.355
551	0.352
551	0.349
551	0.346
552	0.344
552	0.341
553	0.338
553	0.335
554	0.332
554	0.33
555	0.327
555	0.324
556	0.321
556	0.319
556	0.316
557	0.314
557	0.312
558	0.31
558	0.308
559	0.305
559	0.303
560	0.301
560	0.298
560	0.296
561	0.294
561	0.292
562	0.289
562	0.286
563	0.284
563	0.281
564	0.278
564	0.276
564	0.274
565	0.272
565	0.27
566	0.267
566	0.265
567	0.263
567	0.261
568	0.259
568	0.257
568	0.255
569	0.254
569	0.252
570	0.249
570	0.247
571	0.246
571	0.244
572	0.242
572	0.24
573	0.238
573	0.236
573	0.234
574	0.233
574	0.231
575	0.229
575	0.228
576	0.226
576	0.224
577	0.222
577	0.22
577	0.219
578	0.218
578	0.216
579	0.215
579	0.215
580	0.213
580	0.211
581	0.209
581	0.207
581	0.206
582	0.205
582	0.204
583	0.204
583	0.202
584	0.2
584	0.198
585	0.196
585	0.195
585	0.193
586	0.192
586	0.191
587	0.189
587	0.188
588	0.186
588	0.185
589	0.184
589	0.183
590	0.182
590	0.182
590	0.181
591	0.18
591	0.179
592	0.178
592	0.176
593	0.175
593	0.175
594	0.173
594	0.172
594	0.171
595	0.17
595	0.168
596	0.167
596	0.166
597	0.166
597	0.165
598	0.164
598	0.164
598	0.163
599	0.162
599	0.161
600	0.16
600	0.159
601	0.159
601	0.158
602	0.157
602	0.156
602	0.155
603	0.154
603	0.154
604	0.153
604	0.152
605	0.151
605	0.151
606	0.15
606	0.149
606	0.148
607	0.147
607	0.147
608	0.146
608	0.144
609	0.143
609	0.143
610	0.142
610	0.141
610	0.14
611	0.14
611	0.14
612	0.139
612	0.139
613	0.139
613	0.138
614	0.137
614	0.137
614	0.136
615	0.136
615	0.135
616	0.135
616	0.134
617	0.134
617	0.133
618	0.132
618	0.132
618	0.132
619	0.131
619	0.131
620	0.131
620	0.13
621	0.129
621	0.128
622	0.128
622	0.127
622	0.126
623	0.125
623	0.124
624	0.124
624	0.123
625	0.122
625	0.122
626	0.121
626	0.121
626	0.121
627	0.12
627	0.12
628	0.119
628	0.119
629	0.119
629	0.118
630	0.117
630	0.117
630	0.117
631	0.116
631	0.116
632	0.115
632	0.115
633	0.114
633	0.114
634	0.114
634	0.114
634	0.114
635	0.113
635	0.112
636	0.112
636	0.112
637	0.111
637	0.111
638	0.11
638	0.11
638	0.109
639	0.109
639	0.108
640	0.108
640	0.108
641	0.108
641	0.107
642	0.107
642	0.107
642	0.107
643	0.107
643	0.106
644	0.106
644	0.106
645	0.105
645	0.105
646	0.105
646	0.104
646	0.104
647	0.104
647	0.103
648	0.102
648	0.101
649	0.101
649	0.1
650	0.1
650	0.1
650	0.1
651	0.1
651	0.099
652	0.099
652	0.099
653	0.099
653	0.101
653	0.108
654	0.087
654	0.07
655	0.068
655	0.068
656	0.068
656	0.068
657	0.068
657	0.068
657	0.068
658	0.067
658	0.058
659	0.072
659	0.091
660	0.095
660	0.095
661	0.095
661	0.094
661	0.093
662	0.093
662	0.092
663	0.092
663	0.091
664	0.091
664	0.091
665	0.09
665	0.09
665	0.09
666	0.09
666	0.09
667	0.09
667	0.09
668	0.09
668	0.09
669	0.09
669	0.09
669	0.091
670	0.091
670	0.09
671	0.09
671	0.089
672	0.089
672	0.088
672	0.088
673	0.088
673	0.087
674	0.087
674	0.087
675	0.086
675	0.086
676	0.086
676	0.086
676	0.086
677	0.086
677	0.086
678	0.085
678	0.084
679	0.084
679	0.083
680	0.083
680	0.083
680	0.082
681	0.082
681	0.082
682	0.082
682	0.083
683	0.083
683	0.084
684	0.084
684	0.084
684	0.084
685	0.084
685	0.084
686	0.084
686	0.084
687	0.083
687	0.083
687	0.082
688	0.082
688	0.081
689	0.081
689	0.082
690	0.081
690	0.081
691	0.081
691	0.081
691	0.081
692	0.08
692	0.08
693	0.08
693	0.081
694	0.08
694	0.08
695	0.081
695	0.082
695	0.082
696	0.081
696	0.081
697	0.081
697	0.081
698	0.08
698	0.08
698	0.08
699	0.08
699	0.079
700	0.079
700	0.079
701	0.079
701	0.079
702	0.079
702	0.078
702	0.078
703	0.078
703	0.077
704	0.077
704	0.076
705	0.076
705	0.075
705	0.074
706	0.074
706	0.074
707	0.074
707	0.074
708	0.074
708	0.074
709	0.074
709	0.073
709	0.073
710	0.072
710	0.073
711	0.073
711	0.072
712	0.072
712	0.072
713	0.072
713	0.072
713	0.072
714	0.072
714	0.072
715	0.072
715	0.072
716	0.071
716	0.071
716	0.071
717	0.07
717	0.07
718	0.07
718	0.069
719	0.07
719	0.07
720	0.07
720	0.071
720	0.071
721	0.071
721	0.072
722	0.072
722	0.072
723	0.072
723	0.072
723	0.072
724	0.071
724	0.071
725	0.07
725	0.069
726	0.068
726	0.068
727	0.067
727	0.066
727	0.066
728	0.065
728	0.065
729	0.065
729	0.065
730	0.065
730	0.065
730	0.065
731	0.065
731	0.065
732	0.066
732	0.066
733	0.066
733	0.066
734	0.066
734	0.066
734	0.067
735	0.067
735	0.067
736	0.067
736	0.067
737	0.067
737	0.067
737	0.067
738	0.067
738	0.066
739	0.066
739	0.065
740	0.065
740	0.064
741	0.064
741	0.063
741	0.063
742	0.062
742	0.062
743	0.062
743	0.062
744	0.062
744	0.062
744	0.063
745	0.063
745	0.063
746	0.064
746	0.064
747	0.064
747	0.065
748	0.065
748	0.065
748	0.065
749	0.065
749	0.064
750	0.064
750	0.063
751	0.063
751	0.062
751	0.062
752	0.061
752	0.06
753	0.06
753	0.06
754	0.06
754	0.06
754	0.06
755	0.061
755	0.061
756	0.061
756	0.06
757	0.059
757	0.059
758	0.059
758	0.058
758	0.058
759	0.058
759	0.057
760	0.056
760	0.056
761	0.056
761	0.057
761	0.058
762	0.058
762	0.059
763	0.059
763	0.059
764	0.059
764	0.059
764	0.058
765	0.058
765	0.058
766	0.057
766	0.057
767	0.057
767	0.056
768	0.055
768	0.055
768	0.055
769	0.055
769	0.055
770	0.055
770	0.055
771	0.055
771	0.055
771	0.055
772	0.055
772	0.056
773	0.056
773	0.056
774	0.056
774	0.056
775	0.056
775	0.056
775	0.055
776	0.055
776	0.055
777	0.055
777	0.055
778	0.054
778	0.054
778	0.053
779	0.053
779	0.053
780	0.052
780	0.052
781	0.052
781	0.051
781	0.051
782	0.051
782	0.051
783	0.052
783	0.052
784	0.052
784	0.052
784	0.053
785	0.053
785	0.053
786	0.054
786	0.054
787	0.055
787	0.054
788	0.054
788	0.054
788	0.054
789	0.053
789	0.054
790	0.054
790	0.054
791	0.053
791	0.053
791	0.053
792	0.053
792	0.053
793	0.052
793	0.052
794	0.052
794	0.051
794	0.051
795	0.051
795	0.051
796	0.05
796	0.05
797	0.049
797	0.049
797	0.049
798	0.049
798	0.049
799	0.048
799	0.048
800	0.047
800	0.047
801	0.046
801	0.046
801	0.046
802	0.046
802	0.047
803	0.047
803	0.047
804	0.048
804	0.049
804	0.05
805	0.05
805	0.05
806	0.05
806	0.05
807	0.05
807	0.049
807	0.049
808	0.049
808	0.049
809	0.048
809	0.048
810	0.048
810	0.048
810	0.048
811	0.048
811	0.048
812	0.049
812	0.049
813	0.049
813	0.049
813	0.05
814	0.05
814	0.051
815	0.051
815	0.052
816	0.052
816	0.052
817	0.052
817	0.052
817	0.052
818	0.052
818	0.051
819	0.051
819	0.05
820	0.049
820	0.049
820	0.048
821	0.048
821	0.048
822	0.048
822	0.048
823	0.048
823	0.048
823	0.048
824	0.048
824	0.049
825	0.05
825	0.05
826	0.05
826	0.049
826	0.049
827	0.049
827	0.049
828	0.049
828	0.049
829	0.049
829	0.049
829	0.049
830	0.049
830	0.049
831	0.05
831	0.05
832	0.05
832	0.051
832	0.051
833	0.051
833	0.051
834	0.051
834	0.05
835	0.05
835	0.05
835	0.05
836	0.051
836	0.051
837	0.051
837	0.051
838	0.051
838	0.051
839	0.05
839	0.05
839	0.049
840	0.048
840	0.046
841	0.045
841	0.044
842	0.043
842	0.042
842	0.042
843	0.042
843	0.041
844	0.041
844	0.041
845	0.041
845	0.041
845	0.041
846	0.041
846	0.041
847	0.042
847	0.042
848	0.043
848	0.043
848	0.044
849	0.045
849	0.045
850	0.046
850	0.046
851	0.047
851	0.047
851	0.047
852	0.046
852	0.046
853	0.045
853	0.044
854	0.043
854	0.043
854	0.043
855	0.043
855	0.043
856	0.042
856	0.042
857	0.043
857	0.043
857	0.043
858	0.043
858	0.043
859	0.043
859	0.042
860	0.041
860	0.041
860	0.04
861	0.04
861	0.039
862	0.038
862	0.037
863	0.037
863	0.037
863	0.036
864	0.036
864	0.036
865	0.036
865	0.036
866	0.036
866	0.036
866	0.036
867	0.037
867	0.037
868	0.037
868	0.037
869	0.038
869	0.038
869	0.038
870	0.039
870	0.039
871	0.04
871	0.041
872	0.042
872	0.042
872	0.043
873	0.043
873	0.043
874	0.042
874	0.042
875	0.042
875	0.042
875	0.042
876	0.042
876	0.041
877	0.041
877	0.041
878	0.041
878	0.042
878	0.043
879	0.043
879	0.044
880	0.044
880	0.044
881	0.044
881	0.044
881	0.044
882	0.043
882	0.043
883	0.042
883	0.041
884	0.04
884	0.039
884	0.038
885	0.038
885	0.037
886	0.036
886	0.036
887	0.036
887	0.036
887	0.036
888	0.036
888	0.035
889	0.035
889	0.035
890	0.036
890	0.036
890	0.036
891	0.037
891	0.037
892	0.038
892	0.038
893	0.038
893	0.039
893	0.04
894	0.04
894	0.04
895	0.04
895	0.04
895	0.04
896	0.04
896	0.04
897	0.039
897	0.038
898	0.038
898	0.037
898	0.037
899	0.037
899	0.036
900	0.036
900	0.036
901	0.036
901	0.036
901	0.036
902	0.036
902	0.036
903	0.036
903	0.036
904	0.035
904	0.035
904	0.035
905	0.035
905	0.034
906	0.035
906	0.035
907	0.035
907	0.036
907	0.036
908	0.037
908	0.037
909	0.038
909	0.038
910	0.039
910	0.039
910	0.039
911	0.039
911	0.039
912	0.039
912	0.039
913	0.039
913	0.039
913	0.039
914	0.039
914	0.039
915	0.038
915	0.038
916	0.038
916	0.038
916	0.037
917	0.036
917	0.036
918	0.035
918	0.034
918	0.034
919	0.034
919	0.033
920	0.034
920	0.034
921	0.034
921	0.035
921	0.036
922	0.036
922	0.037
923	0.037
923	0.038
924	0.039
924	0.039
924	0.039
925	0.039
925	0.039
926	0.039
926	0.039
927	0.039
927	0.039
927	0.039
928	0.038
928	0.038
929	0.038
929	0.038
930	0.038
930	0.038
930	0.038
931	0.038
931	0.038
932	0.038
932	0.038
933	0.037
933	0.037
933	0.036
934	0.036
934	0.036
935	0.036
935	0.035
935	0.035
936	0.035
936	0.035
937	0.035
937	0.035
938	0.036
938	0.036
938	0.036
939	0.037
939	0.037
940	0.037
940	0.038
941	0.039
941	0.039
941	0.04
942	0.04
942	0.041
943	0.041
943	0.041
944	0.041
944	0.041
944	0.041
945	0.041
945	0.041
946	0.041
946	0.041
946	0.041
947	0.041
947	0.041
948	0.042
948	0.042
949	0.042
949	0.042
949	0.042
950	0.042
950	0.042
951	0.043
951	0.042
952	0.042
952	0.042
952	0.042
953	0.042
953	0.042
954	0.041
954	0.041
955	0.04
955	0.04
955	0.04
956	0.04
956	0.04
957	0.04
957	0.04
957	0.04
958	0.04
958	0.04
959	0.041
959	0.041
960	0.041
960	0.041
960	0.042
961	0.041
961	0.041
962	0.041
962	0.041
963	0.041
963	0.041
963	0.041
964	0.041
964	0.041
965	0.041
965	0.041
966	0.041
966	0.041
966	0.041
967	0.041
967	0.042
968	0.042
968	0.042
968	0.042
969	0.042
969	0.042
970	0.042
970	0.042
971	0.041
971	0.041
971	0.041
972	0.041
972	0.041
973	0.041
973	0.041
974	0.041
974	0.041
974	0.041
975	0.041
975	0.041
976	0.041
976	0.042
976	0.042
977	0.042
977	0.042
978	0.042
978	0.042
979	0.042
979	0.042
979	0.042
980	0.042
980	0.042
981	0.041
981	0.041
982	0.041
982	0.041
982	0.04
983	0.04
983	0.039
984	0.038
984	0.037
984	0.036
985	0.035
985	0.034
986	0.033
986	0.032
987	0.031
987	0.031
987	0.03
988	0.03
988	0.029
989	0.029
989	0.028
990	0.028
990	0.028
990	0.027
991	0.027
991	0.027
992	0.027
992	0.027
992	0.027
993	0.027
993	0.027
994	0.027
994	0.028
995	0.028
995	0.028
995	0.028
996	0.029
996	0.029
997	0.03
997	0.031
997	0.031
998	0.032
998	0.033
999	0.034
999	0.035
1000	0.036
1000	0.037
1000	0.038
1001	0.039
1001	0.04
1002	0.04
1002	0.041
1003	0.041
1003	0.041
1003	0.041
1004	0.041
1004	0.04
1005	0.04
1005	0.04
1005	0.039
1006	0.039
1006	0.038
1007	0.038
1007	0.037
1008	0.037
1008	0.037
1008	0.037
1009	0.037
1009	0.036
1010	0.036
1010	0.035
1010	0.035
1011	0.035
1011	0.034
1012	0.034
1012	0.033
1013	0.033
1013	0.032
1013	0.032
1014	0.031
1014	0.031
1015	0.031
1015	0.031
1016	0.031
1016	0.031
1016	0.031
1017	0.031
1017	0.031
1018	0.031
1018	0.031
1018	0.031
1019	0.03
1019	0.03
1020	0.03
1020	0.03
1021	0.03
1021	0.03
1021	0.03
1022	0.03
1022	0.03
1023	0.03
1023	0.03
1023	0.031
1024	0.031
1024	0.03
1025	0.03
1025	0.03
1026	0.03
1026	0.029
1026	0.029
1027	0.028
1027	0.028
1028	0.027
1028	0.027
1028	0.026
1029	0.026
1029	0.026
1030	0.026
1030	0.026
1031	0.026
1031	0.026
1031	0.026
1032	0.026
1032	0.027
1033	0.027
1033	0.027
1033	0.027
1034	0.027
1034	0.026
1035	0.026
1035	0.026
1036	0.026
1036	0.026
1036	0.026
1037	0.026
1037	0.026
1038	0.026
1038	0.026
1039	0.026
1039	0.026
1039	0.027
1040	0.027
1040	0.028
1041	0.028
1041	0.029
1041	0.029
1042	0.029
1042	0.03
1043	0.03
1043	0.03
1044	0.031
1044	0.031
1044	0.031
1045	0.032
1045	0.032
1046	0.033
1046	0.033
1046	0.034
1047	0.034
1047	0.035
1048	0.035
1048	0.036
1049	0.036
1049	0.036
1049	0.035
1050	0.035
1050	0.034
1051	0.034
1051	0.033
1051	0.032
1052	0.032
1052	0.031
1053	0.03
1053	0.029
1053	0.029
1054	0.028
1054	0.028
1055	0.028
1055	0.027
1056	0.027
1056	0.027
1056	0.027
1057	0.026
1057	0.026
1058	0.026
1058	0.026
1058	0.025
1059	0.025
1059	0.025
1060	0.024
1060	0.024
1061	0.024
1061	0.023
1061	0.023
1062	0.023
1062	0.023
1063	0.023
1063	0.023
1063	0.023
1064	0.022
1064	0.023
1065	0.022
1065	0.023
1066	0.023
1066	0.023
1066	0.023
1067	0.023
1067	0.023
1068	0.023
1068	0.023
1068	0.023
1069	0.022
1069	0.022
1070	0.021
1070	0.021
1071	0.02
1071	0.02
1071	0.019
1072	0.018
1072	0.018
1073	0.017
1073	0.016
1073	0.016
1074	0.016
1074	0.017
1075	0.017
1075	0.017
1076	0.018
1076	0.018
1076	0.018
1077	0.018
1077	0.019
1078	0.019
1078	0.019
1078	0.02
1079	0.019
1079	0.02
1080	0.019
1080	0.02
1080	0.02
1081	0.02
1081	0.02
1082	0.021
1082	0.022
1083	0.022
1083	0.022
1083	0.023
1084	0.023
1084	0.023
1085	0.023
1085	0.023
1085	0.023
1086	0.022
1086	0.021
1087	0.021
1087	0.02
1088	0.02
1088	0.019
1088	0.019
1089	0.019
1089	0.018
1090	0.017
1090	0.016
1090	0.016
1091	0.016
1091	0.015
1092	0.015
1092	0.015
1092	0.015
1093	0.014
1093	0.015
1094	0.015
1094	0.015
1095	0.014
1095	0.014
1095	0.014
1096	0.013
1096	0.012
1097	0.012
1097	0.011
1097	0.011
1098	0.01
1098	0.009
1099	0.008
1099	0.007
1100	0.006
1100	0.006
1100	0.005
1101	0.004
1101	0.003
1102	0.003
1102	0.002
1102	0.001
1103	0.001
1103	0.001
1104	0.001
1104	0.001
1104	0
1105	-0
1105	-0.002
1106	-0.003
1106	-0.005
1107	-0.006
1107	-0.007
1107	-0.007
1108	-0.009
1108	-0.01
1109	-0.012
1109	-0.013
1109	-0.013
1110	-0.011
1110	-0.013
1111	-0.011
1111	-0.01
