Data from reversibility-20sec_Absorbance__7034__000000000007034.txt Node

Date: Thu Dec 07 03:17:45 CET 2023
User: Marek
Spectrometer: MAYP115816
Trigger mode: 0
Integration Time (sec): 2.000000E-1
Scans to average: 10
Electric dark correction enabled: true
Nonlinearity correction enabled: true
Boxcar width: 5
XAxis mode: Wavelengths
Number of Pixels in Spectrum: 2068
>>>>>Begin Spectral Data<<<<<
199	-0.173
199	-0.137
200	-0.066
200	-0.021
201	0.01
201	0.027
202	0.037
202	0.046
203	0.055
203	0.056
204	0.074
204	0.086
205	0.096
205	0.099
205	0.098
206	0.097
206	0.097
207	0.1
207	0.101
208	0.099
208	0.102
209	0.103
209	0.101
210	0.102
210	0.105
211	0.106
211	0.107
212	0.103
212	0.107
213	0.107
213	0.109
213	0.109
214	0.112
214	0.115
215	0.116
215	0.117
216	0.119
216	0.119
217	0.125
217	0.124
218	0.122
218	0.126
219	0.129
219	0.129
220	0.132
220	0.132
221	0.131
221	0.135
221	0.14
222	0.145
222	0.152
223	0.161
223	0.164
224	0.17
224	0.177
225	0.183
225	0.194
226	0.205
226	0.215
227	0.224
227	0.236
228	0.249
228	0.264
229	0.279
229	0.303
229	0.328
230	0.354
230	0.383
231	0.415
231	0.452
232	0.49
232	0.531
233	0.575
233	0.625
234	0.677
234	0.729
235	0.78
235	0.833
236	0.883
236	0.932
236	0.984
237	1.037
237	1.085
238	1.132
238	1.176
239	1.222
239	1.262
240	1.304
240	1.343
241	1.381
241	1.418
242	1.448
242	1.482
243	1.512
243	1.539
243	1.563
244	1.584
244	1.606
245	1.622
245	1.641
246	1.66
246	1.676
247	1.691
247	1.704
248	1.716
248	1.729
249	1.739
249	1.746
250	1.753
250	1.762
250	1.768
251	1.771
251	1.775
252	1.78
252	1.781
253	1.784
253	1.781
254	1.781
254	1.784
255	1.784
255	1.785
256	1.785
256	1.786
257	1.784
257	1.782
258	1.782
258	1.782
258	1.783
259	1.783
259	1.782
260	1.78
260	1.78
261	1.78
261	1.782
262	1.784
262	1.785
263	1.786
263	1.786
264	1.788
264	1.788
265	1.788
265	1.789
265	1.789
266	1.789
266	1.789
267	1.788
267	1.789
268	1.789
268	1.789
269	1.789
269	1.788
270	1.788
270	1.786
271	1.784
271	1.783
272	1.78
272	1.778
272	1.775
273	1.77
273	1.766
274	1.76
274	1.756
275	1.75
275	1.746
276	1.74
276	1.733
277	1.726
277	1.716
278	1.706
278	1.696
278	1.682
279	1.669
279	1.652
280	1.632
280	1.609
281	1.579
281	1.547
282	1.513
282	1.477
283	1.44
283	1.404
284	1.368
284	1.332
285	1.298
285	1.266
285	1.237
286	1.211
286	1.188
287	1.167
287	1.15
288	1.134
288	1.121
289	1.109
289	1.099
290	1.09
290	1.082
291	1.075
291	1.069
292	1.063
292	1.058
292	1.053
293	1.048
293	1.044
294	1.04
294	1.036
295	1.032
295	1.028
296	1.025
296	1.021
297	1.018
297	1.014
298	1.011
298	1.008
298	1.005
299	1.001
299	0.998
300	0.995
300	0.992
301	0.989
301	0.986
302	0.983
302	0.98
303	0.976
303	0.974
304	0.971
304	0.968
305	0.966
305	0.963
305	0.961
306	0.958
306	0.955
307	0.953
307	0.95
308	0.947
308	0.944
309	0.941
309	0.938
310	0.934
310	0.931
311	0.928
311	0.924
311	0.921
312	0.917
312	0.913
313	0.909
313	0.905
314	0.902
314	0.897
315	0.893
315	0.889
316	0.884
316	0.88
317	0.875
317	0.87
318	0.865
318	0.859
318	0.854
319	0.848
319	0.843
320	0.837
320	0.831
321	0.826
321	0.819
322	0.813
322	0.806
323	0.8
323	0.794
324	0.787
324	0.78
324	0.773
325	0.766
325	0.76
326	0.753
326	0.746
327	0.739
327	0.732
328	0.725
328	0.718
329	0.711
329	0.704
330	0.696
330	0.689
330	0.682
331	0.675
331	0.668
332	0.661
332	0.654
333	0.648
333	0.641
334	0.634
334	0.627
335	0.62
335	0.614
336	0.607
336	0.6
336	0.594
337	0.587
337	0.581
338	0.574
338	0.568
339	0.562
339	0.556
340	0.55
340	0.545
341	0.539
341	0.533
342	0.528
342	0.522
342	0.517
343	0.512
343	0.506
344	0.501
344	0.496
345	0.492
345	0.487
346	0.482
346	0.478
347	0.474
347	0.469
348	0.465
348	0.461
348	0.457
349	0.453
349	0.449
350	0.446
350	0.442
351	0.439
351	0.435
352	0.432
352	0.429
353	0.426
353	0.423
354	0.42
354	0.417
354	0.414
355	0.411
355	0.408
356	0.405
356	0.402
357	0.398
357	0.395
358	0.393
358	0.39
359	0.387
359	0.385
360	0.383
360	0.381
360	0.379
361	0.377
361	0.375
362	0.374
362	0.372
363	0.37
363	0.368
364	0.366
364	0.364
365	0.363
365	0.36
366	0.359
366	0.357
366	0.355
367	0.353
367	0.351
368	0.35
368	0.348
369	0.346
369	0.345
370	0.343
370	0.342
371	0.34
371	0.339
372	0.337
372	0.336
372	0.335
373	0.334
373	0.333
374	0.332
374	0.331
375	0.329
375	0.328
376	0.327
376	0.326
377	0.325
377	0.324
378	0.323
378	0.322
378	0.321
379	0.32
379	0.319
380	0.318
380	0.318
381	0.317
381	0.316
382	0.315
382	0.315
383	0.314
383	0.313
383	0.312
384	0.312
384	0.311
385	0.311
385	0.31
386	0.309
386	0.309
387	0.308
387	0.308
388	0.307
388	0.307
389	0.306
389	0.306
389	0.305
390	0.305
390	0.304
391	0.304
391	0.303
392	0.303
392	0.302
393	0.302
393	0.302
394	0.301
394	0.301
394	0.3
395	0.3
395	0.299
396	0.299
396	0.298
397	0.298
397	0.297
398	0.297
398	0.297
399	0.296
399	0.296
400	0.295
400	0.295
400	0.294
401	0.294
401	0.294
402	0.293
402	0.293
403	0.292
403	0.292
404	0.291
404	0.291
405	0.291
405	0.29
405	0.29
406	0.29
406	0.289
407	0.289
407	0.288
408	0.288
408	0.288
409	0.288
409	0.287
410	0.287
410	0.286
411	0.286
411	0.286
411	0.286
412	0.285
412	0.285
413	0.284
413	0.284
414	0.284
414	0.284
415	0.283
415	0.283
416	0.283
416	0.282
416	0.282
417	0.281
417	0.281
418	0.281
418	0.28
419	0.28
419	0.279
420	0.278
420	0.278
421	0.278
421	0.277
421	0.277
422	0.276
422	0.276
423	0.276
423	0.275
424	0.275
424	0.275
425	0.275
425	0.275
426	0.274
426	0.274
427	0.274
427	0.274
427	0.273
428	0.273
428	0.272
429	0.272
429	0.271
430	0.271
430	0.271
431	0.271
431	0.27
432	0.27
432	0.27
432	0.27
433	0.27
433	0.27
434	0.27
434	0.27
435	0.27
435	0.27
436	0.269
436	0.269
437	0.269
437	0.269
437	0.268
438	0.268
438	0.268
439	0.268
439	0.268
440	0.267
440	0.267
441	0.267
441	0.266
442	0.266
442	0.266
442	0.266
443	0.266
443	0.266
444	0.266
444	0.265
445	0.265
445	0.265
446	0.265
446	0.265
447	0.265
447	0.265
447	0.265
448	0.265
448	0.265
449	0.265
449	0.265
450	0.265
450	0.265
451	0.265
451	0.265
452	0.265
452	0.265
452	0.264
453	0.264
453	0.264
454	0.264
454	0.264
455	0.264
455	0.264
456	0.264
456	0.264
457	0.264
457	0.264
458	0.264
458	0.264
458	0.264
459	0.264
459	0.264
460	0.264
460	0.264
461	0.264
461	0.264
462	0.264
462	0.264
463	0.264
463	0.264
463	0.264
464	0.263
464	0.263
465	0.263
465	0.263
466	0.263
466	0.264
467	0.264
467	0.264
467	0.264
468	0.264
468	0.264
469	0.265
469	0.265
470	0.266
470	0.266
471	0.266
471	0.266
472	0.267
472	0.267
472	0.267
473	0.268
473	0.268
474	0.268
474	0.269
475	0.269
475	0.269
476	0.27
476	0.27
477	0.271
477	0.271
477	0.271
478	0.272
478	0.272
479	0.273
479	0.273
480	0.274
480	0.274
481	0.275
481	0.275
482	0.275
482	0.276
482	0.277
483	0.277
483	0.278
484	0.279
484	0.279
485	0.279
485	0.28
486	0.28
486	0.281
487	0.281
487	0.282
487	0.282
488	0.283
488	0.284
489	0.285
489	0.286
490	0.287
490	0.288
491	0.29
491	0.291
492	0.292
492	0.293
492	0.294
493	0.296
493	0.297
494	0.298
494	0.299
495	0.3
495	0.301
496	0.302
496	0.303
496	0.304
497	0.305
497	0.306
498	0.307
498	0.308
499	0.309
499	0.311
500	0.312
500	0.313
501	0.315
501	0.316
501	0.317
502	0.317
502	0.318
503	0.319
503	0.321
504	0.322
504	0.323
505	0.324
505	0.325
506	0.326
506	0.327
506	0.328
507	0.33
507	0.331
508	0.332
508	0.332
509	0.333
509	0.334
510	0.335
510	0.336
511	0.337
511	0.338
511	0.339
512	0.339
512	0.34
513	0.341
513	0.342
514	0.343
514	0.344
515	0.344
515	0.345
515	0.345
516	0.346
516	0.346
517	0.347
517	0.348
518	0.348
518	0.348
519	0.349
519	0.349
520	0.349
520	0.349
520	0.35
521	0.35
521	0.349
522	0.349
522	0.349
523	0.349
523	0.349
524	0.349
524	0.349
524	0.349
525	0.349
525	0.348
526	0.348
526	0.347
527	0.347
527	0.346
528	0.345
528	0.345
529	0.344
529	0.343
529	0.342
530	0.341
530	0.34
531	0.339
531	0.338
532	0.337
532	0.336
533	0.335
533	0.334
533	0.333
534	0.331
534	0.33
535	0.329
535	0.328
536	0.327
536	0.325
537	0.323
537	0.322
538	0.321
538	0.319
538	0.318
539	0.316
539	0.315
540	0.314
540	0.312
541	0.31
541	0.309
542	0.307
542	0.306
542	0.304
543	0.302
543	0.3
544	0.298
544	0.297
545	0.295
545	0.293
546	0.291
546	0.289
547	0.287
547	0.285
547	0.284
548	0.282
548	0.28
549	0.278
549	0.277
550	0.275
550	0.273
551	0.271
551	0.269
551	0.267
552	0.265
552	0.264
553	0.262
553	0.26
554	0.258
554	0.256
555	0.254
555	0.253
556	0.251
556	0.249
556	0.248
557	0.247
557	0.245
558	0.244
558	0.242
559	0.241
559	0.239
560	0.238
560	0.236
560	0.235
561	0.233
561	0.232
562	0.23
562	0.228
563	0.226
563	0.224
564	0.222
564	0.221
564	0.219
565	0.218
565	0.216
566	0.215
566	0.213
567	0.212
567	0.21
568	0.209
568	0.207
568	0.206
569	0.204
569	0.203
570	0.201
570	0.199
571	0.198
571	0.197
572	0.195
572	0.194
573	0.192
573	0.191
573	0.19
574	0.189
574	0.188
575	0.187
575	0.186
576	0.185
576	0.184
577	0.183
577	0.181
577	0.18
578	0.18
578	0.179
579	0.178
579	0.177
580	0.176
580	0.174
581	0.173
581	0.172
581	0.171
582	0.171
582	0.17
583	0.169
583	0.168
584	0.167
584	0.165
585	0.164
585	0.163
585	0.163
586	0.162
586	0.161
587	0.16
587	0.159
588	0.158
588	0.157
589	0.157
589	0.156
590	0.156
590	0.155
590	0.155
591	0.155
591	0.153
592	0.152
592	0.151
593	0.15
593	0.15
594	0.149
594	0.148
594	0.147
595	0.146
595	0.145
596	0.144
596	0.143
597	0.144
597	0.143
598	0.143
598	0.142
598	0.142
599	0.142
599	0.141
600	0.141
600	0.14
601	0.139
601	0.139
602	0.138
602	0.137
602	0.136
603	0.136
603	0.136
604	0.135
604	0.135
605	0.135
605	0.134
606	0.134
606	0.133
606	0.132
607	0.131
607	0.131
608	0.13
608	0.13
609	0.129
609	0.128
610	0.127
610	0.127
610	0.126
611	0.126
611	0.126
612	0.126
612	0.126
613	0.126
613	0.126
614	0.125
614	0.125
614	0.125
615	0.124
615	0.124
616	0.124
616	0.123
617	0.123
617	0.123
618	0.122
618	0.122
618	0.122
619	0.121
619	0.121
620	0.121
620	0.121
621	0.12
621	0.12
622	0.119
622	0.118
622	0.118
623	0.117
623	0.117
624	0.117
624	0.116
625	0.115
625	0.115
626	0.115
626	0.115
626	0.115
627	0.114
627	0.114
628	0.114
628	0.113
629	0.113
629	0.113
630	0.113
630	0.112
630	0.112
631	0.111
631	0.111
632	0.11
632	0.11
633	0.11
633	0.109
634	0.109
634	0.109
634	0.109
635	0.109
635	0.109
636	0.109
636	0.109
637	0.108
637	0.108
638	0.108
638	0.107
638	0.107
639	0.106
639	0.106
640	0.106
640	0.106
641	0.105
641	0.105
642	0.105
642	0.105
642	0.105
643	0.105
643	0.105
644	0.105
644	0.105
645	0.105
645	0.105
646	0.104
646	0.104
646	0.104
647	0.104
647	0.103
648	0.102
648	0.101
649	0.101
649	0.1
650	0.1
650	0.1
650	0.1
651	0.1
651	0.1
652	0.1
652	0.101
653	0.101
653	0.103
653	0.108
654	0.087
654	0.071
655	0.069
655	0.069
656	0.069
656	0.069
657	0.069
657	0.07
657	0.069
658	0.068
658	0.061
659	0.076
659	0.096
660	0.101
660	0.102
661	0.101
661	0.1
661	0.099
662	0.099
662	0.098
663	0.098
663	0.097
664	0.097
664	0.097
665	0.097
665	0.096
665	0.096
666	0.097
666	0.097
667	0.097
667	0.097
668	0.097
668	0.098
669	0.098
669	0.098
669	0.098
670	0.098
670	0.098
671	0.098
671	0.097
672	0.097
672	0.096
672	0.096
673	0.096
673	0.095
674	0.095
674	0.094
675	0.094
675	0.094
676	0.094
676	0.094
676	0.094
677	0.094
677	0.094
678	0.094
678	0.094
679	0.094
679	0.093
680	0.093
680	0.093
680	0.092
681	0.092
681	0.093
682	0.093
682	0.093
683	0.093
683	0.094
684	0.094
684	0.094
684	0.094
685	0.094
685	0.095
686	0.095
686	0.094
687	0.094
687	0.094
687	0.094
688	0.094
688	0.093
689	0.094
689	0.094
690	0.094
690	0.094
691	0.093
691	0.093
691	0.094
692	0.094
692	0.094
693	0.094
693	0.094
694	0.094
694	0.093
695	0.094
695	0.095
695	0.095
696	0.095
696	0.095
697	0.095
697	0.095
698	0.095
698	0.094
698	0.095
699	0.095
699	0.094
700	0.094
700	0.094
701	0.094
701	0.094
702	0.093
702	0.093
702	0.093
703	0.092
703	0.091
704	0.091
704	0.09
705	0.09
705	0.09
705	0.089
706	0.089
706	0.089
707	0.089
707	0.089
708	0.089
708	0.089
709	0.089
709	0.089
709	0.089
710	0.089
710	0.089
711	0.089
711	0.089
712	0.089
712	0.089
713	0.089
713	0.089
713	0.089
714	0.089
714	0.088
715	0.088
715	0.087
716	0.087
716	0.086
716	0.085
717	0.085
717	0.085
718	0.084
718	0.084
719	0.085
719	0.085
720	0.086
720	0.086
720	0.087
721	0.088
721	0.088
722	0.089
722	0.089
723	0.089
723	0.089
723	0.089
724	0.089
724	0.088
725	0.088
725	0.087
726	0.086
726	0.086
727	0.085
727	0.085
727	0.084
728	0.084
728	0.084
729	0.084
729	0.084
730	0.084
730	0.084
730	0.085
731	0.085
731	0.085
732	0.086
732	0.086
733	0.086
733	0.086
734	0.086
734	0.086
734	0.086
735	0.086
735	0.086
736	0.086
736	0.085
737	0.085
737	0.085
737	0.085
738	0.084
738	0.084
739	0.083
739	0.083
740	0.083
740	0.083
741	0.084
741	0.084
741	0.084
742	0.084
742	0.085
743	0.086
743	0.086
744	0.086
744	0.086
744	0.086
745	0.086
745	0.085
746	0.085
746	0.084
747	0.084
747	0.083
748	0.083
748	0.083
748	0.083
749	0.083
749	0.083
750	0.083
750	0.083
751	0.083
751	0.084
751	0.084
752	0.084
752	0.083
753	0.083
753	0.083
754	0.082
754	0.082
754	0.081
755	0.081
755	0.081
756	0.08
756	0.079
757	0.078
757	0.078
758	0.078
758	0.078
758	0.078
759	0.078
759	0.077
760	0.077
760	0.077
761	0.077
761	0.078
761	0.078
762	0.078
762	0.078
763	0.078
763	0.078
764	0.077
764	0.077
764	0.077
765	0.076
765	0.076
766	0.076
766	0.076
767	0.075
767	0.074
768	0.073
768	0.073
768	0.074
769	0.074
769	0.074
770	0.075
770	0.075
771	0.075
771	0.076
771	0.076
772	0.077
772	0.078
773	0.078
773	0.078
774	0.078
774	0.079
775	0.079
775	0.079
775	0.079
776	0.08
776	0.08
777	0.08
777	0.081
778	0.081
778	0.08
778	0.08
779	0.08
779	0.079
780	0.078
780	0.077
781	0.076
781	0.075
781	0.074
782	0.074
782	0.073
783	0.073
783	0.074
784	0.074
784	0.074
784	0.074
785	0.075
785	0.075
786	0.075
786	0.075
787	0.076
787	0.075
788	0.075
788	0.074
788	0.073
789	0.073
789	0.072
790	0.072
790	0.071
791	0.071
791	0.07
791	0.07
792	0.07
792	0.069
793	0.068
793	0.068
794	0.067
794	0.067
794	0.067
795	0.066
795	0.066
796	0.066
796	0.066
797	0.066
797	0.066
797	0.067
798	0.067
798	0.068
799	0.068
799	0.068
800	0.068
800	0.067
801	0.067
801	0.067
801	0.067
802	0.067
802	0.067
803	0.067
803	0.068
804	0.068
804	0.069
804	0.069
805	0.069
805	0.069
806	0.068
806	0.068
807	0.068
807	0.068
807	0.068
808	0.068
808	0.067
809	0.067
809	0.067
810	0.067
810	0.067
810	0.067
811	0.067
811	0.067
812	0.068
812	0.067
813	0.067
813	0.067
813	0.067
814	0.068
814	0.068
815	0.068
815	0.068
816	0.068
816	0.067
817	0.066
817	0.066
817	0.066
818	0.066
818	0.066
819	0.066
819	0.065
820	0.065
820	0.064
820	0.064
821	0.064
821	0.064
822	0.064
822	0.064
823	0.064
823	0.064
823	0.064
824	0.065
824	0.066
825	0.067
825	0.068
826	0.069
826	0.069
826	0.07
827	0.071
827	0.071
828	0.072
828	0.072
829	0.072
829	0.072
829	0.072
830	0.072
830	0.072
831	0.073
831	0.073
832	0.072
832	0.072
832	0.072
833	0.072
833	0.071
834	0.071
834	0.07
835	0.07
835	0.069
835	0.068
836	0.067
836	0.067
837	0.066
837	0.066
838	0.065
838	0.064
839	0.063
839	0.063
839	0.062
840	0.061
840	0.06
841	0.059
841	0.058
842	0.057
842	0.057
842	0.056
843	0.055
843	0.055
844	0.054
844	0.054
845	0.053
845	0.053
845	0.053
846	0.053
846	0.053
847	0.053
847	0.053
848	0.054
848	0.054
848	0.055
849	0.055
849	0.055
850	0.056
850	0.056
851	0.056
851	0.056
851	0.056
852	0.055
852	0.055
853	0.055
853	0.055
854	0.056
854	0.057
854	0.057
855	0.058
855	0.059
856	0.06
856	0.06
857	0.061
857	0.062
857	0.062
858	0.062
858	0.062
859	0.061
859	0.061
860	0.061
860	0.06
860	0.06
861	0.059
861	0.059
862	0.058
862	0.057
863	0.057
863	0.057
863	0.057
864	0.057
864	0.057
865	0.057
865	0.058
866	0.058
866	0.058
866	0.058
867	0.058
867	0.059
868	0.059
868	0.059
869	0.059
869	0.059
869	0.058
870	0.058
870	0.057
871	0.057
871	0.057
872	0.056
872	0.055
872	0.055
873	0.054
873	0.054
874	0.053
874	0.053
875	0.052
875	0.052
875	0.052
876	0.052
876	0.052
877	0.052
877	0.053
878	0.053
878	0.053
878	0.053
879	0.053
879	0.053
880	0.054
880	0.054
881	0.054
881	0.054
881	0.054
882	0.053
882	0.053
883	0.053
883	0.053
884	0.053
884	0.053
884	0.053
885	0.053
885	0.053
886	0.053
886	0.053
887	0.053
887	0.053
887	0.052
888	0.052
888	0.052
889	0.052
889	0.052
890	0.052
890	0.052
890	0.052
891	0.052
891	0.052
892	0.052
892	0.052
893	0.052
893	0.051
893	0.05
894	0.05
894	0.049
895	0.049
895	0.048
895	0.048
896	0.048
896	0.049
897	0.049
897	0.049
898	0.05
898	0.05
898	0.05
899	0.05
899	0.051
900	0.051
900	0.051
901	0.051
901	0.051
901	0.05
902	0.05
902	0.05
903	0.05
903	0.05
904	0.05
904	0.05
904	0.049
905	0.049
905	0.049
906	0.048
906	0.049
907	0.049
907	0.049
907	0.049
908	0.049
908	0.049
909	0.049
909	0.049
910	0.049
910	0.049
910	0.048
911	0.048
911	0.048
912	0.047
912	0.047
913	0.047
913	0.047
913	0.047
914	0.046
914	0.046
915	0.046
915	0.046
916	0.046
916	0.045
916	0.045
917	0.045
917	0.045
918	0.044
918	0.044
918	0.044
919	0.043
919	0.043
920	0.043
920	0.042
921	0.042
921	0.042
921	0.041
922	0.041
922	0.041
923	0.041
923	0.042
924	0.042
924	0.042
924	0.043
925	0.044
925	0.044
926	0.045
926	0.045
927	0.046
927	0.046
927	0.047
928	0.047
928	0.047
929	0.048
929	0.048
930	0.048
930	0.048
930	0.049
931	0.049
931	0.049
932	0.05
932	0.05
933	0.05
933	0.05
933	0.05
934	0.05
934	0.049
935	0.049
935	0.049
935	0.048
936	0.047
936	0.046
937	0.046
937	0.045
938	0.044
938	0.043
938	0.042
939	0.041
939	0.04
940	0.04
940	0.04
941	0.04
941	0.04
941	0.04
942	0.041
942	0.041
943	0.042
943	0.042
944	0.043
944	0.044
944	0.044
945	0.045
945	0.045
946	0.046
946	0.046
946	0.046
947	0.046
947	0.046
948	0.046
948	0.046
949	0.045
949	0.045
949	0.044
950	0.044
950	0.043
951	0.043
951	0.042
952	0.042
952	0.041
952	0.041
953	0.041
953	0.041
954	0.041
954	0.041
955	0.041
955	0.041
955	0.042
956	0.042
956	0.043
957	0.044
957	0.044
957	0.045
958	0.045
958	0.045
959	0.045
959	0.046
960	0.046
960	0.046
960	0.046
961	0.046
961	0.045
962	0.045
962	0.045
963	0.044
963	0.044
963	0.044
964	0.044
964	0.044
965	0.044
965	0.044
966	0.044
966	0.044
966	0.045
967	0.045
967	0.045
968	0.045
968	0.045
968	0.045
969	0.045
969	0.044
970	0.043
970	0.042
971	0.042
971	0.041
971	0.04
972	0.039
972	0.039
973	0.038
973	0.038
974	0.038
974	0.038
974	0.039
975	0.039
975	0.04
976	0.041
976	0.042
976	0.042
977	0.043
977	0.043
978	0.043
978	0.044
979	0.044
979	0.044
979	0.045
980	0.045
980	0.044
981	0.044
981	0.044
982	0.044
982	0.044
982	0.043
983	0.043
983	0.043
984	0.043
984	0.042
984	0.042
985	0.042
985	0.042
986	0.042
986	0.042
987	0.042
987	0.042
987	0.042
988	0.042
988	0.041
989	0.041
989	0.041
990	0.041
990	0.041
990	0.041
991	0.04
991	0.04
992	0.04
992	0.039
992	0.038
993	0.037
993	0.037
994	0.036
994	0.035
995	0.034
995	0.033
995	0.033
996	0.033
996	0.033
997	0.033
997	0.033
997	0.034
998	0.034
998	0.035
999	0.035
999	0.036
1000	0.036
1000	0.037
1000	0.037
1001	0.037
1001	0.037
1002	0.037
1002	0.037
1003	0.036
1003	0.036
1003	0.035
1004	0.035
1004	0.034
1005	0.033
1005	0.033
1005	0.032
1006	0.032
1006	0.031
1007	0.03
1007	0.03
1008	0.029
1008	0.029
1008	0.029
1009	0.029
1009	0.029
1010	0.029
1010	0.029
1010	0.028
1011	0.028
1011	0.028
1012	0.028
1012	0.028
1013	0.028
1013	0.028
1013	0.028
1014	0.028
1014	0.028
1015	0.028
1015	0.028
1016	0.028
1016	0.028
1016	0.029
1017	0.029
1017	0.029
1018	0.029
1018	0.029
1018	0.03
1019	0.03
1019	0.03
1020	0.031
1020	0.031
1021	0.032
1021	0.032
1021	0.032
1022	0.033
1022	0.033
1023	0.033
1023	0.033
1023	0.034
1024	0.034
1024	0.033
1025	0.033
1025	0.033
1026	0.033
1026	0.033
1026	0.033
1027	0.033
1027	0.033
1028	0.034
1028	0.034
1028	0.034
1029	0.034
1029	0.034
1030	0.034
1030	0.034
1031	0.035
1031	0.035
1031	0.035
1032	0.035
1032	0.036
1033	0.036
1033	0.036
1033	0.036
1034	0.036
1034	0.036
1035	0.036
1035	0.036
1036	0.036
1036	0.036
1036	0.037
1037	0.037
1037	0.036
1038	0.036
1038	0.036
1039	0.036
1039	0.036
1039	0.036
1040	0.036
1040	0.037
1041	0.037
1041	0.036
1041	0.036
1042	0.036
1042	0.036
1043	0.036
1043	0.035
1044	0.035
1044	0.035
1044	0.034
1045	0.034
1045	0.034
1046	0.033
1046	0.033
1046	0.033
1047	0.033
1047	0.033
1048	0.033
1048	0.033
1049	0.034
1049	0.034
1049	0.034
1050	0.034
1050	0.033
1051	0.033
1051	0.033
1051	0.033
1052	0.032
1052	0.032
1053	0.031
1053	0.03
1053	0.03
1054	0.029
1054	0.029
1055	0.029
1055	0.028
1056	0.027
1056	0.027
1056	0.026
1057	0.026
1057	0.026
1058	0.025
1058	0.025
1058	0.024
1059	0.023
1059	0.023
1060	0.023
1060	0.022
1061	0.022
1061	0.022
1061	0.022
1062	0.022
1062	0.022
1063	0.022
1063	0.022
1063	0.022
1064	0.022
1064	0.022
1065	0.022
1065	0.022
1066	0.022
1066	0.022
1066	0.022
1067	0.022
1067	0.022
1068	0.022
1068	0.022
1068	0.022
1069	0.022
1069	0.022
1070	0.022
1070	0.022
1071	0.022
1071	0.022
1071	0.022
1072	0.022
1072	0.023
1073	0.022
1073	0.022
1073	0.022
1074	0.022
1074	0.023
1075	0.023
1075	0.023
1076	0.024
1076	0.024
1076	0.025
1077	0.025
1077	0.025
1078	0.025
1078	0.026
1078	0.026
1079	0.025
1079	0.025
1080	0.025
1080	0.025
1080	0.025
1081	0.024
1081	0.024
1082	0.024
1082	0.025
1083	0.024
1083	0.024
1083	0.024
1084	0.024
1084	0.025
1085	0.025
1085	0.025
1085	0.025
1086	0.025
1086	0.025
1087	0.025
1087	0.024
1088	0.025
1088	0.024
1088	0.024
1089	0.023
1089	0.023
1090	0.022
1090	0.021
1090	0.021
1091	0.02
1091	0.02
1092	0.02
1092	0.02
1092	0.02
1093	0.019
1093	0.02
1094	0.019
1094	0.019
1095	0.018
1095	0.018
1095	0.018
1096	0.018
1096	0.017
1097	0.016
1097	0.015
1097	0.015
1098	0.014
1098	0.013
1099	0.013
1099	0.012
1100	0.011
1100	0.009
1100	0.009
1101	0.008
1101	0.007
1102	0.006
1102	0.005
1102	0.005
1103	0.005
1103	0.004
1104	0.004
1104	0.004
1104	0.004
1105	0.003
1105	0.001
1106	-0
1106	-0.001
1107	-0.001
1107	-0.003
1107	-0.003
1108	-0.003
1108	-0.005
1109	-0.007
1109	-0.009
1109	-0.009
1110	-0.007
1110	-0.007
1111	-0.01
1111	-0.011
