Data from reversibility-20sec_Absorbance__6885__000000000006885.txt Node

Date: Thu Dec 07 02:28:05 CET 2023
User: Marek
Spectrometer: MAYP115816
Trigger mode: 0
Integration Time (sec): 2.000000E-1
Scans to average: 10
Electric dark correction enabled: true
Nonlinearity correction enabled: true
Boxcar width: 5
XAxis mode: Wavelengths
Number of Pixels in Spectrum: 2068
>>>>>Begin Spectral Data<<<<<
199	-0.168
199	-0.138
200	-0.082
200	-0.026
201	-0.001
201	0.018
202	0.028
202	0.038
203	0.046
203	0.048
204	0.06
204	0.074
205	0.085
205	0.092
205	0.088
206	0.09
206	0.089
207	0.092
207	0.091
208	0.09
208	0.091
209	0.092
209	0.091
210	0.092
210	0.093
211	0.094
211	0.097
212	0.094
212	0.095
213	0.099
213	0.1
213	0.101
214	0.107
214	0.106
215	0.108
215	0.11
216	0.112
216	0.112
217	0.12
217	0.119
218	0.116
218	0.119
219	0.125
219	0.124
220	0.127
220	0.126
221	0.127
221	0.13
221	0.135
222	0.14
222	0.148
223	0.156
223	0.161
224	0.163
224	0.17
225	0.179
225	0.192
226	0.203
226	0.21
227	0.219
227	0.226
228	0.239
228	0.255
229	0.272
229	0.299
229	0.324
230	0.349
230	0.377
231	0.406
231	0.446
232	0.484
232	0.526
233	0.57
233	0.618
234	0.669
234	0.716
235	0.77
235	0.822
236	0.873
236	0.924
236	0.975
237	1.028
237	1.08
238	1.127
238	1.174
239	1.22
239	1.264
240	1.303
240	1.339
241	1.375
241	1.412
242	1.444
242	1.474
243	1.505
243	1.53
243	1.554
244	1.575
244	1.596
245	1.611
245	1.635
246	1.654
246	1.672
247	1.684
247	1.697
248	1.708
248	1.72
249	1.729
249	1.737
250	1.744
250	1.755
250	1.76
251	1.764
251	1.767
252	1.771
252	1.776
253	1.777
253	1.777
254	1.778
254	1.78
255	1.779
255	1.777
256	1.773
256	1.773
257	1.773
257	1.773
258	1.773
258	1.773
258	1.774
259	1.773
259	1.773
260	1.772
260	1.776
261	1.777
261	1.779
262	1.781
262	1.781
263	1.783
263	1.783
264	1.784
264	1.785
265	1.786
265	1.786
265	1.785
266	1.786
266	1.787
267	1.784
267	1.785
268	1.784
268	1.783
269	1.784
269	1.783
270	1.782
270	1.782
271	1.779
271	1.778
272	1.776
272	1.776
272	1.773
273	1.769
273	1.765
274	1.76
274	1.755
275	1.751
275	1.745
276	1.739
276	1.731
277	1.724
277	1.715
278	1.705
278	1.694
278	1.682
279	1.669
279	1.653
280	1.633
280	1.609
281	1.58
281	1.549
282	1.514
282	1.478
283	1.442
283	1.406
284	1.37
284	1.334
285	1.299
285	1.267
285	1.239
286	1.213
286	1.19
287	1.169
287	1.151
288	1.136
288	1.122
289	1.111
289	1.101
290	1.092
290	1.084
291	1.077
291	1.071
292	1.065
292	1.06
292	1.055
293	1.051
293	1.046
294	1.042
294	1.038
295	1.035
295	1.031
296	1.027
296	1.024
297	1.021
297	1.017
298	1.013
298	1.01
298	1.007
299	1.004
299	1.001
300	0.997
300	0.994
301	0.991
301	0.988
302	0.985
302	0.982
303	0.98
303	0.977
304	0.974
304	0.971
305	0.969
305	0.966
305	0.963
306	0.96
306	0.957
307	0.954
307	0.951
308	0.948
308	0.945
309	0.942
309	0.939
310	0.936
310	0.932
311	0.929
311	0.926
311	0.922
312	0.919
312	0.915
313	0.911
313	0.907
314	0.903
314	0.899
315	0.894
315	0.89
316	0.886
316	0.881
317	0.876
317	0.871
318	0.866
318	0.861
318	0.856
319	0.85
319	0.845
320	0.839
320	0.833
321	0.827
321	0.82
322	0.814
322	0.808
323	0.801
323	0.795
324	0.788
324	0.782
324	0.775
325	0.768
325	0.762
326	0.755
326	0.748
327	0.741
327	0.734
328	0.727
328	0.72
329	0.713
329	0.706
330	0.699
330	0.692
330	0.685
331	0.678
331	0.671
332	0.664
332	0.657
333	0.65
333	0.643
334	0.636
334	0.63
335	0.623
335	0.616
336	0.609
336	0.603
336	0.596
337	0.59
337	0.583
338	0.577
338	0.571
339	0.565
339	0.559
340	0.553
340	0.548
341	0.542
341	0.536
342	0.53
342	0.525
342	0.52
343	0.514
343	0.509
344	0.504
344	0.499
345	0.494
345	0.489
346	0.485
346	0.481
347	0.476
347	0.472
348	0.468
348	0.464
348	0.46
349	0.456
349	0.452
350	0.449
350	0.445
351	0.442
351	0.438
352	0.435
352	0.432
353	0.429
353	0.426
354	0.423
354	0.42
354	0.417
355	0.414
355	0.41
356	0.408
356	0.405
357	0.401
357	0.399
358	0.396
358	0.393
359	0.391
359	0.388
360	0.386
360	0.384
360	0.382
361	0.38
361	0.378
362	0.377
362	0.375
363	0.373
363	0.371
364	0.369
364	0.367
365	0.365
365	0.363
366	0.361
366	0.359
366	0.358
367	0.356
367	0.354
368	0.352
368	0.351
369	0.349
369	0.347
370	0.346
370	0.345
371	0.343
371	0.342
372	0.34
372	0.339
372	0.338
373	0.337
373	0.336
374	0.335
374	0.333
375	0.332
375	0.331
376	0.33
376	0.329
377	0.328
377	0.327
378	0.325
378	0.324
378	0.323
379	0.322
379	0.322
380	0.321
380	0.32
381	0.319
381	0.318
382	0.318
382	0.317
383	0.316
383	0.316
383	0.315
384	0.314
384	0.313
385	0.313
385	0.312
386	0.312
386	0.311
387	0.311
387	0.31
388	0.31
388	0.309
389	0.309
389	0.308
389	0.308
390	0.307
390	0.307
391	0.306
391	0.306
392	0.305
392	0.305
393	0.304
393	0.304
394	0.303
394	0.303
394	0.302
395	0.302
395	0.302
396	0.301
396	0.301
397	0.3
397	0.3
398	0.299
398	0.299
399	0.299
399	0.298
400	0.298
400	0.297
400	0.297
401	0.297
401	0.296
402	0.296
402	0.295
403	0.294
403	0.294
404	0.294
404	0.293
405	0.293
405	0.292
405	0.292
406	0.292
406	0.291
407	0.291
407	0.291
408	0.29
408	0.29
409	0.289
409	0.289
410	0.289
410	0.289
411	0.288
411	0.288
411	0.288
412	0.287
412	0.287
413	0.286
413	0.286
414	0.286
414	0.286
415	0.285
415	0.285
416	0.285
416	0.284
416	0.284
417	0.283
417	0.283
418	0.283
418	0.282
419	0.282
419	0.281
420	0.281
420	0.28
421	0.28
421	0.28
421	0.279
422	0.279
422	0.279
423	0.278
423	0.278
424	0.278
424	0.278
425	0.278
425	0.277
426	0.277
426	0.277
427	0.277
427	0.276
427	0.276
428	0.276
428	0.275
429	0.275
429	0.274
430	0.274
430	0.273
431	0.273
431	0.273
432	0.273
432	0.273
432	0.272
433	0.272
433	0.272
434	0.272
434	0.272
435	0.272
435	0.271
436	0.271
436	0.271
437	0.271
437	0.271
437	0.271
438	0.27
438	0.27
439	0.27
439	0.27
440	0.27
440	0.27
441	0.269
441	0.269
442	0.269
442	0.269
442	0.268
443	0.268
443	0.268
444	0.268
444	0.268
445	0.268
445	0.268
446	0.268
446	0.267
447	0.267
447	0.267
447	0.267
448	0.267
448	0.267
449	0.267
449	0.267
450	0.267
450	0.267
451	0.267
451	0.267
452	0.267
452	0.267
452	0.267
453	0.267
453	0.267
454	0.267
454	0.266
455	0.266
455	0.266
456	0.266
456	0.266
457	0.266
457	0.265
458	0.265
458	0.265
458	0.265
459	0.265
459	0.266
460	0.266
460	0.266
461	0.266
461	0.266
462	0.266
462	0.266
463	0.266
463	0.266
463	0.266
464	0.266
464	0.266
465	0.266
465	0.266
466	0.266
466	0.266
467	0.266
467	0.266
467	0.267
468	0.267
468	0.267
469	0.268
469	0.268
470	0.269
470	0.269
471	0.27
471	0.27
472	0.27
472	0.27
472	0.271
473	0.271
473	0.271
474	0.272
474	0.271
475	0.272
475	0.272
476	0.272
476	0.273
477	0.273
477	0.273
477	0.274
478	0.274
478	0.275
479	0.276
479	0.276
480	0.277
480	0.277
481	0.278
481	0.278
482	0.279
482	0.28
482	0.28
483	0.281
483	0.282
484	0.282
484	0.282
485	0.283
485	0.283
486	0.284
486	0.284
487	0.285
487	0.285
487	0.286
488	0.287
488	0.287
489	0.289
489	0.29
490	0.291
490	0.293
491	0.294
491	0.295
492	0.296
492	0.298
492	0.299
493	0.3
493	0.301
494	0.302
494	0.303
495	0.304
495	0.305
496	0.306
496	0.307
496	0.309
497	0.309
497	0.31
498	0.312
498	0.313
499	0.314
499	0.315
500	0.316
500	0.318
501	0.319
501	0.32
501	0.32
502	0.322
502	0.322
503	0.324
503	0.325
504	0.326
504	0.327
505	0.328
505	0.329
506	0.33
506	0.331
506	0.332
507	0.334
507	0.335
508	0.336
508	0.337
509	0.338
509	0.339
510	0.34
510	0.341
511	0.342
511	0.343
511	0.344
512	0.345
512	0.346
513	0.347
513	0.348
514	0.349
514	0.349
515	0.35
515	0.35
515	0.351
516	0.351
516	0.352
517	0.353
517	0.353
518	0.354
518	0.354
519	0.354
519	0.354
520	0.355
520	0.355
520	0.355
521	0.355
521	0.355
522	0.355
522	0.355
523	0.355
523	0.355
524	0.354
524	0.354
524	0.354
525	0.354
525	0.353
526	0.352
526	0.352
527	0.351
527	0.351
528	0.35
528	0.349
529	0.349
529	0.348
529	0.347
530	0.346
530	0.345
531	0.344
531	0.343
532	0.342
532	0.341
533	0.34
533	0.338
533	0.337
534	0.336
534	0.335
535	0.333
535	0.332
536	0.331
536	0.329
537	0.328
537	0.326
538	0.325
538	0.323
538	0.321
539	0.32
539	0.319
540	0.317
540	0.316
541	0.314
541	0.313
542	0.311
542	0.309
542	0.307
543	0.305
543	0.304
544	0.302
544	0.3
545	0.298
545	0.296
546	0.295
546	0.292
547	0.29
547	0.289
547	0.287
548	0.285
548	0.283
549	0.281
549	0.279
550	0.277
550	0.276
551	0.274
551	0.272
551	0.27
552	0.268
552	0.266
553	0.264
553	0.263
554	0.261
554	0.259
555	0.257
555	0.255
556	0.253
556	0.251
556	0.249
557	0.248
557	0.246
558	0.245
558	0.243
559	0.242
559	0.24
560	0.239
560	0.237
560	0.236
561	0.235
561	0.233
562	0.231
562	0.229
563	0.227
563	0.225
564	0.223
564	0.221
564	0.22
565	0.218
565	0.216
566	0.215
566	0.213
567	0.212
567	0.21
568	0.208
568	0.207
568	0.205
569	0.204
569	0.202
570	0.2
570	0.199
571	0.197
571	0.196
572	0.195
572	0.194
573	0.192
573	0.191
573	0.19
574	0.189
574	0.188
575	0.187
575	0.186
576	0.186
576	0.184
577	0.182
577	0.181
577	0.18
578	0.179
578	0.178
579	0.177
579	0.177
580	0.175
580	0.174
581	0.172
581	0.171
581	0.17
582	0.17
582	0.169
583	0.169
583	0.167
584	0.166
584	0.164
585	0.163
585	0.163
585	0.162
586	0.161
586	0.16
587	0.159
587	0.158
588	0.157
588	0.156
589	0.155
589	0.155
590	0.154
590	0.154
590	0.154
591	0.153
591	0.152
592	0.151
592	0.15
593	0.149
593	0.148
594	0.147
594	0.146
594	0.145
595	0.144
595	0.143
596	0.142
596	0.142
597	0.142
597	0.142
598	0.141
598	0.141
598	0.14
599	0.14
599	0.139
600	0.138
600	0.138
601	0.137
601	0.137
602	0.136
602	0.135
602	0.134
603	0.134
603	0.133
604	0.133
604	0.133
605	0.132
605	0.132
606	0.131
606	0.13
606	0.13
607	0.129
607	0.129
608	0.129
608	0.128
609	0.127
609	0.126
610	0.126
610	0.125
610	0.125
611	0.124
611	0.124
612	0.124
612	0.123
613	0.123
613	0.123
614	0.123
614	0.122
614	0.122
615	0.122
615	0.121
616	0.121
616	0.121
617	0.12
617	0.12
618	0.119
618	0.119
618	0.119
619	0.118
619	0.118
620	0.118
620	0.118
621	0.117
621	0.117
622	0.116
622	0.116
622	0.115
623	0.115
623	0.114
624	0.114
624	0.113
625	0.112
625	0.112
626	0.112
626	0.112
626	0.112
627	0.112
627	0.111
628	0.111
628	0.111
629	0.11
629	0.11
630	0.109
630	0.109
630	0.109
631	0.108
631	0.108
632	0.107
632	0.107
633	0.107
633	0.106
634	0.107
634	0.107
634	0.107
635	0.106
635	0.106
636	0.106
636	0.106
637	0.106
637	0.105
638	0.105
638	0.105
638	0.104
639	0.103
639	0.103
640	0.103
640	0.103
641	0.103
641	0.102
642	0.102
642	0.102
642	0.102
643	0.102
643	0.102
644	0.102
644	0.102
645	0.101
645	0.101
646	0.101
646	0.1
646	0.1
647	0.1
647	0.099
648	0.098
648	0.098
649	0.097
649	0.097
650	0.097
650	0.096
650	0.096
651	0.096
651	0.096
652	0.096
652	0.096
653	0.097
653	0.099
653	0.104
654	0.084
654	0.069
655	0.066
655	0.066
656	0.066
656	0.067
657	0.067
657	0.067
657	0.067
658	0.066
658	0.059
659	0.073
659	0.092
660	0.098
660	0.098
661	0.098
661	0.097
661	0.097
662	0.096
662	0.096
663	0.095
663	0.094
664	0.094
664	0.094
665	0.093
665	0.093
665	0.093
666	0.093
666	0.093
667	0.093
667	0.093
668	0.094
668	0.094
669	0.094
669	0.094
669	0.095
670	0.095
670	0.094
671	0.094
671	0.094
672	0.093
672	0.092
672	0.092
673	0.092
673	0.091
674	0.091
674	0.09
675	0.09
675	0.09
676	0.09
676	0.09
676	0.091
677	0.091
677	0.091
678	0.091
678	0.09
679	0.09
679	0.09
680	0.09
680	0.089
680	0.089
681	0.089
681	0.089
682	0.089
682	0.089
683	0.089
683	0.09
684	0.09
684	0.09
684	0.09
685	0.09
685	0.091
686	0.091
686	0.09
687	0.09
687	0.09
687	0.089
688	0.089
688	0.089
689	0.089
689	0.09
690	0.089
690	0.089
691	0.089
691	0.089
691	0.089
692	0.089
692	0.089
693	0.089
693	0.089
694	0.089
694	0.089
695	0.09
695	0.091
695	0.091
696	0.091
696	0.091
697	0.091
697	0.091
698	0.091
698	0.09
698	0.091
699	0.091
699	0.091
700	0.09
700	0.09
701	0.09
701	0.089
702	0.089
702	0.089
702	0.088
703	0.088
703	0.087
704	0.087
704	0.086
705	0.086
705	0.086
705	0.086
706	0.086
706	0.086
707	0.086
707	0.085
708	0.086
708	0.086
709	0.086
709	0.085
709	0.085
710	0.085
710	0.085
711	0.086
711	0.086
712	0.086
712	0.086
713	0.086
713	0.086
713	0.085
714	0.085
714	0.085
715	0.084
715	0.084
716	0.083
716	0.083
716	0.082
717	0.082
717	0.081
718	0.081
718	0.081
719	0.081
719	0.082
720	0.082
720	0.083
720	0.083
721	0.083
721	0.084
722	0.085
722	0.085
723	0.085
723	0.085
723	0.084
724	0.084
724	0.083
725	0.082
725	0.082
726	0.081
726	0.08
727	0.08
727	0.079
727	0.079
728	0.079
728	0.079
729	0.079
729	0.079
730	0.079
730	0.079
730	0.079
731	0.08
731	0.08
732	0.081
732	0.081
733	0.081
733	0.081
734	0.081
734	0.082
734	0.082
735	0.082
735	0.082
736	0.081
736	0.081
737	0.081
737	0.081
737	0.081
738	0.08
738	0.079
739	0.079
739	0.078
740	0.078
740	0.078
741	0.078
741	0.078
741	0.079
742	0.079
742	0.079
743	0.08
743	0.081
744	0.081
744	0.081
744	0.081
745	0.081
745	0.08
746	0.08
746	0.079
747	0.078
747	0.078
748	0.077
748	0.077
748	0.077
749	0.077
749	0.077
750	0.077
750	0.077
751	0.077
751	0.077
751	0.078
752	0.078
752	0.077
753	0.077
753	0.076
754	0.076
754	0.076
754	0.076
755	0.076
755	0.075
756	0.075
756	0.074
757	0.073
757	0.073
758	0.073
758	0.073
758	0.074
759	0.074
759	0.073
760	0.073
760	0.072
761	0.073
761	0.073
761	0.073
762	0.073
762	0.073
763	0.072
763	0.072
764	0.071
764	0.071
764	0.071
765	0.07
765	0.07
766	0.07
766	0.07
767	0.069
767	0.068
768	0.068
768	0.068
768	0.069
769	0.069
769	0.069
770	0.07
770	0.07
771	0.071
771	0.071
771	0.072
772	0.073
772	0.074
773	0.074
773	0.074
774	0.074
774	0.075
775	0.075
775	0.075
775	0.075
776	0.075
776	0.075
777	0.076
777	0.076
778	0.076
778	0.076
778	0.076
779	0.075
779	0.075
780	0.074
780	0.073
781	0.072
781	0.071
781	0.071
782	0.07
782	0.069
783	0.069
783	0.07
784	0.069
784	0.07
784	0.07
785	0.07
785	0.07
786	0.07
786	0.07
787	0.07
787	0.069
788	0.068
788	0.068
788	0.067
789	0.066
789	0.066
790	0.066
790	0.065
791	0.065
791	0.064
791	0.064
792	0.065
792	0.065
793	0.064
793	0.064
794	0.063
794	0.063
794	0.063
795	0.063
795	0.063
796	0.063
796	0.063
797	0.062
797	0.063
797	0.063
798	0.063
798	0.064
799	0.064
799	0.064
800	0.063
800	0.063
801	0.063
801	0.063
801	0.063
802	0.063
802	0.063
803	0.063
803	0.063
804	0.064
804	0.064
804	0.064
805	0.064
805	0.064
806	0.064
806	0.064
807	0.063
807	0.063
807	0.063
808	0.063
808	0.063
809	0.062
809	0.062
810	0.062
810	0.062
810	0.062
811	0.062
811	0.062
812	0.063
812	0.062
813	0.062
813	0.062
813	0.062
814	0.062
814	0.062
815	0.062
815	0.062
816	0.062
816	0.062
817	0.061
817	0.061
817	0.061
818	0.061
818	0.061
819	0.061
819	0.06
820	0.059
820	0.059
820	0.059
821	0.059
821	0.059
822	0.059
822	0.059
823	0.059
823	0.059
823	0.059
824	0.06
824	0.061
825	0.062
825	0.063
826	0.064
826	0.064
826	0.065
827	0.065
827	0.065
828	0.066
828	0.066
829	0.066
829	0.066
829	0.066
830	0.066
830	0.066
831	0.067
831	0.067
832	0.067
832	0.067
832	0.067
833	0.067
833	0.066
834	0.066
834	0.065
835	0.065
835	0.064
835	0.063
836	0.063
836	0.062
837	0.062
837	0.061
838	0.06
838	0.06
839	0.059
839	0.058
839	0.057
840	0.056
840	0.055
841	0.054
841	0.054
842	0.053
842	0.052
842	0.052
843	0.051
843	0.05
844	0.05
844	0.049
845	0.049
845	0.049
845	0.048
846	0.048
846	0.048
847	0.048
847	0.049
848	0.049
848	0.05
848	0.05
849	0.051
849	0.051
850	0.052
850	0.052
851	0.053
851	0.053
851	0.053
852	0.053
852	0.053
853	0.053
853	0.053
854	0.053
854	0.054
854	0.054
855	0.055
855	0.055
856	0.056
856	0.056
857	0.057
857	0.057
857	0.058
858	0.058
858	0.058
859	0.057
859	0.057
860	0.056
860	0.056
860	0.055
861	0.055
861	0.054
862	0.053
862	0.052
863	0.052
863	0.052
863	0.052
864	0.052
864	0.052
865	0.052
865	0.052
866	0.052
866	0.052
866	0.053
867	0.053
867	0.054
868	0.054
868	0.054
869	0.055
869	0.055
869	0.054
870	0.054
870	0.054
871	0.053
871	0.053
872	0.053
872	0.052
872	0.052
873	0.051
873	0.051
874	0.05
874	0.05
875	0.05
875	0.049
875	0.049
876	0.049
876	0.049
877	0.049
877	0.05
878	0.05
878	0.05
878	0.05
879	0.05
879	0.05
880	0.05
880	0.051
881	0.051
881	0.051
881	0.051
882	0.05
882	0.05
883	0.05
883	0.05
884	0.05
884	0.05
884	0.05
885	0.05
885	0.05
886	0.05
886	0.049
887	0.049
887	0.049
887	0.049
888	0.048
888	0.048
889	0.048
889	0.048
890	0.047
890	0.048
890	0.048
891	0.047
891	0.047
892	0.047
892	0.047
893	0.047
893	0.046
893	0.046
894	0.045
894	0.045
895	0.044
895	0.044
895	0.044
896	0.045
896	0.045
897	0.045
897	0.046
898	0.046
898	0.046
898	0.046
899	0.046
899	0.047
900	0.047
900	0.047
901	0.046
901	0.046
901	0.046
902	0.046
902	0.045
903	0.045
903	0.045
904	0.045
904	0.045
904	0.045
905	0.045
905	0.045
906	0.045
906	0.045
907	0.045
907	0.045
907	0.046
908	0.046
908	0.046
909	0.046
909	0.046
910	0.046
910	0.046
910	0.046
911	0.045
911	0.045
912	0.045
912	0.044
913	0.044
913	0.043
913	0.043
914	0.043
914	0.043
915	0.042
915	0.042
916	0.042
916	0.042
916	0.042
917	0.041
917	0.041
918	0.041
918	0.04
918	0.04
919	0.04
919	0.039
920	0.039
920	0.039
921	0.038
921	0.038
921	0.038
922	0.038
922	0.038
923	0.038
923	0.038
924	0.039
924	0.04
924	0.04
925	0.041
925	0.041
926	0.042
926	0.042
927	0.043
927	0.043
927	0.044
928	0.044
928	0.044
929	0.045
929	0.045
930	0.045
930	0.045
930	0.046
931	0.046
931	0.046
932	0.047
932	0.047
933	0.047
933	0.048
933	0.048
934	0.048
934	0.047
935	0.047
935	0.047
935	0.046
936	0.045
936	0.045
937	0.044
937	0.043
938	0.042
938	0.041
938	0.04
939	0.039
939	0.039
940	0.039
940	0.039
941	0.039
941	0.039
941	0.04
942	0.04
942	0.04
943	0.041
943	0.041
944	0.041
944	0.042
944	0.042
945	0.043
945	0.043
946	0.043
946	0.043
946	0.043
947	0.043
947	0.043
948	0.043
948	0.043
949	0.042
949	0.042
949	0.041
950	0.041
950	0.041
951	0.041
951	0.04
952	0.04
952	0.039
952	0.039
953	0.039
953	0.039
954	0.039
954	0.04
955	0.04
955	0.04
955	0.04
956	0.041
956	0.041
957	0.042
957	0.042
957	0.042
958	0.043
958	0.043
959	0.043
959	0.043
960	0.043
960	0.043
960	0.043
961	0.043
961	0.043
962	0.043
962	0.042
963	0.042
963	0.042
963	0.042
964	0.042
964	0.042
965	0.042
965	0.042
966	0.043
966	0.043
966	0.043
967	0.043
967	0.043
968	0.043
968	0.043
968	0.043
969	0.042
969	0.042
970	0.041
970	0.04
971	0.039
971	0.038
971	0.038
972	0.037
972	0.036
973	0.036
973	0.035
974	0.035
974	0.036
974	0.036
975	0.037
975	0.037
976	0.038
976	0.039
976	0.04
977	0.04
977	0.041
978	0.041
978	0.041
979	0.041
979	0.041
979	0.041
980	0.041
980	0.04
981	0.04
981	0.039
982	0.039
982	0.039
982	0.039
983	0.039
983	0.039
984	0.039
984	0.038
984	0.038
985	0.039
985	0.039
986	0.039
986	0.039
987	0.039
987	0.039
987	0.039
988	0.039
988	0.039
989	0.039
989	0.039
990	0.039
990	0.039
990	0.039
991	0.039
991	0.038
992	0.038
992	0.037
992	0.037
993	0.036
993	0.035
994	0.034
994	0.033
995	0.033
995	0.032
995	0.032
996	0.031
996	0.031
997	0.031
997	0.032
997	0.032
998	0.033
998	0.033
999	0.034
999	0.035
1000	0.035
1000	0.036
1000	0.036
1001	0.036
1001	0.036
1002	0.036
1002	0.035
1003	0.035
1003	0.034
1003	0.034
1004	0.033
1004	0.032
1005	0.031
1005	0.03
1005	0.029
1006	0.029
1006	0.028
1007	0.027
1007	0.027
1008	0.026
1008	0.026
1008	0.026
1009	0.026
1009	0.026
1010	0.026
1010	0.026
1010	0.026
1011	0.026
1011	0.026
1012	0.026
1012	0.026
1013	0.027
1013	0.026
1013	0.026
1014	0.026
1014	0.026
1015	0.026
1015	0.026
1016	0.026
1016	0.026
1016	0.027
1017	0.027
1017	0.027
1018	0.027
1018	0.027
1018	0.028
1019	0.028
1019	0.028
1020	0.029
1020	0.029
1021	0.03
1021	0.03
1021	0.031
1022	0.031
1022	0.031
1023	0.031
1023	0.032
1023	0.032
1024	0.032
1024	0.032
1025	0.032
1025	0.032
1026	0.032
1026	0.032
1026	0.032
1027	0.032
1027	0.032
1028	0.032
1028	0.032
1028	0.032
1029	0.032
1029	0.032
1030	0.032
1030	0.032
1031	0.033
1031	0.033
1031	0.033
1032	0.034
1032	0.034
1033	0.034
1033	0.035
1033	0.035
1034	0.035
1034	0.035
1035	0.035
1035	0.035
1036	0.035
1036	0.035
1036	0.036
1037	0.036
1037	0.035
1038	0.035
1038	0.035
1039	0.035
1039	0.035
1039	0.035
1040	0.035
1040	0.035
1041	0.035
1041	0.035
1041	0.035
1042	0.035
1042	0.034
1043	0.034
1043	0.034
1044	0.034
1044	0.033
1044	0.033
1045	0.033
1045	0.032
1046	0.032
1046	0.032
1046	0.032
1047	0.032
1047	0.032
1048	0.032
1048	0.033
1049	0.033
1049	0.033
1049	0.034
1050	0.034
1050	0.034
1051	0.033
1051	0.033
1051	0.033
1052	0.032
1052	0.032
1053	0.031
1053	0.031
1053	0.03
1054	0.029
1054	0.029
1055	0.029
1055	0.028
1056	0.028
1056	0.028
1056	0.027
1057	0.027
1057	0.026
1058	0.026
1058	0.025
1058	0.024
1059	0.024
1059	0.024
1060	0.023
1060	0.023
1061	0.022
1061	0.022
1061	0.022
1062	0.022
1062	0.022
1063	0.022
1063	0.021
1063	0.021
1064	0.021
1064	0.021
1065	0.02
1065	0.02
1066	0.02
1066	0.02
1066	0.02
1067	0.02
1067	0.02
1068	0.019
1068	0.019
1068	0.02
1069	0.02
1069	0.02
1070	0.02
1070	0.02
1071	0.019
1071	0.02
1071	0.019
1072	0.02
1072	0.02
1073	0.02
1073	0.019
1073	0.019
1074	0.02
1074	0.02
1075	0.021
1075	0.021
1076	0.021
1076	0.022
1076	0.022
1077	0.022
1077	0.023
1078	0.023
1078	0.023
1078	0.023
1079	0.023
1079	0.023
1080	0.022
1080	0.022
1080	0.022
1081	0.022
1081	0.021
1082	0.022
1082	0.022
1083	0.022
1083	0.022
1083	0.022
1084	0.022
1084	0.022
1085	0.023
1085	0.022
1085	0.023
1086	0.024
1086	0.023
1087	0.023
1087	0.023
1088	0.023
1088	0.023
1088	0.023
1089	0.023
1089	0.022
1090	0.022
1090	0.021
1090	0.02
1091	0.02
1091	0.019
1092	0.019
1092	0.019
1092	0.018
1093	0.017
1093	0.017
1094	0.017
1094	0.016
1095	0.016
1095	0.016
1095	0.016
1096	0.016
1096	0.015
1097	0.014
1097	0.014
1097	0.014
1098	0.014
1098	0.013
1099	0.012
1099	0.011
1100	0.011
1100	0.009
1100	0.008
1101	0.007
1101	0.007
1102	0.006
1102	0.004
1102	0.003
1103	0.003
1103	0.003
1104	0.003
1104	0.002
1104	0.002
1105	0.001
1105	-0
1106	-0.001
1106	-0.002
1107	-0.002
1107	-0.003
1107	-0.004
1108	-0.005
1108	-0.006
1109	-0.008
1109	-0.009
1109	-0.008
1110	-0.008
1110	-0.008
1111	-0.007
1111	-0.01
