Data from reversibility-20sec_Absorbance__121__000000000000121.txt Node

Date: Tue Dec 05 12:53:25 CET 2023
User: Marek
Spectrometer: MAYP115816
Trigger mode: 0
Integration Time (sec): 2.000000E-1
Scans to average: 10
Electric dark correction enabled: true
Nonlinearity correction enabled: true
Boxcar width: 5
XAxis mode: Wavelengths
Number of Pixels in Spectrum: 2068
>>>>>Begin Spectral Data<<<<<
199	-0.222
199	-0.19
200	-0.119
200	-0.06
201	-0.028
201	-0.01
202	0.003
202	0.015
203	0.02
203	0.026
204	0.039
204	0.055
205	0.069
205	0.075
205	0.073
206	0.073
206	0.073
207	0.077
207	0.075
208	0.077
208	0.073
209	0.075
209	0.072
210	0.073
210	0.074
211	0.073
211	0.075
212	0.072
212	0.072
213	0.077
213	0.076
213	0.076
214	0.079
214	0.08
215	0.079
215	0.08
216	0.085
216	0.084
217	0.089
217	0.091
218	0.089
218	0.096
219	0.101
219	0.101
220	0.104
220	0.106
221	0.105
221	0.103
221	0.107
222	0.111
222	0.116
223	0.119
223	0.12
224	0.124
224	0.134
225	0.142
225	0.151
226	0.161
226	0.173
227	0.186
227	0.197
228	0.21
228	0.228
229	0.245
229	0.27
229	0.289
230	0.313
230	0.344
231	0.377
231	0.415
232	0.45
232	0.491
233	0.537
233	0.586
234	0.637
234	0.686
235	0.74
235	0.792
236	0.843
236	0.894
236	0.945
237	0.996
237	1.045
238	1.09
238	1.134
239	1.179
239	1.224
240	1.263
240	1.302
241	1.337
241	1.37
242	1.401
242	1.436
243	1.465
243	1.491
243	1.515
244	1.538
244	1.558
245	1.575
245	1.595
246	1.612
246	1.628
247	1.641
247	1.654
248	1.669
248	1.681
249	1.69
249	1.697
250	1.704
250	1.71
250	1.714
251	1.716
251	1.719
252	1.722
252	1.721
253	1.72
253	1.717
254	1.717
254	1.719
255	1.717
255	1.718
256	1.716
256	1.715
257	1.715
257	1.712
258	1.713
258	1.712
258	1.712
259	1.712
259	1.71
260	1.71
260	1.712
261	1.712
261	1.717
262	1.717
262	1.72
263	1.723
263	1.725
264	1.725
264	1.726
265	1.726
265	1.726
265	1.725
266	1.725
266	1.724
267	1.722
267	1.723
268	1.721
268	1.721
269	1.722
269	1.721
270	1.723
270	1.722
271	1.72
271	1.718
272	1.715
272	1.713
272	1.71
273	1.703
273	1.696
274	1.69
274	1.683
275	1.676
275	1.67
276	1.663
276	1.656
277	1.648
277	1.639
278	1.628
278	1.617
278	1.604
279	1.588
279	1.567
280	1.543
280	1.513
281	1.479
281	1.44
282	1.401
282	1.36
283	1.321
283	1.281
284	1.244
284	1.208
285	1.174
285	1.143
285	1.116
286	1.092
286	1.071
287	1.052
287	1.037
288	1.024
288	1.012
289	1.002
289	0.994
290	0.988
290	0.982
291	0.977
291	0.972
292	0.968
292	0.965
292	0.962
293	0.959
293	0.956
294	0.954
294	0.951
295	0.949
295	0.946
296	0.944
296	0.942
297	0.939
297	0.937
298	0.935
298	0.933
298	0.93
299	0.929
299	0.927
300	0.925
300	0.923
301	0.921
301	0.919
302	0.917
302	0.916
303	0.914
303	0.912
304	0.91
304	0.908
305	0.906
305	0.904
305	0.902
306	0.9
306	0.898
307	0.896
307	0.893
308	0.891
308	0.889
309	0.886
309	0.884
310	0.881
310	0.878
311	0.876
311	0.873
311	0.87
312	0.867
312	0.864
313	0.86
313	0.857
314	0.854
314	0.85
315	0.846
315	0.842
316	0.838
316	0.834
317	0.829
317	0.825
318	0.82
318	0.815
318	0.81
319	0.805
319	0.8
320	0.795
320	0.789
321	0.783
321	0.777
322	0.771
322	0.765
323	0.759
323	0.753
324	0.747
324	0.741
324	0.735
325	0.728
325	0.722
326	0.716
326	0.709
327	0.703
327	0.696
328	0.689
328	0.683
329	0.676
329	0.669
330	0.662
330	0.655
330	0.648
331	0.641
331	0.635
332	0.628
332	0.621
333	0.615
333	0.608
334	0.601
334	0.594
335	0.588
335	0.581
336	0.575
336	0.569
336	0.563
337	0.556
337	0.55
338	0.544
338	0.538
339	0.532
339	0.527
340	0.521
340	0.515
341	0.51
341	0.504
342	0.499
342	0.494
342	0.489
343	0.484
343	0.479
344	0.474
344	0.469
345	0.465
345	0.461
346	0.456
346	0.452
347	0.448
347	0.444
348	0.44
348	0.436
348	0.432
349	0.428
349	0.425
350	0.421
350	0.418
351	0.414
351	0.411
352	0.408
352	0.405
353	0.403
353	0.4
354	0.397
354	0.394
354	0.391
355	0.388
355	0.385
356	0.383
356	0.38
357	0.376
357	0.374
358	0.371
358	0.369
359	0.367
359	0.364
360	0.362
360	0.36
360	0.358
361	0.357
361	0.355
362	0.354
362	0.352
363	0.35
363	0.348
364	0.347
364	0.345
365	0.343
365	0.341
366	0.339
366	0.338
366	0.336
367	0.334
367	0.333
368	0.331
368	0.329
369	0.328
369	0.326
370	0.325
370	0.323
371	0.322
371	0.321
372	0.319
372	0.318
372	0.317
373	0.316
373	0.315
374	0.314
374	0.313
375	0.312
375	0.311
376	0.31
376	0.309
377	0.308
377	0.307
378	0.306
378	0.305
378	0.304
379	0.304
379	0.303
380	0.302
380	0.301
381	0.3
381	0.299
382	0.298
382	0.298
383	0.297
383	0.296
383	0.296
384	0.295
384	0.294
385	0.293
385	0.293
386	0.292
386	0.292
387	0.291
387	0.291
388	0.29
388	0.289
389	0.289
389	0.288
389	0.288
390	0.287
390	0.286
391	0.286
391	0.285
392	0.285
392	0.284
393	0.284
393	0.284
394	0.283
394	0.283
394	0.282
395	0.282
395	0.281
396	0.281
396	0.28
397	0.28
397	0.279
398	0.279
398	0.279
399	0.278
399	0.278
400	0.277
400	0.277
400	0.276
401	0.276
401	0.276
402	0.275
402	0.275
403	0.274
403	0.274
404	0.274
404	0.273
405	0.273
405	0.273
405	0.273
406	0.272
406	0.272
407	0.272
407	0.271
408	0.271
408	0.271
409	0.27
409	0.27
410	0.269
410	0.269
411	0.268
411	0.268
411	0.268
412	0.268
412	0.267
413	0.267
413	0.267
414	0.266
414	0.266
415	0.266
415	0.265
416	0.265
416	0.265
416	0.264
417	0.264
417	0.264
418	0.264
418	0.263
419	0.263
419	0.263
420	0.262
420	0.262
421	0.262
421	0.262
421	0.261
422	0.261
422	0.261
423	0.261
423	0.26
424	0.26
424	0.26
425	0.259
425	0.259
426	0.259
426	0.258
427	0.258
427	0.258
427	0.257
428	0.257
428	0.257
429	0.257
429	0.257
430	0.257
430	0.257
431	0.256
431	0.256
432	0.256
432	0.256
432	0.256
433	0.256
433	0.255
434	0.255
434	0.255
435	0.255
435	0.255
436	0.255
436	0.255
437	0.255
437	0.255
437	0.255
438	0.255
438	0.255
439	0.254
439	0.254
440	0.254
440	0.254
441	0.253
441	0.253
442	0.253
442	0.253
442	0.253
443	0.253
443	0.253
444	0.253
444	0.253
445	0.252
445	0.252
446	0.252
446	0.252
447	0.252
447	0.252
447	0.251
448	0.251
448	0.251
449	0.251
449	0.251
450	0.251
450	0.251
451	0.251
451	0.251
452	0.251
452	0.251
452	0.251
453	0.251
453	0.251
454	0.251
454	0.251
455	0.251
455	0.251
456	0.251
456	0.251
457	0.251
457	0.25
458	0.25
458	0.25
458	0.25
459	0.25
459	0.25
460	0.25
460	0.25
461	0.25
461	0.25
462	0.25
462	0.25
463	0.25
463	0.25
463	0.25
464	0.25
464	0.25
465	0.25
465	0.25
466	0.25
466	0.251
467	0.251
467	0.251
467	0.251
468	0.251
468	0.251
469	0.251
469	0.252
470	0.252
470	0.252
471	0.252
471	0.252
472	0.252
472	0.252
472	0.253
473	0.253
473	0.253
474	0.253
474	0.254
475	0.254
475	0.254
476	0.255
476	0.255
477	0.256
477	0.256
477	0.257
478	0.257
478	0.257
479	0.258
479	0.258
480	0.259
480	0.259
481	0.259
481	0.26
482	0.26
482	0.261
482	0.261
483	0.262
483	0.263
484	0.264
484	0.264
485	0.265
485	0.265
486	0.266
486	0.267
487	0.267
487	0.268
487	0.269
488	0.269
488	0.27
489	0.271
489	0.272
490	0.273
490	0.274
491	0.275
491	0.276
492	0.277
492	0.278
492	0.279
493	0.279
493	0.28
494	0.281
494	0.282
495	0.283
495	0.284
496	0.285
496	0.287
496	0.288
497	0.289
497	0.29
498	0.291
498	0.292
499	0.293
499	0.294
500	0.296
500	0.297
501	0.298
501	0.299
501	0.3
502	0.301
502	0.302
503	0.303
503	0.304
504	0.305
504	0.307
505	0.308
505	0.309
506	0.31
506	0.311
506	0.312
507	0.313
507	0.314
508	0.315
508	0.316
509	0.317
509	0.318
510	0.319
510	0.319
511	0.32
511	0.322
511	0.323
512	0.324
512	0.325
513	0.325
513	0.326
514	0.327
514	0.328
515	0.328
515	0.329
515	0.329
516	0.33
516	0.33
517	0.331
517	0.332
518	0.333
518	0.333
519	0.334
519	0.334
520	0.334
520	0.334
520	0.335
521	0.335
521	0.335
522	0.335
522	0.335
523	0.335
523	0.335
524	0.335
524	0.335
524	0.335
525	0.335
525	0.335
526	0.335
526	0.334
527	0.334
527	0.334
528	0.333
528	0.333
529	0.332
529	0.332
529	0.331
530	0.331
530	0.33
531	0.329
531	0.328
532	0.328
532	0.327
533	0.326
533	0.325
533	0.325
534	0.324
534	0.323
535	0.322
535	0.321
536	0.32
536	0.319
537	0.318
537	0.317
538	0.316
538	0.315
538	0.313
539	0.312
539	0.311
540	0.31
540	0.309
541	0.308
541	0.306
542	0.305
542	0.303
542	0.302
543	0.301
543	0.3
544	0.298
544	0.297
545	0.296
545	0.295
546	0.294
546	0.293
547	0.291
547	0.29
547	0.288
548	0.287
548	0.286
549	0.284
549	0.283
550	0.281
550	0.279
551	0.278
551	0.276
551	0.275
552	0.273
552	0.271
553	0.27
553	0.268
554	0.267
554	0.266
555	0.264
555	0.263
556	0.261
556	0.26
556	0.259
557	0.258
557	0.257
558	0.256
558	0.255
559	0.254
559	0.253
560	0.252
560	0.251
560	0.25
561	0.249
561	0.247
562	0.246
562	0.245
563	0.243
563	0.242
564	0.24
564	0.239
564	0.237
565	0.236
565	0.235
566	0.233
566	0.232
567	0.231
567	0.23
568	0.229
568	0.228
568	0.227
569	0.226
569	0.226
570	0.224
570	0.223
571	0.222
571	0.222
572	0.22
572	0.22
573	0.219
573	0.218
573	0.217
574	0.216
574	0.215
575	0.215
575	0.214
576	0.213
576	0.212
577	0.211
577	0.211
577	0.21
578	0.209
578	0.208
579	0.208
579	0.207
580	0.206
580	0.205
581	0.204
581	0.203
581	0.202
582	0.202
582	0.201
583	0.201
583	0.2
584	0.199
584	0.198
585	0.197
585	0.196
585	0.195
586	0.194
586	0.193
587	0.191
587	0.191
588	0.19
588	0.189
589	0.188
589	0.188
590	0.187
590	0.187
590	0.187
591	0.186
591	0.186
592	0.185
592	0.185
593	0.184
593	0.183
594	0.183
594	0.182
594	0.181
595	0.181
595	0.18
596	0.179
596	0.179
597	0.179
597	0.178
598	0.178
598	0.177
598	0.177
599	0.176
599	0.176
600	0.175
600	0.174
601	0.174
601	0.173
602	0.172
602	0.172
602	0.171
603	0.171
603	0.17
604	0.17
604	0.17
605	0.17
605	0.169
606	0.169
606	0.168
606	0.168
607	0.168
607	0.167
608	0.166
608	0.166
609	0.165
609	0.165
610	0.164
610	0.163
610	0.163
611	0.163
611	0.163
612	0.162
612	0.162
613	0.162
613	0.162
614	0.162
614	0.161
614	0.161
615	0.161
615	0.16
616	0.16
616	0.159
617	0.159
617	0.158
618	0.158
618	0.157
618	0.157
619	0.157
619	0.157
620	0.156
620	0.156
621	0.155
621	0.155
622	0.155
622	0.154
622	0.154
623	0.153
623	0.153
624	0.153
624	0.152
625	0.152
625	0.152
626	0.151
626	0.151
626	0.151
627	0.151
627	0.15
628	0.149
628	0.149
629	0.148
629	0.148
630	0.147
630	0.147
630	0.146
631	0.146
631	0.146
632	0.146
632	0.146
633	0.146
633	0.146
634	0.147
634	0.147
634	0.147
635	0.147
635	0.147
636	0.147
636	0.147
637	0.147
637	0.147
638	0.146
638	0.146
638	0.145
639	0.145
639	0.144
640	0.144
640	0.144
641	0.143
641	0.143
642	0.142
642	0.142
642	0.142
643	0.142
643	0.142
644	0.142
644	0.142
645	0.141
645	0.141
646	0.141
646	0.141
646	0.141
647	0.141
647	0.141
648	0.14
648	0.14
649	0.14
649	0.14
650	0.14
650	0.14
650	0.14
651	0.14
651	0.14
652	0.139
652	0.139
653	0.14
653	0.141
653	0.145
654	0.115
654	0.093
655	0.094
655	0.095
656	0.095
656	0.095
657	0.095
657	0.096
657	0.096
658	0.095
658	0.088
659	0.109
659	0.139
660	0.142
660	0.141
661	0.141
661	0.141
661	0.14
662	0.14
662	0.14
663	0.139
663	0.139
664	0.139
664	0.138
665	0.138
665	0.138
665	0.138
666	0.137
666	0.137
667	0.137
667	0.137
668	0.137
668	0.138
669	0.138
669	0.138
669	0.138
670	0.138
670	0.138
671	0.138
671	0.138
672	0.138
672	0.137
672	0.137
673	0.137
673	0.137
674	0.137
674	0.136
675	0.136
675	0.136
676	0.136
676	0.137
676	0.137
677	0.137
677	0.137
678	0.137
678	0.137
679	0.137
679	0.137
680	0.137
680	0.137
680	0.137
681	0.137
681	0.137
682	0.138
682	0.138
683	0.138
683	0.139
684	0.139
684	0.139
684	0.139
685	0.139
685	0.139
686	0.14
686	0.139
687	0.139
687	0.139
687	0.138
688	0.138
688	0.138
689	0.138
689	0.138
690	0.137
690	0.137
691	0.137
691	0.137
691	0.137
692	0.137
692	0.138
693	0.138
693	0.138
694	0.138
694	0.138
695	0.139
695	0.14
695	0.14
696	0.14
696	0.14
697	0.14
697	0.14
698	0.14
698	0.139
698	0.139
699	0.139
699	0.139
700	0.139
700	0.139
701	0.138
701	0.138
702	0.138
702	0.138
702	0.139
703	0.139
703	0.138
704	0.138
704	0.138
705	0.138
705	0.138
705	0.138
706	0.138
706	0.138
707	0.138
707	0.138
708	0.138
708	0.138
709	0.138
709	0.138
709	0.138
710	0.138
710	0.138
711	0.138
711	0.138
712	0.138
712	0.138
713	0.138
713	0.138
713	0.138
714	0.138
714	0.138
715	0.139
715	0.139
716	0.139
716	0.139
716	0.139
717	0.138
717	0.138
718	0.138
718	0.138
719	0.138
719	0.138
720	0.138
720	0.139
720	0.139
721	0.139
721	0.14
722	0.14
722	0.14
723	0.14
723	0.14
723	0.14
724	0.139
724	0.139
725	0.139
725	0.138
726	0.138
726	0.137
727	0.137
727	0.137
727	0.137
728	0.137
728	0.137
729	0.138
729	0.138
730	0.138
730	0.138
730	0.139
731	0.139
731	0.139
732	0.139
732	0.139
733	0.139
733	0.139
734	0.139
734	0.139
734	0.139
735	0.14
735	0.139
736	0.139
736	0.139
737	0.139
737	0.139
737	0.14
738	0.139
738	0.139
739	0.139
739	0.139
740	0.139
740	0.139
741	0.139
741	0.139
741	0.139
742	0.139
742	0.14
743	0.14
743	0.14
744	0.141
744	0.141
744	0.141
745	0.141
745	0.141
746	0.141
746	0.141
747	0.141
747	0.141
748	0.14
748	0.14
748	0.14
749	0.14
749	0.14
750	0.14
750	0.14
751	0.14
751	0.14
751	0.14
752	0.14
752	0.14
753	0.14
753	0.14
754	0.141
754	0.141
754	0.142
755	0.142
755	0.142
756	0.142
756	0.141
757	0.141
757	0.141
758	0.141
758	0.14
758	0.14
759	0.14
759	0.14
760	0.14
760	0.14
761	0.14
761	0.14
761	0.141
762	0.141
762	0.141
763	0.141
763	0.141
764	0.141
764	0.141
764	0.141
765	0.141
765	0.14
766	0.14
766	0.14
767	0.14
767	0.139
768	0.139
768	0.139
768	0.138
769	0.138
769	0.138
770	0.138
770	0.139
771	0.139
771	0.139
771	0.139
772	0.14
772	0.14
773	0.14
773	0.14
774	0.141
774	0.141
775	0.141
775	0.141
775	0.141
776	0.141
776	0.141
777	0.141
777	0.14
778	0.14
778	0.139
778	0.139
779	0.139
779	0.138
780	0.138
780	0.137
781	0.137
781	0.137
781	0.136
782	0.136
782	0.136
783	0.136
783	0.137
784	0.136
784	0.136
784	0.137
785	0.137
785	0.137
786	0.137
786	0.137
787	0.138
787	0.137
788	0.137
788	0.137
788	0.137
789	0.136
789	0.136
790	0.136
790	0.135
791	0.135
791	0.134
791	0.134
792	0.134
792	0.133
793	0.133
793	0.132
794	0.132
794	0.131
794	0.131
795	0.13
795	0.13
796	0.13
796	0.13
797	0.129
797	0.129
797	0.13
798	0.13
798	0.13
799	0.13
799	0.13
800	0.129
800	0.129
801	0.129
801	0.129
801	0.128
802	0.128
802	0.128
803	0.128
803	0.128
804	0.128
804	0.129
804	0.129
805	0.129
805	0.13
806	0.13
806	0.13
807	0.13
807	0.13
807	0.13
808	0.129
808	0.129
809	0.129
809	0.129
810	0.129
810	0.128
810	0.128
811	0.128
811	0.128
812	0.128
812	0.128
813	0.128
813	0.128
813	0.128
814	0.128
814	0.128
815	0.128
815	0.128
816	0.128
816	0.127
817	0.127
817	0.126
817	0.125
818	0.125
818	0.124
819	0.123
819	0.122
820	0.121
820	0.12
820	0.119
821	0.118
821	0.118
822	0.117
822	0.117
823	0.117
823	0.117
823	0.117
824	0.118
824	0.119
825	0.12
825	0.12
826	0.121
826	0.121
826	0.121
827	0.121
827	0.121
828	0.121
828	0.12
829	0.12
829	0.12
829	0.119
830	0.119
830	0.119
831	0.119
831	0.119
832	0.119
832	0.118
832	0.118
833	0.118
833	0.118
834	0.117
834	0.117
835	0.117
835	0.116
835	0.116
836	0.116
836	0.116
837	0.115
837	0.114
838	0.114
838	0.113
839	0.112
839	0.111
839	0.11
840	0.109
840	0.108
841	0.107
841	0.106
842	0.105
842	0.105
842	0.104
843	0.104
843	0.103
844	0.103
844	0.103
845	0.103
845	0.103
845	0.102
846	0.102
846	0.101
847	0.101
847	0.101
848	0.101
848	0.101
848	0.101
849	0.101
849	0.101
850	0.101
850	0.101
851	0.102
851	0.101
851	0.101
852	0.101
852	0.1
853	0.1
853	0.099
854	0.099
854	0.098
854	0.099
855	0.099
855	0.099
856	0.099
856	0.099
857	0.1
857	0.1
857	0.1
858	0.099
858	0.099
859	0.098
859	0.097
860	0.097
860	0.096
860	0.096
861	0.095
861	0.095
862	0.094
862	0.094
863	0.094
863	0.094
863	0.093
864	0.093
864	0.092
865	0.092
865	0.091
866	0.09
866	0.089
866	0.088
867	0.088
867	0.088
868	0.087
868	0.087
869	0.087
869	0.087
869	0.087
870	0.088
870	0.088
871	0.088
871	0.089
872	0.089
872	0.089
872	0.089
873	0.089
873	0.089
874	0.089
874	0.088
875	0.088
875	0.088
875	0.088
876	0.088
876	0.087
877	0.087
877	0.087
878	0.087
878	0.088
878	0.088
879	0.088
879	0.088
880	0.088
880	0.088
881	0.088
881	0.087
881	0.087
882	0.086
882	0.085
883	0.084
883	0.083
884	0.081
884	0.08
884	0.079
885	0.078
885	0.077
886	0.076
886	0.075
887	0.074
887	0.073
887	0.072
888	0.071
888	0.071
889	0.07
889	0.07
890	0.071
890	0.071
890	0.071
891	0.072
891	0.072
892	0.073
892	0.074
893	0.075
893	0.076
893	0.076
894	0.076
894	0.076
895	0.076
895	0.076
895	0.076
896	0.076
896	0.076
897	0.075
897	0.075
898	0.074
898	0.074
898	0.074
899	0.073
899	0.073
900	0.073
900	0.072
901	0.072
901	0.072
901	0.072
902	0.071
902	0.071
903	0.07
903	0.07
904	0.069
904	0.069
904	0.068
905	0.067
905	0.067
906	0.066
906	0.066
907	0.066
907	0.066
907	0.066
908	0.066
908	0.066
909	0.066
909	0.067
910	0.067
910	0.067
910	0.067
911	0.066
911	0.066
912	0.066
912	0.065
913	0.065
913	0.064
913	0.064
914	0.063
914	0.063
915	0.063
915	0.062
916	0.062
916	0.061
916	0.061
917	0.06
917	0.06
918	0.059
918	0.059
918	0.059
919	0.059
919	0.058
920	0.058
920	0.059
921	0.059
921	0.059
921	0.059
922	0.06
922	0.06
923	0.061
923	0.061
924	0.062
924	0.063
924	0.063
925	0.063
925	0.063
926	0.063
926	0.063
927	0.063
927	0.063
927	0.062
928	0.061
928	0.061
929	0.06
929	0.06
930	0.06
930	0.059
930	0.059
931	0.059
931	0.059
932	0.058
932	0.058
933	0.058
933	0.058
933	0.058
934	0.058
934	0.057
935	0.057
935	0.057
935	0.057
936	0.057
936	0.056
937	0.056
937	0.056
938	0.055
938	0.055
938	0.055
939	0.054
939	0.054
940	0.054
940	0.054
941	0.054
941	0.055
941	0.055
942	0.055
942	0.055
943	0.055
943	0.055
944	0.055
944	0.055
944	0.055
945	0.055
945	0.054
946	0.054
946	0.054
946	0.054
947	0.053
947	0.053
948	0.053
948	0.052
949	0.052
949	0.051
949	0.051
950	0.05
950	0.05
951	0.05
951	0.049
952	0.049
952	0.048
952	0.048
953	0.047
953	0.047
954	0.046
954	0.045
955	0.045
955	0.044
955	0.044
956	0.044
956	0.044
957	0.044
957	0.043
957	0.044
958	0.044
958	0.044
959	0.044
959	0.044
960	0.044
960	0.044
960	0.043
961	0.043
961	0.043
962	0.043
962	0.043
963	0.043
963	0.044
963	0.044
964	0.045
964	0.045
965	0.046
965	0.047
966	0.048
966	0.048
966	0.049
967	0.049
967	0.05
968	0.05
968	0.051
968	0.051
969	0.051
969	0.051
970	0.05
970	0.05
971	0.05
971	0.049
971	0.049
972	0.048
972	0.048
973	0.047
973	0.047
974	0.046
974	0.046
974	0.046
975	0.046
975	0.046
976	0.045
976	0.045
976	0.045
977	0.045
977	0.045
978	0.045
978	0.045
979	0.045
979	0.045
979	0.045
980	0.044
980	0.044
981	0.044
981	0.043
982	0.043
982	0.043
982	0.043
983	0.043
983	0.042
984	0.042
984	0.042
984	0.042
985	0.042
985	0.042
986	0.042
986	0.042
987	0.041
987	0.041
987	0.041
988	0.04
988	0.04
989	0.04
989	0.039
990	0.039
990	0.038
990	0.038
991	0.037
991	0.037
992	0.036
992	0.036
992	0.035
993	0.035
993	0.034
994	0.034
994	0.033
995	0.033
995	0.032
995	0.032
996	0.032
996	0.032
997	0.033
997	0.033
997	0.034
998	0.035
998	0.036
999	0.037
999	0.038
1000	0.039
1000	0.04
1000	0.04
1001	0.041
1001	0.041
1002	0.041
1002	0.041
1003	0.041
1003	0.041
1003	0.041
1004	0.041
1004	0.04
1005	0.04
1005	0.04
1005	0.039
1006	0.039
1006	0.039
1007	0.039
1007	0.038
1008	0.038
1008	0.038
1008	0.038
1009	0.038
1009	0.038
1010	0.038
1010	0.039
1010	0.039
1011	0.039
1011	0.038
1012	0.038
1012	0.038
1013	0.038
1013	0.038
1013	0.037
1014	0.037
1014	0.036
1015	0.036
1015	0.035
1016	0.035
1016	0.035
1016	0.034
1017	0.034
1017	0.033
1018	0.033
1018	0.033
1018	0.033
1019	0.033
1019	0.033
1020	0.033
1020	0.033
1021	0.033
1021	0.033
1021	0.033
1022	0.033
1022	0.033
1023	0.033
1023	0.033
1023	0.033
1024	0.032
1024	0.032
1025	0.031
1025	0.031
1026	0.03
1026	0.029
1026	0.029
1027	0.028
1027	0.028
1028	0.027
1028	0.026
1028	0.026
1029	0.026
1029	0.025
1030	0.025
1030	0.024
1031	0.024
1031	0.024
1031	0.024
1032	0.024
1032	0.024
1033	0.024
1033	0.024
1033	0.024
1034	0.024
1034	0.024
1035	0.024
1035	0.024
1036	0.024
1036	0.024
1036	0.025
1037	0.025
1037	0.025
1038	0.025
1038	0.025
1039	0.025
1039	0.025
1039	0.025
1040	0.025
1040	0.025
1041	0.025
1041	0.025
1041	0.025
1042	0.025
1042	0.025
1043	0.025
1043	0.025
1044	0.025
1044	0.025
1044	0.026
1045	0.026
1045	0.026
1046	0.027
1046	0.028
1046	0.028
1047	0.029
1047	0.029
1048	0.03
1048	0.03
1049	0.03
1049	0.03
1049	0.03
1050	0.03
1050	0.03
1051	0.029
1051	0.029
1051	0.028
1052	0.028
1052	0.027
1053	0.026
1053	0.026
1053	0.025
1054	0.024
1054	0.024
1055	0.024
1055	0.024
1056	0.023
1056	0.023
1056	0.022
1057	0.022
1057	0.022
1058	0.021
1058	0.02
1058	0.02
1059	0.019
1059	0.019
1060	0.019
1060	0.018
1061	0.018
1061	0.018
1061	0.018
1062	0.017
1062	0.018
1063	0.018
1063	0.017
1063	0.017
1064	0.017
1064	0.017
1065	0.017
1065	0.017
1066	0.017
1066	0.017
1066	0.016
1067	0.016
1067	0.016
1068	0.016
1068	0.016
1068	0.015
1069	0.015
1069	0.014
1070	0.014
1070	0.013
1071	0.012
1071	0.012
1071	0.011
1072	0.01
1072	0.01
1073	0.009
1073	0.009
1073	0.009
1074	0.009
1074	0.01
1075	0.009
1075	0.01
1076	0.011
1076	0.012
1076	0.012
1077	0.012
1077	0.013
1078	0.013
1078	0.014
1078	0.014
1079	0.014
1079	0.015
1080	0.015
1080	0.015
1080	0.015
1081	0.015
1081	0.015
1082	0.015
1082	0.015
1083	0.015
1083	0.014
1083	0.014
1084	0.013
1084	0.013
1085	0.013
1085	0.012
1085	0.012
1086	0.012
1086	0.011
1087	0.01
1087	0.01
1088	0.009
1088	0.009
1088	0.009
1089	0.009
1089	0.008
1090	0.007
1090	0.007
1090	0.006
1091	0.006
1091	0.006
1092	0.006
1092	0.006
1092	0.007
1093	0.006
1093	0.007
1094	0.007
1094	0.008
1095	0.007
1095	0.008
1095	0.007
1096	0.007
1096	0.006
1097	0.005
1097	0.005
1097	0.004
1098	0.003
1098	0.002
1099	0.001
1099	0.001
1100	-0
1100	-0.001
1100	-0.002
1101	-0.003
1101	-0.004
1102	-0.006
1102	-0.006
1102	-0.007
1103	-0.007
1103	-0.007
1104	-0.009
1104	-0.008
1104	-0.009
1105	-0.01
1105	-0.01
1106	-0.011
1106	-0.012
1107	-0.014
1107	-0.015
1107	-0.016
1108	-0.017
1108	-0.018
1109	-0.02
1109	-0.022
1109	-0.021
1110	-0.022
1110	-0.023
1111	-0.021
1111	-0.02
