Data from reversibility-20sec_Absorbance__3587__000000000003587.txt Node

Date: Wed Dec 06 08:08:47 CET 2023
User: Marek
Spectrometer: MAYP115816
Trigger mode: 0
Integration Time (sec): 2.000000E-1
Scans to average: 10
Electric dark correction enabled: true
Nonlinearity correction enabled: true
Boxcar width: 5
XAxis mode: Wavelengths
Number of Pixels in Spectrum: 2068
>>>>>Begin Spectral Data<<<<<
199	-0.148
199	-0.114
200	-0.047
200	0.004
201	0.034
201	0.051
202	0.062
202	0.072
203	0.08
203	0.082
204	0.098
204	0.11
205	0.122
205	0.125
205	0.125
206	0.125
206	0.126
207	0.129
207	0.127
208	0.126
208	0.127
209	0.129
209	0.126
210	0.127
210	0.131
211	0.128
211	0.13
212	0.13
212	0.131
213	0.137
213	0.138
213	0.137
214	0.139
214	0.141
215	0.143
215	0.143
216	0.15
216	0.149
217	0.151
217	0.151
218	0.146
218	0.151
219	0.159
219	0.16
220	0.163
220	0.165
221	0.166
221	0.164
221	0.17
222	0.176
222	0.181
223	0.189
223	0.193
224	0.199
224	0.208
225	0.216
225	0.226
226	0.237
226	0.249
227	0.26
227	0.268
228	0.285
228	0.3
229	0.317
229	0.338
229	0.36
230	0.384
230	0.413
231	0.44
231	0.48
232	0.515
232	0.563
233	0.608
233	0.657
234	0.708
234	0.761
235	0.814
235	0.871
236	0.923
236	0.977
236	1.028
237	1.08
237	1.126
238	1.171
238	1.215
239	1.264
239	1.304
240	1.344
240	1.38
241	1.413
241	1.451
242	1.478
242	1.512
243	1.543
243	1.572
243	1.599
244	1.618
244	1.638
245	1.655
245	1.679
246	1.7
246	1.716
247	1.733
247	1.744
248	1.754
248	1.766
249	1.772
249	1.78
250	1.789
250	1.796
250	1.799
251	1.801
251	1.802
252	1.807
252	1.808
253	1.809
253	1.809
254	1.81
254	1.812
255	1.809
255	1.808
256	1.806
256	1.806
257	1.806
257	1.804
258	1.803
258	1.804
258	1.801
259	1.801
259	1.8
260	1.8
260	1.802
261	1.802
261	1.806
262	1.807
262	1.807
263	1.81
263	1.811
264	1.813
264	1.814
265	1.815
265	1.817
265	1.815
266	1.815
266	1.813
267	1.811
267	1.811
268	1.811
268	1.81
269	1.812
269	1.811
270	1.811
270	1.808
271	1.806
271	1.806
272	1.803
272	1.803
272	1.8
273	1.794
273	1.789
274	1.783
274	1.777
275	1.77
275	1.764
276	1.756
276	1.749
277	1.741
277	1.731
278	1.72
278	1.708
278	1.692
279	1.675
279	1.655
280	1.632
280	1.603
281	1.571
281	1.533
282	1.492
282	1.451
283	1.411
283	1.373
284	1.335
284	1.298
285	1.264
285	1.232
285	1.204
286	1.178
286	1.156
287	1.137
287	1.121
288	1.107
288	1.095
289	1.084
289	1.075
290	1.067
290	1.06
291	1.054
291	1.049
292	1.045
292	1.04
292	1.036
293	1.033
293	1.029
294	1.026
294	1.023
295	1.02
295	1.017
296	1.014
296	1.011
297	1.008
297	1.005
298	1.002
298	0.999
298	0.996
299	0.994
299	0.991
300	0.988
300	0.985
301	0.983
301	0.98
302	0.978
302	0.975
303	0.973
303	0.971
304	0.969
304	0.966
305	0.964
305	0.962
305	0.959
306	0.957
306	0.955
307	0.952
307	0.95
308	0.947
308	0.945
309	0.942
309	0.939
310	0.936
310	0.933
311	0.93
311	0.927
311	0.923
312	0.92
312	0.917
313	0.913
313	0.909
314	0.906
314	0.902
315	0.897
315	0.893
316	0.889
316	0.885
317	0.88
317	0.876
318	0.871
318	0.866
318	0.861
319	0.855
319	0.85
320	0.844
320	0.838
321	0.833
321	0.827
322	0.82
322	0.814
323	0.808
323	0.802
324	0.795
324	0.789
324	0.782
325	0.776
325	0.769
326	0.763
326	0.756
327	0.749
327	0.743
328	0.736
328	0.729
329	0.722
329	0.715
330	0.708
330	0.702
330	0.695
331	0.688
331	0.681
332	0.674
332	0.668
333	0.661
333	0.654
334	0.647
334	0.641
335	0.634
335	0.627
336	0.62
336	0.614
336	0.607
337	0.601
337	0.595
338	0.588
338	0.583
339	0.577
339	0.571
340	0.565
340	0.559
341	0.554
341	0.549
342	0.544
342	0.538
342	0.533
343	0.528
343	0.523
344	0.518
344	0.513
345	0.508
345	0.504
346	0.499
346	0.495
347	0.49
347	0.486
348	0.482
348	0.478
348	0.474
349	0.471
349	0.467
350	0.463
350	0.46
351	0.456
351	0.454
352	0.45
352	0.447
353	0.445
353	0.442
354	0.439
354	0.436
354	0.433
355	0.43
355	0.427
356	0.424
356	0.421
357	0.418
357	0.415
358	0.412
358	0.409
359	0.407
359	0.405
360	0.403
360	0.401
360	0.399
361	0.397
361	0.395
362	0.394
362	0.392
363	0.39
363	0.388
364	0.386
364	0.385
365	0.383
365	0.381
366	0.379
366	0.377
366	0.376
367	0.374
367	0.372
368	0.371
368	0.369
369	0.368
369	0.366
370	0.365
370	0.364
371	0.362
371	0.361
372	0.359
372	0.358
372	0.357
373	0.356
373	0.355
374	0.354
374	0.352
375	0.351
375	0.35
376	0.349
376	0.348
377	0.347
377	0.346
378	0.345
378	0.344
378	0.343
379	0.342
379	0.342
380	0.341
380	0.34
381	0.339
381	0.339
382	0.338
382	0.337
383	0.337
383	0.336
383	0.335
384	0.335
384	0.334
385	0.333
385	0.333
386	0.332
386	0.332
387	0.331
387	0.331
388	0.33
388	0.33
389	0.329
389	0.329
389	0.328
390	0.328
390	0.327
391	0.326
391	0.326
392	0.326
392	0.325
393	0.325
393	0.324
394	0.324
394	0.324
394	0.323
395	0.323
395	0.322
396	0.322
396	0.321
397	0.321
397	0.32
398	0.32
398	0.32
399	0.319
399	0.319
400	0.318
400	0.318
400	0.318
401	0.317
401	0.317
402	0.316
402	0.316
403	0.315
403	0.315
404	0.315
404	0.314
405	0.314
405	0.314
405	0.313
406	0.313
406	0.312
407	0.312
407	0.312
408	0.311
408	0.311
409	0.311
409	0.31
410	0.31
410	0.31
411	0.309
411	0.309
411	0.309
412	0.309
412	0.308
413	0.308
413	0.307
414	0.307
414	0.307
415	0.306
415	0.306
416	0.306
416	0.305
416	0.305
417	0.304
417	0.304
418	0.304
418	0.304
419	0.303
419	0.303
420	0.302
420	0.302
421	0.302
421	0.301
421	0.301
422	0.301
422	0.3
423	0.3
423	0.3
424	0.299
424	0.299
425	0.299
425	0.298
426	0.298
426	0.298
427	0.297
427	0.297
427	0.297
428	0.296
428	0.296
429	0.296
429	0.295
430	0.295
430	0.295
431	0.295
431	0.294
432	0.294
432	0.294
432	0.294
433	0.293
433	0.293
434	0.293
434	0.293
435	0.293
435	0.292
436	0.292
436	0.292
437	0.292
437	0.292
437	0.292
438	0.291
438	0.291
439	0.291
439	0.291
440	0.29
440	0.29
441	0.29
441	0.29
442	0.29
442	0.289
442	0.289
443	0.289
443	0.289
444	0.289
444	0.288
445	0.288
445	0.288
446	0.288
446	0.288
447	0.288
447	0.287
447	0.287
448	0.287
448	0.287
449	0.287
449	0.287
450	0.287
450	0.287
451	0.287
451	0.287
452	0.287
452	0.287
452	0.287
453	0.287
453	0.286
454	0.286
454	0.286
455	0.286
455	0.286
456	0.286
456	0.286
457	0.285
457	0.285
458	0.285
458	0.285
458	0.285
459	0.285
459	0.285
460	0.285
460	0.285
461	0.285
461	0.285
462	0.285
462	0.285
463	0.285
463	0.285
463	0.285
464	0.285
464	0.284
465	0.284
465	0.284
466	0.284
466	0.285
467	0.285
467	0.285
467	0.285
468	0.285
468	0.285
469	0.286
469	0.286
470	0.286
470	0.286
471	0.287
471	0.287
472	0.287
472	0.287
472	0.288
473	0.288
473	0.288
474	0.288
474	0.288
475	0.288
475	0.288
476	0.289
476	0.289
477	0.289
477	0.29
477	0.29
478	0.29
478	0.29
479	0.291
479	0.291
480	0.292
480	0.292
481	0.292
481	0.293
482	0.293
482	0.294
482	0.294
483	0.295
483	0.296
484	0.297
484	0.297
485	0.298
485	0.298
486	0.299
486	0.299
487	0.3
487	0.3
487	0.301
488	0.302
488	0.302
489	0.303
489	0.304
490	0.305
490	0.306
491	0.307
491	0.308
492	0.309
492	0.31
492	0.311
493	0.312
493	0.313
494	0.314
494	0.315
495	0.316
495	0.317
496	0.318
496	0.319
496	0.32
497	0.321
497	0.322
498	0.322
498	0.323
499	0.324
499	0.325
500	0.327
500	0.328
501	0.329
501	0.33
501	0.331
502	0.332
502	0.333
503	0.334
503	0.335
504	0.336
504	0.337
505	0.337
505	0.338
506	0.339
506	0.34
506	0.341
507	0.342
507	0.343
508	0.344
508	0.345
509	0.346
509	0.347
510	0.348
510	0.349
511	0.35
511	0.351
511	0.352
512	0.352
512	0.353
513	0.354
513	0.354
514	0.355
514	0.356
515	0.357
515	0.357
515	0.358
516	0.358
516	0.359
517	0.359
517	0.36
518	0.36
518	0.361
519	0.361
519	0.361
520	0.361
520	0.362
520	0.362
521	0.362
521	0.363
522	0.363
522	0.363
523	0.364
523	0.364
524	0.363
524	0.363
524	0.363
525	0.363
525	0.363
526	0.362
526	0.362
527	0.361
527	0.361
528	0.361
528	0.36
529	0.36
529	0.359
529	0.358
530	0.358
530	0.357
531	0.357
531	0.356
532	0.355
532	0.354
533	0.353
533	0.352
533	0.351
534	0.35
534	0.349
535	0.348
535	0.347
536	0.346
536	0.345
537	0.343
537	0.342
538	0.341
538	0.34
538	0.339
539	0.337
539	0.336
540	0.335
540	0.334
541	0.333
541	0.332
542	0.331
542	0.33
542	0.328
543	0.327
543	0.326
544	0.325
544	0.323
545	0.322
545	0.321
546	0.32
546	0.318
547	0.317
547	0.315
547	0.314
548	0.312
548	0.311
549	0.309
549	0.308
550	0.306
550	0.305
551	0.303
551	0.301
551	0.3
552	0.299
552	0.297
553	0.296
553	0.295
554	0.293
554	0.291
555	0.29
555	0.288
556	0.287
556	0.285
556	0.284
557	0.283
557	0.282
558	0.281
558	0.28
559	0.279
559	0.278
560	0.277
560	0.276
560	0.274
561	0.274
561	0.272
562	0.271
562	0.269
563	0.267
563	0.266
564	0.264
564	0.263
564	0.262
565	0.261
565	0.26
566	0.258
566	0.257
567	0.256
567	0.255
568	0.254
568	0.253
568	0.252
569	0.251
569	0.249
570	0.248
570	0.246
571	0.245
571	0.244
572	0.243
572	0.242
573	0.241
573	0.24
573	0.239
574	0.238
574	0.237
575	0.236
575	0.236
576	0.235
576	0.234
577	0.232
577	0.231
577	0.23
578	0.229
578	0.228
579	0.228
579	0.227
580	0.226
580	0.225
581	0.224
581	0.223
581	0.223
582	0.223
582	0.222
583	0.222
583	0.221
584	0.22
584	0.218
585	0.218
585	0.217
585	0.216
586	0.215
586	0.215
587	0.214
587	0.213
588	0.212
588	0.211
589	0.21
589	0.21
590	0.209
590	0.209
590	0.208
591	0.208
591	0.207
592	0.206
592	0.205
593	0.204
593	0.203
594	0.202
594	0.201
594	0.2
595	0.199
595	0.199
596	0.198
596	0.198
597	0.198
597	0.198
598	0.198
598	0.198
598	0.198
599	0.197
599	0.197
600	0.196
600	0.196
601	0.195
601	0.195
602	0.194
602	0.193
602	0.192
603	0.191
603	0.191
604	0.19
604	0.19
605	0.19
605	0.189
606	0.189
606	0.188
606	0.188
607	0.187
607	0.186
608	0.186
608	0.185
609	0.184
609	0.184
610	0.183
610	0.182
610	0.182
611	0.182
611	0.182
612	0.181
612	0.182
613	0.182
613	0.181
614	0.181
614	0.18
614	0.18
615	0.18
615	0.18
616	0.18
616	0.18
617	0.179
617	0.179
618	0.178
618	0.178
618	0.178
619	0.178
619	0.178
620	0.178
620	0.178
621	0.177
621	0.177
622	0.176
622	0.176
622	0.175
623	0.174
623	0.174
624	0.174
624	0.173
625	0.172
625	0.172
626	0.172
626	0.172
626	0.172
627	0.171
627	0.171
628	0.171
628	0.171
629	0.17
629	0.17
630	0.17
630	0.169
630	0.169
631	0.169
631	0.168
632	0.168
632	0.168
633	0.168
633	0.168
634	0.168
634	0.168
634	0.168
635	0.168
635	0.167
636	0.167
636	0.167
637	0.167
637	0.166
638	0.166
638	0.166
638	0.165
639	0.165
639	0.164
640	0.164
640	0.164
641	0.164
641	0.163
642	0.163
642	0.163
642	0.163
643	0.163
643	0.163
644	0.163
644	0.163
645	0.163
645	0.163
646	0.164
646	0.164
646	0.164
647	0.164
647	0.164
648	0.163
648	0.163
649	0.163
649	0.162
650	0.162
650	0.162
650	0.162
651	0.162
651	0.161
652	0.161
652	0.161
653	0.162
653	0.163
653	0.169
654	0.133
654	0.107
655	0.107
655	0.107
656	0.108
656	0.108
657	0.108
657	0.108
657	0.108
658	0.107
658	0.098
659	0.123
659	0.157
660	0.161
660	0.161
661	0.16
661	0.159
661	0.159
662	0.158
662	0.158
663	0.157
663	0.157
664	0.156
664	0.156
665	0.156
665	0.156
665	0.156
666	0.156
666	0.156
667	0.157
667	0.157
668	0.158
668	0.158
669	0.158
669	0.158
669	0.158
670	0.159
670	0.158
671	0.158
671	0.158
672	0.158
672	0.157
672	0.156
673	0.156
673	0.155
674	0.155
674	0.154
675	0.153
675	0.153
676	0.153
676	0.153
676	0.153
677	0.154
677	0.154
678	0.154
678	0.154
679	0.154
679	0.155
680	0.155
680	0.155
680	0.155
681	0.155
681	0.155
682	0.155
682	0.155
683	0.155
683	0.156
684	0.156
684	0.156
684	0.155
685	0.155
685	0.156
686	0.156
686	0.155
687	0.155
687	0.155
687	0.156
688	0.156
688	0.156
689	0.156
689	0.157
690	0.157
690	0.157
691	0.157
691	0.157
691	0.157
692	0.157
692	0.158
693	0.158
693	0.158
694	0.158
694	0.158
695	0.158
695	0.159
695	0.159
696	0.159
696	0.16
697	0.16
697	0.159
698	0.159
698	0.159
698	0.159
699	0.159
699	0.158
700	0.158
700	0.157
701	0.157
701	0.157
702	0.156
702	0.155
702	0.155
703	0.155
703	0.154
704	0.154
704	0.154
705	0.154
705	0.154
705	0.154
706	0.154
706	0.154
707	0.155
707	0.155
708	0.155
708	0.155
709	0.155
709	0.155
709	0.154
710	0.154
710	0.154
711	0.154
711	0.154
712	0.154
712	0.154
713	0.154
713	0.154
713	0.154
714	0.154
714	0.154
715	0.154
715	0.154
716	0.153
716	0.153
716	0.152
717	0.151
717	0.151
718	0.15
718	0.15
719	0.15
719	0.15
720	0.151
720	0.151
720	0.152
721	0.153
721	0.154
722	0.154
722	0.155
723	0.155
723	0.156
723	0.156
724	0.155
724	0.155
725	0.154
725	0.153
726	0.153
726	0.152
727	0.152
727	0.151
727	0.151
728	0.151
728	0.151
729	0.152
729	0.152
730	0.152
730	0.153
730	0.153
731	0.153
731	0.154
732	0.154
732	0.155
733	0.155
733	0.155
734	0.156
734	0.156
734	0.156
735	0.156
735	0.156
736	0.156
736	0.156
737	0.155
737	0.155
737	0.155
738	0.154
738	0.153
739	0.153
739	0.153
740	0.153
740	0.153
741	0.153
741	0.153
741	0.153
742	0.153
742	0.154
743	0.155
743	0.155
744	0.156
744	0.156
744	0.156
745	0.156
745	0.157
746	0.157
746	0.157
747	0.157
747	0.157
748	0.157
748	0.158
748	0.158
749	0.158
749	0.158
750	0.158
750	0.158
751	0.158
751	0.158
751	0.158
752	0.158
752	0.157
753	0.157
753	0.156
754	0.156
754	0.155
754	0.154
755	0.154
755	0.154
756	0.153
756	0.152
757	0.152
757	0.152
758	0.152
758	0.152
758	0.152
759	0.153
759	0.152
760	0.152
760	0.152
761	0.152
761	0.153
761	0.153
762	0.153
762	0.154
763	0.154
763	0.153
764	0.153
764	0.153
764	0.153
765	0.152
765	0.152
766	0.152
766	0.151
767	0.151
767	0.15
768	0.149
768	0.149
768	0.149
769	0.149
769	0.149
770	0.149
770	0.15
771	0.15
771	0.151
771	0.151
772	0.152
772	0.152
773	0.152
773	0.153
774	0.153
774	0.153
775	0.154
775	0.154
775	0.154
776	0.154
776	0.154
777	0.155
777	0.155
778	0.154
778	0.154
778	0.153
779	0.153
779	0.152
780	0.151
780	0.15
781	0.149
781	0.149
781	0.148
782	0.148
782	0.148
783	0.148
783	0.148
784	0.148
784	0.148
784	0.149
785	0.149
785	0.149
786	0.149
786	0.15
787	0.15
787	0.15
788	0.15
788	0.15
788	0.149
789	0.149
789	0.149
790	0.148
790	0.148
791	0.147
791	0.146
791	0.146
792	0.146
792	0.146
793	0.146
793	0.145
794	0.145
794	0.145
794	0.145
795	0.145
795	0.145
796	0.145
796	0.145
797	0.145
797	0.145
797	0.145
798	0.145
798	0.145
799	0.145
799	0.144
800	0.144
800	0.143
801	0.143
801	0.142
801	0.142
802	0.141
802	0.141
803	0.141
803	0.141
804	0.141
804	0.141
804	0.141
805	0.141
805	0.141
806	0.141
806	0.141
807	0.142
807	0.142
807	0.142
808	0.142
808	0.142
809	0.142
809	0.142
810	0.142
810	0.142
810	0.142
811	0.142
811	0.142
812	0.142
812	0.142
813	0.142
813	0.142
813	0.142
814	0.142
814	0.142
815	0.142
815	0.142
816	0.141
816	0.141
817	0.14
817	0.139
817	0.138
818	0.138
818	0.137
819	0.136
819	0.136
820	0.135
820	0.134
820	0.134
821	0.134
821	0.134
822	0.134
822	0.134
823	0.134
823	0.134
823	0.134
824	0.135
824	0.136
825	0.137
825	0.138
826	0.138
826	0.138
826	0.138
827	0.139
827	0.139
828	0.139
828	0.138
829	0.138
829	0.138
829	0.138
830	0.138
830	0.138
831	0.139
831	0.139
832	0.139
832	0.139
832	0.139
833	0.138
833	0.138
834	0.137
834	0.137
835	0.136
835	0.135
835	0.134
836	0.133
836	0.133
837	0.132
837	0.132
838	0.131
838	0.13
839	0.129
839	0.128
839	0.127
840	0.126
840	0.125
841	0.124
841	0.124
842	0.123
842	0.122
842	0.122
843	0.121
843	0.121
844	0.121
844	0.121
845	0.121
845	0.121
845	0.122
846	0.122
846	0.122
847	0.122
847	0.122
848	0.122
848	0.121
848	0.121
849	0.12
849	0.12
850	0.119
850	0.118
851	0.117
851	0.117
851	0.116
852	0.115
852	0.115
853	0.114
853	0.114
854	0.114
854	0.115
854	0.115
855	0.116
855	0.117
856	0.118
856	0.118
857	0.119
857	0.12
857	0.12
858	0.12
858	0.12
859	0.119
859	0.118
860	0.117
860	0.116
860	0.115
861	0.113
861	0.112
862	0.111
862	0.11
863	0.109
863	0.109
863	0.108
864	0.108
864	0.108
865	0.108
865	0.108
866	0.108
866	0.108
866	0.108
867	0.108
867	0.108
868	0.108
868	0.107
869	0.107
869	0.106
869	0.105
870	0.105
870	0.105
871	0.105
871	0.105
872	0.105
872	0.105
872	0.105
873	0.105
873	0.105
874	0.104
874	0.104
875	0.104
875	0.104
875	0.103
876	0.103
876	0.102
877	0.102
877	0.102
878	0.102
878	0.102
878	0.103
879	0.103
879	0.104
880	0.104
880	0.104
881	0.104
881	0.104
881	0.104
882	0.104
882	0.104
883	0.103
883	0.103
884	0.103
884	0.102
884	0.102
885	0.101
885	0.101
886	0.1
886	0.1
887	0.099
887	0.098
887	0.097
888	0.096
888	0.095
889	0.095
889	0.095
890	0.094
890	0.094
890	0.093
891	0.093
891	0.092
892	0.092
892	0.092
893	0.091
893	0.091
893	0.091
894	0.09
894	0.09
895	0.089
895	0.089
895	0.089
896	0.089
896	0.089
897	0.089
897	0.088
898	0.088
898	0.088
898	0.088
899	0.088
899	0.089
900	0.089
900	0.089
901	0.089
901	0.089
901	0.09
902	0.09
902	0.09
903	0.09
903	0.09
904	0.09
904	0.09
904	0.09
905	0.09
905	0.09
906	0.09
906	0.091
907	0.092
907	0.093
907	0.094
908	0.094
908	0.095
909	0.096
909	0.096
910	0.096
910	0.096
910	0.096
911	0.095
911	0.094
912	0.094
912	0.093
913	0.092
913	0.092
913	0.091
914	0.09
914	0.09
915	0.089
915	0.089
916	0.089
916	0.088
916	0.088
917	0.087
917	0.087
918	0.086
918	0.086
918	0.085
919	0.084
919	0.084
920	0.083
920	0.083
921	0.082
921	0.081
921	0.081
922	0.081
922	0.08
923	0.081
923	0.081
924	0.081
924	0.081
924	0.081
925	0.081
925	0.081
926	0.082
926	0.082
927	0.082
927	0.082
927	0.082
928	0.082
928	0.082
929	0.082
929	0.082
930	0.082
930	0.082
930	0.082
931	0.082
931	0.082
932	0.082
932	0.082
933	0.082
933	0.082
933	0.082
934	0.082
934	0.082
935	0.083
935	0.083
935	0.083
936	0.083
936	0.083
937	0.083
937	0.082
938	0.082
938	0.081
938	0.081
939	0.08
939	0.079
940	0.079
940	0.078
941	0.077
941	0.077
941	0.077
942	0.077
942	0.076
943	0.076
943	0.076
944	0.076
944	0.076
944	0.076
945	0.076
945	0.076
946	0.076
946	0.076
946	0.076
947	0.077
947	0.077
948	0.077
948	0.078
949	0.078
949	0.078
949	0.078
950	0.078
950	0.078
951	0.078
951	0.077
952	0.076
952	0.075
952	0.074
953	0.073
953	0.072
954	0.072
954	0.071
955	0.071
955	0.07
955	0.07
956	0.07
956	0.07
957	0.071
957	0.071
957	0.072
958	0.072
958	0.073
959	0.073
959	0.074
960	0.074
960	0.075
960	0.075
961	0.075
961	0.075
962	0.076
962	0.075
963	0.075
963	0.075
963	0.075
964	0.075
964	0.075
965	0.075
965	0.075
966	0.076
966	0.076
966	0.076
967	0.076
967	0.076
968	0.077
968	0.077
968	0.076
969	0.076
969	0.075
970	0.075
970	0.074
971	0.073
971	0.072
971	0.071
972	0.07
972	0.069
973	0.068
973	0.068
974	0.067
974	0.067
974	0.067
975	0.067
975	0.066
976	0.067
976	0.067
976	0.067
977	0.066
977	0.066
978	0.066
978	0.066
979	0.065
979	0.065
979	0.065
980	0.064
980	0.064
981	0.064
981	0.064
982	0.064
982	0.063
982	0.064
983	0.064
983	0.064
984	0.064
984	0.064
984	0.064
985	0.064
985	0.064
986	0.064
986	0.064
987	0.064
987	0.063
987	0.063
988	0.063
988	0.063
989	0.062
989	0.062
990	0.062
990	0.061
990	0.061
991	0.061
991	0.061
992	0.062
992	0.062
992	0.061
993	0.061
993	0.061
994	0.061
994	0.061
995	0.061
995	0.061
995	0.061
996	0.061
996	0.061
997	0.061
997	0.061
997	0.061
998	0.061
998	0.062
999	0.062
999	0.062
1000	0.063
1000	0.063
1000	0.063
1001	0.063
1001	0.063
1002	0.062
1002	0.062
1003	0.062
1003	0.061
1003	0.061
1004	0.06
1004	0.059
1005	0.059
1005	0.058
1005	0.058
1006	0.057
1006	0.057
1007	0.057
1007	0.057
1008	0.057
1008	0.057
1008	0.057
1009	0.058
1009	0.058
1010	0.058
1010	0.059
1010	0.06
1011	0.06
1011	0.06
1012	0.061
1012	0.061
1013	0.061
1013	0.061
1013	0.061
1014	0.061
1014	0.06
1015	0.06
1015	0.059
1016	0.059
1016	0.058
1016	0.057
1017	0.057
1017	0.057
1018	0.056
1018	0.056
1018	0.056
1019	0.056
1019	0.055
1020	0.055
1020	0.055
1021	0.056
1021	0.056
1021	0.056
1022	0.057
1022	0.057
1023	0.057
1023	0.057
1023	0.058
1024	0.058
1024	0.058
1025	0.058
1025	0.058
1026	0.058
1026	0.058
1026	0.058
1027	0.058
1027	0.058
1028	0.058
1028	0.057
1028	0.057
1029	0.057
1029	0.057
1030	0.057
1030	0.057
1031	0.057
1031	0.058
1031	0.058
1032	0.057
1032	0.057
1033	0.057
1033	0.057
1033	0.057
1034	0.057
1034	0.056
1035	0.056
1035	0.055
1036	0.054
1036	0.054
1036	0.054
1037	0.053
1037	0.053
1038	0.052
1038	0.052
1039	0.052
1039	0.052
1039	0.052
1040	0.053
1040	0.053
1041	0.053
1041	0.053
1041	0.053
1042	0.053
1042	0.053
1043	0.054
1043	0.054
1044	0.054
1044	0.054
1044	0.054
1045	0.054
1045	0.054
1046	0.055
1046	0.055
1046	0.055
1047	0.056
1047	0.056
1048	0.056
1048	0.057
1049	0.057
1049	0.058
1049	0.058
1050	0.058
1050	0.057
1051	0.058
1051	0.058
1051	0.057
1052	0.057
1052	0.057
1053	0.056
1053	0.056
1053	0.055
1054	0.055
1054	0.054
1055	0.054
1055	0.054
1056	0.053
1056	0.053
1056	0.052
1057	0.052
1057	0.051
1058	0.051
1058	0.05
1058	0.05
1059	0.049
1059	0.049
1060	0.049
1060	0.049
1061	0.049
1061	0.049
1061	0.049
1062	0.049
1062	0.049
1063	0.05
1063	0.05
1063	0.05
1064	0.049
1064	0.049
1065	0.049
1065	0.048
1066	0.048
1066	0.047
1066	0.047
1067	0.046
1067	0.046
1068	0.045
1068	0.045
1068	0.045
1069	0.044
1069	0.044
1070	0.043
1070	0.043
1071	0.043
1071	0.042
1071	0.042
1072	0.041
1072	0.041
1073	0.04
1073	0.039
1073	0.039
1074	0.039
1074	0.039
1075	0.039
1075	0.039
1076	0.039
1076	0.039
1076	0.039
1077	0.039
1077	0.039
1078	0.039
1078	0.039
1078	0.039
1079	0.039
1079	0.039
1080	0.039
1080	0.039
1080	0.039
1081	0.039
1081	0.04
1082	0.04
1082	0.041
1083	0.041
1083	0.041
1083	0.041
1084	0.042
1084	0.042
1085	0.042
1085	0.042
1085	0.042
1086	0.042
1086	0.042
1087	0.041
1087	0.041
1088	0.041
1088	0.041
1088	0.041
1089	0.04
1089	0.04
1090	0.039
1090	0.039
1090	0.038
1091	0.038
1091	0.037
1092	0.038
1092	0.039
1092	0.038
1093	0.038
1093	0.038
1094	0.038
1094	0.038
1095	0.038
1095	0.038
1095	0.038
1096	0.038
1096	0.037
1097	0.036
1097	0.036
1097	0.036
1098	0.036
1098	0.035
1099	0.035
1099	0.034
1100	0.034
1100	0.033
1100	0.033
1101	0.032
1101	0.031
1102	0.031
1102	0.031
1102	0.03
1103	0.03
1103	0.03
1104	0.029
1104	0.029
1104	0.029
1105	0.029
1105	0.027
1106	0.025
1106	0.025
1107	0.024
1107	0.023
1107	0.022
1108	0.02
1108	0.019
1109	0.018
1109	0.017
1109	0.016
1110	0.018
1110	0.019
1111	0.018
1111	0.018
