Data from reversibility-20sec_Absorbance__2126__000000000002126.txt Node

Date: Wed Dec 06 00:01:47 CET 2023
User: Marek
Spectrometer: MAYP115816
Trigger mode: 0
Integration Time (sec): 2.000000E-1
Scans to average: 10
Electric dark correction enabled: true
Nonlinearity correction enabled: true
Boxcar width: 5
XAxis mode: Wavelengths
Number of Pixels in Spectrum: 2068
>>>>>Begin Spectral Data<<<<<
199	-0.229
199	-0.189
200	-0.116
200	-0.057
201	-0.031
201	-0.016
202	-0.001
202	0.009
203	0.019
203	0.022
204	0.037
204	0.053
205	0.063
205	0.07
205	0.068
206	0.069
206	0.07
207	0.07
207	0.071
208	0.07
208	0.069
209	0.07
209	0.069
210	0.068
210	0.067
211	0.067
211	0.069
212	0.068
212	0.072
213	0.072
213	0.072
213	0.075
214	0.078
214	0.08
215	0.084
215	0.084
216	0.086
216	0.084
217	0.088
217	0.087
218	0.09
218	0.095
219	0.098
219	0.1
220	0.103
220	0.104
221	0.104
221	0.107
221	0.112
222	0.115
222	0.121
223	0.125
223	0.128
224	0.132
224	0.138
225	0.145
225	0.153
226	0.163
226	0.172
227	0.183
227	0.194
228	0.21
228	0.224
229	0.239
229	0.263
229	0.287
230	0.313
230	0.344
231	0.38
231	0.419
232	0.457
232	0.503
233	0.548
233	0.598
234	0.649
234	0.703
235	0.755
235	0.807
236	0.859
236	0.911
236	0.964
237	1.019
237	1.071
238	1.12
238	1.168
239	1.22
239	1.265
240	1.31
240	1.349
241	1.39
241	1.427
242	1.461
242	1.499
243	1.531
243	1.559
243	1.588
244	1.612
244	1.635
245	1.655
245	1.682
246	1.704
246	1.726
247	1.741
247	1.758
248	1.773
248	1.791
249	1.803
249	1.813
250	1.825
250	1.84
250	1.847
251	1.855
251	1.861
252	1.871
252	1.877
253	1.883
253	1.886
254	1.89
254	1.896
255	1.897
255	1.899
256	1.902
256	1.901
257	1.903
257	1.903
258	1.903
258	1.906
258	1.905
259	1.905
259	1.905
260	1.905
260	1.906
261	1.906
261	1.911
262	1.914
262	1.916
263	1.921
263	1.921
264	1.925
264	1.929
265	1.932
265	1.936
265	1.939
266	1.94
266	1.941
267	1.94
267	1.942
268	1.942
268	1.945
269	1.948
269	1.948
270	1.948
270	1.946
271	1.943
271	1.945
272	1.944
272	1.945
272	1.943
273	1.937
273	1.931
274	1.926
274	1.92
275	1.916
275	1.913
276	1.907
276	1.9
277	1.893
277	1.882
278	1.87
278	1.86
278	1.848
279	1.832
279	1.814
280	1.789
280	1.76
281	1.725
281	1.687
282	1.647
282	1.606
283	1.565
283	1.525
284	1.484
284	1.446
285	1.409
285	1.375
285	1.345
286	1.318
286	1.294
287	1.273
287	1.255
288	1.239
288	1.225
289	1.214
289	1.203
290	1.195
290	1.187
291	1.18
291	1.173
292	1.167
292	1.162
292	1.157
293	1.152
293	1.148
294	1.144
294	1.14
295	1.137
295	1.133
296	1.129
296	1.126
297	1.123
297	1.119
298	1.116
298	1.113
298	1.11
299	1.107
299	1.104
300	1.101
300	1.098
301	1.095
301	1.093
302	1.089
302	1.087
303	1.085
303	1.082
304	1.079
304	1.076
305	1.073
305	1.07
305	1.067
306	1.064
306	1.061
307	1.059
307	1.055
308	1.052
308	1.049
309	1.045
309	1.042
310	1.039
310	1.036
311	1.033
311	1.029
311	1.025
312	1.022
312	1.018
313	1.014
313	1.01
314	1.005
314	1.001
315	0.996
315	0.992
316	0.987
316	0.983
317	0.978
317	0.972
318	0.967
318	0.962
318	0.956
319	0.951
319	0.945
320	0.939
320	0.934
321	0.927
321	0.921
322	0.915
322	0.908
323	0.901
323	0.895
324	0.888
324	0.882
324	0.875
325	0.868
325	0.861
326	0.854
326	0.846
327	0.84
327	0.833
328	0.826
328	0.819
329	0.811
329	0.804
330	0.797
330	0.79
330	0.783
331	0.776
331	0.769
332	0.761
332	0.754
333	0.747
333	0.74
334	0.733
334	0.726
335	0.72
335	0.713
336	0.706
336	0.699
336	0.693
337	0.686
337	0.68
338	0.673
338	0.667
339	0.661
339	0.655
340	0.649
340	0.643
341	0.637
341	0.631
342	0.626
342	0.62
342	0.615
343	0.61
343	0.605
344	0.599
344	0.594
345	0.59
345	0.585
346	0.58
346	0.576
347	0.571
347	0.567
348	0.563
348	0.559
348	0.555
349	0.551
349	0.547
350	0.543
350	0.539
351	0.536
351	0.532
352	0.529
352	0.525
353	0.522
353	0.519
354	0.516
354	0.513
354	0.51
355	0.507
355	0.504
356	0.501
356	0.498
357	0.494
357	0.491
358	0.489
358	0.486
359	0.483
359	0.48
360	0.478
360	0.476
360	0.473
361	0.471
361	0.469
362	0.468
362	0.466
363	0.464
363	0.462
364	0.46
364	0.458
365	0.456
365	0.454
366	0.452
366	0.45
366	0.448
367	0.446
367	0.444
368	0.442
368	0.44
369	0.438
369	0.437
370	0.435
370	0.433
371	0.432
371	0.43
372	0.429
372	0.427
372	0.426
373	0.425
373	0.423
374	0.422
374	0.42
375	0.419
375	0.418
376	0.417
376	0.416
377	0.415
377	0.413
378	0.412
378	0.411
378	0.41
379	0.409
379	0.408
380	0.406
380	0.405
381	0.404
381	0.403
382	0.402
382	0.402
383	0.401
383	0.4
383	0.399
384	0.398
384	0.397
385	0.397
385	0.396
386	0.395
386	0.394
387	0.393
387	0.392
388	0.392
388	0.391
389	0.39
389	0.389
389	0.389
390	0.388
390	0.387
391	0.387
391	0.386
392	0.385
392	0.385
393	0.384
393	0.383
394	0.383
394	0.382
394	0.382
395	0.381
395	0.38
396	0.38
396	0.379
397	0.378
397	0.378
398	0.377
398	0.377
399	0.376
399	0.375
400	0.375
400	0.374
400	0.374
401	0.373
401	0.373
402	0.372
402	0.372
403	0.371
403	0.371
404	0.37
404	0.37
405	0.369
405	0.369
405	0.368
406	0.368
406	0.367
407	0.367
407	0.366
408	0.366
408	0.365
409	0.365
409	0.365
410	0.364
410	0.364
411	0.363
411	0.363
411	0.363
412	0.363
412	0.362
413	0.361
413	0.361
414	0.361
414	0.36
415	0.36
415	0.359
416	0.359
416	0.358
416	0.357
417	0.357
417	0.357
418	0.357
418	0.356
419	0.355
419	0.355
420	0.355
420	0.354
421	0.354
421	0.353
421	0.353
422	0.353
422	0.352
423	0.352
423	0.351
424	0.351
424	0.351
425	0.35
425	0.35
426	0.35
426	0.349
427	0.349
427	0.349
427	0.348
428	0.348
428	0.348
429	0.347
429	0.347
430	0.347
430	0.347
431	0.347
431	0.347
432	0.347
432	0.346
432	0.346
433	0.345
433	0.345
434	0.345
434	0.345
435	0.345
435	0.345
436	0.344
436	0.344
437	0.344
437	0.344
437	0.343
438	0.343
438	0.343
439	0.343
439	0.343
440	0.342
440	0.342
441	0.342
441	0.342
442	0.342
442	0.342
442	0.342
443	0.342
443	0.341
444	0.341
444	0.341
445	0.341
445	0.341
446	0.341
446	0.341
447	0.34
447	0.34
447	0.34
448	0.34
448	0.34
449	0.34
449	0.341
450	0.341
450	0.341
451	0.34
451	0.341
452	0.341
452	0.341
452	0.34
453	0.34
453	0.34
454	0.34
454	0.34
455	0.34
455	0.339
456	0.339
456	0.339
457	0.339
457	0.34
458	0.34
458	0.34
458	0.34
459	0.34
459	0.34
460	0.34
460	0.341
461	0.34
461	0.34
462	0.34
462	0.34
463	0.34
463	0.341
463	0.341
464	0.341
464	0.341
465	0.341
465	0.341
466	0.341
466	0.341
467	0.342
467	0.342
467	0.342
468	0.342
468	0.343
469	0.343
469	0.344
470	0.344
470	0.345
471	0.345
471	0.345
472	0.346
472	0.346
472	0.347
473	0.348
473	0.348
474	0.349
474	0.349
475	0.35
475	0.35
476	0.351
476	0.352
477	0.352
477	0.353
477	0.353
478	0.354
478	0.354
479	0.355
479	0.356
480	0.356
480	0.357
481	0.358
481	0.358
482	0.359
482	0.36
482	0.361
483	0.362
483	0.363
484	0.364
484	0.365
485	0.366
485	0.367
486	0.367
486	0.368
487	0.369
487	0.37
487	0.371
488	0.372
488	0.373
489	0.374
489	0.376
490	0.377
490	0.379
491	0.381
491	0.382
492	0.384
492	0.385
492	0.387
493	0.388
493	0.39
494	0.391
494	0.393
495	0.394
495	0.396
496	0.398
496	0.399
496	0.401
497	0.402
497	0.403
498	0.405
498	0.406
499	0.408
499	0.409
500	0.411
500	0.413
501	0.415
501	0.416
501	0.417
502	0.419
502	0.42
503	0.422
503	0.423
504	0.425
504	0.426
505	0.427
505	0.429
506	0.43
506	0.432
506	0.433
507	0.435
507	0.436
508	0.437
508	0.439
509	0.44
509	0.442
510	0.443
510	0.444
511	0.446
511	0.447
511	0.449
512	0.45
512	0.451
513	0.452
513	0.453
514	0.454
514	0.455
515	0.456
515	0.456
515	0.457
516	0.458
516	0.459
517	0.459
517	0.46
518	0.46
518	0.461
519	0.461
519	0.461
520	0.461
520	0.462
520	0.461
521	0.461
521	0.461
522	0.461
522	0.461
523	0.461
523	0.461
524	0.461
524	0.461
524	0.461
525	0.46
525	0.46
526	0.459
526	0.459
527	0.458
527	0.457
528	0.455
528	0.454
529	0.453
529	0.451
529	0.45
530	0.449
530	0.447
531	0.446
531	0.444
532	0.443
532	0.441
533	0.439
533	0.438
533	0.436
534	0.435
534	0.433
535	0.431
535	0.43
536	0.428
536	0.426
537	0.424
537	0.421
538	0.419
538	0.417
538	0.415
539	0.413
539	0.411
540	0.408
540	0.406
541	0.404
541	0.401
542	0.399
542	0.397
542	0.394
543	0.391
543	0.389
544	0.386
544	0.384
545	0.382
545	0.379
546	0.377
546	0.374
547	0.371
547	0.368
547	0.366
548	0.363
548	0.361
549	0.358
549	0.356
550	0.353
550	0.351
551	0.348
551	0.345
551	0.342
552	0.34
552	0.337
553	0.334
553	0.332
554	0.329
554	0.326
555	0.323
555	0.32
556	0.318
556	0.315
556	0.313
557	0.311
557	0.309
558	0.307
558	0.304
559	0.302
559	0.299
560	0.297
560	0.294
560	0.292
561	0.29
561	0.288
562	0.285
562	0.282
563	0.28
563	0.278
564	0.275
564	0.273
564	0.271
565	0.269
565	0.267
566	0.265
566	0.263
567	0.261
567	0.259
568	0.257
568	0.255
568	0.253
569	0.251
569	0.249
570	0.247
570	0.245
571	0.244
571	0.242
572	0.24
572	0.238
573	0.236
573	0.234
573	0.233
574	0.231
574	0.229
575	0.228
575	0.227
576	0.225
576	0.223
577	0.221
577	0.22
577	0.219
578	0.217
578	0.216
579	0.215
579	0.214
580	0.212
580	0.21
581	0.208
581	0.207
581	0.206
582	0.205
582	0.204
583	0.203
583	0.202
584	0.2
584	0.197
585	0.196
585	0.195
585	0.193
586	0.192
586	0.19
587	0.189
587	0.187
588	0.186
588	0.184
589	0.183
589	0.182
590	0.182
590	0.181
590	0.181
591	0.18
591	0.178
592	0.177
592	0.176
593	0.175
593	0.174
594	0.173
594	0.172
594	0.171
595	0.17
595	0.169
596	0.167
596	0.167
597	0.167
597	0.166
598	0.165
598	0.165
598	0.164
599	0.164
599	0.163
600	0.162
600	0.161
601	0.16
601	0.16
602	0.158
602	0.157
602	0.156
603	0.155
603	0.154
604	0.153
604	0.153
605	0.152
605	0.152
606	0.151
606	0.15
606	0.15
607	0.149
607	0.149
608	0.148
608	0.147
609	0.146
609	0.145
610	0.145
610	0.143
610	0.143
611	0.142
611	0.142
612	0.141
612	0.141
613	0.141
613	0.14
614	0.14
614	0.139
614	0.138
615	0.138
615	0.137
616	0.136
616	0.136
617	0.135
617	0.135
618	0.134
618	0.134
618	0.134
619	0.134
619	0.134
620	0.134
620	0.133
621	0.133
621	0.132
622	0.131
622	0.13
622	0.129
623	0.128
623	0.128
624	0.127
624	0.126
625	0.125
625	0.125
626	0.124
626	0.124
626	0.124
627	0.123
627	0.123
628	0.122
628	0.121
629	0.121
629	0.12
630	0.12
630	0.119
630	0.119
631	0.119
631	0.119
632	0.118
632	0.118
633	0.118
633	0.117
634	0.118
634	0.118
634	0.117
635	0.116
635	0.116
636	0.115
636	0.115
637	0.114
637	0.114
638	0.113
638	0.113
638	0.112
639	0.111
639	0.111
640	0.111
640	0.11
641	0.11
641	0.11
642	0.109
642	0.109
642	0.109
643	0.109
643	0.109
644	0.108
644	0.108
645	0.108
645	0.108
646	0.107
646	0.107
646	0.107
647	0.106
647	0.106
648	0.105
648	0.104
649	0.104
649	0.104
650	0.104
650	0.103
650	0.103
651	0.103
651	0.103
652	0.103
652	0.103
653	0.103
653	0.105
653	0.112
654	0.09
654	0.073
655	0.071
655	0.071
656	0.071
656	0.071
657	0.071
657	0.071
657	0.071
658	0.07
658	0.062
659	0.077
659	0.097
660	0.102
660	0.102
661	0.102
661	0.101
661	0.1
662	0.099
662	0.099
663	0.098
663	0.097
664	0.096
664	0.095
665	0.095
665	0.094
665	0.094
666	0.094
666	0.094
667	0.094
667	0.094
668	0.094
668	0.094
669	0.094
669	0.095
669	0.095
670	0.095
670	0.095
671	0.095
671	0.094
672	0.094
672	0.093
672	0.093
673	0.092
673	0.092
674	0.092
674	0.091
675	0.09
675	0.09
676	0.09
676	0.09
676	0.09
677	0.09
677	0.09
678	0.09
678	0.089
679	0.089
679	0.089
680	0.089
680	0.089
680	0.089
681	0.089
681	0.09
682	0.09
682	0.09
683	0.09
683	0.09
684	0.09
684	0.09
684	0.089
685	0.089
685	0.089
686	0.088
686	0.088
687	0.087
687	0.086
687	0.086
688	0.085
688	0.085
689	0.085
689	0.086
690	0.085
690	0.085
691	0.085
691	0.085
691	0.086
692	0.086
692	0.086
693	0.086
693	0.087
694	0.086
694	0.086
695	0.087
695	0.087
695	0.087
696	0.087
696	0.086
697	0.086
697	0.086
698	0.085
698	0.085
698	0.085
699	0.085
699	0.085
700	0.085
700	0.085
701	0.085
701	0.085
702	0.085
702	0.085
702	0.085
703	0.084
703	0.084
704	0.083
704	0.083
705	0.083
705	0.082
705	0.082
706	0.082
706	0.081
707	0.081
707	0.081
708	0.081
708	0.081
709	0.081
709	0.081
709	0.08
710	0.079
710	0.079
711	0.079
711	0.079
712	0.078
712	0.078
713	0.077
713	0.077
713	0.077
714	0.077
714	0.077
715	0.077
715	0.077
716	0.076
716	0.076
716	0.076
717	0.075
717	0.075
718	0.074
718	0.074
719	0.074
719	0.074
720	0.074
720	0.074
720	0.075
721	0.075
721	0.075
722	0.076
722	0.075
723	0.076
723	0.076
723	0.076
724	0.075
724	0.075
725	0.074
725	0.074
726	0.073
726	0.073
727	0.072
727	0.072
727	0.072
728	0.071
728	0.071
729	0.071
729	0.071
730	0.071
730	0.071
730	0.071
731	0.072
731	0.072
732	0.072
732	0.073
733	0.073
733	0.073
734	0.073
734	0.073
734	0.073
735	0.073
735	0.072
736	0.072
736	0.071
737	0.071
737	0.07
737	0.07
738	0.069
738	0.068
739	0.067
739	0.067
740	0.066
740	0.066
741	0.066
741	0.066
741	0.066
742	0.066
742	0.066
743	0.067
743	0.067
744	0.068
744	0.068
744	0.068
745	0.068
745	0.068
746	0.068
746	0.068
747	0.069
747	0.069
748	0.069
748	0.069
748	0.07
749	0.07
749	0.07
750	0.07
750	0.07
751	0.07
751	0.07
751	0.07
752	0.069
752	0.068
753	0.068
753	0.067
754	0.067
754	0.067
754	0.066
755	0.066
755	0.066
756	0.065
756	0.064
757	0.063
757	0.063
758	0.063
758	0.062
758	0.062
759	0.062
759	0.062
760	0.062
760	0.062
761	0.062
761	0.063
761	0.063
762	0.064
762	0.064
763	0.064
763	0.064
764	0.064
764	0.064
764	0.063
765	0.063
765	0.063
766	0.063
766	0.062
767	0.062
767	0.061
768	0.06
768	0.06
768	0.06
769	0.059
769	0.059
770	0.059
770	0.059
771	0.058
771	0.058
771	0.058
772	0.058
772	0.059
773	0.059
773	0.059
774	0.06
774	0.06
775	0.06
775	0.061
775	0.061
776	0.061
776	0.061
777	0.062
777	0.061
778	0.061
778	0.061
778	0.06
779	0.06
779	0.06
780	0.059
780	0.058
781	0.058
781	0.057
781	0.057
782	0.057
782	0.057
783	0.057
783	0.057
784	0.057
784	0.057
784	0.058
785	0.058
785	0.058
786	0.058
786	0.058
787	0.058
787	0.058
788	0.057
788	0.057
788	0.057
789	0.057
789	0.057
790	0.057
790	0.057
791	0.057
791	0.057
791	0.057
792	0.058
792	0.059
793	0.059
793	0.059
794	0.059
794	0.059
794	0.059
795	0.059
795	0.059
796	0.059
796	0.059
797	0.059
797	0.059
797	0.059
798	0.058
798	0.058
799	0.058
799	0.057
800	0.056
800	0.055
801	0.054
801	0.054
801	0.053
802	0.053
802	0.053
803	0.053
803	0.053
804	0.053
804	0.054
804	0.054
805	0.054
805	0.054
806	0.054
806	0.054
807	0.054
807	0.053
807	0.053
808	0.053
808	0.053
809	0.052
809	0.053
810	0.053
810	0.053
810	0.054
811	0.054
811	0.054
812	0.055
812	0.055
813	0.055
813	0.055
813	0.055
814	0.056
814	0.056
815	0.056
815	0.056
816	0.055
816	0.055
817	0.054
817	0.054
817	0.054
818	0.054
818	0.054
819	0.054
819	0.053
820	0.053
820	0.053
820	0.053
821	0.053
821	0.053
822	0.053
822	0.052
823	0.052
823	0.052
823	0.052
824	0.053
824	0.053
825	0.054
825	0.054
826	0.054
826	0.054
826	0.054
827	0.054
827	0.054
828	0.054
828	0.054
829	0.054
829	0.054
829	0.054
830	0.054
830	0.054
831	0.055
831	0.055
832	0.054
832	0.055
832	0.055
833	0.055
833	0.054
834	0.054
834	0.054
835	0.054
835	0.054
835	0.054
836	0.055
836	0.055
837	0.055
837	0.055
838	0.056
838	0.055
839	0.055
839	0.055
839	0.054
840	0.054
840	0.053
841	0.052
841	0.051
842	0.05
842	0.049
842	0.048
843	0.048
843	0.048
844	0.047
844	0.047
845	0.047
845	0.047
845	0.047
846	0.047
846	0.047
847	0.048
847	0.048
848	0.049
848	0.05
848	0.05
849	0.051
849	0.051
850	0.051
850	0.052
851	0.052
851	0.052
851	0.051
852	0.05
852	0.05
853	0.049
853	0.048
854	0.048
854	0.048
854	0.048
855	0.048
855	0.049
856	0.049
856	0.05
857	0.05
857	0.051
857	0.052
858	0.052
858	0.052
859	0.052
859	0.051
860	0.051
860	0.05
860	0.049
861	0.048
861	0.047
862	0.046
862	0.045
863	0.045
863	0.044
863	0.044
864	0.044
864	0.044
865	0.044
865	0.044
866	0.043
866	0.043
866	0.043
867	0.044
867	0.044
868	0.044
868	0.044
869	0.044
869	0.044
869	0.044
870	0.044
870	0.044
871	0.045
871	0.045
872	0.046
872	0.046
872	0.046
873	0.046
873	0.046
874	0.046
874	0.045
875	0.045
875	0.045
875	0.044
876	0.044
876	0.044
877	0.043
877	0.044
878	0.044
878	0.045
878	0.046
879	0.047
879	0.048
880	0.048
880	0.049
881	0.049
881	0.05
881	0.05
882	0.05
882	0.049
883	0.049
883	0.048
884	0.047
884	0.047
884	0.046
885	0.046
885	0.045
886	0.044
886	0.044
887	0.044
887	0.043
887	0.043
888	0.042
888	0.042
889	0.042
889	0.042
890	0.042
890	0.042
890	0.042
891	0.041
891	0.042
892	0.042
892	0.042
893	0.043
893	0.043
893	0.044
894	0.044
894	0.045
895	0.045
895	0.045
895	0.046
896	0.045
896	0.045
897	0.045
897	0.045
898	0.044
898	0.044
898	0.043
899	0.043
899	0.043
900	0.043
900	0.043
901	0.043
901	0.044
901	0.044
902	0.044
902	0.045
903	0.045
903	0.045
904	0.045
904	0.045
904	0.045
905	0.045
905	0.045
906	0.045
906	0.045
907	0.045
907	0.045
907	0.046
908	0.046
908	0.046
909	0.046
909	0.047
910	0.047
910	0.047
910	0.047
911	0.047
911	0.046
912	0.046
912	0.046
913	0.046
913	0.046
913	0.046
914	0.046
914	0.046
915	0.046
915	0.046
916	0.046
916	0.045
916	0.045
917	0.044
917	0.044
918	0.043
918	0.042
918	0.042
919	0.041
919	0.04
920	0.04
920	0.04
921	0.039
921	0.039
921	0.039
922	0.039
922	0.039
923	0.039
923	0.04
924	0.04
924	0.041
924	0.041
925	0.042
925	0.042
926	0.042
926	0.043
927	0.043
927	0.043
927	0.043
928	0.043
928	0.043
929	0.043
929	0.043
930	0.043
930	0.042
930	0.042
931	0.042
931	0.043
932	0.043
932	0.043
933	0.043
933	0.043
933	0.042
934	0.042
934	0.042
935	0.041
935	0.041
935	0.041
936	0.041
936	0.04
937	0.04
937	0.041
938	0.041
938	0.041
938	0.041
939	0.042
939	0.042
940	0.042
940	0.042
941	0.043
941	0.043
941	0.044
942	0.044
942	0.045
943	0.045
943	0.045
944	0.045
944	0.046
944	0.046
945	0.046
945	0.046
946	0.046
946	0.046
946	0.046
947	0.046
947	0.046
948	0.046
948	0.045
949	0.045
949	0.045
949	0.045
950	0.045
950	0.045
951	0.045
951	0.045
952	0.044
952	0.044
952	0.044
953	0.044
953	0.043
954	0.043
954	0.042
955	0.041
955	0.041
955	0.04
956	0.04
956	0.041
957	0.041
957	0.041
957	0.041
958	0.042
958	0.042
959	0.043
959	0.043
960	0.043
960	0.044
960	0.044
961	0.044
961	0.044
962	0.044
962	0.044
963	0.044
963	0.044
963	0.044
964	0.044
964	0.044
965	0.045
965	0.045
966	0.045
966	0.046
966	0.046
967	0.046
967	0.047
968	0.047
968	0.048
968	0.048
969	0.048
969	0.048
970	0.048
970	0.047
971	0.047
971	0.047
971	0.046
972	0.046
972	0.045
973	0.045
973	0.044
974	0.044
974	0.044
974	0.044
975	0.045
975	0.045
976	0.046
976	0.046
976	0.047
977	0.047
977	0.047
978	0.048
978	0.048
979	0.048
979	0.048
979	0.048
980	0.048
980	0.048
981	0.047
981	0.047
982	0.046
982	0.046
982	0.045
983	0.044
983	0.044
984	0.043
984	0.042
984	0.041
985	0.04
985	0.039
986	0.039
986	0.038
987	0.037
987	0.037
987	0.037
988	0.036
988	0.036
989	0.036
989	0.036
990	0.035
990	0.035
990	0.035
991	0.034
991	0.034
992	0.034
992	0.033
992	0.033
993	0.033
993	0.032
994	0.032
994	0.032
995	0.032
995	0.032
995	0.033
996	0.033
996	0.034
997	0.035
997	0.036
997	0.036
998	0.037
998	0.038
999	0.039
999	0.04
1000	0.041
1000	0.042
1000	0.043
1001	0.044
1001	0.044
1002	0.044
1002	0.044
1003	0.044
1003	0.044
1003	0.044
1004	0.043
1004	0.043
1005	0.042
1005	0.042
1005	0.041
1006	0.04
1006	0.04
1007	0.039
1007	0.039
1008	0.039
1008	0.039
1008	0.039
1009	0.039
1009	0.039
1010	0.039
1010	0.039
1010	0.039
1011	0.039
1011	0.039
1012	0.039
1012	0.039
1013	0.039
1013	0.038
1013	0.038
1014	0.038
1014	0.038
1015	0.038
1015	0.038
1016	0.038
1016	0.038
1016	0.037
1017	0.037
1017	0.037
1018	0.037
1018	0.037
1018	0.037
1019	0.037
1019	0.037
1020	0.037
1020	0.037
1021	0.037
1021	0.037
1021	0.037
1022	0.037
1022	0.037
1023	0.036
1023	0.036
1023	0.036
1024	0.036
1024	0.035
1025	0.035
1025	0.035
1026	0.034
1026	0.033
1026	0.033
1027	0.033
1027	0.032
1028	0.032
1028	0.032
1028	0.032
1029	0.032
1029	0.032
1030	0.032
1030	0.033
1031	0.033
1031	0.034
1031	0.034
1032	0.034
1032	0.035
1033	0.035
1033	0.035
1033	0.035
1034	0.035
1034	0.035
1035	0.035
1035	0.035
1036	0.035
1036	0.035
1036	0.035
1037	0.035
1037	0.035
1038	0.035
1038	0.035
1039	0.035
1039	0.036
1039	0.036
1040	0.037
1040	0.037
1041	0.037
1041	0.037
1041	0.038
1042	0.038
1042	0.038
1043	0.038
1043	0.038
1044	0.038
1044	0.038
1044	0.038
1045	0.039
1045	0.039
1046	0.039
1046	0.04
1046	0.04
1047	0.04
1047	0.041
1048	0.041
1048	0.042
1049	0.042
1049	0.042
1049	0.042
1050	0.042
1050	0.042
1051	0.041
1051	0.041
1051	0.041
1052	0.04
1052	0.039
1053	0.038
1053	0.037
1053	0.037
1054	0.036
1054	0.036
1055	0.036
1055	0.035
1056	0.035
1056	0.034
1056	0.034
1057	0.033
1057	0.033
1058	0.032
1058	0.032
1058	0.031
1059	0.03
1059	0.03
1060	0.029
1060	0.028
1061	0.028
1061	0.028
1061	0.027
1062	0.027
1062	0.027
1063	0.027
1063	0.027
1063	0.027
1064	0.027
1064	0.027
1065	0.026
1065	0.026
1066	0.026
1066	0.026
1066	0.026
1067	0.026
1067	0.026
1068	0.026
1068	0.026
1068	0.025
1069	0.025
1069	0.024
1070	0.024
1070	0.023
1071	0.023
1071	0.022
1071	0.022
1072	0.021
1072	0.021
1073	0.021
1073	0.02
1073	0.02
1074	0.021
1074	0.021
1075	0.021
1075	0.021
1076	0.021
1076	0.022
1076	0.022
1077	0.022
1077	0.022
1078	0.022
1078	0.022
1078	0.023
1079	0.023
1079	0.023
1080	0.023
1080	0.023
1080	0.024
1081	0.024
1081	0.024
1082	0.025
1082	0.025
1083	0.026
1083	0.025
1083	0.026
1084	0.026
1084	0.026
1085	0.026
1085	0.025
1085	0.025
1086	0.025
1086	0.024
1087	0.024
1087	0.023
1088	0.023
1088	0.023
1088	0.023
1089	0.022
1089	0.021
1090	0.021
1090	0.02
1090	0.019
1091	0.019
1091	0.02
1092	0.02
1092	0.019
1092	0.019
1093	0.018
1093	0.018
1094	0.018
1094	0.017
1095	0.017
1095	0.017
1095	0.016
1096	0.016
1096	0.015
1097	0.014
1097	0.013
1097	0.013
1098	0.012
1098	0.011
1099	0.01
1099	0.009
1100	0.008
1100	0.007
1100	0.005
1101	0.004
1101	0.004
1102	0.004
1102	0.003
1102	0.002
1103	0.002
1103	0.002
1104	0.002
1104	0.002
1104	0.002
1105	0.001
1105	-0.001
1106	-0.003
1106	-0.004
1107	-0.006
1107	-0.006
1107	-0.007
1108	-0.009
1108	-0.01
1109	-0.012
1109	-0.012
1109	-0.013
1110	-0.011
1110	-0.009
1111	-0.008
1111	-0.009
