Data from reversibility-20sec_Absorbance__8119__000000000008119.txt Node

Date: Thu Dec 07 09:19:25 CET 2023
User: Marek
Spectrometer: MAYP115816
Trigger mode: 0
Integration Time (sec): 2.000000E-1
Scans to average: 10
Electric dark correction enabled: true
Nonlinearity correction enabled: true
Boxcar width: 5
XAxis mode: Wavelengths
Number of Pixels in Spectrum: 2068
>>>>>Begin Spectral Data<<<<<
199	-0.089
199	-0.064
200	-0.014
200	0.036
201	0.061
201	0.076
202	0.087
202	0.095
203	0.103
203	0.104
204	0.116
204	0.128
205	0.137
205	0.142
205	0.141
206	0.141
206	0.14
207	0.14
207	0.141
208	0.14
208	0.141
209	0.145
209	0.145
210	0.147
210	0.152
211	0.152
211	0.155
212	0.153
212	0.155
213	0.157
213	0.159
213	0.16
214	0.164
214	0.162
215	0.163
215	0.162
216	0.165
216	0.163
217	0.168
217	0.169
218	0.169
218	0.172
219	0.179
219	0.176
220	0.18
220	0.18
221	0.179
221	0.179
221	0.187
222	0.192
222	0.195
223	0.201
223	0.203
224	0.206
224	0.215
225	0.222
225	0.238
226	0.252
226	0.264
227	0.27
227	0.282
228	0.298
228	0.314
229	0.333
229	0.357
229	0.379
230	0.405
230	0.432
231	0.465
231	0.501
232	0.542
232	0.585
233	0.627
233	0.674
234	0.725
234	0.78
235	0.834
235	0.885
236	0.932
236	0.984
236	1.033
237	1.082
237	1.13
238	1.178
238	1.224
239	1.269
239	1.307
240	1.344
240	1.379
241	1.418
241	1.448
242	1.482
242	1.516
243	1.542
243	1.568
243	1.593
244	1.615
244	1.636
245	1.654
245	1.676
246	1.693
246	1.71
247	1.724
247	1.736
248	1.751
248	1.763
249	1.773
249	1.779
250	1.786
250	1.794
250	1.798
251	1.803
251	1.806
252	1.809
252	1.809
253	1.809
253	1.807
254	1.806
254	1.808
255	1.808
255	1.808
256	1.807
256	1.807
257	1.806
257	1.807
258	1.808
258	1.808
258	1.808
259	1.807
259	1.805
260	1.803
260	1.804
261	1.804
261	1.806
262	1.807
262	1.809
263	1.811
263	1.812
264	1.814
264	1.816
265	1.817
265	1.819
265	1.818
266	1.819
266	1.82
267	1.817
267	1.817
268	1.816
268	1.815
269	1.814
269	1.813
270	1.812
270	1.811
271	1.809
271	1.808
272	1.804
272	1.803
272	1.8
273	1.795
273	1.79
274	1.785
274	1.778
275	1.771
275	1.765
276	1.757
276	1.75
277	1.742
277	1.732
278	1.721
278	1.71
278	1.695
279	1.678
279	1.659
280	1.635
280	1.605
281	1.569
281	1.53
282	1.488
282	1.445
283	1.402
283	1.36
284	1.32
284	1.28
285	1.243
285	1.209
285	1.179
286	1.152
286	1.128
287	1.107
287	1.09
288	1.075
288	1.062
289	1.051
289	1.042
290	1.034
290	1.026
291	1.02
291	1.014
292	1.009
292	1.005
292	1
293	0.996
293	0.993
294	0.989
294	0.985
295	0.982
295	0.978
296	0.975
296	0.971
297	0.968
297	0.965
298	0.961
298	0.958
298	0.955
299	0.953
299	0.95
300	0.947
300	0.944
301	0.941
301	0.938
302	0.935
302	0.933
303	0.931
303	0.928
304	0.925
304	0.923
305	0.92
305	0.917
305	0.914
306	0.912
306	0.91
307	0.907
307	0.905
308	0.902
308	0.899
309	0.896
309	0.894
310	0.891
310	0.888
311	0.885
311	0.882
311	0.878
312	0.875
312	0.871
313	0.867
313	0.863
314	0.859
314	0.855
315	0.85
315	0.846
316	0.841
316	0.837
317	0.832
317	0.827
318	0.822
318	0.817
318	0.811
319	0.806
319	0.8
320	0.795
320	0.788
321	0.782
321	0.776
322	0.77
322	0.763
323	0.757
323	0.75
324	0.743
324	0.736
324	0.729
325	0.722
325	0.715
326	0.708
326	0.701
327	0.694
327	0.687
328	0.679
328	0.672
329	0.665
329	0.658
330	0.651
330	0.643
330	0.636
331	0.629
331	0.622
332	0.615
332	0.607
333	0.6
333	0.593
334	0.586
334	0.579
335	0.572
335	0.565
336	0.558
336	0.552
336	0.545
337	0.538
337	0.532
338	0.526
338	0.519
339	0.513
339	0.507
340	0.501
340	0.495
341	0.489
341	0.484
342	0.478
342	0.472
342	0.467
343	0.461
343	0.456
344	0.451
344	0.446
345	0.441
345	0.436
346	0.431
346	0.426
347	0.422
347	0.418
348	0.413
348	0.409
348	0.405
349	0.401
349	0.397
350	0.394
350	0.39
351	0.387
351	0.383
352	0.38
352	0.377
353	0.374
353	0.371
354	0.368
354	0.365
354	0.362
355	0.359
355	0.356
356	0.353
356	0.35
357	0.347
357	0.345
358	0.342
358	0.339
359	0.337
359	0.335
360	0.333
360	0.331
360	0.329
361	0.327
361	0.325
362	0.323
362	0.322
363	0.32
363	0.318
364	0.316
364	0.314
365	0.312
365	0.31
366	0.308
366	0.306
366	0.304
367	0.303
367	0.301
368	0.3
368	0.298
369	0.297
369	0.295
370	0.294
370	0.292
371	0.291
371	0.29
372	0.288
372	0.287
372	0.286
373	0.285
373	0.284
374	0.283
374	0.282
375	0.281
375	0.28
376	0.279
376	0.279
377	0.278
377	0.277
378	0.276
378	0.275
378	0.274
379	0.273
379	0.273
380	0.272
380	0.271
381	0.271
381	0.27
382	0.269
382	0.269
383	0.268
383	0.268
383	0.267
384	0.266
384	0.266
385	0.265
385	0.265
386	0.264
386	0.264
387	0.264
387	0.263
388	0.263
388	0.262
389	0.262
389	0.262
389	0.261
390	0.261
390	0.261
391	0.26
391	0.26
392	0.259
392	0.259
393	0.259
393	0.258
394	0.258
394	0.257
394	0.257
395	0.257
395	0.256
396	0.256
396	0.256
397	0.255
397	0.255
398	0.255
398	0.254
399	0.254
399	0.254
400	0.254
400	0.253
400	0.253
401	0.253
401	0.252
402	0.252
402	0.252
403	0.252
403	0.251
404	0.251
404	0.251
405	0.251
405	0.25
405	0.25
406	0.25
406	0.25
407	0.249
407	0.249
408	0.249
408	0.249
409	0.248
409	0.248
410	0.248
410	0.248
411	0.247
411	0.247
411	0.247
412	0.247
412	0.246
413	0.246
413	0.246
414	0.245
414	0.245
415	0.245
415	0.244
416	0.244
416	0.244
416	0.243
417	0.243
417	0.243
418	0.242
418	0.242
419	0.242
419	0.241
420	0.241
420	0.24
421	0.24
421	0.239
421	0.239
422	0.239
422	0.238
423	0.238
423	0.238
424	0.237
424	0.237
425	0.237
425	0.236
426	0.236
426	0.236
427	0.236
427	0.235
427	0.235
428	0.235
428	0.234
429	0.234
429	0.233
430	0.233
430	0.233
431	0.232
431	0.232
432	0.232
432	0.232
432	0.232
433	0.232
433	0.231
434	0.231
434	0.231
435	0.231
435	0.231
436	0.231
436	0.23
437	0.23
437	0.23
437	0.23
438	0.229
438	0.229
439	0.229
439	0.228
440	0.228
440	0.228
441	0.227
441	0.227
442	0.227
442	0.227
442	0.227
443	0.226
443	0.226
444	0.226
444	0.226
445	0.226
445	0.226
446	0.226
446	0.225
447	0.225
447	0.225
447	0.225
448	0.224
448	0.224
449	0.224
449	0.224
450	0.223
450	0.223
451	0.223
451	0.223
452	0.223
452	0.223
452	0.223
453	0.223
453	0.223
454	0.222
454	0.222
455	0.222
455	0.221
456	0.221
456	0.221
457	0.221
457	0.22
458	0.22
458	0.22
458	0.22
459	0.22
459	0.22
460	0.22
460	0.22
461	0.22
461	0.22
462	0.22
462	0.219
463	0.219
463	0.219
463	0.219
464	0.219
464	0.218
465	0.218
465	0.218
466	0.218
466	0.218
467	0.217
467	0.217
467	0.217
468	0.217
468	0.217
469	0.218
469	0.218
470	0.218
470	0.218
471	0.218
471	0.218
472	0.217
472	0.217
472	0.217
473	0.218
473	0.218
474	0.217
474	0.217
475	0.217
475	0.217
476	0.217
476	0.217
477	0.218
477	0.218
477	0.218
478	0.218
478	0.218
479	0.218
479	0.218
480	0.218
480	0.218
481	0.218
481	0.218
482	0.218
482	0.218
482	0.218
483	0.218
483	0.219
484	0.219
484	0.219
485	0.219
485	0.219
486	0.219
486	0.219
487	0.219
487	0.219
487	0.219
488	0.22
488	0.22
489	0.22
489	0.221
490	0.222
490	0.222
491	0.223
491	0.223
492	0.224
492	0.224
492	0.225
493	0.225
493	0.226
494	0.227
494	0.227
495	0.227
495	0.228
496	0.228
496	0.228
496	0.229
497	0.229
497	0.229
498	0.23
498	0.23
499	0.231
499	0.231
500	0.232
500	0.233
501	0.233
501	0.234
501	0.234
502	0.235
502	0.235
503	0.236
503	0.236
504	0.237
504	0.237
505	0.238
505	0.238
506	0.239
506	0.239
506	0.24
507	0.24
507	0.24
508	0.24
508	0.241
509	0.241
509	0.242
510	0.242
510	0.242
511	0.242
511	0.243
511	0.243
512	0.244
512	0.244
513	0.245
513	0.246
514	0.246
514	0.247
515	0.247
515	0.248
515	0.248
516	0.249
516	0.249
517	0.25
517	0.25
518	0.25
518	0.25
519	0.251
519	0.251
520	0.251
520	0.251
520	0.251
521	0.251
521	0.251
522	0.251
522	0.252
523	0.252
523	0.252
524	0.252
524	0.253
524	0.253
525	0.253
525	0.253
526	0.253
526	0.253
527	0.253
527	0.252
528	0.252
528	0.252
529	0.252
529	0.252
529	0.251
530	0.251
530	0.251
531	0.25
531	0.25
532	0.25
532	0.249
533	0.249
533	0.248
533	0.248
534	0.247
534	0.247
535	0.247
535	0.247
536	0.246
536	0.246
537	0.246
537	0.245
538	0.245
538	0.245
538	0.244
539	0.244
539	0.244
540	0.243
540	0.242
541	0.242
541	0.241
542	0.241
542	0.241
542	0.24
543	0.24
543	0.239
544	0.239
544	0.238
545	0.238
545	0.237
546	0.237
546	0.236
547	0.235
547	0.234
547	0.233
548	0.233
548	0.232
549	0.231
549	0.231
550	0.23
550	0.23
551	0.229
551	0.228
551	0.228
552	0.228
552	0.227
553	0.227
553	0.226
554	0.225
554	0.224
555	0.223
555	0.222
556	0.222
556	0.221
556	0.221
557	0.22
557	0.22
558	0.219
558	0.219
559	0.219
559	0.219
560	0.219
560	0.218
560	0.218
561	0.218
561	0.217
562	0.216
562	0.215
563	0.214
563	0.213
564	0.212
564	0.212
564	0.211
565	0.21
565	0.21
566	0.209
566	0.208
567	0.208
567	0.208
568	0.207
568	0.207
568	0.206
569	0.206
569	0.205
570	0.204
570	0.203
571	0.202
571	0.201
572	0.201
572	0.2
573	0.2
573	0.199
573	0.198
574	0.198
574	0.198
575	0.197
575	0.197
576	0.197
576	0.196
577	0.195
577	0.194
577	0.194
578	0.193
578	0.192
579	0.193
579	0.192
580	0.192
580	0.191
581	0.19
581	0.19
581	0.19
582	0.19
582	0.19
583	0.19
583	0.189
584	0.189
584	0.187
585	0.187
585	0.187
585	0.186
586	0.186
586	0.185
587	0.184
587	0.184
588	0.183
588	0.183
589	0.182
589	0.182
590	0.182
590	0.182
590	0.182
591	0.182
591	0.182
592	0.181
592	0.181
593	0.18
593	0.18
594	0.179
594	0.179
594	0.178
595	0.178
595	0.177
596	0.176
596	0.177
597	0.177
597	0.177
598	0.177
598	0.177
598	0.177
599	0.177
599	0.176
600	0.176
600	0.175
601	0.175
601	0.174
602	0.174
602	0.173
602	0.173
603	0.172
603	0.173
604	0.173
604	0.173
605	0.173
605	0.172
606	0.172
606	0.171
606	0.171
607	0.171
607	0.17
608	0.17
608	0.169
609	0.169
609	0.168
610	0.168
610	0.168
610	0.168
611	0.168
611	0.167
612	0.167
612	0.168
613	0.168
613	0.168
614	0.168
614	0.167
614	0.167
615	0.167
615	0.167
616	0.167
616	0.167
617	0.167
617	0.166
618	0.166
618	0.166
618	0.166
619	0.166
619	0.166
620	0.166
620	0.166
621	0.165
621	0.165
622	0.164
622	0.164
622	0.163
623	0.163
623	0.163
624	0.163
624	0.162
625	0.162
625	0.162
626	0.162
626	0.162
626	0.162
627	0.162
627	0.162
628	0.162
628	0.162
629	0.161
629	0.161
630	0.161
630	0.16
630	0.161
631	0.16
631	0.16
632	0.159
632	0.159
633	0.159
633	0.159
634	0.159
634	0.159
634	0.159
635	0.159
635	0.158
636	0.158
636	0.158
637	0.158
637	0.157
638	0.157
638	0.157
638	0.156
639	0.156
639	0.155
640	0.156
640	0.156
641	0.155
641	0.155
642	0.155
642	0.155
642	0.156
643	0.156
643	0.156
644	0.156
644	0.157
645	0.157
645	0.157
646	0.157
646	0.157
646	0.157
647	0.156
647	0.156
648	0.155
648	0.155
649	0.155
649	0.154
650	0.154
650	0.154
650	0.155
651	0.155
651	0.155
652	0.155
652	0.155
653	0.156
653	0.157
653	0.162
654	0.128
654	0.103
655	0.103
655	0.103
656	0.103
656	0.103
657	0.104
657	0.104
657	0.104
658	0.103
658	0.094
659	0.118
659	0.15
660	0.155
660	0.155
661	0.155
661	0.154
661	0.153
662	0.153
662	0.152
663	0.152
663	0.152
664	0.152
664	0.152
665	0.152
665	0.152
665	0.152
666	0.152
666	0.153
667	0.153
667	0.153
668	0.153
668	0.153
669	0.153
669	0.153
669	0.154
670	0.154
670	0.154
671	0.153
671	0.153
672	0.152
672	0.152
672	0.152
673	0.151
673	0.151
674	0.151
674	0.151
675	0.15
675	0.151
676	0.151
676	0.151
676	0.151
677	0.152
677	0.152
678	0.152
678	0.151
679	0.151
679	0.151
680	0.151
680	0.151
680	0.15
681	0.15
681	0.15
682	0.15
682	0.15
683	0.15
683	0.151
684	0.151
684	0.15
684	0.15
685	0.15
685	0.151
686	0.151
686	0.151
687	0.151
687	0.151
687	0.151
688	0.152
688	0.152
689	0.152
689	0.153
690	0.153
690	0.153
691	0.152
691	0.153
691	0.153
692	0.153
692	0.153
693	0.153
693	0.154
694	0.154
694	0.154
695	0.155
695	0.156
695	0.156
696	0.156
696	0.156
697	0.157
697	0.157
698	0.156
698	0.156
698	0.156
699	0.156
699	0.155
700	0.155
700	0.155
701	0.154
701	0.154
702	0.153
702	0.152
702	0.152
703	0.151
703	0.15
704	0.15
704	0.15
705	0.149
705	0.149
705	0.149
706	0.149
706	0.149
707	0.149
707	0.149
708	0.15
708	0.15
709	0.151
709	0.151
709	0.151
710	0.152
710	0.152
711	0.153
711	0.154
712	0.154
712	0.154
713	0.155
713	0.155
713	0.155
714	0.155
714	0.155
715	0.154
715	0.154
716	0.153
716	0.153
716	0.152
717	0.151
717	0.151
718	0.15
718	0.15
719	0.151
719	0.151
720	0.152
720	0.152
720	0.153
721	0.153
721	0.155
722	0.155
722	0.155
723	0.156
723	0.156
723	0.155
724	0.155
724	0.154
725	0.153
725	0.153
726	0.152
726	0.152
727	0.151
727	0.151
727	0.151
728	0.151
728	0.15
729	0.151
729	0.151
730	0.151
730	0.151
730	0.152
731	0.152
731	0.152
732	0.153
732	0.154
733	0.154
733	0.154
734	0.155
734	0.156
734	0.156
735	0.157
735	0.157
736	0.157
736	0.157
737	0.157
737	0.157
737	0.157
738	0.157
738	0.156
739	0.156
739	0.156
740	0.155
740	0.155
741	0.156
741	0.156
741	0.156
742	0.156
742	0.157
743	0.158
743	0.159
744	0.16
744	0.16
744	0.16
745	0.16
745	0.16
746	0.16
746	0.16
747	0.16
747	0.16
748	0.159
748	0.159
748	0.158
749	0.158
749	0.158
750	0.158
750	0.158
751	0.158
751	0.158
751	0.159
752	0.159
752	0.159
753	0.159
753	0.158
754	0.158
754	0.158
754	0.158
755	0.158
755	0.158
756	0.157
756	0.156
757	0.156
757	0.156
758	0.156
758	0.156
758	0.156
759	0.156
759	0.156
760	0.156
760	0.156
761	0.156
761	0.157
761	0.157
762	0.157
762	0.158
763	0.158
763	0.157
764	0.157
764	0.157
764	0.157
765	0.157
765	0.157
766	0.157
766	0.157
767	0.156
767	0.156
768	0.155
768	0.155
768	0.155
769	0.155
769	0.156
770	0.156
770	0.156
771	0.156
771	0.157
771	0.157
772	0.158
772	0.158
773	0.158
773	0.159
774	0.159
774	0.159
775	0.159
775	0.159
775	0.16
776	0.16
776	0.16
777	0.161
777	0.161
778	0.162
778	0.161
778	0.161
779	0.161
779	0.161
780	0.16
780	0.159
781	0.159
781	0.158
781	0.157
782	0.156
782	0.156
783	0.156
783	0.157
784	0.157
784	0.157
784	0.158
785	0.158
785	0.158
786	0.159
786	0.159
787	0.159
787	0.159
788	0.159
788	0.158
788	0.158
789	0.158
789	0.158
790	0.158
790	0.157
791	0.157
791	0.157
791	0.157
792	0.157
792	0.157
793	0.157
793	0.157
794	0.157
794	0.156
794	0.156
795	0.157
795	0.157
796	0.157
796	0.157
797	0.157
797	0.157
797	0.157
798	0.158
798	0.158
799	0.158
799	0.157
800	0.157
800	0.156
801	0.156
801	0.156
801	0.156
802	0.156
802	0.156
803	0.156
803	0.156
804	0.157
804	0.157
804	0.158
805	0.158
805	0.158
806	0.158
806	0.158
807	0.157
807	0.157
807	0.157
808	0.157
808	0.157
809	0.157
809	0.157
810	0.157
810	0.157
810	0.157
811	0.157
811	0.157
812	0.158
812	0.158
813	0.158
813	0.159
813	0.16
814	0.16
814	0.161
815	0.161
815	0.162
816	0.162
816	0.162
817	0.161
817	0.161
817	0.161
818	0.16
818	0.16
819	0.159
819	0.158
820	0.157
820	0.156
820	0.156
821	0.155
821	0.155
822	0.155
822	0.155
823	0.155
823	0.156
823	0.156
824	0.157
824	0.158
825	0.16
825	0.16
826	0.161
826	0.161
826	0.162
827	0.162
827	0.163
828	0.163
828	0.163
829	0.163
829	0.163
829	0.163
830	0.163
830	0.163
831	0.164
831	0.163
832	0.163
832	0.163
832	0.163
833	0.162
833	0.162
834	0.162
834	0.161
835	0.161
835	0.16
835	0.16
836	0.16
836	0.16
837	0.159
837	0.159
838	0.158
838	0.158
839	0.157
839	0.156
839	0.156
840	0.155
840	0.154
841	0.153
841	0.152
842	0.151
842	0.151
842	0.15
843	0.15
843	0.149
844	0.149
844	0.149
845	0.148
845	0.148
845	0.148
846	0.148
846	0.148
847	0.148
847	0.148
848	0.148
848	0.149
848	0.149
849	0.148
849	0.148
850	0.148
850	0.148
851	0.148
851	0.148
851	0.147
852	0.147
852	0.146
853	0.146
853	0.146
854	0.146
854	0.147
854	0.147
855	0.148
855	0.149
856	0.15
856	0.15
857	0.152
857	0.153
857	0.153
858	0.154
858	0.154
859	0.154
859	0.154
860	0.154
860	0.154
860	0.153
861	0.153
861	0.152
862	0.152
862	0.151
863	0.15
863	0.15
863	0.149
864	0.149
864	0.149
865	0.149
865	0.149
866	0.148
866	0.148
866	0.148
867	0.148
867	0.149
868	0.149
868	0.149
869	0.149
869	0.149
869	0.148
870	0.148
870	0.148
871	0.148
871	0.148
872	0.148
872	0.148
872	0.147
873	0.147
873	0.147
874	0.146
874	0.146
875	0.145
875	0.145
875	0.144
876	0.144
876	0.143
877	0.143
877	0.143
878	0.143
878	0.143
878	0.143
879	0.143
879	0.144
880	0.144
880	0.144
881	0.145
881	0.145
881	0.145
882	0.145
882	0.146
883	0.146
883	0.146
884	0.146
884	0.146
884	0.145
885	0.145
885	0.144
886	0.144
886	0.144
887	0.143
887	0.142
887	0.142
888	0.141
888	0.14
889	0.14
889	0.14
890	0.14
890	0.14
890	0.14
891	0.139
891	0.139
892	0.139
892	0.139
893	0.139
893	0.139
893	0.139
894	0.138
894	0.138
895	0.137
895	0.137
895	0.137
896	0.137
896	0.137
897	0.137
897	0.137
898	0.137
898	0.137
898	0.136
899	0.136
899	0.136
900	0.136
900	0.136
901	0.136
901	0.135
901	0.135
902	0.135
902	0.135
903	0.135
903	0.135
904	0.135
904	0.135
904	0.135
905	0.135
905	0.134
906	0.134
906	0.134
907	0.134
907	0.134
907	0.134
908	0.133
908	0.133
909	0.133
909	0.133
910	0.132
910	0.132
910	0.132
911	0.132
911	0.131
912	0.131
912	0.13
913	0.13
913	0.13
913	0.129
914	0.129
914	0.128
915	0.128
915	0.128
916	0.127
916	0.127
916	0.127
917	0.126
917	0.126
918	0.126
918	0.125
918	0.125
919	0.125
919	0.125
920	0.125
920	0.126
921	0.126
921	0.126
921	0.126
922	0.127
922	0.127
923	0.127
923	0.127
924	0.127
924	0.128
924	0.128
925	0.128
925	0.128
926	0.128
926	0.128
927	0.128
927	0.128
927	0.128
928	0.128
928	0.128
929	0.128
929	0.128
930	0.127
930	0.127
930	0.127
931	0.127
931	0.127
932	0.127
932	0.127
933	0.127
933	0.127
933	0.127
934	0.126
934	0.126
935	0.126
935	0.126
935	0.126
936	0.125
936	0.125
937	0.124
937	0.124
938	0.123
938	0.122
938	0.121
939	0.121
939	0.12
940	0.12
940	0.119
941	0.12
941	0.12
941	0.12
942	0.121
942	0.121
943	0.121
943	0.122
944	0.122
944	0.122
944	0.123
945	0.123
945	0.123
946	0.122
946	0.122
946	0.122
947	0.121
947	0.121
948	0.12
948	0.12
949	0.119
949	0.118
949	0.117
950	0.117
950	0.117
951	0.116
951	0.115
952	0.115
952	0.114
952	0.114
953	0.114
953	0.114
954	0.114
954	0.114
955	0.114
955	0.114
955	0.114
956	0.114
956	0.115
957	0.116
957	0.117
957	0.117
958	0.118
958	0.118
959	0.119
959	0.119
960	0.12
960	0.12
960	0.121
961	0.121
961	0.121
962	0.121
962	0.12
963	0.12
963	0.12
963	0.12
964	0.119
964	0.119
965	0.119
965	0.118
966	0.118
966	0.117
966	0.117
967	0.116
967	0.116
968	0.116
968	0.116
968	0.115
969	0.114
969	0.114
970	0.113
970	0.112
971	0.112
971	0.111
971	0.11
972	0.109
972	0.109
973	0.109
973	0.108
974	0.108
974	0.108
974	0.109
975	0.109
975	0.109
976	0.109
976	0.11
976	0.11
977	0.11
977	0.109
978	0.109
978	0.109
979	0.109
979	0.108
979	0.109
980	0.109
980	0.109
981	0.109
981	0.109
982	0.109
982	0.11
982	0.11
983	0.11
983	0.111
984	0.111
984	0.111
984	0.111
985	0.111
985	0.111
986	0.111
986	0.111
987	0.111
987	0.111
987	0.111
988	0.111
988	0.111
989	0.111
989	0.111
990	0.111
990	0.111
990	0.111
991	0.111
991	0.111
992	0.11
992	0.11
992	0.109
993	0.108
993	0.107
994	0.106
994	0.106
995	0.105
995	0.104
995	0.104
996	0.104
996	0.104
997	0.104
997	0.104
997	0.105
998	0.105
998	0.106
999	0.107
999	0.108
1000	0.109
1000	0.109
1000	0.11
1001	0.11
1001	0.111
1002	0.11
1002	0.11
1003	0.11
1003	0.11
1003	0.109
1004	0.109
1004	0.108
1005	0.107
1005	0.106
1005	0.106
1006	0.105
1006	0.105
1007	0.104
1007	0.104
1008	0.103
1008	0.103
1008	0.102
1009	0.102
1009	0.102
1010	0.101
1010	0.101
1010	0.101
1011	0.101
1011	0.1
1012	0.1
1012	0.099
1013	0.099
1013	0.099
1013	0.098
1014	0.097
1014	0.097
1015	0.097
1015	0.096
1016	0.096
1016	0.096
1016	0.095
1017	0.095
1017	0.095
1018	0.095
1018	0.095
1018	0.094
1019	0.094
1019	0.094
1020	0.094
1020	0.094
1021	0.095
1021	0.095
1021	0.095
1022	0.096
1022	0.096
1023	0.096
1023	0.096
1023	0.097
1024	0.097
1024	0.097
1025	0.097
1025	0.097
1026	0.097
1026	0.097
1026	0.097
1027	0.097
1027	0.097
1028	0.097
1028	0.097
1028	0.097
1029	0.097
1029	0.097
1030	0.097
1030	0.097
1031	0.098
1031	0.098
1031	0.098
1032	0.098
1032	0.099
1033	0.099
1033	0.099
1033	0.099
1034	0.099
1034	0.098
1035	0.098
1035	0.098
1036	0.098
1036	0.097
1036	0.097
1037	0.097
1037	0.096
1038	0.096
1038	0.096
1039	0.096
1039	0.096
1039	0.095
1040	0.095
1040	0.095
1041	0.095
1041	0.094
1041	0.094
1042	0.094
1042	0.094
1043	0.093
1043	0.093
1044	0.093
1044	0.092
1044	0.092
1045	0.092
1045	0.091
1046	0.091
1046	0.091
1046	0.09
1047	0.09
1047	0.09
1048	0.089
1048	0.089
1049	0.089
1049	0.089
1049	0.089
1050	0.089
1050	0.088
1051	0.088
1051	0.088
1051	0.088
1052	0.087
1052	0.087
1053	0.087
1053	0.087
1053	0.086
1054	0.086
1054	0.086
1055	0.085
1055	0.085
1056	0.084
1056	0.084
1056	0.083
1057	0.083
1057	0.083
1058	0.082
1058	0.082
1058	0.081
1059	0.081
1059	0.08
1060	0.08
1060	0.079
1061	0.079
1061	0.079
1061	0.078
1062	0.078
1062	0.078
1063	0.078
1063	0.077
1063	0.077
1064	0.077
1064	0.077
1065	0.077
1065	0.077
1066	0.077
1066	0.077
1066	0.077
1067	0.077
1067	0.077
1068	0.077
1068	0.077
1068	0.078
1069	0.078
1069	0.077
1070	0.077
1070	0.077
1071	0.076
1071	0.076
1071	0.077
1072	0.077
1072	0.076
1073	0.076
1073	0.075
1073	0.075
1074	0.075
1074	0.076
1075	0.076
1075	0.076
1076	0.076
1076	0.077
1076	0.077
1077	0.077
1077	0.077
1078	0.077
1078	0.077
1078	0.077
1079	0.077
1079	0.076
1080	0.076
1080	0.076
1080	0.075
1081	0.075
1081	0.075
1082	0.075
1082	0.075
1083	0.075
1083	0.075
1083	0.075
1084	0.075
1084	0.075
1085	0.075
1085	0.075
1085	0.075
1086	0.075
1086	0.075
1087	0.075
1087	0.075
1088	0.075
1088	0.075
1088	0.076
1089	0.075
1089	0.075
1090	0.074
1090	0.074
1090	0.073
1091	0.073
1091	0.073
1092	0.073
1092	0.073
1092	0.073
1093	0.072
1093	0.073
1094	0.073
1094	0.073
1095	0.073
1095	0.073
1095	0.073
1096	0.072
1096	0.071
1097	0.071
1097	0.07
1097	0.069
1098	0.068
1098	0.066
1099	0.065
1099	0.064
1100	0.062
1100	0.061
1100	0.06
1101	0.06
1101	0.06
1102	0.059
1102	0.058
1102	0.057
1103	0.057
1103	0.056
1104	0.057
1104	0.057
1104	0.057
1105	0.056
1105	0.053
1106	0.052
1106	0.051
1107	0.051
1107	0.051
1107	0.051
1108	0.05
1108	0.049
1109	0.046
1109	0.046
1109	0.046
1110	0.049
1110	0.048
1111	0.048
1111	0.048
