Data from reversibility-20sec_Absorbance__3130__000000000003130.txt Node

Date: Wed Dec 06 05:36:25 CET 2023
User: Marek
Spectrometer: MAYP115816
Trigger mode: 0
Integration Time (sec): 2.000000E-1
Scans to average: 10
Electric dark correction enabled: true
Nonlinearity correction enabled: true
Boxcar width: 5
XAxis mode: Wavelengths
Number of Pixels in Spectrum: 2068
>>>>>Begin Spectral Data<<<<<
199	-0.16
199	-0.134
200	-0.063
200	-0.011
201	0.018
201	0.035
202	0.049
202	0.06
203	0.069
203	0.073
204	0.088
204	0.101
205	0.116
205	0.122
205	0.12
206	0.119
206	0.12
207	0.123
207	0.12
208	0.119
208	0.119
209	0.118
209	0.117
210	0.117
210	0.117
211	0.118
211	0.121
212	0.12
212	0.119
213	0.124
213	0.125
213	0.124
214	0.128
214	0.129
215	0.131
215	0.131
216	0.132
216	0.132
217	0.135
217	0.136
218	0.133
218	0.137
219	0.14
219	0.144
220	0.149
220	0.148
221	0.148
221	0.151
221	0.158
222	0.164
222	0.168
223	0.176
223	0.178
224	0.186
224	0.193
225	0.203
225	0.214
226	0.224
226	0.237
227	0.246
227	0.254
228	0.271
228	0.284
229	0.301
229	0.323
229	0.346
230	0.369
230	0.4
231	0.432
231	0.47
232	0.503
232	0.548
233	0.592
233	0.644
234	0.697
234	0.748
235	0.8
235	0.854
236	0.91
236	0.966
236	1.015
237	1.074
237	1.122
238	1.172
238	1.219
239	1.269
239	1.313
240	1.356
240	1.397
241	1.43
241	1.463
242	1.501
242	1.536
243	1.569
243	1.595
243	1.623
244	1.644
244	1.668
245	1.691
245	1.714
246	1.735
246	1.757
247	1.77
247	1.785
248	1.802
248	1.819
249	1.83
249	1.842
250	1.853
250	1.862
250	1.867
251	1.875
251	1.879
252	1.889
252	1.888
253	1.892
253	1.89
254	1.89
254	1.893
255	1.894
255	1.894
256	1.895
256	1.895
257	1.895
257	1.892
258	1.895
258	1.894
258	1.895
259	1.897
259	1.898
260	1.897
260	1.9
261	1.901
261	1.905
262	1.908
262	1.912
263	1.916
263	1.918
264	1.92
264	1.92
265	1.92
265	1.922
265	1.922
266	1.924
266	1.925
267	1.925
267	1.928
268	1.928
268	1.93
269	1.933
269	1.936
270	1.936
270	1.935
271	1.932
271	1.931
272	1.929
272	1.927
272	1.923
273	1.915
273	1.907
274	1.899
274	1.892
275	1.885
275	1.878
276	1.873
276	1.864
277	1.855
277	1.846
278	1.835
278	1.824
278	1.809
279	1.792
279	1.771
280	1.745
280	1.711
281	1.672
281	1.629
282	1.585
282	1.54
283	1.495
283	1.453
284	1.412
284	1.373
285	1.336
285	1.301
285	1.272
286	1.245
286	1.222
287	1.202
287	1.184
288	1.169
288	1.156
289	1.145
289	1.135
290	1.127
290	1.12
291	1.113
291	1.108
292	1.102
292	1.098
292	1.094
293	1.09
293	1.086
294	1.083
294	1.079
295	1.076
295	1.073
296	1.07
296	1.067
297	1.063
297	1.06
298	1.057
298	1.053
298	1.051
299	1.048
299	1.045
300	1.042
300	1.039
301	1.036
301	1.033
302	1.03
302	1.028
303	1.025
303	1.023
304	1.02
304	1.017
305	1.015
305	1.012
305	1.01
306	1.007
306	1.004
307	1.002
307	0.999
308	0.996
308	0.993
309	0.99
309	0.987
310	0.984
310	0.981
311	0.978
311	0.974
311	0.971
312	0.967
312	0.964
313	0.96
313	0.956
314	0.952
314	0.948
315	0.943
315	0.939
316	0.934
316	0.93
317	0.925
317	0.92
318	0.915
318	0.909
318	0.904
319	0.899
319	0.893
320	0.888
320	0.882
321	0.876
321	0.869
322	0.863
322	0.857
323	0.85
323	0.844
324	0.837
324	0.83
324	0.823
325	0.816
325	0.81
326	0.803
326	0.796
327	0.789
327	0.782
328	0.775
328	0.768
329	0.761
329	0.753
330	0.746
330	0.739
330	0.732
331	0.725
331	0.718
332	0.711
332	0.704
333	0.697
333	0.69
334	0.683
334	0.676
335	0.669
335	0.662
336	0.656
336	0.649
336	0.642
337	0.636
337	0.63
338	0.623
338	0.617
339	0.611
339	0.605
340	0.599
340	0.594
341	0.588
341	0.582
342	0.577
342	0.572
342	0.566
343	0.561
343	0.556
344	0.551
344	0.546
345	0.541
345	0.536
346	0.532
346	0.528
347	0.523
347	0.519
348	0.515
348	0.511
348	0.507
349	0.503
349	0.5
350	0.496
350	0.492
351	0.489
351	0.485
352	0.482
352	0.479
353	0.476
353	0.473
354	0.47
354	0.467
354	0.464
355	0.461
355	0.458
356	0.455
356	0.453
357	0.449
357	0.446
358	0.443
358	0.44
359	0.438
359	0.436
360	0.433
360	0.431
360	0.429
361	0.427
361	0.425
362	0.424
362	0.422
363	0.42
363	0.418
364	0.416
364	0.414
365	0.412
365	0.41
366	0.408
366	0.406
366	0.405
367	0.403
367	0.401
368	0.399
368	0.398
369	0.396
369	0.395
370	0.393
370	0.392
371	0.39
371	0.389
372	0.387
372	0.386
372	0.385
373	0.384
373	0.383
374	0.381
374	0.38
375	0.379
375	0.378
376	0.377
376	0.375
377	0.374
377	0.373
378	0.372
378	0.371
378	0.369
379	0.368
379	0.368
380	0.367
380	0.366
381	0.365
381	0.364
382	0.363
382	0.363
383	0.362
383	0.361
383	0.361
384	0.36
384	0.359
385	0.358
385	0.358
386	0.357
386	0.356
387	0.356
387	0.355
388	0.354
388	0.354
389	0.353
389	0.353
389	0.352
390	0.352
390	0.351
391	0.35
391	0.35
392	0.349
392	0.349
393	0.348
393	0.348
394	0.347
394	0.347
394	0.346
395	0.345
395	0.345
396	0.345
396	0.344
397	0.344
397	0.343
398	0.343
398	0.342
399	0.342
399	0.341
400	0.341
400	0.341
400	0.34
401	0.34
401	0.339
402	0.339
402	0.338
403	0.337
403	0.337
404	0.337
404	0.336
405	0.336
405	0.335
405	0.335
406	0.335
406	0.334
407	0.334
407	0.333
408	0.333
408	0.332
409	0.332
409	0.332
410	0.331
410	0.331
411	0.331
411	0.33
411	0.33
412	0.33
412	0.329
413	0.329
413	0.329
414	0.328
414	0.328
415	0.327
415	0.327
416	0.327
416	0.326
416	0.326
417	0.325
417	0.325
418	0.325
418	0.324
419	0.324
419	0.324
420	0.323
420	0.323
421	0.323
421	0.322
421	0.322
422	0.321
422	0.321
423	0.321
423	0.32
424	0.32
424	0.319
425	0.319
425	0.319
426	0.319
426	0.318
427	0.318
427	0.318
427	0.317
428	0.317
428	0.317
429	0.316
429	0.316
430	0.315
430	0.315
431	0.315
431	0.315
432	0.314
432	0.314
432	0.314
433	0.314
433	0.313
434	0.313
434	0.313
435	0.313
435	0.313
436	0.313
436	0.313
437	0.313
437	0.313
437	0.312
438	0.312
438	0.312
439	0.312
439	0.312
440	0.311
440	0.311
441	0.311
441	0.31
442	0.31
442	0.31
442	0.31
443	0.31
443	0.31
444	0.309
444	0.309
445	0.309
445	0.309
446	0.309
446	0.309
447	0.308
447	0.308
447	0.308
448	0.308
448	0.308
449	0.308
449	0.307
450	0.308
450	0.307
451	0.307
451	0.307
452	0.307
452	0.307
452	0.307
453	0.307
453	0.307
454	0.307
454	0.307
455	0.307
455	0.307
456	0.307
456	0.307
457	0.307
457	0.307
458	0.307
458	0.307
458	0.307
459	0.307
459	0.307
460	0.307
460	0.307
461	0.307
461	0.307
462	0.308
462	0.308
463	0.308
463	0.308
463	0.308
464	0.307
464	0.307
465	0.307
465	0.307
466	0.307
466	0.308
467	0.308
467	0.308
467	0.308
468	0.308
468	0.308
469	0.309
469	0.309
470	0.31
470	0.31
471	0.311
471	0.311
472	0.311
472	0.312
472	0.312
473	0.313
473	0.313
474	0.313
474	0.313
475	0.314
475	0.314
476	0.314
476	0.315
477	0.316
477	0.316
477	0.317
478	0.317
478	0.317
479	0.318
479	0.319
480	0.319
480	0.32
481	0.32
481	0.321
482	0.321
482	0.322
482	0.323
483	0.324
483	0.325
484	0.326
484	0.326
485	0.327
485	0.328
486	0.328
486	0.329
487	0.33
487	0.331
487	0.331
488	0.332
488	0.333
489	0.334
489	0.335
490	0.336
490	0.338
491	0.339
491	0.34
492	0.341
492	0.343
492	0.344
493	0.345
493	0.347
494	0.349
494	0.35
495	0.351
495	0.352
496	0.353
496	0.355
496	0.356
497	0.357
497	0.358
498	0.36
498	0.361
499	0.362
499	0.363
500	0.365
500	0.366
501	0.368
501	0.369
501	0.37
502	0.372
502	0.373
503	0.374
503	0.376
504	0.377
504	0.378
505	0.379
505	0.381
506	0.382
506	0.383
506	0.385
507	0.386
507	0.387
508	0.388
508	0.389
509	0.391
509	0.392
510	0.393
510	0.394
511	0.395
511	0.397
511	0.398
512	0.399
512	0.4
513	0.401
513	0.402
514	0.402
514	0.403
515	0.404
515	0.405
515	0.405
516	0.406
516	0.407
517	0.408
517	0.408
518	0.409
518	0.409
519	0.41
519	0.41
520	0.41
520	0.411
520	0.411
521	0.411
521	0.411
522	0.411
522	0.411
523	0.411
523	0.411
524	0.411
524	0.411
524	0.41
525	0.41
525	0.409
526	0.409
526	0.409
527	0.408
527	0.407
528	0.406
528	0.405
529	0.405
529	0.404
529	0.403
530	0.402
530	0.401
531	0.4
531	0.398
532	0.397
532	0.396
533	0.395
533	0.393
533	0.392
534	0.39
534	0.389
535	0.387
535	0.386
536	0.384
536	0.382
537	0.38
537	0.379
538	0.377
538	0.375
538	0.373
539	0.371
539	0.37
540	0.368
540	0.367
541	0.365
541	0.363
542	0.362
542	0.36
542	0.358
543	0.357
543	0.355
544	0.353
544	0.351
545	0.349
545	0.347
546	0.345
546	0.343
547	0.341
547	0.339
547	0.337
548	0.335
548	0.333
549	0.331
549	0.329
550	0.327
550	0.325
551	0.323
551	0.32
551	0.318
552	0.316
552	0.314
553	0.312
553	0.311
554	0.308
554	0.306
555	0.304
555	0.302
556	0.3
556	0.298
556	0.296
557	0.294
557	0.293
558	0.291
558	0.289
559	0.287
559	0.286
560	0.284
560	0.282
560	0.281
561	0.279
561	0.277
562	0.275
562	0.273
563	0.271
563	0.269
564	0.267
564	0.265
564	0.263
565	0.262
565	0.26
566	0.258
566	0.257
567	0.255
567	0.254
568	0.252
568	0.251
568	0.249
569	0.248
569	0.246
570	0.244
570	0.243
571	0.241
571	0.24
572	0.239
572	0.237
573	0.236
573	0.235
573	0.233
574	0.232
574	0.231
575	0.23
575	0.229
576	0.228
576	0.226
577	0.224
577	0.223
577	0.222
578	0.221
578	0.219
579	0.219
579	0.218
580	0.216
580	0.215
581	0.213
581	0.212
581	0.212
582	0.211
582	0.21
583	0.21
583	0.209
584	0.207
584	0.205
585	0.204
585	0.203
585	0.202
586	0.201
586	0.2
587	0.199
587	0.198
588	0.197
588	0.196
589	0.195
589	0.194
590	0.194
590	0.193
590	0.193
591	0.192
591	0.19
592	0.189
592	0.188
593	0.187
593	0.186
594	0.185
594	0.184
594	0.183
595	0.182
595	0.181
596	0.18
596	0.18
597	0.18
597	0.18
598	0.179
598	0.179
598	0.179
599	0.179
599	0.178
600	0.177
600	0.177
601	0.176
601	0.175
602	0.174
602	0.173
602	0.172
603	0.171
603	0.171
604	0.171
604	0.17
605	0.17
605	0.169
606	0.169
606	0.168
606	0.167
607	0.166
607	0.166
608	0.165
608	0.164
609	0.163
609	0.162
610	0.161
610	0.161
610	0.16
611	0.16
611	0.16
612	0.16
612	0.16
613	0.16
613	0.159
614	0.159
614	0.158
614	0.158
615	0.158
615	0.157
616	0.157
616	0.156
617	0.156
617	0.156
618	0.155
618	0.155
618	0.155
619	0.155
619	0.155
620	0.155
620	0.154
621	0.154
621	0.153
622	0.153
622	0.152
622	0.151
623	0.15
623	0.15
624	0.15
624	0.149
625	0.148
625	0.148
626	0.147
626	0.147
626	0.147
627	0.147
627	0.146
628	0.146
628	0.146
629	0.146
629	0.145
630	0.145
630	0.144
630	0.144
631	0.144
631	0.144
632	0.143
632	0.142
633	0.142
633	0.142
634	0.142
634	0.142
634	0.142
635	0.142
635	0.142
636	0.141
636	0.141
637	0.141
637	0.141
638	0.14
638	0.14
638	0.139
639	0.138
639	0.137
640	0.137
640	0.137
641	0.136
641	0.136
642	0.136
642	0.136
642	0.136
643	0.136
643	0.136
644	0.136
644	0.136
645	0.136
645	0.137
646	0.137
646	0.137
646	0.137
647	0.137
647	0.137
648	0.136
648	0.136
649	0.135
649	0.135
650	0.135
650	0.135
650	0.135
651	0.134
651	0.134
652	0.134
652	0.134
653	0.134
653	0.136
653	0.141
654	0.112
654	0.09
655	0.09
655	0.09
656	0.09
656	0.09
657	0.091
657	0.091
657	0.091
658	0.089
658	0.081
659	0.102
659	0.129
660	0.133
660	0.133
661	0.133
661	0.132
661	0.131
662	0.13
662	0.13
663	0.129
663	0.129
664	0.128
664	0.128
665	0.128
665	0.127
665	0.127
666	0.128
666	0.128
667	0.128
667	0.128
668	0.129
668	0.129
669	0.129
669	0.129
669	0.129
670	0.129
670	0.129
671	0.129
671	0.129
672	0.128
672	0.128
672	0.127
673	0.127
673	0.127
674	0.126
674	0.126
675	0.125
675	0.125
676	0.125
676	0.125
676	0.125
677	0.125
677	0.125
678	0.125
678	0.125
679	0.125
679	0.125
680	0.125
680	0.124
680	0.124
681	0.123
681	0.124
682	0.124
682	0.124
683	0.124
683	0.124
684	0.124
684	0.124
684	0.124
685	0.125
685	0.125
686	0.125
686	0.125
687	0.125
687	0.125
687	0.125
688	0.125
688	0.125
689	0.126
689	0.126
690	0.126
690	0.126
691	0.126
691	0.126
691	0.126
692	0.126
692	0.126
693	0.126
693	0.127
694	0.126
694	0.126
695	0.126
695	0.127
695	0.127
696	0.127
696	0.127
697	0.127
697	0.127
698	0.127
698	0.127
698	0.127
699	0.127
699	0.127
700	0.126
700	0.126
701	0.126
701	0.125
702	0.125
702	0.124
702	0.124
703	0.123
703	0.122
704	0.122
704	0.122
705	0.122
705	0.121
705	0.121
706	0.121
706	0.121
707	0.121
707	0.121
708	0.121
708	0.121
709	0.121
709	0.121
709	0.12
710	0.12
710	0.12
711	0.121
711	0.12
712	0.12
712	0.12
713	0.12
713	0.12
713	0.12
714	0.12
714	0.12
715	0.12
715	0.119
716	0.119
716	0.119
716	0.118
717	0.118
717	0.117
718	0.116
718	0.116
719	0.116
719	0.115
720	0.116
720	0.116
720	0.116
721	0.117
721	0.117
722	0.118
722	0.119
723	0.119
723	0.12
723	0.12
724	0.12
724	0.119
725	0.119
725	0.118
726	0.117
726	0.117
727	0.116
727	0.116
727	0.115
728	0.115
728	0.114
729	0.115
729	0.115
730	0.115
730	0.115
730	0.115
731	0.115
731	0.116
732	0.116
732	0.116
733	0.116
733	0.116
734	0.116
734	0.116
734	0.116
735	0.116
735	0.116
736	0.116
736	0.115
737	0.115
737	0.115
737	0.114
738	0.113
738	0.112
739	0.112
739	0.112
740	0.112
740	0.112
741	0.112
741	0.111
741	0.111
742	0.111
742	0.112
743	0.112
743	0.113
744	0.113
744	0.113
744	0.113
745	0.113
745	0.113
746	0.113
746	0.114
747	0.114
747	0.114
748	0.114
748	0.114
748	0.114
749	0.114
749	0.114
750	0.114
750	0.114
751	0.114
751	0.114
751	0.114
752	0.113
752	0.112
753	0.112
753	0.111
754	0.11
754	0.109
754	0.108
755	0.108
755	0.107
756	0.106
756	0.105
757	0.105
757	0.105
758	0.105
758	0.105
758	0.105
759	0.105
759	0.105
760	0.105
760	0.105
761	0.105
761	0.106
761	0.106
762	0.105
762	0.105
763	0.105
763	0.105
764	0.104
764	0.104
764	0.104
765	0.103
765	0.103
766	0.102
766	0.102
767	0.101
767	0.1
768	0.1
768	0.099
768	0.099
769	0.099
769	0.099
770	0.1
770	0.1
771	0.1
771	0.1
771	0.101
772	0.101
772	0.102
773	0.102
773	0.102
774	0.102
774	0.103
775	0.103
775	0.103
775	0.103
776	0.102
776	0.102
777	0.102
777	0.102
778	0.102
778	0.101
778	0.1
779	0.1
779	0.099
780	0.098
780	0.097
781	0.096
781	0.095
781	0.095
782	0.094
782	0.094
783	0.094
783	0.094
784	0.094
784	0.094
784	0.094
785	0.094
785	0.094
786	0.095
786	0.094
787	0.095
787	0.095
788	0.095
788	0.094
788	0.094
789	0.094
789	0.093
790	0.093
790	0.093
791	0.092
791	0.092
791	0.091
792	0.092
792	0.091
793	0.091
793	0.091
794	0.09
794	0.09
794	0.09
795	0.09
795	0.091
796	0.091
796	0.091
797	0.09
797	0.09
797	0.09
798	0.09
798	0.09
799	0.09
799	0.09
800	0.089
800	0.088
801	0.088
801	0.087
801	0.087
802	0.086
802	0.086
803	0.086
803	0.086
804	0.086
804	0.086
804	0.086
805	0.086
805	0.086
806	0.086
806	0.086
807	0.086
807	0.086
807	0.086
808	0.086
808	0.086
809	0.086
809	0.086
810	0.086
810	0.086
810	0.086
811	0.086
811	0.086
812	0.086
812	0.086
813	0.085
813	0.085
813	0.085
814	0.085
814	0.085
815	0.085
815	0.085
816	0.085
816	0.084
817	0.084
817	0.084
817	0.083
818	0.083
818	0.082
819	0.082
819	0.081
820	0.08
820	0.08
820	0.08
821	0.08
821	0.08
822	0.08
822	0.08
823	0.08
823	0.08
823	0.081
824	0.082
824	0.083
825	0.084
825	0.084
826	0.085
826	0.085
826	0.085
827	0.085
827	0.085
828	0.085
828	0.085
829	0.085
829	0.085
829	0.085
830	0.085
830	0.085
831	0.086
831	0.086
832	0.086
832	0.086
832	0.086
833	0.086
833	0.086
834	0.086
834	0.085
835	0.085
835	0.084
835	0.083
836	0.083
836	0.083
837	0.082
837	0.082
838	0.081
838	0.08
839	0.079
839	0.078
839	0.077
840	0.076
840	0.075
841	0.074
841	0.073
842	0.072
842	0.072
842	0.071
843	0.071
843	0.071
844	0.071
844	0.071
845	0.071
845	0.072
845	0.072
846	0.072
846	0.072
847	0.073
847	0.073
848	0.073
848	0.073
848	0.073
849	0.072
849	0.072
850	0.071
850	0.07
851	0.07
851	0.069
851	0.068
852	0.068
852	0.067
853	0.067
853	0.067
854	0.067
854	0.068
854	0.069
855	0.07
855	0.071
856	0.072
856	0.074
857	0.075
857	0.076
857	0.076
858	0.077
858	0.077
859	0.076
859	0.076
860	0.075
860	0.074
860	0.072
861	0.071
861	0.07
862	0.069
862	0.068
863	0.067
863	0.066
863	0.066
864	0.065
864	0.065
865	0.065
865	0.065
866	0.065
866	0.065
866	0.065
867	0.065
867	0.065
868	0.065
868	0.065
869	0.065
869	0.064
869	0.064
870	0.063
870	0.063
871	0.063
871	0.063
872	0.063
872	0.063
872	0.064
873	0.064
873	0.064
874	0.063
874	0.063
875	0.063
875	0.063
875	0.063
876	0.063
876	0.063
877	0.063
877	0.063
878	0.063
878	0.063
878	0.064
879	0.065
879	0.065
880	0.066
880	0.066
881	0.066
881	0.066
881	0.066
882	0.066
882	0.066
883	0.066
883	0.066
884	0.066
884	0.065
884	0.065
885	0.065
885	0.064
886	0.064
886	0.063
887	0.063
887	0.062
887	0.061
888	0.06
888	0.059
889	0.059
889	0.058
890	0.058
890	0.058
890	0.057
891	0.057
891	0.057
892	0.057
892	0.057
893	0.056
893	0.056
893	0.056
894	0.055
894	0.055
895	0.055
895	0.055
895	0.054
896	0.055
896	0.055
897	0.055
897	0.055
898	0.055
898	0.055
898	0.056
899	0.056
899	0.056
900	0.056
900	0.056
901	0.057
901	0.057
901	0.057
902	0.058
902	0.058
903	0.058
903	0.058
904	0.058
904	0.058
904	0.058
905	0.058
905	0.058
906	0.059
906	0.059
907	0.06
907	0.061
907	0.062
908	0.062
908	0.063
909	0.063
909	0.064
910	0.064
910	0.064
910	0.064
911	0.063
911	0.063
912	0.062
912	0.062
913	0.061
913	0.061
913	0.06
914	0.059
914	0.059
915	0.058
915	0.058
916	0.058
916	0.058
916	0.057
917	0.057
917	0.057
918	0.056
918	0.056
918	0.055
919	0.055
919	0.055
920	0.054
920	0.053
921	0.053
921	0.052
921	0.052
922	0.051
922	0.051
923	0.051
923	0.051
924	0.051
924	0.051
924	0.051
925	0.051
925	0.051
926	0.051
926	0.051
927	0.051
927	0.052
927	0.052
928	0.052
928	0.052
929	0.053
929	0.053
930	0.053
930	0.053
930	0.054
931	0.054
931	0.054
932	0.054
932	0.055
933	0.055
933	0.055
933	0.055
934	0.056
934	0.056
935	0.056
935	0.057
935	0.057
936	0.057
936	0.057
937	0.057
937	0.057
938	0.057
938	0.057
938	0.056
939	0.056
939	0.055
940	0.055
940	0.055
941	0.054
941	0.054
941	0.054
942	0.054
942	0.053
943	0.053
943	0.053
944	0.053
944	0.054
944	0.054
945	0.054
945	0.054
946	0.054
946	0.054
946	0.054
947	0.054
947	0.054
948	0.055
948	0.055
949	0.054
949	0.054
949	0.054
950	0.054
950	0.054
951	0.053
951	0.052
952	0.052
952	0.051
952	0.05
953	0.049
953	0.049
954	0.048
954	0.048
955	0.048
955	0.047
955	0.047
956	0.047
956	0.048
957	0.048
957	0.049
957	0.049
958	0.05
958	0.051
959	0.051
959	0.052
960	0.053
960	0.053
960	0.054
961	0.054
961	0.054
962	0.054
962	0.054
963	0.054
963	0.054
963	0.054
964	0.054
964	0.055
965	0.055
965	0.055
966	0.055
966	0.056
966	0.056
967	0.057
967	0.057
968	0.057
968	0.057
968	0.057
969	0.057
969	0.056
970	0.056
970	0.055
971	0.054
971	0.053
971	0.053
972	0.052
972	0.051
973	0.05
973	0.049
974	0.049
974	0.049
974	0.049
975	0.049
975	0.049
976	0.049
976	0.05
976	0.05
977	0.05
977	0.049
978	0.049
978	0.049
979	0.049
979	0.048
979	0.048
980	0.047
980	0.047
981	0.046
981	0.046
982	0.046
982	0.046
982	0.046
983	0.046
983	0.046
984	0.047
984	0.047
984	0.047
985	0.047
985	0.047
986	0.046
986	0.046
987	0.046
987	0.045
987	0.045
988	0.045
988	0.045
989	0.045
989	0.044
990	0.044
990	0.044
990	0.044
991	0.045
991	0.045
992	0.045
992	0.045
992	0.045
993	0.045
993	0.045
994	0.045
994	0.045
995	0.045
995	0.045
995	0.044
996	0.044
996	0.044
997	0.044
997	0.044
997	0.044
998	0.044
998	0.044
999	0.044
999	0.045
1000	0.045
1000	0.045
1000	0.045
1001	0.045
1001	0.045
1002	0.045
1002	0.045
1003	0.044
1003	0.044
1003	0.044
1004	0.043
1004	0.043
1005	0.042
1005	0.042
1005	0.042
1006	0.041
1006	0.041
1007	0.041
1007	0.041
1008	0.041
1008	0.04
1008	0.04
1009	0.041
1009	0.041
1010	0.041
1010	0.041
1010	0.042
1011	0.042
1011	0.042
1012	0.042
1012	0.042
1013	0.042
1013	0.042
1013	0.042
1014	0.042
1014	0.042
1015	0.042
1015	0.042
1016	0.042
1016	0.041
1016	0.041
1017	0.041
1017	0.041
1018	0.041
1018	0.041
1018	0.041
1019	0.041
1019	0.041
1020	0.041
1020	0.041
1021	0.042
1021	0.042
1021	0.042
1022	0.043
1022	0.043
1023	0.044
1023	0.044
1023	0.045
1024	0.045
1024	0.045
1025	0.045
1025	0.045
1026	0.045
1026	0.045
1026	0.045
1027	0.045
1027	0.044
1028	0.044
1028	0.044
1028	0.043
1029	0.043
1029	0.043
1030	0.043
1030	0.043
1031	0.043
1031	0.044
1031	0.044
1032	0.044
1032	0.044
1033	0.044
1033	0.044
1033	0.043
1034	0.043
1034	0.043
1035	0.042
1035	0.042
1036	0.042
1036	0.041
1036	0.041
1037	0.041
1037	0.04
1038	0.04
1038	0.04
1039	0.04
1039	0.04
1039	0.04
1040	0.041
1040	0.041
1041	0.041
1041	0.041
1041	0.042
1042	0.042
1042	0.042
1043	0.042
1043	0.043
1044	0.043
1044	0.043
1044	0.044
1045	0.044
1045	0.044
1046	0.044
1046	0.045
1046	0.045
1047	0.046
1047	0.046
1048	0.047
1048	0.047
1049	0.048
1049	0.048
1049	0.049
1050	0.049
1050	0.049
1051	0.049
1051	0.049
1051	0.049
1052	0.049
1052	0.048
1053	0.048
1053	0.047
1053	0.047
1054	0.046
1054	0.046
1055	0.045
1055	0.045
1056	0.044
1056	0.044
1056	0.043
1057	0.043
1057	0.042
1058	0.042
1058	0.041
1058	0.041
1059	0.04
1059	0.04
1060	0.04
1060	0.04
1061	0.039
1061	0.04
1061	0.04
1062	0.04
1062	0.04
1063	0.04
1063	0.04
1063	0.04
1064	0.039
1064	0.039
1065	0.039
1065	0.038
1066	0.038
1066	0.037
1066	0.036
1067	0.035
1067	0.035
1068	0.035
1068	0.034
1068	0.034
1069	0.033
1069	0.032
1070	0.032
1070	0.031
1071	0.031
1071	0.03
1071	0.029
1072	0.029
1072	0.028
1073	0.027
1073	0.026
1073	0.026
1074	0.026
1074	0.026
1075	0.025
1075	0.025
1076	0.026
1076	0.026
1076	0.026
1077	0.026
1077	0.027
1078	0.027
1078	0.028
1078	0.028
1079	0.028
1079	0.028
1080	0.028
1080	0.028
1080	0.028
1081	0.028
1081	0.028
1082	0.028
1082	0.029
1083	0.029
1083	0.029
1083	0.029
1084	0.029
1084	0.03
1085	0.03
1085	0.031
1085	0.031
1086	0.031
1086	0.031
1087	0.031
1087	0.032
1088	0.032
1088	0.032
1088	0.032
1089	0.031
1089	0.031
1090	0.03
1090	0.029
1090	0.029
1091	0.029
1091	0.029
1092	0.029
1092	0.029
1092	0.029
1093	0.028
1093	0.029
1094	0.029
1094	0.029
1095	0.029
1095	0.029
1095	0.03
1096	0.028
1096	0.027
1097	0.027
1097	0.026
1097	0.026
1098	0.026
1098	0.025
1099	0.024
1099	0.023
1100	0.023
1100	0.021
1100	0.021
1101	0.021
1101	0.021
1102	0.021
1102	0.021
1102	0.02
1103	0.02
1103	0.02
1104	0.02
1104	0.019
1104	0.019
1105	0.018
1105	0.017
1106	0.015
1106	0.013
1107	0.012
1107	0.011
1107	0.01
1108	0.009
1108	0.008
1109	0.007
1109	0.006
1109	0.006
1110	0.007
1110	0.006
1111	0.007
1111	0.007
