Data from reversibility-20sec_Absorbance__1137__000000000001137.txt Node

Date: Tue Dec 05 18:32:06 CET 2023
User: Marek
Spectrometer: MAYP115816
Trigger mode: 0
Integration Time (sec): 2.000000E-1
Scans to average: 10
Electric dark correction enabled: true
Nonlinearity correction enabled: true
Boxcar width: 5
XAxis mode: Wavelengths
Number of Pixels in Spectrum: 2068
>>>>>Begin Spectral Data<<<<<
199	-0.213
199	-0.195
200	-0.125
200	-0.072
201	-0.04
201	-0.023
202	-0.011
202	-0.002
203	0.006
203	0.011
204	0.023
204	0.039
205	0.053
205	0.06
205	0.059
206	0.061
206	0.061
207	0.064
207	0.062
208	0.063
208	0.063
209	0.064
209	0.061
210	0.061
210	0.062
211	0.063
211	0.061
212	0.061
212	0.064
213	0.069
213	0.068
213	0.067
214	0.071
214	0.074
215	0.077
215	0.075
216	0.08
216	0.08
217	0.083
217	0.084
218	0.081
218	0.087
219	0.091
219	0.093
220	0.095
220	0.095
221	0.096
221	0.096
221	0.101
222	0.105
222	0.108
223	0.115
223	0.117
224	0.122
224	0.131
225	0.139
225	0.148
226	0.158
226	0.169
227	0.18
227	0.191
228	0.206
228	0.221
229	0.241
229	0.262
229	0.282
230	0.308
230	0.341
231	0.373
231	0.414
232	0.449
232	0.494
233	0.541
233	0.591
234	0.637
234	0.691
235	0.744
235	0.796
236	0.848
236	0.903
236	0.956
237	1.011
237	1.062
238	1.11
238	1.158
239	1.212
239	1.259
240	1.303
240	1.346
241	1.385
241	1.423
242	1.455
242	1.493
243	1.528
243	1.558
243	1.589
244	1.617
244	1.642
245	1.664
245	1.691
246	1.713
246	1.734
247	1.752
247	1.773
248	1.791
248	1.809
249	1.824
249	1.836
250	1.849
250	1.864
250	1.874
251	1.881
251	1.888
252	1.897
252	1.899
253	1.905
253	1.908
254	1.909
254	1.914
255	1.915
255	1.918
256	1.918
256	1.92
257	1.922
257	1.924
258	1.926
258	1.928
258	1.929
259	1.931
259	1.931
260	1.932
260	1.935
261	1.936
261	1.943
262	1.948
262	1.954
263	1.961
263	1.964
264	1.968
264	1.973
265	1.976
265	1.978
265	1.981
266	1.985
266	1.987
267	1.986
267	1.986
268	1.988
268	1.991
269	1.994
269	1.993
270	1.993
270	1.996
271	1.993
271	1.993
272	1.991
272	1.991
272	1.989
273	1.98
273	1.972
274	1.967
274	1.963
275	1.958
275	1.953
276	1.947
276	1.941
277	1.934
277	1.925
278	1.914
278	1.904
278	1.891
279	1.874
279	1.855
280	1.829
280	1.796
281	1.759
281	1.718
282	1.676
282	1.632
283	1.59
283	1.547
284	1.507
284	1.467
285	1.429
285	1.395
285	1.365
286	1.338
286	1.314
287	1.293
287	1.275
288	1.259
288	1.246
289	1.234
289	1.223
290	1.215
290	1.208
291	1.201
291	1.195
292	1.19
292	1.184
292	1.18
293	1.176
293	1.172
294	1.168
294	1.165
295	1.161
295	1.157
296	1.154
296	1.15
297	1.147
297	1.144
298	1.141
298	1.138
298	1.135
299	1.132
299	1.129
300	1.126
300	1.124
301	1.121
301	1.119
302	1.116
302	1.113
303	1.111
303	1.108
304	1.105
304	1.103
305	1.1
305	1.097
305	1.094
306	1.091
306	1.088
307	1.086
307	1.083
308	1.079
308	1.076
309	1.074
309	1.07
310	1.067
310	1.064
311	1.061
311	1.057
311	1.054
312	1.05
312	1.047
313	1.043
313	1.039
314	1.034
314	1.03
315	1.025
315	1.021
316	1.016
316	1.011
317	1.006
317	1.001
318	0.995
318	0.99
318	0.984
319	0.978
319	0.973
320	0.967
320	0.961
321	0.955
321	0.948
322	0.942
322	0.935
323	0.929
323	0.922
324	0.915
324	0.908
324	0.901
325	0.894
325	0.887
326	0.88
326	0.873
327	0.866
327	0.859
328	0.852
328	0.844
329	0.837
329	0.829
330	0.822
330	0.815
330	0.807
331	0.8
331	0.793
332	0.786
332	0.779
333	0.771
333	0.764
334	0.757
334	0.75
335	0.743
335	0.736
336	0.729
336	0.722
336	0.715
337	0.709
337	0.702
338	0.696
338	0.689
339	0.683
339	0.677
340	0.671
340	0.665
341	0.659
341	0.653
342	0.647
342	0.641
342	0.636
343	0.63
343	0.625
344	0.62
344	0.615
345	0.61
345	0.605
346	0.6
346	0.595
347	0.591
347	0.586
348	0.582
348	0.578
348	0.574
349	0.57
349	0.566
350	0.562
350	0.559
351	0.555
351	0.551
352	0.548
352	0.544
353	0.541
353	0.538
354	0.535
354	0.532
354	0.529
355	0.526
355	0.522
356	0.519
356	0.517
357	0.513
357	0.51
358	0.507
358	0.504
359	0.501
359	0.499
360	0.496
360	0.494
360	0.492
361	0.489
361	0.487
362	0.486
362	0.484
363	0.482
363	0.48
364	0.478
364	0.476
365	0.474
365	0.471
366	0.469
366	0.467
366	0.465
367	0.463
367	0.461
368	0.459
368	0.457
369	0.455
369	0.454
370	0.452
370	0.45
371	0.449
371	0.447
372	0.445
372	0.444
372	0.442
373	0.441
373	0.44
374	0.439
374	0.437
375	0.436
375	0.435
376	0.434
376	0.432
377	0.431
377	0.43
378	0.429
378	0.427
378	0.426
379	0.425
379	0.424
380	0.423
380	0.421
381	0.42
381	0.419
382	0.418
382	0.417
383	0.417
383	0.416
383	0.414
384	0.414
384	0.413
385	0.412
385	0.411
386	0.41
386	0.409
387	0.408
387	0.408
388	0.407
388	0.406
389	0.406
389	0.405
389	0.404
390	0.404
390	0.403
391	0.402
391	0.402
392	0.401
392	0.4
393	0.4
393	0.399
394	0.398
394	0.398
394	0.397
395	0.396
395	0.395
396	0.395
396	0.394
397	0.393
397	0.392
398	0.392
398	0.391
399	0.39
399	0.389
400	0.389
400	0.389
400	0.388
401	0.388
401	0.387
402	0.387
402	0.386
403	0.386
403	0.385
404	0.385
404	0.385
405	0.384
405	0.384
405	0.383
406	0.382
406	0.382
407	0.381
407	0.381
408	0.38
408	0.38
409	0.379
409	0.378
410	0.378
410	0.377
411	0.377
411	0.377
411	0.376
412	0.376
412	0.375
413	0.375
413	0.374
414	0.374
414	0.373
415	0.373
415	0.372
416	0.372
416	0.371
416	0.371
417	0.37
417	0.37
418	0.37
418	0.37
419	0.369
419	0.369
420	0.368
420	0.368
421	0.368
421	0.367
421	0.367
422	0.366
422	0.366
423	0.365
423	0.364
424	0.364
424	0.364
425	0.363
425	0.363
426	0.362
426	0.362
427	0.362
427	0.361
427	0.361
428	0.361
428	0.361
429	0.36
429	0.36
430	0.359
430	0.359
431	0.359
431	0.358
432	0.358
432	0.358
432	0.357
433	0.357
433	0.357
434	0.357
434	0.356
435	0.356
435	0.356
436	0.356
436	0.356
437	0.356
437	0.355
437	0.355
438	0.355
438	0.355
439	0.355
439	0.355
440	0.354
440	0.354
441	0.354
441	0.353
442	0.353
442	0.353
442	0.353
443	0.353
443	0.353
444	0.353
444	0.352
445	0.352
445	0.352
446	0.352
446	0.352
447	0.352
447	0.351
447	0.351
448	0.351
448	0.351
449	0.351
449	0.351
450	0.351
450	0.351
451	0.351
451	0.351
452	0.351
452	0.351
452	0.351
453	0.351
453	0.351
454	0.351
454	0.35
455	0.35
455	0.35
456	0.35
456	0.35
457	0.35
457	0.35
458	0.35
458	0.35
458	0.35
459	0.35
459	0.35
460	0.35
460	0.35
461	0.35
461	0.35
462	0.35
462	0.35
463	0.35
463	0.351
463	0.351
464	0.351
464	0.351
465	0.351
465	0.351
466	0.351
466	0.351
467	0.352
467	0.352
467	0.352
468	0.352
468	0.352
469	0.353
469	0.353
470	0.354
470	0.354
471	0.354
471	0.354
472	0.355
472	0.355
472	0.356
473	0.356
473	0.357
474	0.357
474	0.357
475	0.358
475	0.358
476	0.359
476	0.36
477	0.36
477	0.361
477	0.362
478	0.362
478	0.363
479	0.363
479	0.364
480	0.364
480	0.365
481	0.366
481	0.366
482	0.367
482	0.368
482	0.368
483	0.37
483	0.371
484	0.372
484	0.372
485	0.374
485	0.374
486	0.375
486	0.376
487	0.377
487	0.378
487	0.379
488	0.38
488	0.381
489	0.383
489	0.385
490	0.386
490	0.387
491	0.389
491	0.39
492	0.392
492	0.393
492	0.395
493	0.396
493	0.397
494	0.398
494	0.4
495	0.402
495	0.403
496	0.404
496	0.406
496	0.407
497	0.409
497	0.41
498	0.411
498	0.413
499	0.414
499	0.416
500	0.417
500	0.419
501	0.421
501	0.422
501	0.424
502	0.425
502	0.426
503	0.428
503	0.429
504	0.431
504	0.432
505	0.434
505	0.435
506	0.437
506	0.438
506	0.439
507	0.441
507	0.442
508	0.444
508	0.445
509	0.446
509	0.447
510	0.449
510	0.45
511	0.451
511	0.453
511	0.454
512	0.455
512	0.456
513	0.457
513	0.458
514	0.459
514	0.461
515	0.462
515	0.463
515	0.463
516	0.464
516	0.465
517	0.466
517	0.466
518	0.467
518	0.467
519	0.467
519	0.467
520	0.467
520	0.467
520	0.467
521	0.467
521	0.466
522	0.466
522	0.466
523	0.466
523	0.466
524	0.466
524	0.466
524	0.465
525	0.465
525	0.464
526	0.464
526	0.463
527	0.462
527	0.462
528	0.461
528	0.46
529	0.458
529	0.457
529	0.456
530	0.455
530	0.454
531	0.452
531	0.451
532	0.449
532	0.448
533	0.446
533	0.445
533	0.443
534	0.441
534	0.44
535	0.438
535	0.436
536	0.434
536	0.432
537	0.43
537	0.428
538	0.426
538	0.423
538	0.421
539	0.419
539	0.417
540	0.415
540	0.412
541	0.41
541	0.408
542	0.405
542	0.403
542	0.4
543	0.398
543	0.395
544	0.393
544	0.391
545	0.389
545	0.387
546	0.384
546	0.381
547	0.378
547	0.376
547	0.373
548	0.371
548	0.369
549	0.366
549	0.363
550	0.361
550	0.358
551	0.355
551	0.353
551	0.35
552	0.347
552	0.345
553	0.342
553	0.339
554	0.337
554	0.334
555	0.331
555	0.329
556	0.326
556	0.324
556	0.322
557	0.32
557	0.318
558	0.316
558	0.314
559	0.312
559	0.31
560	0.307
560	0.305
560	0.303
561	0.301
561	0.298
562	0.296
562	0.294
563	0.291
563	0.289
564	0.286
564	0.284
564	0.282
565	0.28
565	0.278
566	0.276
566	0.274
567	0.272
567	0.271
568	0.269
568	0.267
568	0.266
569	0.264
569	0.263
570	0.261
570	0.259
571	0.257
571	0.255
572	0.253
572	0.251
573	0.249
573	0.248
573	0.246
574	0.244
574	0.242
575	0.24
575	0.239
576	0.238
576	0.236
577	0.235
577	0.233
577	0.232
578	0.231
578	0.23
579	0.229
579	0.228
580	0.226
580	0.224
581	0.222
581	0.221
581	0.22
582	0.219
582	0.218
583	0.217
583	0.216
584	0.214
584	0.211
585	0.21
585	0.209
585	0.208
586	0.206
586	0.205
587	0.203
587	0.202
588	0.2
588	0.199
589	0.198
589	0.197
590	0.197
590	0.196
590	0.196
591	0.196
591	0.194
592	0.193
592	0.192
593	0.191
593	0.19
594	0.189
594	0.188
594	0.187
595	0.186
595	0.185
596	0.183
596	0.183
597	0.183
597	0.182
598	0.181
598	0.181
598	0.18
599	0.179
599	0.178
600	0.178
600	0.177
601	0.176
601	0.175
602	0.174
602	0.173
602	0.172
603	0.171
603	0.17
604	0.17
604	0.169
605	0.169
605	0.168
606	0.167
606	0.166
606	0.165
607	0.165
607	0.164
608	0.164
608	0.162
609	0.161
609	0.161
610	0.16
610	0.159
610	0.159
611	0.158
611	0.158
612	0.157
612	0.157
613	0.156
613	0.156
614	0.155
614	0.154
614	0.153
615	0.153
615	0.152
616	0.152
616	0.151
617	0.151
617	0.15
618	0.15
618	0.149
618	0.149
619	0.149
619	0.149
620	0.149
620	0.149
621	0.148
621	0.147
622	0.146
622	0.146
622	0.145
623	0.144
623	0.143
624	0.142
624	0.142
625	0.141
625	0.14
626	0.14
626	0.139
626	0.139
627	0.139
627	0.138
628	0.138
628	0.138
629	0.137
629	0.137
630	0.136
630	0.136
630	0.136
631	0.135
631	0.135
632	0.135
632	0.134
633	0.134
633	0.134
634	0.134
634	0.134
634	0.134
635	0.133
635	0.132
636	0.132
636	0.131
637	0.131
637	0.13
638	0.13
638	0.129
638	0.128
639	0.128
639	0.127
640	0.127
640	0.127
641	0.126
641	0.126
642	0.125
642	0.125
642	0.125
643	0.125
643	0.125
644	0.125
644	0.124
645	0.124
645	0.124
646	0.123
646	0.123
646	0.123
647	0.122
647	0.122
648	0.121
648	0.12
649	0.12
649	0.119
650	0.119
650	0.119
650	0.119
651	0.119
651	0.119
652	0.119
652	0.119
653	0.119
653	0.121
653	0.128
654	0.102
654	0.083
655	0.082
655	0.082
656	0.082
656	0.082
657	0.082
657	0.082
657	0.082
658	0.081
658	0.072
659	0.09
659	0.113
660	0.117
660	0.117
661	0.116
661	0.115
661	0.115
662	0.114
662	0.114
663	0.113
663	0.112
664	0.111
664	0.111
665	0.111
665	0.11
665	0.11
666	0.11
666	0.11
667	0.111
667	0.11
668	0.111
668	0.111
669	0.111
669	0.111
669	0.111
670	0.111
670	0.111
671	0.111
671	0.11
672	0.11
672	0.109
672	0.109
673	0.109
673	0.108
674	0.108
674	0.107
675	0.106
675	0.106
676	0.106
676	0.106
676	0.106
677	0.105
677	0.105
678	0.104
678	0.104
679	0.103
679	0.103
680	0.103
680	0.103
680	0.103
681	0.103
681	0.103
682	0.104
682	0.104
683	0.104
683	0.105
684	0.105
684	0.105
684	0.105
685	0.105
685	0.105
686	0.105
686	0.104
687	0.104
687	0.104
687	0.104
688	0.103
688	0.103
689	0.103
689	0.104
690	0.103
690	0.103
691	0.103
691	0.103
691	0.104
692	0.104
692	0.104
693	0.104
693	0.104
694	0.104
694	0.103
695	0.104
695	0.105
695	0.104
696	0.104
696	0.103
697	0.103
697	0.102
698	0.102
698	0.101
698	0.101
699	0.101
699	0.1
700	0.1
700	0.1
701	0.1
701	0.1
702	0.1
702	0.1
702	0.1
703	0.099
703	0.098
704	0.098
704	0.097
705	0.097
705	0.096
705	0.095
706	0.095
706	0.094
707	0.094
707	0.094
708	0.094
708	0.094
709	0.094
709	0.094
709	0.093
710	0.093
710	0.093
711	0.093
711	0.093
712	0.093
712	0.092
713	0.092
713	0.092
713	0.092
714	0.092
714	0.092
715	0.092
715	0.092
716	0.092
716	0.092
716	0.091
717	0.091
717	0.09
718	0.09
718	0.089
719	0.09
719	0.09
720	0.09
720	0.09
720	0.09
721	0.09
721	0.09
722	0.091
722	0.091
723	0.091
723	0.091
723	0.091
724	0.09
724	0.09
725	0.089
725	0.088
726	0.088
726	0.087
727	0.087
727	0.086
727	0.086
728	0.085
728	0.085
729	0.085
729	0.084
730	0.084
730	0.084
730	0.084
731	0.084
731	0.084
732	0.085
732	0.085
733	0.084
733	0.084
734	0.085
734	0.085
734	0.085
735	0.085
735	0.085
736	0.085
736	0.085
737	0.085
737	0.085
737	0.085
738	0.084
738	0.083
739	0.083
739	0.082
740	0.082
740	0.081
741	0.081
741	0.08
741	0.079
742	0.079
742	0.078
743	0.079
743	0.079
744	0.079
744	0.079
744	0.079
745	0.079
745	0.078
746	0.078
746	0.079
747	0.079
747	0.079
748	0.079
748	0.079
748	0.079
749	0.079
749	0.08
750	0.079
750	0.079
751	0.079
751	0.079
751	0.079
752	0.078
752	0.077
753	0.077
753	0.076
754	0.076
754	0.076
754	0.076
755	0.076
755	0.076
756	0.075
756	0.074
757	0.073
757	0.073
758	0.073
758	0.072
758	0.072
759	0.072
759	0.071
760	0.071
760	0.071
761	0.071
761	0.072
761	0.072
762	0.072
762	0.073
763	0.073
763	0.073
764	0.073
764	0.073
764	0.072
765	0.072
765	0.071
766	0.071
766	0.071
767	0.071
767	0.07
768	0.069
768	0.068
768	0.068
769	0.068
769	0.067
770	0.067
770	0.068
771	0.068
771	0.068
771	0.068
772	0.068
772	0.068
773	0.068
773	0.068
774	0.068
774	0.068
775	0.068
775	0.068
775	0.067
776	0.067
776	0.067
777	0.067
777	0.066
778	0.066
778	0.065
778	0.065
779	0.065
779	0.065
780	0.064
780	0.064
781	0.063
781	0.063
781	0.063
782	0.063
782	0.063
783	0.064
783	0.064
784	0.064
784	0.064
784	0.064
785	0.064
785	0.064
786	0.064
786	0.064
787	0.064
787	0.063
788	0.062
788	0.062
788	0.061
789	0.061
789	0.061
790	0.061
790	0.061
791	0.061
791	0.061
791	0.061
792	0.061
792	0.062
793	0.062
793	0.062
794	0.061
794	0.061
794	0.061
795	0.06
795	0.061
796	0.06
796	0.06
797	0.059
797	0.059
797	0.059
798	0.058
798	0.058
799	0.057
799	0.057
800	0.056
800	0.055
801	0.054
801	0.054
801	0.054
802	0.054
802	0.054
803	0.055
803	0.056
804	0.057
804	0.058
804	0.059
805	0.059
805	0.06
806	0.06
806	0.06
807	0.06
807	0.06
807	0.06
808	0.059
808	0.059
809	0.058
809	0.058
810	0.057
810	0.057
810	0.057
811	0.056
811	0.056
812	0.057
812	0.057
813	0.057
813	0.057
813	0.057
814	0.057
814	0.057
815	0.057
815	0.057
816	0.057
816	0.056
817	0.056
817	0.055
817	0.055
818	0.055
818	0.055
819	0.054
819	0.054
820	0.053
820	0.053
820	0.053
821	0.053
821	0.053
822	0.053
822	0.053
823	0.053
823	0.053
823	0.054
824	0.055
824	0.056
825	0.057
825	0.057
826	0.057
826	0.057
826	0.057
827	0.057
827	0.056
828	0.056
828	0.056
829	0.055
829	0.055
829	0.055
830	0.055
830	0.055
831	0.056
831	0.056
832	0.056
832	0.057
832	0.057
833	0.057
833	0.057
834	0.057
834	0.057
835	0.057
835	0.056
835	0.056
836	0.057
836	0.057
837	0.057
837	0.057
838	0.056
838	0.056
839	0.055
839	0.055
839	0.054
840	0.053
840	0.051
841	0.05
841	0.049
842	0.048
842	0.047
842	0.047
843	0.046
843	0.046
844	0.045
844	0.045
845	0.045
845	0.045
845	0.045
846	0.045
846	0.044
847	0.044
847	0.045
848	0.045
848	0.045
848	0.046
849	0.047
849	0.047
850	0.048
850	0.049
851	0.05
851	0.05
851	0.05
852	0.05
852	0.05
853	0.049
853	0.049
854	0.048
854	0.048
854	0.048
855	0.048
855	0.048
856	0.048
856	0.049
857	0.049
857	0.05
857	0.05
858	0.051
858	0.05
859	0.05
859	0.049
860	0.048
860	0.046
860	0.045
861	0.044
861	0.043
862	0.041
862	0.04
863	0.039
863	0.039
863	0.038
864	0.038
864	0.038
865	0.039
865	0.039
866	0.039
866	0.039
866	0.039
867	0.039
867	0.04
868	0.04
868	0.039
869	0.04
869	0.039
869	0.039
870	0.039
870	0.039
871	0.04
871	0.04
872	0.041
872	0.041
872	0.042
873	0.042
873	0.042
874	0.042
874	0.042
875	0.042
875	0.042
875	0.042
876	0.042
876	0.042
877	0.043
877	0.043
878	0.043
878	0.044
878	0.045
879	0.046
879	0.046
880	0.047
880	0.047
881	0.047
881	0.047
881	0.047
882	0.047
882	0.046
883	0.045
883	0.045
884	0.044
884	0.043
884	0.042
885	0.041
885	0.041
886	0.04
886	0.04
887	0.039
887	0.039
887	0.039
888	0.038
888	0.038
889	0.038
889	0.038
890	0.038
890	0.039
890	0.039
891	0.04
891	0.04
892	0.041
892	0.042
893	0.042
893	0.043
893	0.044
894	0.044
894	0.044
895	0.044
895	0.044
895	0.044
896	0.044
896	0.043
897	0.043
897	0.042
898	0.041
898	0.04
898	0.039
899	0.038
899	0.038
900	0.037
900	0.037
901	0.037
901	0.037
901	0.037
902	0.037
902	0.037
903	0.037
903	0.038
904	0.038
904	0.038
904	0.037
905	0.037
905	0.037
906	0.037
906	0.037
907	0.037
907	0.037
907	0.037
908	0.037
908	0.037
909	0.037
909	0.037
910	0.038
910	0.038
910	0.038
911	0.038
911	0.038
912	0.038
912	0.038
913	0.038
913	0.039
913	0.039
914	0.039
914	0.039
915	0.039
915	0.038
916	0.038
916	0.038
916	0.037
917	0.036
917	0.036
918	0.035
918	0.034
918	0.034
919	0.034
919	0.033
920	0.034
920	0.034
921	0.034
921	0.034
921	0.035
922	0.035
922	0.036
923	0.036
923	0.037
924	0.037
924	0.038
924	0.038
925	0.038
925	0.039
926	0.039
926	0.039
927	0.039
927	0.039
927	0.038
928	0.038
928	0.038
929	0.037
929	0.037
930	0.037
930	0.037
930	0.037
931	0.037
931	0.037
932	0.037
932	0.037
933	0.037
933	0.037
933	0.037
934	0.037
934	0.036
935	0.036
935	0.036
935	0.036
936	0.035
936	0.035
937	0.035
937	0.035
938	0.035
938	0.035
938	0.035
939	0.035
939	0.035
940	0.036
940	0.036
941	0.037
941	0.037
941	0.038
942	0.039
942	0.039
943	0.039
943	0.039
944	0.039
944	0.039
944	0.039
945	0.039
945	0.039
946	0.039
946	0.039
946	0.039
947	0.04
947	0.04
948	0.04
948	0.041
949	0.041
949	0.041
949	0.041
950	0.041
950	0.041
951	0.041
951	0.041
952	0.04
952	0.04
952	0.039
953	0.039
953	0.039
954	0.038
954	0.038
955	0.037
955	0.037
955	0.036
956	0.036
956	0.037
957	0.037
957	0.037
957	0.037
958	0.037
958	0.037
959	0.036
959	0.036
960	0.036
960	0.036
960	0.036
961	0.036
961	0.035
962	0.035
962	0.035
963	0.035
963	0.035
963	0.035
964	0.035
964	0.036
965	0.036
965	0.036
966	0.036
966	0.036
966	0.037
967	0.037
967	0.037
968	0.037
968	0.037
968	0.037
969	0.037
969	0.037
970	0.037
970	0.037
971	0.037
971	0.037
971	0.037
972	0.037
972	0.037
973	0.037
973	0.037
974	0.037
974	0.038
974	0.038
975	0.039
975	0.039
976	0.04
976	0.04
976	0.04
977	0.04
977	0.04
978	0.04
978	0.04
979	0.04
979	0.04
979	0.04
980	0.04
980	0.04
981	0.039
981	0.039
982	0.039
982	0.039
982	0.038
983	0.038
983	0.037
984	0.037
984	0.036
984	0.035
985	0.034
985	0.034
986	0.033
986	0.032
987	0.032
987	0.031
987	0.031
988	0.031
988	0.03
989	0.03
989	0.03
990	0.029
990	0.029
990	0.029
991	0.029
991	0.029
992	0.029
992	0.028
992	0.028
993	0.028
993	0.028
994	0.028
994	0.028
995	0.028
995	0.028
995	0.029
996	0.029
996	0.03
997	0.031
997	0.031
997	0.032
998	0.033
998	0.034
999	0.035
999	0.036
1000	0.037
1000	0.038
1000	0.038
1001	0.039
1001	0.039
1002	0.039
1002	0.039
1003	0.039
1003	0.039
1003	0.038
1004	0.038
1004	0.037
1005	0.036
1005	0.036
1005	0.035
1006	0.035
1006	0.034
1007	0.034
1007	0.034
1008	0.034
1008	0.034
1008	0.034
1009	0.034
1009	0.034
1010	0.033
1010	0.033
1010	0.033
1011	0.033
1011	0.033
1012	0.033
1012	0.033
1013	0.033
1013	0.032
1013	0.032
1014	0.032
1014	0.032
1015	0.032
1015	0.032
1016	0.032
1016	0.032
1016	0.031
1017	0.031
1017	0.031
1018	0.031
1018	0.03
1018	0.03
1019	0.03
1019	0.03
1020	0.03
1020	0.03
1021	0.03
1021	0.03
1021	0.031
1022	0.031
1022	0.031
1023	0.031
1023	0.031
1023	0.031
1024	0.031
1024	0.031
1025	0.03
1025	0.03
1026	0.029
1026	0.029
1026	0.028
1027	0.028
1027	0.027
1028	0.027
1028	0.026
1028	0.026
1029	0.026
1029	0.026
1030	0.026
1030	0.026
1031	0.026
1031	0.026
1031	0.026
1032	0.026
1032	0.026
1033	0.026
1033	0.026
1033	0.026
1034	0.026
1034	0.026
1035	0.026
1035	0.025
1036	0.025
1036	0.025
1036	0.025
1037	0.025
1037	0.025
1038	0.025
1038	0.025
1039	0.025
1039	0.025
1039	0.026
1040	0.026
1040	0.027
1041	0.028
1041	0.028
1041	0.029
1042	0.029
1042	0.03
1043	0.03
1043	0.031
1044	0.031
1044	0.031
1044	0.032
1045	0.032
1045	0.032
1046	0.033
1046	0.033
1046	0.034
1047	0.034
1047	0.034
1048	0.035
1048	0.036
1049	0.036
1049	0.036
1049	0.035
1050	0.035
1050	0.035
1051	0.034
1051	0.033
1051	0.033
1052	0.032
1052	0.031
1053	0.03
1053	0.029
1053	0.028
1054	0.028
1054	0.027
1055	0.027
1055	0.027
1056	0.027
1056	0.027
1056	0.026
1057	0.026
1057	0.025
1058	0.025
1058	0.024
1058	0.024
1059	0.023
1059	0.023
1060	0.022
1060	0.022
1061	0.021
1061	0.021
1061	0.021
1062	0.021
1062	0.021
1063	0.021
1063	0.02
1063	0.02
1064	0.02
1064	0.02
1065	0.019
1065	0.019
1066	0.019
1066	0.019
1066	0.019
1067	0.019
1067	0.019
1068	0.019
1068	0.019
1068	0.018
1069	0.018
1069	0.018
1070	0.018
1070	0.017
1071	0.017
1071	0.017
1071	0.016
1072	0.016
1072	0.015
1073	0.015
1073	0.015
1073	0.014
1074	0.015
1074	0.015
1075	0.015
1075	0.015
1076	0.015
1076	0.016
1076	0.016
1077	0.017
1077	0.017
1078	0.017
1078	0.017
1078	0.017
1079	0.017
1079	0.018
1080	0.018
1080	0.018
1080	0.018
1081	0.018
1081	0.019
1082	0.019
1082	0.02
1083	0.02
1083	0.019
1083	0.02
1084	0.02
1084	0.02
1085	0.019
1085	0.019
1085	0.018
1086	0.018
1086	0.017
1087	0.016
1087	0.015
1088	0.015
1088	0.015
1088	0.015
1089	0.014
1089	0.014
1090	0.013
1090	0.013
1090	0.012
1091	0.012
1091	0.012
1092	0.012
1092	0.012
1092	0.011
1093	0.011
1093	0.011
1094	0.011
1094	0.011
1095	0.011
1095	0.011
1095	0.01
1096	0.009
1096	0.009
1097	0.008
1097	0.008
1097	0.007
1098	0.006
1098	0.006
1099	0.005
1099	0.004
1100	0.004
1100	0.003
1100	0.002
1101	0.002
1101	0.001
1102	0
1102	-0.001
1102	-0.002
1103	-0.003
1103	-0.003
1104	-0.004
1104	-0.004
1104	-0.005
1105	-0.006
1105	-0.008
1106	-0.01
1106	-0.011
1107	-0.013
1107	-0.012
1107	-0.013
1108	-0.014
1108	-0.015
1109	-0.018
1109	-0.019
1109	-0.019
1110	-0.017
1110	-0.017
1111	-0.016
1111	-0.014
