Data from reversibility-20sec_Absorbance__7978__000000000007978.txt Node

Date: Thu Dec 07 08:32:26 CET 2023
User: Marek
Spectrometer: MAYP115816
Trigger mode: 0
Integration Time (sec): 2.000000E-1
Scans to average: 10
Electric dark correction enabled: true
Nonlinearity correction enabled: true
Boxcar width: 5
XAxis mode: Wavelengths
Number of Pixels in Spectrum: 2068
>>>>>Begin Spectral Data<<<<<
199	-0.079
199	-0.05
200	0.005
200	0.055
201	0.079
201	0.097
202	0.102
202	0.113
203	0.12
203	0.123
204	0.135
204	0.146
205	0.157
205	0.163
205	0.16
206	0.162
206	0.161
207	0.166
207	0.165
208	0.165
208	0.163
209	0.164
209	0.162
210	0.163
210	0.163
211	0.167
211	0.169
212	0.165
212	0.167
213	0.171
213	0.172
213	0.173
214	0.178
214	0.181
215	0.18
215	0.182
216	0.183
216	0.179
217	0.187
217	0.185
218	0.183
218	0.188
219	0.193
219	0.196
220	0.2
220	0.201
221	0.2
221	0.204
221	0.209
222	0.21
222	0.218
223	0.225
223	0.227
224	0.233
224	0.236
225	0.246
225	0.254
226	0.266
226	0.274
227	0.283
227	0.297
228	0.31
228	0.323
229	0.34
229	0.361
229	0.383
230	0.405
230	0.436
231	0.467
231	0.504
232	0.545
232	0.588
233	0.63
233	0.678
234	0.73
234	0.785
235	0.838
235	0.892
236	0.947
236	0.998
236	1.048
237	1.101
237	1.151
238	1.195
238	1.241
239	1.284
239	1.326
240	1.364
240	1.4
241	1.434
241	1.465
242	1.498
242	1.531
243	1.557
243	1.583
243	1.608
244	1.63
244	1.649
245	1.667
245	1.688
246	1.702
246	1.721
247	1.733
247	1.742
248	1.756
248	1.769
249	1.778
249	1.784
250	1.792
250	1.8
250	1.803
251	1.809
251	1.809
252	1.813
252	1.812
253	1.813
253	1.811
254	1.809
254	1.81
255	1.808
255	1.807
256	1.805
256	1.803
257	1.804
257	1.805
258	1.806
258	1.804
258	1.804
259	1.806
259	1.805
260	1.805
260	1.806
261	1.808
261	1.809
262	1.812
262	1.81
263	1.813
263	1.814
264	1.815
264	1.815
265	1.816
265	1.818
265	1.817
266	1.816
266	1.816
267	1.812
267	1.814
268	1.813
268	1.815
269	1.816
269	1.814
270	1.813
270	1.811
271	1.809
271	1.808
272	1.805
272	1.804
272	1.799
273	1.794
273	1.786
274	1.778
274	1.773
275	1.765
275	1.759
276	1.75
276	1.742
277	1.734
277	1.724
278	1.713
278	1.7
278	1.684
279	1.668
279	1.647
280	1.62
280	1.588
281	1.55
281	1.507
282	1.462
282	1.417
283	1.372
283	1.329
284	1.288
284	1.247
285	1.209
285	1.175
285	1.145
286	1.118
286	1.094
287	1.074
287	1.057
288	1.042
288	1.029
289	1.019
289	1.01
290	1.002
290	0.994
291	0.988
291	0.983
292	0.978
292	0.973
292	0.969
293	0.966
293	0.962
294	0.958
294	0.955
295	0.952
295	0.949
296	0.946
296	0.943
297	0.94
297	0.937
298	0.933
298	0.93
298	0.928
299	0.925
299	0.922
300	0.919
300	0.916
301	0.913
301	0.91
302	0.908
302	0.905
303	0.903
303	0.901
304	0.898
304	0.896
305	0.894
305	0.891
305	0.889
306	0.887
306	0.885
307	0.882
307	0.88
308	0.877
308	0.875
309	0.872
309	0.869
310	0.867
310	0.864
311	0.861
311	0.858
311	0.854
312	0.851
312	0.847
313	0.844
313	0.84
314	0.836
314	0.832
315	0.828
315	0.823
316	0.819
316	0.814
317	0.81
317	0.805
318	0.8
318	0.794
318	0.789
319	0.783
319	0.778
320	0.772
320	0.766
321	0.76
321	0.754
322	0.747
322	0.741
323	0.734
323	0.727
324	0.721
324	0.714
324	0.707
325	0.7
325	0.693
326	0.686
326	0.679
327	0.673
327	0.665
328	0.659
328	0.652
329	0.644
329	0.637
330	0.629
330	0.622
330	0.615
331	0.608
331	0.6
332	0.593
332	0.586
333	0.579
333	0.572
334	0.564
334	0.557
335	0.55
335	0.543
336	0.537
336	0.53
336	0.523
337	0.517
337	0.51
338	0.503
338	0.497
339	0.491
339	0.485
340	0.479
340	0.473
341	0.467
341	0.462
342	0.456
342	0.45
342	0.445
343	0.44
343	0.434
344	0.429
344	0.424
345	0.419
345	0.414
346	0.41
346	0.405
347	0.401
347	0.396
348	0.392
348	0.388
348	0.384
349	0.38
349	0.377
350	0.373
350	0.369
351	0.366
351	0.363
352	0.359
352	0.356
353	0.354
353	0.35
354	0.348
354	0.345
354	0.342
355	0.339
355	0.336
356	0.333
356	0.33
357	0.327
357	0.324
358	0.322
358	0.319
359	0.317
359	0.314
360	0.312
360	0.31
360	0.309
361	0.307
361	0.305
362	0.303
362	0.302
363	0.3
363	0.298
364	0.296
364	0.294
365	0.293
365	0.291
366	0.289
366	0.287
366	0.286
367	0.284
367	0.282
368	0.281
368	0.279
369	0.278
369	0.276
370	0.275
370	0.274
371	0.273
371	0.271
372	0.27
372	0.269
372	0.268
373	0.267
373	0.266
374	0.265
374	0.265
375	0.264
375	0.263
376	0.262
376	0.261
377	0.26
377	0.259
378	0.258
378	0.257
378	0.256
379	0.256
379	0.255
380	0.254
380	0.254
381	0.253
381	0.252
382	0.252
382	0.252
383	0.251
383	0.251
383	0.25
384	0.25
384	0.249
385	0.249
385	0.249
386	0.248
386	0.248
387	0.248
387	0.247
388	0.247
388	0.247
389	0.246
389	0.246
389	0.245
390	0.245
390	0.245
391	0.244
391	0.244
392	0.243
392	0.243
393	0.243
393	0.242
394	0.242
394	0.242
394	0.241
395	0.241
395	0.241
396	0.24
396	0.24
397	0.24
397	0.239
398	0.239
398	0.239
399	0.239
399	0.238
400	0.238
400	0.238
400	0.238
401	0.237
401	0.237
402	0.237
402	0.237
403	0.237
403	0.236
404	0.236
404	0.236
405	0.236
405	0.236
405	0.236
406	0.236
406	0.235
407	0.235
407	0.235
408	0.235
408	0.235
409	0.234
409	0.234
410	0.234
410	0.233
411	0.233
411	0.233
411	0.232
412	0.232
412	0.232
413	0.231
413	0.231
414	0.231
414	0.231
415	0.23
415	0.23
416	0.229
416	0.229
416	0.229
417	0.228
417	0.228
418	0.228
418	0.228
419	0.228
419	0.227
420	0.227
420	0.226
421	0.226
421	0.226
421	0.225
422	0.225
422	0.225
423	0.224
423	0.224
424	0.223
424	0.223
425	0.223
425	0.222
426	0.222
426	0.222
427	0.222
427	0.221
427	0.221
428	0.221
428	0.22
429	0.22
429	0.219
430	0.219
430	0.219
431	0.219
431	0.218
432	0.218
432	0.218
432	0.218
433	0.217
433	0.217
434	0.217
434	0.217
435	0.217
435	0.217
436	0.217
436	0.216
437	0.216
437	0.216
437	0.215
438	0.215
438	0.215
439	0.214
439	0.214
440	0.214
440	0.214
441	0.213
441	0.213
442	0.213
442	0.213
442	0.213
443	0.212
443	0.212
444	0.212
444	0.212
445	0.211
445	0.211
446	0.211
446	0.211
447	0.211
447	0.21
447	0.21
448	0.21
448	0.21
449	0.21
449	0.21
450	0.21
450	0.209
451	0.209
451	0.209
452	0.209
452	0.209
452	0.208
453	0.208
453	0.208
454	0.208
454	0.208
455	0.207
455	0.207
456	0.207
456	0.206
457	0.206
457	0.206
458	0.205
458	0.205
458	0.205
459	0.204
459	0.204
460	0.204
460	0.204
461	0.204
461	0.204
462	0.204
462	0.204
463	0.203
463	0.203
463	0.203
464	0.202
464	0.202
465	0.202
465	0.201
466	0.201
466	0.201
467	0.201
467	0.2
467	0.2
468	0.2
468	0.2
469	0.201
469	0.201
470	0.201
470	0.201
471	0.201
471	0.201
472	0.201
472	0.201
472	0.2
473	0.2
473	0.2
474	0.2
474	0.2
475	0.199
475	0.199
476	0.199
476	0.199
477	0.199
477	0.199
477	0.199
478	0.199
478	0.199
479	0.199
479	0.199
480	0.199
480	0.199
481	0.199
481	0.199
482	0.198
482	0.198
482	0.199
483	0.199
483	0.199
484	0.199
484	0.198
485	0.198
485	0.198
486	0.198
486	0.198
487	0.198
487	0.198
487	0.198
488	0.198
488	0.198
489	0.198
489	0.198
490	0.199
490	0.199
491	0.2
491	0.2
492	0.201
492	0.201
492	0.201
493	0.202
493	0.202
494	0.202
494	0.203
495	0.203
495	0.203
496	0.203
496	0.203
496	0.204
497	0.204
497	0.204
498	0.204
498	0.204
499	0.205
499	0.205
500	0.205
500	0.206
501	0.206
501	0.206
501	0.206
502	0.207
502	0.207
503	0.207
503	0.207
504	0.208
504	0.208
505	0.208
505	0.208
506	0.209
506	0.209
506	0.209
507	0.21
507	0.21
508	0.211
508	0.211
509	0.211
509	0.211
510	0.212
510	0.212
511	0.212
511	0.213
511	0.213
512	0.213
512	0.214
513	0.214
513	0.214
514	0.215
514	0.215
515	0.216
515	0.216
515	0.216
516	0.217
516	0.217
517	0.217
517	0.218
518	0.218
518	0.218
519	0.218
519	0.218
520	0.218
520	0.219
520	0.219
521	0.219
521	0.219
522	0.219
522	0.22
523	0.22
523	0.22
524	0.22
524	0.22
524	0.221
525	0.221
525	0.221
526	0.221
526	0.221
527	0.221
527	0.221
528	0.221
528	0.222
529	0.221
529	0.222
529	0.221
530	0.221
530	0.221
531	0.221
531	0.221
532	0.221
532	0.221
533	0.221
533	0.221
533	0.221
534	0.221
534	0.221
535	0.221
535	0.221
536	0.221
536	0.221
537	0.22
537	0.22
538	0.22
538	0.22
538	0.22
539	0.22
539	0.22
540	0.22
540	0.22
541	0.22
541	0.22
542	0.22
542	0.22
542	0.22
543	0.22
543	0.22
544	0.219
544	0.219
545	0.219
545	0.219
546	0.219
546	0.218
547	0.218
547	0.217
547	0.217
548	0.217
548	0.216
549	0.216
549	0.216
550	0.216
550	0.215
551	0.215
551	0.215
551	0.215
552	0.215
552	0.215
553	0.215
553	0.214
554	0.214
554	0.214
555	0.213
555	0.212
556	0.212
556	0.212
556	0.212
557	0.212
557	0.212
558	0.212
558	0.212
559	0.212
559	0.212
560	0.212
560	0.212
560	0.212
561	0.212
561	0.211
562	0.211
562	0.21
563	0.209
563	0.209
564	0.208
564	0.208
564	0.208
565	0.208
565	0.207
566	0.207
566	0.207
567	0.207
567	0.207
568	0.206
568	0.206
568	0.206
569	0.206
569	0.205
570	0.204
570	0.204
571	0.203
571	0.203
572	0.202
572	0.202
573	0.201
573	0.201
573	0.201
574	0.2
574	0.2
575	0.2
575	0.2
576	0.2
576	0.199
577	0.199
577	0.198
577	0.198
578	0.197
578	0.197
579	0.197
579	0.198
580	0.197
580	0.197
581	0.196
581	0.196
581	0.196
582	0.196
582	0.196
583	0.196
583	0.196
584	0.195
584	0.194
585	0.193
585	0.194
585	0.193
586	0.193
586	0.193
587	0.192
587	0.192
588	0.191
588	0.191
589	0.191
589	0.191
590	0.191
590	0.191
590	0.192
591	0.191
591	0.191
592	0.191
592	0.19
593	0.189
593	0.189
594	0.189
594	0.188
594	0.188
595	0.187
595	0.187
596	0.186
596	0.187
597	0.187
597	0.188
598	0.188
598	0.188
598	0.188
599	0.187
599	0.187
600	0.187
600	0.186
601	0.186
601	0.186
602	0.185
602	0.185
602	0.185
603	0.185
603	0.185
604	0.185
604	0.185
605	0.185
605	0.185
606	0.184
606	0.184
606	0.183
607	0.183
607	0.182
608	0.182
608	0.181
609	0.181
609	0.181
610	0.18
610	0.18
610	0.18
611	0.181
611	0.181
612	0.181
612	0.181
613	0.181
613	0.181
614	0.181
614	0.18
614	0.181
615	0.181
615	0.181
616	0.181
616	0.181
617	0.18
617	0.18
618	0.18
618	0.18
618	0.18
619	0.181
619	0.18
620	0.18
620	0.18
621	0.18
621	0.179
622	0.179
622	0.178
622	0.178
623	0.177
623	0.177
624	0.177
624	0.177
625	0.177
625	0.177
626	0.177
626	0.177
626	0.177
627	0.177
627	0.177
628	0.177
628	0.177
629	0.177
629	0.177
630	0.176
630	0.176
630	0.176
631	0.176
631	0.176
632	0.175
632	0.175
633	0.175
633	0.175
634	0.175
634	0.175
634	0.175
635	0.175
635	0.174
636	0.174
636	0.175
637	0.174
637	0.174
638	0.174
638	0.174
638	0.174
639	0.173
639	0.173
640	0.173
640	0.173
641	0.172
641	0.172
642	0.172
642	0.171
642	0.171
643	0.171
643	0.171
644	0.172
644	0.172
645	0.172
645	0.173
646	0.173
646	0.174
646	0.174
647	0.174
647	0.174
648	0.174
648	0.173
649	0.173
649	0.173
650	0.173
650	0.172
650	0.172
651	0.172
651	0.172
652	0.172
652	0.172
653	0.173
653	0.174
653	0.179
654	0.141
654	0.113
655	0.114
655	0.114
656	0.114
656	0.115
657	0.115
657	0.115
657	0.115
658	0.114
658	0.105
659	0.132
659	0.169
660	0.173
660	0.173
661	0.172
661	0.172
661	0.171
662	0.171
662	0.171
663	0.17
663	0.17
664	0.17
664	0.17
665	0.17
665	0.17
665	0.17
666	0.171
666	0.171
667	0.171
667	0.171
668	0.172
668	0.172
669	0.172
669	0.172
669	0.173
670	0.173
670	0.173
671	0.172
671	0.172
672	0.172
672	0.171
672	0.171
673	0.17
673	0.17
674	0.17
674	0.169
675	0.169
675	0.169
676	0.169
676	0.169
676	0.169
677	0.169
677	0.17
678	0.17
678	0.17
679	0.169
679	0.17
680	0.17
680	0.17
680	0.17
681	0.17
681	0.17
682	0.17
682	0.17
683	0.17
683	0.17
684	0.17
684	0.17
684	0.17
685	0.17
685	0.17
686	0.17
686	0.17
687	0.169
687	0.17
687	0.17
688	0.171
688	0.171
689	0.172
689	0.172
690	0.172
690	0.172
691	0.172
691	0.172
691	0.173
692	0.173
692	0.173
693	0.173
693	0.173
694	0.173
694	0.173
695	0.174
695	0.175
695	0.175
696	0.175
696	0.175
697	0.175
697	0.175
698	0.175
698	0.174
698	0.174
699	0.174
699	0.174
700	0.173
700	0.173
701	0.172
701	0.172
702	0.171
702	0.17
702	0.17
703	0.169
703	0.169
704	0.168
704	0.168
705	0.168
705	0.168
705	0.168
706	0.168
706	0.168
707	0.169
707	0.169
708	0.17
708	0.17
709	0.17
709	0.171
709	0.171
710	0.171
710	0.171
711	0.172
711	0.172
712	0.172
712	0.172
713	0.173
713	0.173
713	0.173
714	0.173
714	0.173
715	0.172
715	0.172
716	0.172
716	0.172
716	0.171
717	0.17
717	0.17
718	0.17
718	0.17
719	0.17
719	0.171
720	0.171
720	0.172
720	0.172
721	0.173
721	0.174
722	0.175
722	0.175
723	0.176
723	0.176
723	0.176
724	0.175
724	0.175
725	0.174
725	0.173
726	0.173
726	0.172
727	0.171
727	0.171
727	0.171
728	0.171
728	0.171
729	0.171
729	0.171
730	0.172
730	0.172
730	0.172
731	0.173
731	0.173
732	0.174
732	0.174
733	0.174
733	0.174
734	0.175
734	0.175
734	0.175
735	0.176
735	0.175
736	0.175
736	0.175
737	0.175
737	0.175
737	0.175
738	0.174
738	0.173
739	0.173
739	0.173
740	0.173
740	0.173
741	0.174
741	0.175
741	0.175
742	0.175
742	0.176
743	0.178
743	0.178
744	0.179
744	0.18
744	0.18
745	0.18
745	0.18
746	0.179
746	0.179
747	0.179
747	0.179
748	0.179
748	0.179
748	0.179
749	0.178
749	0.179
750	0.179
750	0.179
751	0.18
751	0.18
751	0.18
752	0.18
752	0.18
753	0.18
753	0.18
754	0.179
754	0.179
754	0.178
755	0.178
755	0.178
756	0.178
756	0.177
757	0.176
757	0.176
758	0.176
758	0.176
758	0.176
759	0.177
759	0.176
760	0.176
760	0.176
761	0.176
761	0.176
761	0.177
762	0.177
762	0.177
763	0.178
763	0.177
764	0.177
764	0.178
764	0.178
765	0.177
765	0.177
766	0.177
766	0.177
767	0.177
767	0.176
768	0.176
768	0.176
768	0.177
769	0.177
769	0.177
770	0.178
770	0.178
771	0.179
771	0.179
771	0.179
772	0.179
772	0.18
773	0.18
773	0.18
774	0.18
774	0.18
775	0.18
775	0.18
775	0.181
776	0.181
776	0.182
777	0.182
777	0.183
778	0.183
778	0.183
778	0.183
779	0.183
779	0.182
780	0.181
780	0.181
781	0.18
781	0.179
781	0.179
782	0.178
782	0.178
783	0.178
783	0.179
784	0.179
784	0.179
784	0.18
785	0.18
785	0.181
786	0.182
786	0.182
787	0.182
787	0.182
788	0.182
788	0.182
788	0.182
789	0.181
789	0.182
790	0.182
790	0.182
791	0.182
791	0.182
791	0.182
792	0.183
792	0.183
793	0.183
793	0.183
794	0.183
794	0.183
794	0.183
795	0.183
795	0.183
796	0.183
796	0.183
797	0.183
797	0.183
797	0.183
798	0.183
798	0.183
799	0.182
799	0.182
800	0.182
800	0.182
801	0.182
801	0.182
801	0.183
802	0.183
802	0.184
803	0.184
803	0.185
804	0.186
804	0.186
804	0.186
805	0.186
805	0.186
806	0.186
806	0.185
807	0.185
807	0.185
807	0.184
808	0.184
808	0.184
809	0.184
809	0.184
810	0.184
810	0.185
810	0.185
811	0.185
811	0.186
812	0.187
812	0.187
813	0.188
813	0.188
813	0.189
814	0.189
814	0.19
815	0.19
815	0.19
816	0.19
816	0.189
817	0.189
817	0.189
817	0.188
818	0.188
818	0.187
819	0.187
819	0.186
820	0.186
820	0.185
820	0.185
821	0.186
821	0.186
822	0.186
822	0.186
823	0.186
823	0.187
823	0.187
824	0.188
824	0.189
825	0.191
825	0.192
826	0.193
826	0.193
826	0.193
827	0.194
827	0.195
828	0.195
828	0.195
829	0.196
829	0.196
829	0.196
830	0.196
830	0.196
831	0.197
831	0.197
832	0.196
832	0.196
832	0.196
833	0.196
833	0.196
834	0.196
834	0.195
835	0.195
835	0.194
835	0.194
836	0.194
836	0.194
837	0.193
837	0.192
838	0.192
838	0.191
839	0.19
839	0.189
839	0.188
840	0.187
840	0.186
841	0.185
841	0.185
842	0.184
842	0.183
842	0.183
843	0.182
843	0.182
844	0.182
844	0.181
845	0.181
845	0.181
845	0.182
846	0.182
846	0.182
847	0.183
847	0.183
848	0.183
848	0.183
848	0.183
849	0.183
849	0.182
850	0.182
850	0.181
851	0.181
851	0.181
851	0.18
852	0.18
852	0.179
853	0.179
853	0.18
854	0.18
854	0.181
854	0.182
855	0.183
855	0.184
856	0.185
856	0.186
857	0.187
857	0.189
857	0.189
858	0.19
858	0.19
859	0.19
859	0.19
860	0.191
860	0.191
860	0.19
861	0.19
861	0.189
862	0.189
862	0.188
863	0.187
863	0.187
863	0.186
864	0.186
864	0.186
865	0.186
865	0.186
866	0.186
866	0.185
866	0.185
867	0.185
867	0.186
868	0.186
868	0.185
869	0.185
869	0.185
869	0.184
870	0.184
870	0.184
871	0.184
871	0.184
872	0.184
872	0.184
872	0.184
873	0.184
873	0.184
874	0.183
874	0.183
875	0.182
875	0.182
875	0.182
876	0.181
876	0.181
877	0.18
877	0.18
878	0.18
878	0.18
878	0.18
879	0.18
879	0.18
880	0.181
880	0.181
881	0.181
881	0.181
881	0.181
882	0.182
882	0.182
883	0.182
883	0.183
884	0.183
884	0.183
884	0.184
885	0.184
885	0.184
886	0.184
886	0.183
887	0.183
887	0.183
887	0.183
888	0.182
888	0.182
889	0.182
889	0.182
890	0.182
890	0.183
890	0.183
891	0.183
891	0.184
892	0.184
892	0.184
893	0.184
893	0.184
893	0.183
894	0.183
894	0.182
895	0.181
895	0.18
895	0.18
896	0.179
896	0.179
897	0.178
897	0.177
898	0.176
898	0.176
898	0.175
899	0.175
899	0.175
900	0.174
900	0.174
901	0.174
901	0.174
901	0.174
902	0.174
902	0.174
903	0.174
903	0.174
904	0.174
904	0.174
904	0.174
905	0.174
905	0.174
906	0.173
906	0.173
907	0.173
907	0.173
907	0.173
908	0.173
908	0.172
909	0.172
909	0.171
910	0.171
910	0.17
910	0.17
911	0.169
911	0.168
912	0.168
912	0.167
913	0.167
913	0.166
913	0.166
914	0.166
914	0.166
915	0.166
915	0.165
916	0.166
916	0.166
916	0.166
917	0.166
917	0.166
918	0.165
918	0.165
918	0.165
919	0.165
919	0.165
920	0.165
920	0.164
921	0.164
921	0.164
921	0.164
922	0.164
922	0.164
923	0.165
923	0.165
924	0.165
924	0.165
924	0.165
925	0.165
925	0.165
926	0.165
926	0.165
927	0.165
927	0.165
927	0.165
928	0.165
928	0.166
929	0.166
929	0.166
930	0.166
930	0.166
930	0.165
931	0.165
931	0.165
932	0.164
932	0.164
933	0.163
933	0.163
933	0.162
934	0.162
934	0.161
935	0.161
935	0.16
935	0.16
936	0.16
936	0.159
937	0.159
937	0.158
938	0.157
938	0.157
938	0.156
939	0.155
939	0.155
940	0.154
940	0.154
941	0.154
941	0.155
941	0.155
942	0.155
942	0.156
943	0.156
943	0.156
944	0.157
944	0.157
944	0.157
945	0.157
945	0.157
946	0.157
946	0.157
946	0.156
947	0.156
947	0.156
948	0.155
948	0.155
949	0.155
949	0.154
949	0.154
950	0.153
950	0.153
951	0.152
951	0.151
952	0.151
952	0.15
952	0.149
953	0.149
953	0.148
954	0.148
954	0.148
955	0.148
955	0.148
955	0.148
956	0.149
956	0.15
957	0.151
957	0.151
957	0.152
958	0.153
958	0.153
959	0.154
959	0.154
960	0.155
960	0.155
960	0.155
961	0.155
961	0.155
962	0.155
962	0.154
963	0.154
963	0.153
963	0.153
964	0.152
964	0.152
965	0.151
965	0.151
966	0.151
966	0.15
966	0.15
967	0.15
967	0.15
968	0.151
968	0.151
968	0.15
969	0.15
969	0.15
970	0.149
970	0.148
971	0.148
971	0.147
971	0.146
972	0.145
972	0.144
973	0.143
973	0.143
974	0.142
974	0.142
974	0.142
975	0.142
975	0.142
976	0.142
976	0.143
976	0.143
977	0.143
977	0.143
978	0.143
978	0.143
979	0.143
979	0.142
979	0.143
980	0.143
980	0.143
981	0.143
981	0.143
982	0.143
982	0.143
982	0.144
983	0.144
983	0.143
984	0.144
984	0.143
984	0.143
985	0.143
985	0.142
986	0.142
986	0.141
987	0.14
987	0.14
987	0.139
988	0.139
988	0.138
989	0.138
989	0.138
990	0.137
990	0.137
990	0.137
991	0.137
991	0.136
992	0.136
992	0.136
992	0.135
993	0.134
993	0.134
994	0.133
994	0.132
995	0.132
995	0.131
995	0.131
996	0.131
996	0.131
997	0.132
997	0.132
997	0.132
998	0.133
998	0.133
999	0.134
999	0.134
1000	0.135
1000	0.136
1000	0.136
1001	0.136
1001	0.137
1002	0.137
1002	0.137
1003	0.137
1003	0.137
1003	0.137
1004	0.137
1004	0.136
1005	0.135
1005	0.135
1005	0.134
1006	0.134
1006	0.134
1007	0.134
1007	0.133
1008	0.133
1008	0.133
1008	0.133
1009	0.133
1009	0.132
1010	0.132
1010	0.132
1010	0.131
1011	0.131
1011	0.13
1012	0.13
1012	0.129
1013	0.129
1013	0.128
1013	0.127
1014	0.127
1014	0.126
1015	0.126
1015	0.126
1016	0.126
1016	0.126
1016	0.126
1017	0.126
1017	0.125
1018	0.126
1018	0.126
1018	0.126
1019	0.125
1019	0.125
1020	0.125
1020	0.126
1021	0.126
1021	0.126
1021	0.127
1022	0.127
1022	0.127
1023	0.128
1023	0.128
1023	0.128
1024	0.128
1024	0.129
1025	0.128
1025	0.128
1026	0.128
1026	0.128
1026	0.128
1027	0.128
1027	0.128
1028	0.128
1028	0.127
1028	0.127
1029	0.127
1029	0.127
1030	0.127
1030	0.126
1031	0.127
1031	0.126
1031	0.126
1032	0.126
1032	0.126
1033	0.126
1033	0.126
1033	0.126
1034	0.126
1034	0.126
1035	0.126
1035	0.125
1036	0.125
1036	0.125
1036	0.125
1037	0.125
1037	0.124
1038	0.124
1038	0.124
1039	0.123
1039	0.123
1039	0.123
1040	0.123
1040	0.122
1041	0.123
1041	0.122
1041	0.122
1042	0.122
1042	0.122
1043	0.122
1043	0.121
1044	0.121
1044	0.121
1044	0.12
1045	0.12
1045	0.12
1046	0.119
1046	0.119
1046	0.119
1047	0.118
1047	0.118
1048	0.118
1048	0.117
1049	0.117
1049	0.117
1049	0.117
1050	0.116
1050	0.116
1051	0.115
1051	0.115
1051	0.115
1052	0.114
1052	0.113
1053	0.113
1053	0.112
1053	0.111
1054	0.111
1054	0.111
1055	0.11
1055	0.11
1056	0.109
1056	0.109
1056	0.108
1057	0.108
1057	0.107
1058	0.107
1058	0.106
1058	0.106
1059	0.105
1059	0.105
1060	0.105
1060	0.104
1061	0.104
1061	0.104
1061	0.104
1062	0.104
1062	0.104
1063	0.104
1063	0.104
1063	0.104
1064	0.103
1064	0.103
1065	0.103
1065	0.103
1066	0.103
1066	0.103
1066	0.103
1067	0.102
1067	0.103
1068	0.102
1068	0.103
1068	0.103
1069	0.102
1069	0.102
1070	0.102
1070	0.102
1071	0.101
1071	0.101
1071	0.101
1072	0.101
1072	0.1
1073	0.1
1073	0.1
1073	0.1
1074	0.1
1074	0.1
1075	0.1
1075	0.1
1076	0.101
1076	0.101
1076	0.101
1077	0.102
1077	0.101
1078	0.102
1078	0.102
1078	0.102
1079	0.101
1079	0.101
1080	0.1
1080	0.1
1080	0.1
1081	0.1
1081	0.101
1082	0.101
1082	0.101
1083	0.101
1083	0.101
1083	0.101
1084	0.101
1084	0.101
1085	0.101
1085	0.101
1085	0.101
1086	0.101
1086	0.101
1087	0.1
1087	0.1
1088	0.1
1088	0.1
1088	0.1
1089	0.1
1089	0.099
1090	0.098
1090	0.098
1090	0.097
1091	0.096
1091	0.096
1092	0.096
1092	0.096
1092	0.096
1093	0.095
1093	0.095
1094	0.095
1094	0.095
1095	0.095
1095	0.094
1095	0.094
1096	0.093
1096	0.092
1097	0.091
1097	0.091
1097	0.09
1098	0.09
1098	0.089
1099	0.088
1099	0.088
1100	0.087
1100	0.086
1100	0.086
1101	0.085
1101	0.084
1102	0.083
1102	0.082
1102	0.081
1103	0.08
1103	0.08
1104	0.079
1104	0.079
1104	0.078
1105	0.077
1105	0.076
1106	0.075
1106	0.074
1107	0.074
1107	0.074
1107	0.074
1108	0.073
1108	0.072
1109	0.071
1109	0.071
1109	0.072
1110	0.073
1110	0.074
1111	0.077
1111	0.076
