Data from reversibility-20sec_Absorbance__4542__000000000004542.txt Node

Date: Wed Dec 06 13:27:05 CET 2023
User: Marek
Spectrometer: MAYP115816
Trigger mode: 0
Integration Time (sec): 2.000000E-1
Scans to average: 10
Electric dark correction enabled: true
Nonlinearity correction enabled: true
Boxcar width: 5
XAxis mode: Wavelengths
Number of Pixels in Spectrum: 2068
>>>>>Begin Spectral Data<<<<<
199	-0.245
199	-0.205
200	-0.13
200	-0.07
201	-0.039
201	-0.02
202	-0.005
202	0.007
203	0.015
203	0.018
204	0.034
204	0.05
205	0.064
205	0.071
205	0.068
206	0.068
206	0.069
207	0.069
207	0.068
208	0.067
208	0.067
209	0.071
209	0.07
210	0.07
210	0.072
211	0.073
211	0.075
212	0.072
212	0.076
213	0.078
213	0.079
213	0.079
214	0.08
214	0.081
215	0.083
215	0.079
216	0.08
216	0.078
217	0.081
217	0.081
218	0.08
218	0.084
219	0.09
219	0.091
220	0.093
220	0.094
221	0.098
221	0.101
221	0.108
222	0.114
222	0.118
223	0.123
223	0.127
224	0.132
224	0.14
225	0.15
225	0.157
226	0.166
226	0.176
227	0.184
227	0.193
228	0.207
228	0.221
229	0.237
229	0.263
229	0.285
230	0.308
230	0.338
231	0.37
231	0.406
232	0.444
232	0.487
233	0.532
233	0.581
234	0.632
234	0.68
235	0.734
235	0.789
236	0.842
236	0.895
236	0.947
237	0.999
237	1.049
238	1.097
238	1.146
239	1.194
239	1.237
240	1.276
240	1.312
241	1.348
241	1.383
242	1.414
242	1.447
243	1.478
243	1.504
243	1.529
244	1.549
244	1.569
245	1.587
245	1.608
246	1.628
246	1.644
247	1.657
247	1.671
248	1.684
248	1.698
249	1.708
249	1.714
250	1.726
250	1.736
250	1.741
251	1.746
251	1.75
252	1.756
252	1.76
253	1.762
253	1.761
254	1.762
254	1.765
255	1.763
255	1.765
256	1.766
256	1.766
257	1.768
257	1.768
258	1.766
258	1.766
258	1.766
259	1.767
259	1.767
260	1.767
260	1.768
261	1.768
261	1.768
262	1.769
262	1.77
263	1.772
263	1.773
264	1.774
264	1.774
265	1.774
265	1.773
265	1.772
266	1.773
266	1.774
267	1.77
267	1.771
268	1.77
268	1.77
269	1.773
269	1.771
270	1.771
270	1.771
271	1.768
271	1.767
272	1.764
272	1.764
272	1.762
273	1.758
273	1.754
274	1.749
274	1.745
275	1.74
275	1.735
276	1.73
276	1.722
277	1.715
277	1.707
278	1.696
278	1.686
278	1.674
279	1.66
279	1.644
280	1.624
280	1.601
281	1.573
281	1.542
282	1.509
282	1.475
283	1.44
283	1.404
284	1.369
284	1.335
285	1.302
285	1.272
285	1.244
286	1.219
286	1.197
287	1.176
287	1.16
288	1.145
288	1.132
289	1.121
289	1.111
290	1.102
290	1.095
291	1.088
291	1.082
292	1.077
292	1.072
292	1.068
293	1.064
293	1.06
294	1.056
294	1.052
295	1.048
295	1.045
296	1.042
296	1.038
297	1.035
297	1.032
298	1.028
298	1.025
298	1.022
299	1.019
299	1.016
300	1.013
300	1.01
301	1.007
301	1.004
302	1.001
302	0.998
303	0.995
303	0.993
304	0.99
304	0.987
305	0.984
305	0.982
305	0.979
306	0.977
306	0.974
307	0.971
307	0.968
308	0.965
308	0.963
309	0.96
309	0.956
310	0.953
310	0.95
311	0.947
311	0.943
311	0.94
312	0.937
312	0.933
313	0.929
313	0.926
314	0.922
314	0.918
315	0.913
315	0.909
316	0.905
316	0.9
317	0.895
317	0.891
318	0.886
318	0.881
318	0.876
319	0.87
319	0.865
320	0.86
320	0.854
321	0.848
321	0.842
322	0.836
322	0.829
323	0.823
323	0.816
324	0.81
324	0.803
324	0.796
325	0.79
325	0.783
326	0.776
326	0.77
327	0.763
327	0.757
328	0.75
328	0.743
329	0.737
329	0.73
330	0.723
330	0.716
330	0.709
331	0.702
331	0.695
332	0.688
332	0.681
333	0.675
333	0.668
334	0.661
334	0.654
335	0.648
335	0.641
336	0.634
336	0.628
336	0.622
337	0.615
337	0.609
338	0.603
338	0.597
339	0.592
339	0.585
340	0.58
340	0.574
341	0.569
341	0.563
342	0.558
342	0.553
342	0.548
343	0.542
343	0.537
344	0.532
344	0.528
345	0.523
345	0.518
346	0.514
346	0.509
347	0.505
347	0.501
348	0.497
348	0.493
348	0.489
349	0.486
349	0.482
350	0.478
350	0.475
351	0.471
351	0.468
352	0.465
352	0.462
353	0.459
353	0.456
354	0.453
354	0.45
354	0.447
355	0.444
355	0.441
356	0.438
356	0.435
357	0.431
357	0.429
358	0.426
358	0.423
359	0.421
359	0.418
360	0.416
360	0.414
360	0.413
361	0.411
361	0.409
362	0.408
362	0.406
363	0.404
363	0.402
364	0.4
364	0.398
365	0.396
365	0.394
366	0.392
366	0.39
366	0.388
367	0.387
367	0.385
368	0.383
368	0.382
369	0.38
369	0.379
370	0.377
370	0.376
371	0.374
371	0.372
372	0.371
372	0.37
372	0.368
373	0.367
373	0.366
374	0.365
374	0.363
375	0.362
375	0.361
376	0.361
376	0.36
377	0.359
377	0.357
378	0.356
378	0.355
378	0.354
379	0.354
379	0.353
380	0.352
380	0.351
381	0.35
381	0.349
382	0.348
382	0.347
383	0.346
383	0.346
383	0.345
384	0.344
384	0.343
385	0.342
385	0.342
386	0.341
386	0.341
387	0.34
387	0.339
388	0.339
388	0.338
389	0.338
389	0.337
389	0.337
390	0.336
390	0.335
391	0.335
391	0.334
392	0.334
392	0.333
393	0.333
393	0.332
394	0.332
394	0.331
394	0.33
395	0.33
395	0.329
396	0.329
396	0.328
397	0.328
397	0.327
398	0.327
398	0.327
399	0.326
399	0.326
400	0.325
400	0.325
400	0.324
401	0.324
401	0.324
402	0.323
402	0.323
403	0.322
403	0.322
404	0.321
404	0.321
405	0.321
405	0.32
405	0.32
406	0.319
406	0.319
407	0.319
407	0.318
408	0.318
408	0.317
409	0.317
409	0.316
410	0.316
410	0.316
411	0.316
411	0.315
411	0.315
412	0.314
412	0.314
413	0.314
413	0.313
414	0.313
414	0.313
415	0.312
415	0.311
416	0.311
416	0.311
416	0.31
417	0.31
417	0.31
418	0.309
418	0.309
419	0.308
419	0.308
420	0.308
420	0.307
421	0.307
421	0.307
421	0.306
422	0.306
422	0.306
423	0.306
423	0.305
424	0.305
424	0.305
425	0.304
425	0.304
426	0.304
426	0.303
427	0.303
427	0.303
427	0.303
428	0.302
428	0.302
429	0.302
429	0.301
430	0.301
430	0.301
431	0.301
431	0.3
432	0.3
432	0.3
432	0.3
433	0.3
433	0.299
434	0.299
434	0.299
435	0.299
435	0.299
436	0.299
436	0.299
437	0.298
437	0.298
437	0.298
438	0.298
438	0.298
439	0.297
439	0.297
440	0.297
440	0.297
441	0.296
441	0.296
442	0.296
442	0.296
442	0.296
443	0.296
443	0.296
444	0.296
444	0.296
445	0.296
445	0.296
446	0.296
446	0.295
447	0.295
447	0.295
447	0.295
448	0.295
448	0.295
449	0.295
449	0.295
450	0.295
450	0.295
451	0.295
451	0.295
452	0.295
452	0.295
452	0.295
453	0.295
453	0.295
454	0.295
454	0.295
455	0.295
455	0.295
456	0.295
456	0.295
457	0.294
457	0.294
458	0.294
458	0.294
458	0.294
459	0.294
459	0.295
460	0.294
460	0.294
461	0.294
461	0.295
462	0.294
462	0.295
463	0.295
463	0.295
463	0.295
464	0.295
464	0.295
465	0.295
465	0.296
466	0.296
466	0.296
467	0.296
467	0.297
467	0.297
468	0.297
468	0.297
469	0.297
469	0.298
470	0.298
470	0.299
471	0.299
471	0.3
472	0.3
472	0.3
472	0.301
473	0.302
473	0.302
474	0.302
474	0.303
475	0.303
475	0.304
476	0.304
476	0.305
477	0.305
477	0.306
477	0.307
478	0.307
478	0.308
479	0.309
479	0.309
480	0.31
480	0.31
481	0.311
481	0.311
482	0.312
482	0.313
482	0.313
483	0.314
483	0.316
484	0.316
484	0.317
485	0.318
485	0.318
486	0.319
486	0.32
487	0.321
487	0.321
487	0.322
488	0.323
488	0.324
489	0.325
489	0.327
490	0.328
490	0.329
491	0.331
491	0.332
492	0.333
492	0.335
492	0.336
493	0.337
493	0.339
494	0.34
494	0.341
495	0.342
495	0.344
496	0.345
496	0.347
496	0.348
497	0.35
497	0.351
498	0.352
498	0.354
499	0.355
499	0.356
500	0.358
500	0.36
501	0.361
501	0.362
501	0.363
502	0.364
502	0.365
503	0.367
503	0.368
504	0.369
504	0.37
505	0.372
505	0.373
506	0.374
506	0.375
506	0.376
507	0.378
507	0.379
508	0.38
508	0.382
509	0.383
509	0.384
510	0.386
510	0.387
511	0.388
511	0.39
511	0.391
512	0.392
512	0.393
513	0.394
513	0.395
514	0.396
514	0.397
515	0.398
515	0.398
515	0.399
516	0.4
516	0.4
517	0.401
517	0.402
518	0.402
518	0.402
519	0.403
519	0.403
520	0.403
520	0.403
520	0.403
521	0.403
521	0.403
522	0.403
522	0.402
523	0.402
523	0.402
524	0.401
524	0.401
524	0.401
525	0.401
525	0.4
526	0.4
526	0.399
527	0.399
527	0.398
528	0.397
528	0.397
529	0.396
529	0.395
529	0.394
530	0.393
530	0.392
531	0.391
531	0.389
532	0.388
532	0.386
533	0.385
533	0.383
533	0.382
534	0.38
534	0.379
535	0.377
535	0.375
536	0.374
536	0.372
537	0.371
537	0.369
538	0.367
538	0.365
538	0.363
539	0.361
539	0.36
540	0.358
540	0.356
541	0.353
541	0.351
542	0.349
542	0.346
542	0.344
543	0.342
543	0.34
544	0.338
544	0.335
545	0.334
545	0.332
546	0.329
546	0.327
547	0.325
547	0.323
547	0.32
548	0.318
548	0.316
549	0.314
549	0.312
550	0.31
550	0.307
551	0.304
551	0.302
551	0.3
552	0.297
552	0.295
553	0.292
553	0.29
554	0.288
554	0.286
555	0.283
555	0.281
556	0.279
556	0.277
556	0.275
557	0.273
557	0.271
558	0.27
558	0.268
559	0.266
559	0.264
560	0.262
560	0.26
560	0.258
561	0.256
561	0.254
562	0.252
562	0.25
563	0.247
563	0.245
564	0.242
564	0.24
564	0.239
565	0.237
565	0.235
566	0.233
566	0.231
567	0.229
567	0.228
568	0.227
568	0.225
568	0.223
569	0.222
569	0.22
570	0.218
570	0.216
571	0.215
571	0.213
572	0.211
572	0.21
573	0.208
573	0.207
573	0.205
574	0.203
574	0.202
575	0.201
575	0.2
576	0.199
576	0.197
577	0.196
577	0.194
577	0.193
578	0.192
578	0.19
579	0.19
579	0.189
580	0.187
580	0.185
581	0.183
581	0.182
581	0.181
582	0.18
582	0.18
583	0.179
583	0.178
584	0.176
584	0.174
585	0.173
585	0.172
585	0.171
586	0.17
586	0.169
587	0.167
587	0.166
588	0.164
588	0.163
589	0.162
589	0.162
590	0.161
590	0.161
590	0.16
591	0.16
591	0.159
592	0.158
592	0.157
593	0.156
593	0.155
594	0.154
594	0.153
594	0.152
595	0.151
595	0.15
596	0.149
596	0.148
597	0.149
597	0.149
598	0.148
598	0.147
598	0.147
599	0.146
599	0.146
600	0.145
600	0.144
601	0.143
601	0.142
602	0.141
602	0.14
602	0.139
603	0.139
603	0.138
604	0.138
604	0.137
605	0.137
605	0.137
606	0.136
606	0.135
606	0.134
607	0.133
607	0.132
608	0.131
608	0.13
609	0.129
609	0.129
610	0.128
610	0.127
610	0.127
611	0.127
611	0.126
612	0.126
612	0.126
613	0.126
613	0.125
614	0.124
614	0.124
614	0.123
615	0.123
615	0.122
616	0.122
616	0.121
617	0.121
617	0.12
618	0.119
618	0.119
618	0.119
619	0.119
619	0.119
620	0.119
620	0.118
621	0.118
621	0.117
622	0.117
622	0.116
622	0.116
623	0.115
623	0.115
624	0.114
624	0.113
625	0.113
625	0.112
626	0.111
626	0.111
626	0.111
627	0.11
627	0.11
628	0.109
628	0.109
629	0.109
629	0.108
630	0.108
630	0.107
630	0.108
631	0.108
631	0.107
632	0.107
632	0.106
633	0.106
633	0.106
634	0.106
634	0.106
634	0.106
635	0.105
635	0.104
636	0.104
636	0.103
637	0.103
637	0.103
638	0.102
638	0.102
638	0.101
639	0.101
639	0.1
640	0.1
640	0.1
641	0.1
641	0.1
642	0.099
642	0.099
642	0.099
643	0.099
643	0.099
644	0.099
644	0.099
645	0.098
645	0.098
646	0.097
646	0.097
646	0.097
647	0.096
647	0.096
648	0.095
648	0.094
649	0.094
649	0.094
650	0.093
650	0.093
650	0.093
651	0.093
651	0.092
652	0.092
652	0.091
653	0.092
653	0.093
653	0.1
654	0.081
654	0.066
655	0.063
655	0.063
656	0.063
656	0.063
657	0.064
657	0.064
657	0.064
658	0.063
658	0.054
659	0.068
659	0.085
660	0.091
660	0.092
661	0.091
661	0.09
661	0.09
662	0.09
662	0.089
663	0.089
663	0.089
664	0.089
664	0.089
665	0.088
665	0.088
665	0.088
666	0.088
666	0.088
667	0.088
667	0.088
668	0.088
668	0.088
669	0.088
669	0.088
669	0.088
670	0.088
670	0.088
671	0.087
671	0.087
672	0.087
672	0.086
672	0.086
673	0.086
673	0.085
674	0.085
674	0.084
675	0.084
675	0.084
676	0.084
676	0.084
676	0.083
677	0.082
677	0.082
678	0.082
678	0.081
679	0.081
679	0.081
680	0.08
680	0.08
680	0.08
681	0.08
681	0.08
682	0.081
682	0.081
683	0.081
683	0.082
684	0.083
684	0.082
684	0.082
685	0.083
685	0.083
686	0.083
686	0.083
687	0.083
687	0.083
687	0.083
688	0.083
688	0.082
689	0.083
689	0.083
690	0.083
690	0.082
691	0.082
691	0.081
691	0.081
692	0.08
692	0.08
693	0.08
693	0.08
694	0.079
694	0.079
695	0.08
695	0.081
695	0.081
696	0.081
696	0.081
697	0.082
697	0.082
698	0.082
698	0.082
698	0.082
699	0.082
699	0.081
700	0.081
700	0.081
701	0.08
701	0.08
702	0.079
702	0.078
702	0.078
703	0.077
703	0.077
704	0.076
704	0.076
705	0.076
705	0.076
705	0.076
706	0.076
706	0.076
707	0.076
707	0.077
708	0.077
708	0.077
709	0.077
709	0.077
709	0.076
710	0.076
710	0.076
711	0.076
711	0.075
712	0.075
712	0.075
713	0.075
713	0.075
713	0.074
714	0.074
714	0.074
715	0.073
715	0.073
716	0.072
716	0.072
716	0.071
717	0.071
717	0.07
718	0.07
718	0.07
719	0.07
719	0.07
720	0.071
720	0.071
720	0.071
721	0.071
721	0.071
722	0.072
722	0.072
723	0.072
723	0.072
723	0.072
724	0.072
724	0.072
725	0.071
725	0.07
726	0.07
726	0.069
727	0.068
727	0.068
727	0.067
728	0.067
728	0.067
729	0.067
729	0.067
730	0.067
730	0.067
730	0.068
731	0.068
731	0.069
732	0.07
732	0.07
733	0.07
733	0.07
734	0.07
734	0.07
734	0.07
735	0.07
735	0.07
736	0.069
736	0.069
737	0.068
737	0.068
737	0.067
738	0.066
738	0.066
739	0.065
739	0.065
740	0.064
740	0.064
741	0.064
741	0.064
741	0.064
742	0.064
742	0.064
743	0.065
743	0.066
744	0.066
744	0.067
744	0.067
745	0.067
745	0.066
746	0.066
746	0.066
747	0.066
747	0.066
748	0.066
748	0.066
748	0.065
749	0.065
749	0.065
750	0.064
750	0.064
751	0.063
751	0.063
751	0.063
752	0.062
752	0.061
753	0.061
753	0.06
754	0.06
754	0.06
754	0.06
755	0.06
755	0.06
756	0.06
756	0.059
757	0.059
757	0.059
758	0.059
758	0.059
758	0.06
759	0.06
759	0.06
760	0.06
760	0.059
761	0.06
761	0.06
761	0.06
762	0.06
762	0.06
763	0.06
763	0.059
764	0.058
764	0.058
764	0.058
765	0.057
765	0.057
766	0.057
766	0.056
767	0.056
767	0.055
768	0.054
768	0.055
768	0.055
769	0.055
769	0.056
770	0.057
770	0.057
771	0.058
771	0.058
771	0.059
772	0.06
772	0.06
773	0.061
773	0.06
774	0.06
774	0.059
775	0.059
775	0.058
775	0.058
776	0.057
776	0.057
777	0.056
777	0.056
778	0.055
778	0.054
778	0.054
779	0.054
779	0.054
780	0.053
780	0.052
781	0.052
781	0.052
781	0.052
782	0.051
782	0.052
783	0.052
783	0.052
784	0.052
784	0.053
784	0.054
785	0.054
785	0.055
786	0.055
786	0.056
787	0.056
787	0.056
788	0.056
788	0.055
788	0.055
789	0.054
789	0.054
790	0.053
790	0.053
791	0.052
791	0.051
791	0.05
792	0.05
792	0.05
793	0.049
793	0.049
794	0.049
794	0.049
794	0.048
795	0.048
795	0.049
796	0.049
796	0.049
797	0.048
797	0.048
797	0.049
798	0.049
798	0.05
799	0.05
799	0.05
800	0.05
800	0.05
801	0.05
801	0.05
801	0.05
802	0.05
802	0.05
803	0.05
803	0.05
804	0.051
804	0.051
804	0.051
805	0.051
805	0.05
806	0.05
806	0.05
807	0.049
807	0.049
807	0.049
808	0.05
808	0.05
809	0.05
809	0.05
810	0.051
810	0.051
810	0.051
811	0.051
811	0.052
812	0.052
812	0.052
813	0.052
813	0.052
813	0.051
814	0.051
814	0.051
815	0.051
815	0.051
816	0.051
816	0.05
817	0.049
817	0.049
817	0.049
818	0.048
818	0.048
819	0.048
819	0.048
820	0.047
820	0.047
820	0.046
821	0.047
821	0.047
822	0.047
822	0.047
823	0.047
823	0.047
823	0.047
824	0.048
824	0.048
825	0.049
825	0.05
826	0.05
826	0.05
826	0.05
827	0.051
827	0.051
828	0.051
828	0.05
829	0.05
829	0.049
829	0.049
830	0.049
830	0.049
831	0.049
831	0.049
832	0.048
832	0.048
832	0.048
833	0.048
833	0.048
834	0.048
834	0.048
835	0.048
835	0.048
835	0.048
836	0.048
836	0.049
837	0.049
837	0.049
838	0.049
838	0.049
839	0.049
839	0.049
839	0.048
840	0.048
840	0.047
841	0.046
841	0.046
842	0.045
842	0.044
842	0.044
843	0.043
843	0.042
844	0.042
844	0.041
845	0.04
845	0.039
845	0.039
846	0.038
846	0.038
847	0.037
847	0.037
848	0.037
848	0.038
848	0.038
849	0.039
849	0.039
850	0.04
850	0.04
851	0.041
851	0.042
851	0.042
852	0.042
852	0.042
853	0.042
853	0.041
854	0.041
854	0.041
854	0.042
855	0.042
855	0.042
856	0.042
856	0.042
857	0.043
857	0.043
857	0.043
858	0.044
858	0.043
859	0.043
859	0.043
860	0.042
860	0.042
860	0.042
861	0.042
861	0.042
862	0.042
862	0.041
863	0.041
863	0.04
863	0.04
864	0.04
864	0.039
865	0.039
865	0.039
866	0.039
866	0.039
866	0.039
867	0.04
867	0.04
868	0.041
868	0.042
869	0.042
869	0.043
869	0.042
870	0.042
870	0.042
871	0.043
871	0.043
872	0.042
872	0.042
872	0.042
873	0.042
873	0.041
874	0.041
874	0.041
875	0.041
875	0.041
875	0.041
876	0.041
876	0.041
877	0.041
877	0.041
878	0.042
878	0.042
878	0.042
879	0.043
879	0.043
880	0.043
880	0.043
881	0.043
881	0.043
881	0.043
882	0.043
882	0.043
883	0.042
883	0.042
884	0.042
884	0.042
884	0.041
885	0.041
885	0.041
886	0.04
886	0.04
887	0.039
887	0.039
887	0.038
888	0.038
888	0.037
889	0.036
889	0.036
890	0.036
890	0.036
890	0.035
891	0.035
891	0.036
892	0.036
892	0.036
893	0.036
893	0.036
893	0.036
894	0.037
894	0.037
895	0.037
895	0.037
895	0.038
896	0.038
896	0.039
897	0.039
897	0.04
898	0.041
898	0.041
898	0.042
899	0.042
899	0.043
900	0.043
900	0.043
901	0.043
901	0.044
901	0.044
902	0.044
902	0.044
903	0.044
903	0.043
904	0.043
904	0.042
904	0.041
905	0.04
905	0.039
906	0.039
906	0.038
907	0.038
907	0.037
907	0.037
908	0.037
908	0.036
909	0.036
909	0.036
910	0.036
910	0.035
910	0.035
911	0.035
911	0.035
912	0.034
912	0.034
913	0.035
913	0.035
913	0.035
914	0.036
914	0.036
915	0.037
915	0.037
916	0.037
916	0.038
916	0.038
917	0.038
917	0.038
918	0.038
918	0.038
918	0.037
919	0.037
919	0.037
920	0.037
920	0.037
921	0.037
921	0.037
921	0.037
922	0.037
922	0.038
923	0.038
923	0.038
924	0.038
924	0.039
924	0.039
925	0.039
925	0.04
926	0.04
926	0.04
927	0.041
927	0.041
927	0.041
928	0.04
928	0.04
929	0.04
929	0.04
930	0.04
930	0.04
930	0.039
931	0.039
931	0.039
932	0.039
932	0.039
933	0.038
933	0.038
933	0.037
934	0.037
934	0.036
935	0.035
935	0.035
935	0.034
936	0.033
936	0.032
937	0.032
937	0.031
938	0.031
938	0.031
938	0.031
939	0.031
939	0.031
940	0.032
940	0.033
941	0.033
941	0.034
941	0.035
942	0.036
942	0.036
943	0.037
943	0.037
944	0.037
944	0.038
944	0.038
945	0.038
945	0.038
946	0.038
946	0.038
946	0.038
947	0.038
947	0.038
948	0.038
948	0.038
949	0.037
949	0.037
949	0.036
950	0.036
950	0.036
951	0.036
951	0.036
952	0.035
952	0.035
952	0.035
953	0.035
953	0.035
954	0.034
954	0.034
955	0.034
955	0.033
955	0.033
956	0.033
956	0.033
957	0.033
957	0.033
957	0.034
958	0.034
958	0.034
959	0.034
959	0.034
960	0.035
960	0.035
960	0.035
961	0.035
961	0.035
962	0.035
962	0.035
963	0.036
963	0.036
963	0.036
964	0.036
964	0.036
965	0.036
965	0.036
966	0.036
966	0.036
966	0.037
967	0.037
967	0.037
968	0.037
968	0.037
968	0.037
969	0.037
969	0.037
970	0.036
970	0.036
971	0.035
971	0.035
971	0.034
972	0.033
972	0.033
973	0.032
973	0.032
974	0.032
974	0.032
974	0.032
975	0.032
975	0.032
976	0.033
976	0.034
976	0.034
977	0.035
977	0.035
978	0.035
978	0.036
979	0.036
979	0.036
979	0.036
980	0.036
980	0.035
981	0.035
981	0.034
982	0.034
982	0.033
982	0.033
983	0.032
983	0.032
984	0.031
984	0.031
984	0.031
985	0.03
985	0.03
986	0.03
986	0.029
987	0.029
987	0.029
987	0.029
988	0.029
988	0.029
989	0.029
989	0.029
990	0.029
990	0.029
990	0.03
991	0.03
991	0.03
992	0.03
992	0.03
992	0.029
993	0.029
993	0.028
994	0.027
994	0.027
995	0.026
995	0.025
995	0.024
996	0.024
996	0.024
997	0.024
997	0.025
997	0.025
998	0.026
998	0.027
999	0.028
999	0.029
1000	0.03
1000	0.031
1000	0.031
1001	0.032
1001	0.032
1002	0.032
1002	0.032
1003	0.032
1003	0.031
1003	0.03
1004	0.03
1004	0.029
1005	0.028
1005	0.027
1005	0.026
1006	0.026
1006	0.025
1007	0.025
1007	0.024
1008	0.024
1008	0.024
1008	0.023
1009	0.023
1009	0.023
1010	0.023
1010	0.023
1010	0.023
1011	0.023
1011	0.023
1012	0.023
1012	0.023
1013	0.023
1013	0.023
1013	0.022
1014	0.022
1014	0.022
1015	0.022
1015	0.022
1016	0.022
1016	0.022
1016	0.022
1017	0.023
1017	0.023
1018	0.023
1018	0.023
1018	0.024
1019	0.024
1019	0.024
1020	0.024
1020	0.025
1021	0.025
1021	0.025
1021	0.026
1022	0.026
1022	0.026
1023	0.026
1023	0.026
1023	0.027
1024	0.027
1024	0.027
1025	0.027
1025	0.027
1026	0.027
1026	0.028
1026	0.028
1027	0.028
1027	0.028
1028	0.029
1028	0.029
1028	0.029
1029	0.03
1029	0.03
1030	0.03
1030	0.031
1031	0.031
1031	0.031
1031	0.031
1032	0.032
1032	0.032
1033	0.032
1033	0.032
1033	0.032
1034	0.032
1034	0.031
1035	0.031
1035	0.03
1036	0.03
1036	0.03
1036	0.03
1037	0.03
1037	0.029
1038	0.029
1038	0.029
1039	0.029
1039	0.029
1039	0.028
1040	0.029
1040	0.028
1041	0.029
1041	0.028
1041	0.028
1042	0.028
1042	0.028
1043	0.028
1043	0.028
1044	0.028
1044	0.028
1044	0.028
1045	0.028
1045	0.028
1046	0.028
1046	0.029
1046	0.029
1047	0.029
1047	0.029
1048	0.03
1048	0.03
1049	0.03
1049	0.03
1049	0.03
1050	0.029
1050	0.029
1051	0.029
1051	0.028
1051	0.028
1052	0.027
1052	0.027
1053	0.026
1053	0.025
1053	0.025
1054	0.024
1054	0.024
1055	0.024
1055	0.023
1056	0.023
1056	0.022
1056	0.022
1057	0.021
1057	0.02
1058	0.02
1058	0.019
1058	0.019
1059	0.018
1059	0.018
1060	0.017
1060	0.017
1061	0.016
1061	0.016
1061	0.016
1062	0.016
1062	0.016
1063	0.015
1063	0.015
1063	0.015
1064	0.015
1064	0.015
1065	0.015
1065	0.015
1066	0.015
1066	0.015
1066	0.014
1067	0.014
1067	0.014
1068	0.014
1068	0.014
1068	0.014
1069	0.013
1069	0.013
1070	0.013
1070	0.012
1071	0.012
1071	0.012
1071	0.011
1072	0.011
1072	0.011
1073	0.011
1073	0.01
1073	0.01
1074	0.011
1074	0.011
1075	0.011
1075	0.011
1076	0.012
1076	0.012
1076	0.012
1077	0.013
1077	0.013
1078	0.012
1078	0.013
1078	0.013
1079	0.012
1079	0.012
1080	0.012
1080	0.012
1080	0.012
1081	0.012
1081	0.012
1082	0.013
1082	0.013
1083	0.013
1083	0.014
1083	0.014
1084	0.014
1084	0.015
1085	0.016
1085	0.016
1085	0.017
1086	0.018
1086	0.018
1087	0.018
1087	0.019
1088	0.019
1088	0.019
1088	0.019
1089	0.018
1089	0.018
1090	0.017
1090	0.017
1090	0.016
1091	0.015
1091	0.014
1092	0.015
1092	0.015
1092	0.015
1093	0.014
1093	0.015
1094	0.015
1094	0.014
1095	0.014
1095	0.014
1095	0.014
1096	0.014
1096	0.013
1097	0.012
1097	0.012
1097	0.011
1098	0.01
1098	0.009
1099	0.008
1099	0.007
1100	0.006
1100	0.004
1100	0.003
1101	0.002
1101	0.001
1102	-0
1102	-0.001
1102	-0.003
1103	-0.004
1103	-0.004
1104	-0.005
1104	-0.006
1104	-0.006
1105	-0.007
1105	-0.009
1106	-0.01
1106	-0.011
1107	-0.012
1107	-0.012
1107	-0.014
1108	-0.015
1108	-0.015
1109	-0.016
1109	-0.016
1109	-0.017
1110	-0.016
1110	-0.018
1111	-0.021
1111	-0.02
