Data from reversibility-20sec_Absorbance__7299__000000000007299.txt Node

Date: Thu Dec 07 04:46:07 CET 2023
User: Marek
Spectrometer: MAYP115816
Trigger mode: 0
Integration Time (sec): 2.000000E-1
Scans to average: 10
Electric dark correction enabled: true
Nonlinearity correction enabled: true
Boxcar width: 5
XAxis mode: Wavelengths
Number of Pixels in Spectrum: 2068
>>>>>Begin Spectral Data<<<<<
199	-0.09
199	-0.061
200	-0.001
200	0.044
201	0.071
201	0.088
202	0.099
202	0.108
203	0.116
203	0.12
204	0.135
204	0.149
205	0.16
205	0.164
205	0.161
206	0.162
206	0.163
207	0.163
207	0.163
208	0.161
208	0.161
209	0.16
209	0.155
210	0.156
210	0.157
211	0.161
211	0.162
212	0.158
212	0.157
213	0.161
213	0.161
213	0.163
214	0.168
214	0.172
215	0.17
215	0.171
216	0.174
216	0.171
217	0.177
217	0.181
218	0.178
218	0.183
219	0.186
219	0.185
220	0.187
220	0.188
221	0.189
221	0.19
221	0.197
222	0.2
222	0.205
223	0.211
223	0.218
224	0.22
224	0.226
225	0.237
225	0.249
226	0.26
226	0.268
227	0.277
227	0.288
228	0.3
228	0.316
229	0.332
229	0.357
229	0.381
230	0.406
230	0.437
231	0.469
231	0.508
232	0.546
232	0.592
233	0.637
233	0.684
234	0.734
234	0.784
235	0.837
235	0.89
236	0.937
236	0.989
236	1.04
237	1.092
237	1.139
238	1.184
238	1.229
239	1.276
239	1.315
240	1.354
240	1.389
241	1.425
241	1.459
242	1.489
242	1.521
243	1.55
243	1.577
243	1.601
244	1.621
244	1.643
245	1.659
245	1.68
246	1.698
246	1.711
247	1.724
247	1.736
248	1.749
248	1.761
249	1.771
249	1.777
250	1.785
250	1.792
250	1.793
251	1.797
251	1.8
252	1.803
252	1.802
253	1.8
253	1.797
254	1.795
254	1.795
255	1.79
255	1.79
256	1.791
256	1.79
257	1.791
257	1.789
258	1.79
258	1.79
258	1.789
259	1.79
259	1.791
260	1.792
260	1.791
261	1.791
261	1.792
262	1.794
262	1.798
263	1.801
263	1.802
264	1.803
264	1.805
265	1.807
265	1.807
265	1.81
266	1.811
266	1.81
267	1.808
267	1.808
268	1.806
268	1.808
269	1.809
269	1.809
270	1.808
270	1.807
271	1.804
271	1.803
272	1.8
272	1.798
272	1.793
273	1.788
273	1.781
274	1.774
274	1.766
275	1.759
275	1.751
276	1.743
276	1.734
277	1.726
277	1.716
278	1.704
278	1.691
278	1.676
279	1.66
279	1.637
280	1.61
280	1.578
281	1.539
281	1.497
282	1.452
282	1.406
283	1.361
283	1.318
284	1.276
284	1.235
285	1.198
285	1.164
285	1.134
286	1.107
286	1.084
287	1.064
287	1.047
288	1.032
288	1.02
289	1.01
289	1.001
290	0.993
290	0.986
291	0.98
291	0.975
292	0.97
292	0.966
292	0.962
293	0.958
293	0.955
294	0.951
294	0.948
295	0.945
295	0.942
296	0.939
296	0.936
297	0.933
297	0.93
298	0.927
298	0.924
298	0.921
299	0.919
299	0.916
300	0.913
300	0.91
301	0.908
301	0.905
302	0.903
302	0.9
303	0.898
303	0.896
304	0.893
304	0.891
305	0.889
305	0.887
305	0.884
306	0.882
306	0.879
307	0.877
307	0.875
308	0.872
308	0.869
309	0.867
309	0.864
310	0.862
310	0.859
311	0.856
311	0.853
311	0.849
312	0.846
312	0.843
313	0.839
313	0.835
314	0.831
314	0.827
315	0.823
315	0.819
316	0.815
316	0.81
317	0.806
317	0.801
318	0.796
318	0.79
318	0.785
319	0.78
319	0.774
320	0.769
320	0.763
321	0.757
321	0.751
322	0.745
322	0.739
323	0.732
323	0.726
324	0.719
324	0.713
324	0.706
325	0.699
325	0.692
326	0.685
326	0.678
327	0.671
327	0.664
328	0.657
328	0.65
329	0.642
329	0.635
330	0.628
330	0.621
330	0.614
331	0.607
331	0.6
332	0.593
332	0.586
333	0.578
333	0.571
334	0.564
334	0.557
335	0.55
335	0.543
336	0.536
336	0.53
336	0.523
337	0.517
337	0.51
338	0.504
338	0.498
339	0.492
339	0.486
340	0.48
340	0.474
341	0.469
341	0.463
342	0.458
342	0.452
342	0.447
343	0.441
343	0.436
344	0.431
344	0.426
345	0.421
345	0.416
346	0.411
346	0.407
347	0.403
347	0.398
348	0.394
348	0.39
348	0.387
349	0.383
349	0.379
350	0.375
350	0.372
351	0.369
351	0.365
352	0.362
352	0.359
353	0.356
353	0.353
354	0.35
354	0.348
354	0.345
355	0.342
355	0.339
356	0.336
356	0.333
357	0.331
357	0.328
358	0.326
358	0.323
359	0.321
359	0.318
360	0.316
360	0.314
360	0.312
361	0.311
361	0.309
362	0.307
362	0.305
363	0.303
363	0.302
364	0.3
364	0.298
365	0.296
365	0.294
366	0.293
366	0.291
366	0.29
367	0.288
367	0.286
368	0.285
368	0.283
369	0.282
369	0.281
370	0.279
370	0.278
371	0.277
371	0.276
372	0.274
372	0.273
372	0.272
373	0.271
373	0.271
374	0.269
374	0.268
375	0.268
375	0.267
376	0.266
376	0.265
377	0.264
377	0.263
378	0.263
378	0.262
378	0.261
379	0.26
379	0.259
380	0.259
380	0.258
381	0.257
381	0.256
382	0.256
382	0.256
383	0.255
383	0.255
383	0.254
384	0.254
384	0.253
385	0.253
385	0.253
386	0.252
386	0.252
387	0.252
387	0.251
388	0.251
388	0.25
389	0.25
389	0.25
389	0.249
390	0.249
390	0.249
391	0.248
391	0.248
392	0.248
392	0.248
393	0.247
393	0.247
394	0.246
394	0.246
394	0.246
395	0.246
395	0.245
396	0.245
396	0.244
397	0.244
397	0.244
398	0.244
398	0.244
399	0.243
399	0.243
400	0.243
400	0.242
400	0.242
401	0.242
401	0.242
402	0.242
402	0.241
403	0.241
403	0.241
404	0.24
404	0.24
405	0.24
405	0.24
405	0.24
406	0.24
406	0.239
407	0.239
407	0.239
408	0.238
408	0.238
409	0.238
409	0.238
410	0.237
410	0.237
411	0.237
411	0.237
411	0.236
412	0.236
412	0.236
413	0.236
413	0.235
414	0.235
414	0.235
415	0.234
415	0.234
416	0.234
416	0.234
416	0.233
417	0.233
417	0.233
418	0.232
418	0.232
419	0.232
419	0.231
420	0.231
420	0.23
421	0.23
421	0.23
421	0.229
422	0.229
422	0.229
423	0.228
423	0.228
424	0.227
424	0.227
425	0.227
425	0.227
426	0.226
426	0.226
427	0.226
427	0.225
427	0.225
428	0.225
428	0.225
429	0.224
429	0.224
430	0.224
430	0.223
431	0.223
431	0.223
432	0.223
432	0.223
432	0.222
433	0.222
433	0.222
434	0.222
434	0.222
435	0.221
435	0.221
436	0.221
436	0.221
437	0.22
437	0.22
437	0.22
438	0.22
438	0.219
439	0.219
439	0.219
440	0.219
440	0.218
441	0.218
441	0.217
442	0.217
442	0.217
442	0.217
443	0.216
443	0.216
444	0.216
444	0.216
445	0.216
445	0.216
446	0.216
446	0.215
447	0.215
447	0.215
447	0.215
448	0.215
448	0.215
449	0.215
449	0.214
450	0.214
450	0.214
451	0.214
451	0.214
452	0.213
452	0.213
452	0.213
453	0.213
453	0.212
454	0.212
454	0.212
455	0.211
455	0.211
456	0.211
456	0.21
457	0.21
457	0.21
458	0.21
458	0.209
458	0.209
459	0.209
459	0.209
460	0.209
460	0.209
461	0.209
461	0.208
462	0.208
462	0.208
463	0.208
463	0.207
463	0.207
464	0.207
464	0.206
465	0.206
465	0.206
466	0.206
466	0.206
467	0.205
467	0.205
467	0.205
468	0.205
468	0.205
469	0.205
469	0.206
470	0.206
470	0.205
471	0.205
471	0.205
472	0.205
472	0.205
472	0.205
473	0.205
473	0.205
474	0.204
474	0.204
475	0.204
475	0.204
476	0.204
476	0.204
477	0.203
477	0.203
477	0.203
478	0.203
478	0.203
479	0.203
479	0.203
480	0.203
480	0.203
481	0.204
481	0.203
482	0.204
482	0.204
482	0.204
483	0.204
483	0.204
484	0.204
484	0.204
485	0.203
485	0.203
486	0.203
486	0.203
487	0.203
487	0.203
487	0.203
488	0.203
488	0.203
489	0.203
489	0.203
490	0.204
490	0.204
491	0.204
491	0.205
492	0.205
492	0.205
492	0.206
493	0.207
493	0.207
494	0.207
494	0.208
495	0.208
495	0.208
496	0.208
496	0.209
496	0.209
497	0.209
497	0.209
498	0.209
498	0.209
499	0.21
499	0.21
500	0.211
500	0.211
501	0.211
501	0.212
501	0.212
502	0.212
502	0.212
503	0.213
503	0.213
504	0.213
504	0.214
505	0.214
505	0.214
506	0.214
506	0.215
506	0.215
507	0.215
507	0.216
508	0.216
508	0.216
509	0.216
509	0.217
510	0.217
510	0.217
511	0.218
511	0.218
511	0.219
512	0.219
512	0.219
513	0.22
513	0.22
514	0.221
514	0.221
515	0.221
515	0.222
515	0.222
516	0.223
516	0.223
517	0.223
517	0.224
518	0.224
518	0.224
519	0.224
519	0.224
520	0.225
520	0.225
520	0.225
521	0.225
521	0.225
522	0.225
522	0.225
523	0.226
523	0.226
524	0.226
524	0.226
524	0.227
525	0.227
525	0.227
526	0.227
526	0.227
527	0.228
527	0.228
528	0.227
528	0.228
529	0.227
529	0.227
529	0.227
530	0.227
530	0.227
531	0.227
531	0.227
532	0.227
532	0.227
533	0.227
533	0.226
533	0.227
534	0.226
534	0.226
535	0.227
535	0.227
536	0.227
536	0.227
537	0.227
537	0.227
538	0.227
538	0.227
538	0.226
539	0.227
539	0.226
540	0.226
540	0.226
541	0.226
541	0.226
542	0.226
542	0.226
542	0.226
543	0.226
543	0.225
544	0.225
544	0.225
545	0.225
545	0.225
546	0.225
546	0.224
547	0.224
547	0.223
547	0.223
548	0.223
548	0.223
549	0.222
549	0.222
550	0.222
550	0.221
551	0.221
551	0.221
551	0.221
552	0.221
552	0.221
553	0.221
553	0.221
554	0.22
554	0.22
555	0.219
555	0.219
556	0.218
556	0.218
556	0.218
557	0.218
557	0.218
558	0.219
558	0.218
559	0.219
559	0.219
560	0.219
560	0.219
560	0.218
561	0.218
561	0.218
562	0.217
562	0.216
563	0.215
563	0.215
564	0.214
564	0.213
564	0.213
565	0.213
565	0.213
566	0.212
566	0.212
567	0.212
567	0.212
568	0.212
568	0.212
568	0.212
569	0.211
569	0.211
570	0.21
570	0.209
571	0.209
571	0.208
572	0.208
572	0.207
573	0.207
573	0.207
573	0.206
574	0.206
574	0.206
575	0.206
575	0.206
576	0.206
576	0.205
577	0.204
577	0.204
577	0.204
578	0.203
578	0.203
579	0.203
579	0.203
580	0.203
580	0.202
581	0.202
581	0.202
581	0.202
582	0.202
582	0.202
583	0.202
583	0.202
584	0.201
584	0.2
585	0.199
585	0.199
585	0.199
586	0.199
586	0.199
587	0.198
587	0.197
588	0.197
588	0.197
589	0.197
589	0.197
590	0.197
590	0.197
590	0.197
591	0.197
591	0.197
592	0.196
592	0.196
593	0.196
593	0.195
594	0.195
594	0.194
594	0.193
595	0.193
595	0.192
596	0.192
596	0.192
597	0.193
597	0.193
598	0.193
598	0.193
598	0.193
599	0.193
599	0.193
600	0.193
600	0.192
601	0.192
601	0.192
602	0.191
602	0.19
602	0.19
603	0.19
603	0.19
604	0.19
604	0.19
605	0.19
605	0.19
606	0.189
606	0.189
606	0.188
607	0.188
607	0.188
608	0.188
608	0.187
609	0.187
609	0.186
610	0.186
610	0.186
610	0.186
611	0.186
611	0.186
612	0.186
612	0.186
613	0.187
613	0.187
614	0.186
614	0.186
614	0.186
615	0.186
615	0.186
616	0.186
616	0.186
617	0.186
617	0.186
618	0.186
618	0.186
618	0.186
619	0.186
619	0.186
620	0.186
620	0.186
621	0.185
621	0.185
622	0.184
622	0.184
622	0.184
623	0.183
623	0.183
624	0.183
624	0.182
625	0.182
625	0.182
626	0.182
626	0.182
626	0.183
627	0.183
627	0.182
628	0.182
628	0.182
629	0.182
629	0.182
630	0.181
630	0.181
630	0.181
631	0.181
631	0.181
632	0.18
632	0.18
633	0.18
633	0.18
634	0.181
634	0.181
634	0.181
635	0.18
635	0.18
636	0.18
636	0.18
637	0.18
637	0.179
638	0.179
638	0.179
638	0.178
639	0.178
639	0.177
640	0.178
640	0.177
641	0.177
641	0.177
642	0.177
642	0.177
642	0.177
643	0.177
643	0.177
644	0.178
644	0.178
645	0.178
645	0.179
646	0.179
646	0.179
646	0.18
647	0.179
647	0.179
648	0.178
648	0.178
649	0.177
649	0.177
650	0.177
650	0.176
650	0.176
651	0.176
651	0.176
652	0.177
652	0.177
653	0.178
653	0.179
653	0.185
654	0.145
654	0.116
655	0.117
655	0.117
656	0.117
656	0.118
657	0.118
657	0.119
657	0.119
658	0.117
658	0.108
659	0.136
659	0.174
660	0.179
660	0.179
661	0.178
661	0.177
661	0.177
662	0.176
662	0.176
663	0.176
663	0.176
664	0.176
664	0.176
665	0.176
665	0.176
665	0.176
666	0.176
666	0.176
667	0.177
667	0.177
668	0.177
668	0.177
669	0.177
669	0.177
669	0.177
670	0.178
670	0.178
671	0.178
671	0.177
672	0.177
672	0.176
672	0.176
673	0.176
673	0.175
674	0.175
674	0.175
675	0.174
675	0.174
676	0.175
676	0.175
676	0.175
677	0.175
677	0.175
678	0.175
678	0.175
679	0.175
679	0.175
680	0.175
680	0.175
680	0.174
681	0.174
681	0.174
682	0.175
682	0.175
683	0.175
683	0.175
684	0.175
684	0.175
684	0.175
685	0.175
685	0.175
686	0.175
686	0.175
687	0.176
687	0.176
687	0.176
688	0.177
688	0.177
689	0.178
689	0.178
690	0.178
690	0.178
691	0.178
691	0.178
691	0.178
692	0.178
692	0.178
693	0.178
693	0.178
694	0.178
694	0.178
695	0.179
695	0.18
695	0.181
696	0.181
696	0.181
697	0.181
697	0.181
698	0.18
698	0.18
698	0.18
699	0.18
699	0.18
700	0.179
700	0.179
701	0.179
701	0.178
702	0.178
702	0.177
702	0.177
703	0.177
703	0.176
704	0.176
704	0.175
705	0.175
705	0.175
705	0.175
706	0.175
706	0.175
707	0.175
707	0.175
708	0.175
708	0.175
709	0.176
709	0.176
709	0.176
710	0.176
710	0.177
711	0.177
711	0.178
712	0.178
712	0.179
713	0.179
713	0.179
713	0.18
714	0.18
714	0.18
715	0.18
715	0.179
716	0.179
716	0.178
716	0.177
717	0.177
717	0.176
718	0.175
718	0.175
719	0.175
719	0.176
720	0.176
720	0.177
720	0.178
721	0.178
721	0.18
722	0.181
722	0.181
723	0.182
723	0.182
723	0.182
724	0.182
724	0.181
725	0.18
725	0.179
726	0.179
726	0.178
727	0.177
727	0.176
727	0.176
728	0.176
728	0.176
729	0.176
729	0.176
730	0.176
730	0.177
730	0.177
731	0.178
731	0.178
732	0.179
732	0.179
733	0.18
733	0.18
734	0.18
734	0.181
734	0.181
735	0.182
735	0.182
736	0.182
736	0.182
737	0.182
737	0.182
737	0.182
738	0.181
738	0.181
739	0.18
739	0.18
740	0.18
740	0.18
741	0.18
741	0.18
741	0.181
742	0.181
742	0.182
743	0.183
743	0.183
744	0.184
744	0.185
744	0.185
745	0.185
745	0.185
746	0.185
746	0.185
747	0.185
747	0.184
748	0.184
748	0.184
748	0.184
749	0.184
749	0.184
750	0.184
750	0.184
751	0.185
751	0.185
751	0.186
752	0.186
752	0.185
753	0.185
753	0.185
754	0.185
754	0.184
754	0.184
755	0.184
755	0.184
756	0.184
756	0.183
757	0.182
757	0.182
758	0.182
758	0.182
758	0.182
759	0.182
759	0.182
760	0.182
760	0.182
761	0.182
761	0.183
761	0.183
762	0.183
762	0.184
763	0.184
763	0.184
764	0.184
764	0.184
764	0.184
765	0.184
765	0.184
766	0.184
766	0.184
767	0.183
767	0.183
768	0.182
768	0.182
768	0.182
769	0.182
769	0.183
770	0.183
770	0.183
771	0.184
771	0.184
771	0.185
772	0.185
772	0.185
773	0.186
773	0.186
774	0.186
774	0.186
775	0.187
775	0.187
775	0.187
776	0.187
776	0.188
777	0.188
777	0.189
778	0.189
778	0.19
778	0.19
779	0.19
779	0.189
780	0.189
780	0.188
781	0.188
781	0.187
781	0.187
782	0.186
782	0.186
783	0.187
783	0.187
784	0.187
784	0.187
784	0.188
785	0.188
785	0.189
786	0.189
786	0.189
787	0.189
787	0.189
788	0.189
788	0.188
788	0.188
789	0.188
789	0.188
790	0.188
790	0.188
791	0.188
791	0.188
791	0.188
792	0.189
792	0.189
793	0.189
793	0.189
794	0.189
794	0.189
794	0.189
795	0.189
795	0.19
796	0.19
796	0.19
797	0.19
797	0.19
797	0.19
798	0.19
798	0.19
799	0.19
799	0.19
800	0.19
800	0.189
801	0.189
801	0.19
801	0.19
802	0.19
802	0.191
803	0.191
803	0.192
804	0.192
804	0.193
804	0.194
805	0.194
805	0.194
806	0.194
806	0.194
807	0.193
807	0.193
807	0.193
808	0.193
808	0.193
809	0.192
809	0.192
810	0.192
810	0.192
810	0.192
811	0.192
811	0.193
812	0.193
812	0.194
813	0.194
813	0.195
813	0.195
814	0.196
814	0.197
815	0.197
815	0.198
816	0.198
816	0.197
817	0.196
817	0.196
817	0.196
818	0.195
818	0.195
819	0.194
819	0.194
820	0.193
820	0.193
820	0.192
821	0.193
821	0.193
822	0.193
822	0.194
823	0.194
823	0.194
823	0.195
824	0.196
824	0.198
825	0.199
825	0.2
826	0.201
826	0.201
826	0.202
827	0.203
827	0.203
828	0.204
828	0.204
829	0.204
829	0.204
829	0.204
830	0.204
830	0.204
831	0.205
831	0.204
832	0.204
832	0.204
832	0.204
833	0.204
833	0.203
834	0.203
834	0.203
835	0.202
835	0.202
835	0.202
836	0.201
836	0.201
837	0.201
837	0.2
838	0.199
838	0.198
839	0.197
839	0.196
839	0.196
840	0.195
840	0.194
841	0.193
841	0.192
842	0.192
842	0.191
842	0.191
843	0.19
843	0.19
844	0.19
844	0.19
845	0.19
845	0.19
845	0.19
846	0.191
846	0.191
847	0.191
847	0.192
848	0.192
848	0.192
848	0.192
849	0.192
849	0.192
850	0.191
850	0.191
851	0.191
851	0.19
851	0.19
852	0.189
852	0.189
853	0.189
853	0.189
854	0.19
854	0.191
854	0.191
855	0.192
855	0.193
856	0.194
856	0.195
857	0.196
857	0.197
857	0.198
858	0.198
858	0.198
859	0.199
859	0.199
860	0.199
860	0.199
860	0.199
861	0.198
861	0.198
862	0.197
862	0.196
863	0.196
863	0.195
863	0.195
864	0.194
864	0.194
865	0.194
865	0.194
866	0.194
866	0.194
866	0.194
867	0.194
867	0.195
868	0.195
868	0.195
869	0.194
869	0.194
869	0.193
870	0.193
870	0.193
871	0.192
871	0.192
872	0.192
872	0.192
872	0.192
873	0.192
873	0.191
874	0.191
874	0.191
875	0.19
875	0.19
875	0.19
876	0.189
876	0.189
877	0.189
877	0.189
878	0.188
878	0.188
878	0.189
879	0.189
879	0.189
880	0.189
880	0.189
881	0.189
881	0.19
881	0.19
882	0.19
882	0.19
883	0.191
883	0.191
884	0.192
884	0.192
884	0.192
885	0.192
885	0.192
886	0.191
886	0.191
887	0.191
887	0.19
887	0.19
888	0.189
888	0.189
889	0.188
889	0.188
890	0.188
890	0.188
890	0.188
891	0.188
891	0.188
892	0.188
892	0.189
893	0.189
893	0.189
893	0.188
894	0.188
894	0.188
895	0.187
895	0.187
895	0.186
896	0.186
896	0.186
897	0.185
897	0.185
898	0.184
898	0.184
898	0.183
899	0.183
899	0.182
900	0.182
900	0.182
901	0.181
901	0.181
901	0.181
902	0.181
902	0.181
903	0.181
903	0.181
904	0.181
904	0.181
904	0.181
905	0.18
905	0.18
906	0.18
906	0.18
907	0.18
907	0.18
907	0.18
908	0.18
908	0.179
909	0.179
909	0.179
910	0.178
910	0.178
910	0.178
911	0.177
911	0.177
912	0.176
912	0.175
913	0.175
913	0.175
913	0.174
914	0.174
914	0.174
915	0.174
915	0.174
916	0.174
916	0.174
916	0.174
917	0.174
917	0.173
918	0.173
918	0.173
918	0.173
919	0.172
919	0.172
920	0.172
920	0.171
921	0.171
921	0.171
921	0.171
922	0.171
922	0.171
923	0.171
923	0.171
924	0.171
924	0.171
924	0.171
925	0.171
925	0.171
926	0.172
926	0.172
927	0.172
927	0.172
927	0.172
928	0.173
928	0.173
929	0.173
929	0.173
930	0.173
930	0.173
930	0.173
931	0.172
931	0.172
932	0.172
932	0.171
933	0.171
933	0.17
933	0.17
934	0.169
934	0.169
935	0.168
935	0.168
935	0.167
936	0.167
936	0.166
937	0.166
937	0.165
938	0.165
938	0.164
938	0.163
939	0.163
939	0.162
940	0.161
940	0.161
941	0.161
941	0.161
941	0.162
942	0.162
942	0.162
943	0.162
943	0.162
944	0.162
944	0.163
944	0.163
945	0.163
945	0.163
946	0.163
946	0.162
946	0.162
947	0.162
947	0.161
948	0.161
948	0.161
949	0.16
949	0.16
949	0.16
950	0.159
950	0.159
951	0.158
951	0.158
952	0.157
952	0.156
952	0.155
953	0.155
953	0.154
954	0.154
954	0.154
955	0.154
955	0.153
955	0.154
956	0.154
956	0.155
957	0.156
957	0.157
957	0.157
958	0.158
958	0.158
959	0.159
959	0.159
960	0.159
960	0.159
960	0.159
961	0.159
961	0.159
962	0.158
962	0.158
963	0.158
963	0.157
963	0.157
964	0.157
964	0.157
965	0.156
965	0.156
966	0.156
966	0.156
966	0.155
967	0.155
967	0.155
968	0.155
968	0.155
968	0.155
969	0.154
969	0.153
970	0.152
970	0.152
971	0.151
971	0.15
971	0.149
972	0.148
972	0.147
973	0.146
973	0.146
974	0.146
974	0.146
974	0.146
975	0.147
975	0.147
976	0.148
976	0.148
976	0.148
977	0.149
977	0.149
978	0.149
978	0.149
979	0.149
979	0.149
979	0.149
980	0.149
980	0.149
981	0.148
981	0.149
982	0.149
982	0.149
982	0.149
983	0.149
983	0.148
984	0.148
984	0.148
984	0.148
985	0.147
985	0.147
986	0.147
986	0.146
987	0.145
987	0.145
987	0.144
988	0.144
988	0.144
989	0.143
989	0.143
990	0.143
990	0.142
990	0.142
991	0.142
991	0.142
992	0.142
992	0.141
992	0.14
993	0.139
993	0.138
994	0.137
994	0.137
995	0.136
995	0.135
995	0.135
996	0.135
996	0.135
997	0.135
997	0.135
997	0.136
998	0.136
998	0.137
999	0.137
999	0.138
1000	0.139
1000	0.139
1000	0.14
1001	0.14
1001	0.141
1002	0.14
1002	0.14
1003	0.141
1003	0.14
1003	0.14
1004	0.139
1004	0.139
1005	0.138
1005	0.137
1005	0.137
1006	0.136
1006	0.136
1007	0.136
1007	0.135
1008	0.135
1008	0.135
1008	0.135
1009	0.135
1009	0.135
1010	0.134
1010	0.134
1010	0.133
1011	0.133
1011	0.132
1012	0.132
1012	0.131
1013	0.131
1013	0.13
1013	0.13
1014	0.129
1014	0.129
1015	0.128
1015	0.128
1016	0.128
1016	0.127
1016	0.127
1017	0.127
1017	0.127
1018	0.126
1018	0.126
1018	0.126
1019	0.126
1019	0.126
1020	0.126
1020	0.126
1021	0.127
1021	0.127
1021	0.127
1022	0.127
1022	0.127
1023	0.128
1023	0.128
1023	0.128
1024	0.128
1024	0.128
1025	0.128
1025	0.128
1026	0.128
1026	0.128
1026	0.128
1027	0.128
1027	0.128
1028	0.128
1028	0.128
1028	0.128
1029	0.128
1029	0.128
1030	0.128
1030	0.128
1031	0.128
1031	0.128
1031	0.128
1032	0.128
1032	0.128
1033	0.128
1033	0.128
1033	0.128
1034	0.127
1034	0.127
1035	0.127
1035	0.127
1036	0.127
1036	0.127
1036	0.127
1037	0.126
1037	0.126
1038	0.126
1038	0.126
1039	0.125
1039	0.125
1039	0.125
1040	0.125
1040	0.124
1041	0.124
1041	0.124
1041	0.124
1042	0.123
1042	0.123
1043	0.123
1043	0.123
1044	0.123
1044	0.122
1044	0.122
1045	0.122
1045	0.121
1046	0.121
1046	0.121
1046	0.121
1047	0.12
1047	0.12
1048	0.119
1048	0.119
1049	0.119
1049	0.119
1049	0.118
1050	0.118
1050	0.117
1051	0.117
1051	0.117
1051	0.116
1052	0.116
1052	0.115
1053	0.115
1053	0.114
1053	0.114
1054	0.113
1054	0.113
1055	0.112
1055	0.112
1056	0.111
1056	0.11
1056	0.11
1057	0.11
1057	0.109
1058	0.108
1058	0.107
1058	0.106
1059	0.106
1059	0.105
1060	0.105
1060	0.105
1061	0.104
1061	0.104
1061	0.104
1062	0.103
1062	0.103
1063	0.103
1063	0.103
1063	0.103
1064	0.102
1064	0.102
1065	0.102
1065	0.102
1066	0.101
1066	0.101
1066	0.101
1067	0.101
1067	0.101
1068	0.101
1068	0.102
1068	0.102
1069	0.102
1069	0.102
1070	0.102
1070	0.102
1071	0.101
1071	0.101
1071	0.101
1072	0.101
1072	0.101
1073	0.1
1073	0.1
1073	0.1
1074	0.099
1074	0.099
1075	0.099
1075	0.1
1076	0.1
1076	0.101
1076	0.101
1077	0.101
1077	0.101
1078	0.101
1078	0.102
1078	0.101
1079	0.101
1079	0.101
1080	0.1
1080	0.1
1080	0.1
1081	0.099
1081	0.099
1082	0.099
1082	0.099
1083	0.098
1083	0.098
1083	0.098
1084	0.098
1084	0.099
1085	0.099
1085	0.099
1085	0.1
1086	0.1
1086	0.099
1087	0.1
1087	0.1
1088	0.1
1088	0.099
1088	0.099
1089	0.099
1089	0.098
1090	0.097
1090	0.097
1090	0.096
1091	0.096
1091	0.096
1092	0.096
1092	0.096
1092	0.096
1093	0.096
1093	0.096
1094	0.096
1094	0.096
1095	0.095
1095	0.095
1095	0.094
1096	0.093
1096	0.092
1097	0.091
1097	0.09
1097	0.089
1098	0.088
1098	0.087
1099	0.086
1099	0.085
1100	0.085
1100	0.083
1100	0.082
1101	0.081
1101	0.08
1102	0.08
1102	0.079
1102	0.077
1103	0.078
1103	0.077
1104	0.076
1104	0.075
1104	0.074
1105	0.074
1105	0.072
1106	0.071
1106	0.069
1107	0.069
1107	0.069
1107	0.069
1108	0.068
1108	0.068
1109	0.067
1109	0.067
1109	0.067
1110	0.069
1110	0.068
1111	0.07
1111	0.069
