Data from reversibility-20sec_Absorbance__817__000000000000817.txt Node

Date: Tue Dec 05 16:45:27 CET 2023
User: Marek
Spectrometer: MAYP115816
Trigger mode: 0
Integration Time (sec): 2.000000E-1
Scans to average: 10
Electric dark correction enabled: true
Nonlinearity correction enabled: true
Boxcar width: 5
XAxis mode: Wavelengths
Number of Pixels in Spectrum: 2068
>>>>>Begin Spectral Data<<<<<
199	-0.193
199	-0.156
200	-0.084
200	-0.034
201	-0.002
201	0.016
202	0.027
202	0.033
203	0.04
203	0.044
204	0.059
204	0.072
205	0.084
205	0.087
205	0.086
206	0.084
206	0.082
207	0.083
207	0.082
208	0.083
208	0.083
209	0.084
209	0.082
210	0.081
210	0.083
211	0.081
211	0.084
212	0.083
212	0.085
213	0.089
213	0.087
213	0.082
214	0.086
214	0.087
215	0.087
215	0.088
216	0.092
216	0.089
217	0.093
217	0.093
218	0.095
218	0.1
219	0.108
219	0.107
220	0.112
220	0.112
221	0.111
221	0.111
221	0.117
222	0.122
222	0.126
223	0.13
223	0.131
224	0.134
224	0.14
225	0.146
225	0.156
226	0.168
226	0.178
227	0.189
227	0.198
228	0.212
228	0.227
229	0.246
229	0.271
229	0.296
230	0.321
230	0.349
231	0.378
231	0.416
232	0.45
232	0.492
233	0.538
233	0.584
234	0.631
234	0.683
235	0.733
235	0.783
236	0.835
236	0.888
236	0.939
237	0.993
237	1.04
238	1.086
238	1.134
239	1.18
239	1.22
240	1.262
240	1.301
241	1.337
241	1.368
242	1.397
242	1.431
243	1.461
243	1.487
243	1.51
244	1.532
244	1.552
245	1.569
245	1.589
246	1.607
246	1.624
247	1.639
247	1.651
248	1.662
248	1.673
249	1.68
249	1.688
250	1.694
250	1.7
250	1.703
251	1.705
251	1.706
252	1.708
252	1.707
253	1.708
253	1.704
254	1.702
254	1.702
255	1.698
255	1.698
256	1.695
256	1.693
257	1.692
257	1.691
258	1.69
258	1.687
258	1.687
259	1.687
259	1.687
260	1.687
260	1.687
261	1.689
261	1.691
262	1.693
262	1.694
263	1.697
263	1.699
264	1.702
264	1.704
265	1.706
265	1.707
265	1.707
266	1.707
266	1.707
267	1.706
267	1.706
268	1.705
268	1.706
269	1.706
269	1.706
270	1.705
270	1.703
271	1.7
271	1.7
272	1.696
272	1.694
272	1.689
273	1.683
273	1.676
274	1.668
274	1.66
275	1.653
275	1.646
276	1.638
276	1.63
277	1.622
277	1.611
278	1.6
278	1.587
278	1.571
279	1.553
279	1.532
280	1.504
280	1.471
281	1.433
281	1.391
282	1.347
282	1.304
283	1.261
283	1.219
284	1.179
284	1.142
285	1.106
285	1.075
285	1.046
286	1.021
286	1.001
287	0.982
287	0.967
288	0.954
288	0.943
289	0.934
289	0.926
290	0.92
290	0.914
291	0.909
291	0.905
292	0.901
292	0.898
292	0.895
293	0.893
293	0.89
294	0.888
294	0.885
295	0.883
295	0.881
296	0.879
296	0.876
297	0.874
297	0.872
298	0.87
298	0.868
298	0.866
299	0.864
299	0.862
300	0.86
300	0.858
301	0.856
301	0.855
302	0.853
302	0.851
303	0.85
303	0.848
304	0.846
304	0.845
305	0.843
305	0.841
305	0.84
306	0.838
306	0.835
307	0.834
307	0.832
308	0.829
308	0.827
309	0.825
309	0.822
310	0.82
310	0.818
311	0.815
311	0.812
311	0.81
312	0.807
312	0.804
313	0.801
313	0.798
314	0.794
314	0.791
315	0.787
315	0.783
316	0.779
316	0.775
317	0.771
317	0.766
318	0.761
318	0.757
318	0.752
319	0.747
319	0.742
320	0.737
320	0.731
321	0.726
321	0.72
322	0.715
322	0.709
323	0.703
323	0.696
324	0.691
324	0.684
324	0.678
325	0.672
325	0.665
326	0.659
326	0.652
327	0.646
327	0.639
328	0.633
328	0.627
329	0.62
329	0.613
330	0.606
330	0.6
330	0.593
331	0.586
331	0.579
332	0.573
332	0.566
333	0.559
333	0.552
334	0.546
334	0.539
335	0.533
335	0.526
336	0.52
336	0.514
336	0.507
337	0.501
337	0.495
338	0.489
338	0.483
339	0.477
339	0.471
340	0.466
340	0.46
341	0.455
341	0.449
342	0.444
342	0.439
342	0.434
343	0.429
343	0.425
344	0.42
344	0.415
345	0.411
345	0.406
346	0.402
346	0.398
347	0.394
347	0.389
348	0.386
348	0.382
348	0.378
349	0.375
349	0.371
350	0.368
350	0.364
351	0.361
351	0.358
352	0.355
352	0.352
353	0.349
353	0.347
354	0.344
354	0.341
354	0.338
355	0.335
355	0.333
356	0.33
356	0.327
357	0.325
357	0.322
358	0.32
358	0.317
359	0.315
359	0.313
360	0.311
360	0.309
360	0.307
361	0.306
361	0.304
362	0.302
362	0.301
363	0.299
363	0.297
364	0.296
364	0.294
365	0.292
365	0.29
366	0.289
366	0.287
366	0.286
367	0.284
367	0.282
368	0.281
368	0.279
369	0.278
369	0.277
370	0.275
370	0.274
371	0.273
371	0.272
372	0.27
372	0.269
372	0.268
373	0.267
373	0.266
374	0.265
374	0.264
375	0.264
375	0.263
376	0.262
376	0.261
377	0.26
377	0.259
378	0.258
378	0.258
378	0.257
379	0.257
379	0.256
380	0.255
380	0.254
381	0.254
381	0.253
382	0.252
382	0.252
383	0.251
383	0.251
383	0.25
384	0.249
384	0.249
385	0.248
385	0.248
386	0.247
386	0.247
387	0.246
387	0.246
388	0.245
388	0.245
389	0.244
389	0.244
389	0.244
390	0.243
390	0.243
391	0.243
391	0.242
392	0.242
392	0.242
393	0.241
393	0.241
394	0.241
394	0.24
394	0.24
395	0.24
395	0.239
396	0.239
396	0.238
397	0.238
397	0.238
398	0.238
398	0.237
399	0.237
399	0.236
400	0.236
400	0.236
400	0.236
401	0.236
401	0.235
402	0.235
402	0.234
403	0.234
403	0.234
404	0.234
404	0.234
405	0.233
405	0.233
405	0.233
406	0.232
406	0.232
407	0.232
407	0.231
408	0.231
408	0.231
409	0.231
409	0.23
410	0.23
410	0.23
411	0.229
411	0.229
411	0.229
412	0.229
412	0.229
413	0.228
413	0.228
414	0.228
414	0.228
415	0.228
415	0.227
416	0.227
416	0.227
416	0.227
417	0.226
417	0.226
418	0.226
418	0.225
419	0.225
419	0.225
420	0.225
420	0.224
421	0.224
421	0.224
421	0.223
422	0.223
422	0.223
423	0.223
423	0.223
424	0.222
424	0.222
425	0.222
425	0.222
426	0.221
426	0.221
427	0.221
427	0.221
427	0.221
428	0.22
428	0.22
429	0.22
429	0.22
430	0.22
430	0.22
431	0.219
431	0.219
432	0.219
432	0.219
432	0.219
433	0.218
433	0.218
434	0.218
434	0.218
435	0.218
435	0.218
436	0.218
436	0.218
437	0.217
437	0.217
437	0.217
438	0.217
438	0.217
439	0.216
439	0.216
440	0.216
440	0.216
441	0.216
441	0.215
442	0.215
442	0.215
442	0.215
443	0.215
443	0.215
444	0.215
444	0.214
445	0.214
445	0.214
446	0.214
446	0.213
447	0.213
447	0.213
447	0.213
448	0.213
448	0.213
449	0.213
449	0.213
450	0.213
450	0.212
451	0.212
451	0.212
452	0.212
452	0.212
452	0.212
453	0.211
453	0.211
454	0.211
454	0.211
455	0.211
455	0.211
456	0.211
456	0.211
457	0.21
457	0.21
458	0.21
458	0.21
458	0.21
459	0.21
459	0.209
460	0.209
460	0.209
461	0.209
461	0.209
462	0.209
462	0.209
463	0.209
463	0.208
463	0.208
464	0.208
464	0.208
465	0.207
465	0.207
466	0.207
466	0.207
467	0.207
467	0.207
467	0.207
468	0.207
468	0.207
469	0.207
469	0.207
470	0.207
470	0.207
471	0.207
471	0.206
472	0.206
472	0.206
472	0.206
473	0.206
473	0.206
474	0.206
474	0.206
475	0.206
475	0.206
476	0.206
476	0.207
477	0.207
477	0.207
477	0.207
478	0.207
478	0.207
479	0.208
479	0.208
480	0.208
480	0.208
481	0.208
481	0.208
482	0.208
482	0.209
482	0.209
483	0.209
483	0.209
484	0.21
484	0.209
485	0.21
485	0.21
486	0.21
486	0.21
487	0.21
487	0.211
487	0.211
488	0.211
488	0.211
489	0.212
489	0.213
490	0.213
490	0.214
491	0.214
491	0.215
492	0.215
492	0.216
492	0.216
493	0.217
493	0.217
494	0.218
494	0.218
495	0.219
495	0.219
496	0.22
496	0.22
496	0.221
497	0.221
497	0.222
498	0.222
498	0.223
499	0.223
499	0.224
500	0.225
500	0.225
501	0.226
501	0.226
501	0.226
502	0.227
502	0.227
503	0.228
503	0.229
504	0.229
504	0.23
505	0.23
505	0.23
506	0.231
506	0.231
506	0.232
507	0.233
507	0.233
508	0.234
508	0.234
509	0.235
509	0.235
510	0.236
510	0.237
511	0.237
511	0.238
511	0.239
512	0.239
512	0.24
513	0.24
513	0.241
514	0.242
514	0.242
515	0.243
515	0.243
515	0.243
516	0.244
516	0.244
517	0.245
517	0.245
518	0.246
518	0.246
519	0.246
519	0.246
520	0.247
520	0.247
520	0.247
521	0.247
521	0.248
522	0.248
522	0.248
523	0.249
523	0.249
524	0.249
524	0.25
524	0.25
525	0.25
525	0.25
526	0.251
526	0.251
527	0.251
527	0.251
528	0.251
528	0.251
529	0.251
529	0.251
529	0.251
530	0.251
530	0.25
531	0.25
531	0.25
532	0.25
532	0.25
533	0.25
533	0.25
533	0.25
534	0.25
534	0.25
535	0.25
535	0.25
536	0.25
536	0.25
537	0.25
537	0.249
538	0.249
538	0.249
538	0.249
539	0.248
539	0.248
540	0.248
540	0.247
541	0.246
541	0.246
542	0.246
542	0.246
542	0.245
543	0.245
543	0.244
544	0.244
544	0.244
545	0.244
545	0.244
546	0.243
546	0.243
547	0.242
547	0.242
547	0.241
548	0.241
548	0.24
549	0.24
549	0.239
550	0.239
550	0.238
551	0.238
551	0.237
551	0.237
552	0.237
552	0.236
553	0.236
553	0.236
554	0.235
554	0.235
555	0.234
555	0.233
556	0.233
556	0.232
556	0.232
557	0.232
557	0.232
558	0.232
558	0.232
559	0.231
559	0.231
560	0.231
560	0.231
560	0.231
561	0.231
561	0.23
562	0.23
562	0.229
563	0.228
563	0.228
564	0.227
564	0.227
564	0.226
565	0.226
565	0.226
566	0.225
566	0.225
567	0.224
567	0.224
568	0.224
568	0.223
568	0.223
569	0.223
569	0.223
570	0.222
570	0.221
571	0.221
571	0.22
572	0.219
572	0.219
573	0.219
573	0.218
573	0.217
574	0.217
574	0.217
575	0.217
575	0.217
576	0.217
576	0.216
577	0.216
577	0.215
577	0.215
578	0.215
578	0.214
579	0.214
579	0.214
580	0.214
580	0.213
581	0.212
581	0.211
581	0.211
582	0.211
582	0.211
583	0.211
583	0.211
584	0.21
584	0.209
585	0.208
585	0.208
585	0.208
586	0.207
586	0.207
587	0.206
587	0.205
588	0.204
588	0.204
589	0.204
589	0.204
590	0.204
590	0.204
590	0.204
591	0.204
591	0.204
592	0.204
592	0.203
593	0.203
593	0.202
594	0.202
594	0.201
594	0.201
595	0.2
595	0.2
596	0.199
596	0.199
597	0.2
597	0.2
598	0.2
598	0.2
598	0.2
599	0.199
599	0.199
600	0.198
600	0.198
601	0.198
601	0.197
602	0.196
602	0.196
602	0.195
603	0.195
603	0.195
604	0.195
604	0.195
605	0.195
605	0.195
606	0.195
606	0.195
606	0.194
607	0.194
607	0.194
608	0.193
608	0.193
609	0.192
609	0.192
610	0.192
610	0.191
610	0.191
611	0.191
611	0.191
612	0.191
612	0.192
613	0.192
613	0.192
614	0.191
614	0.191
614	0.191
615	0.191
615	0.19
616	0.19
616	0.19
617	0.19
617	0.189
618	0.189
618	0.189
618	0.189
619	0.189
619	0.189
620	0.189
620	0.189
621	0.188
621	0.188
622	0.187
622	0.187
622	0.187
623	0.186
623	0.186
624	0.186
624	0.185
625	0.185
625	0.184
626	0.184
626	0.184
626	0.184
627	0.184
627	0.184
628	0.184
628	0.183
629	0.183
629	0.183
630	0.183
630	0.182
630	0.183
631	0.183
631	0.182
632	0.182
632	0.182
633	0.182
633	0.182
634	0.183
634	0.183
634	0.183
635	0.182
635	0.182
636	0.182
636	0.182
637	0.182
637	0.181
638	0.181
638	0.181
638	0.18
639	0.18
639	0.18
640	0.18
640	0.18
641	0.18
641	0.18
642	0.18
642	0.18
642	0.18
643	0.18
643	0.18
644	0.179
644	0.179
645	0.179
645	0.179
646	0.179
646	0.179
646	0.179
647	0.179
647	0.179
648	0.178
648	0.178
649	0.178
649	0.178
650	0.178
650	0.178
650	0.178
651	0.178
651	0.178
652	0.178
652	0.178
653	0.179
653	0.181
653	0.188
654	0.148
654	0.118
655	0.119
655	0.119
656	0.12
656	0.12
657	0.12
657	0.12
657	0.12
658	0.119
658	0.108
659	0.136
659	0.174
660	0.178
660	0.178
661	0.178
661	0.178
661	0.178
662	0.178
662	0.178
663	0.178
663	0.178
664	0.178
664	0.177
665	0.178
665	0.178
665	0.178
666	0.178
666	0.178
667	0.178
667	0.178
668	0.178
668	0.178
669	0.178
669	0.178
669	0.178
670	0.178
670	0.178
671	0.178
671	0.178
672	0.178
672	0.178
672	0.178
673	0.178
673	0.178
674	0.178
674	0.178
675	0.178
675	0.178
676	0.179
676	0.179
676	0.179
677	0.179
677	0.179
678	0.179
678	0.179
679	0.179
679	0.179
680	0.179
680	0.179
680	0.178
681	0.179
681	0.179
682	0.179
682	0.18
683	0.18
683	0.181
684	0.181
684	0.182
684	0.182
685	0.182
685	0.183
686	0.183
686	0.183
687	0.183
687	0.183
687	0.183
688	0.182
688	0.182
689	0.183
689	0.183
690	0.183
690	0.182
691	0.183
691	0.183
691	0.184
692	0.184
692	0.185
693	0.185
693	0.186
694	0.186
694	0.186
695	0.187
695	0.188
695	0.188
696	0.188
696	0.188
697	0.188
697	0.187
698	0.187
698	0.186
698	0.186
699	0.187
699	0.186
700	0.186
700	0.186
701	0.187
701	0.187
702	0.187
702	0.187
702	0.187
703	0.188
703	0.187
704	0.187
704	0.187
705	0.187
705	0.187
705	0.187
706	0.187
706	0.188
707	0.188
707	0.188
708	0.188
708	0.189
709	0.189
709	0.189
709	0.189
710	0.189
710	0.189
711	0.189
711	0.189
712	0.189
712	0.19
713	0.19
713	0.19
713	0.19
714	0.19
714	0.19
715	0.19
715	0.19
716	0.19
716	0.189
716	0.189
717	0.188
717	0.188
718	0.188
718	0.187
719	0.188
719	0.188
720	0.188
720	0.189
720	0.189
721	0.19
721	0.191
722	0.191
722	0.192
723	0.192
723	0.193
723	0.193
724	0.193
724	0.193
725	0.193
725	0.192
726	0.192
726	0.192
727	0.192
727	0.191
727	0.191
728	0.191
728	0.191
729	0.192
729	0.192
730	0.193
730	0.193
730	0.193
731	0.194
731	0.194
732	0.195
732	0.195
733	0.194
733	0.194
734	0.194
734	0.194
734	0.194
735	0.194
735	0.194
736	0.194
736	0.194
737	0.194
737	0.194
737	0.194
738	0.194
738	0.193
739	0.193
739	0.193
740	0.193
740	0.193
741	0.193
741	0.194
741	0.194
742	0.194
742	0.194
743	0.196
743	0.196
744	0.197
744	0.197
744	0.198
745	0.198
745	0.198
746	0.198
746	0.198
747	0.198
747	0.199
748	0.199
748	0.199
748	0.199
749	0.199
749	0.199
750	0.198
750	0.198
751	0.198
751	0.197
751	0.197
752	0.196
752	0.196
753	0.195
753	0.195
754	0.195
754	0.195
754	0.196
755	0.196
755	0.196
756	0.196
756	0.195
757	0.194
757	0.194
758	0.194
758	0.193
758	0.193
759	0.193
759	0.193
760	0.193
760	0.193
761	0.193
761	0.195
761	0.196
762	0.196
762	0.197
763	0.198
763	0.198
764	0.198
764	0.198
764	0.198
765	0.198
765	0.197
766	0.197
766	0.197
767	0.196
767	0.195
768	0.194
768	0.194
768	0.194
769	0.193
769	0.193
770	0.194
770	0.194
771	0.194
771	0.195
771	0.195
772	0.196
772	0.196
773	0.197
773	0.197
774	0.197
774	0.198
775	0.199
775	0.199
775	0.199
776	0.2
776	0.2
777	0.2
777	0.2
778	0.2
778	0.199
778	0.199
779	0.199
779	0.198
780	0.197
780	0.197
781	0.196
781	0.196
781	0.196
782	0.196
782	0.196
783	0.196
783	0.197
784	0.197
784	0.197
784	0.198
785	0.198
785	0.198
786	0.198
786	0.198
787	0.199
787	0.199
788	0.198
788	0.198
788	0.198
789	0.198
789	0.198
790	0.198
790	0.198
791	0.198
791	0.198
791	0.198
792	0.199
792	0.199
793	0.199
793	0.199
794	0.198
794	0.198
794	0.197
795	0.197
795	0.197
796	0.197
796	0.197
797	0.196
797	0.196
797	0.197
798	0.197
798	0.197
799	0.198
799	0.198
800	0.198
800	0.198
801	0.198
801	0.198
801	0.198
802	0.198
802	0.198
803	0.198
803	0.199
804	0.199
804	0.2
804	0.2
805	0.2
805	0.2
806	0.2
806	0.2
807	0.201
807	0.201
807	0.201
808	0.201
808	0.201
809	0.201
809	0.202
810	0.202
810	0.203
810	0.203
811	0.203
811	0.203
812	0.204
812	0.204
813	0.205
813	0.205
813	0.205
814	0.206
814	0.206
815	0.207
815	0.207
816	0.207
816	0.207
817	0.207
817	0.207
817	0.207
818	0.207
818	0.207
819	0.206
819	0.205
820	0.204
820	0.204
820	0.203
821	0.203
821	0.203
822	0.202
822	0.202
823	0.202
823	0.202
823	0.202
824	0.203
824	0.204
825	0.205
825	0.206
826	0.206
826	0.206
826	0.207
827	0.207
827	0.207
828	0.207
828	0.207
829	0.207
829	0.206
829	0.206
830	0.206
830	0.206
831	0.206
831	0.206
832	0.206
832	0.206
832	0.206
833	0.205
833	0.205
834	0.205
834	0.204
835	0.204
835	0.204
835	0.204
836	0.204
836	0.205
837	0.205
837	0.205
838	0.205
838	0.205
839	0.204
839	0.204
839	0.203
840	0.202
840	0.201
841	0.2
841	0.199
842	0.199
842	0.198
842	0.197
843	0.197
843	0.196
844	0.196
844	0.196
845	0.196
845	0.196
845	0.196
846	0.196
846	0.196
847	0.196
847	0.197
848	0.198
848	0.198
848	0.199
849	0.199
849	0.199
850	0.2
850	0.2
851	0.2
851	0.201
851	0.201
852	0.2
852	0.199
853	0.199
853	0.198
854	0.198
854	0.198
854	0.198
855	0.199
855	0.199
856	0.199
856	0.199
857	0.199
857	0.2
857	0.2
858	0.2
858	0.2
859	0.199
859	0.198
860	0.197
860	0.197
860	0.196
861	0.195
861	0.195
862	0.194
862	0.193
863	0.192
863	0.192
863	0.191
864	0.191
864	0.191
865	0.191
865	0.19
866	0.19
866	0.19
866	0.189
867	0.189
867	0.19
868	0.19
868	0.19
869	0.19
869	0.189
869	0.189
870	0.188
870	0.188
871	0.188
871	0.188
872	0.188
872	0.188
872	0.188
873	0.187
873	0.187
874	0.186
874	0.186
875	0.186
875	0.186
875	0.186
876	0.186
876	0.186
877	0.186
877	0.186
878	0.187
878	0.188
878	0.189
879	0.19
879	0.19
880	0.191
880	0.191
881	0.191
881	0.191
881	0.19
882	0.189
882	0.188
883	0.187
883	0.186
884	0.185
884	0.184
884	0.183
885	0.182
885	0.181
886	0.18
886	0.18
887	0.18
887	0.179
887	0.178
888	0.178
888	0.177
889	0.177
889	0.177
890	0.177
890	0.177
890	0.177
891	0.178
891	0.178
892	0.179
892	0.179
893	0.18
893	0.18
893	0.18
894	0.18
894	0.18
895	0.18
895	0.18
895	0.179
896	0.179
896	0.178
897	0.177
897	0.176
898	0.175
898	0.175
898	0.174
899	0.173
899	0.173
900	0.172
900	0.172
901	0.172
901	0.172
901	0.171
902	0.171
902	0.171
903	0.171
903	0.171
904	0.17
904	0.17
904	0.169
905	0.169
905	0.168
906	0.168
906	0.168
907	0.169
907	0.169
907	0.17
908	0.17
908	0.17
909	0.17
909	0.17
910	0.171
910	0.17
910	0.17
911	0.17
911	0.169
912	0.168
912	0.168
913	0.167
913	0.167
913	0.166
914	0.166
914	0.166
915	0.166
915	0.165
916	0.165
916	0.164
916	0.164
917	0.163
917	0.162
918	0.161
918	0.16
918	0.159
919	0.158
919	0.158
920	0.157
920	0.157
921	0.157
921	0.156
921	0.156
922	0.156
922	0.157
923	0.157
923	0.157
924	0.158
924	0.158
924	0.158
925	0.158
925	0.158
926	0.158
926	0.157
927	0.157
927	0.156
927	0.155
928	0.154
928	0.154
929	0.153
929	0.153
930	0.152
930	0.151
930	0.151
931	0.15
931	0.15
932	0.15
932	0.15
933	0.149
933	0.149
933	0.148
934	0.148
934	0.147
935	0.147
935	0.146
935	0.146
936	0.146
936	0.145
937	0.145
937	0.144
938	0.144
938	0.144
938	0.143
939	0.143
939	0.143
940	0.143
940	0.143
941	0.143
941	0.143
941	0.143
942	0.143
942	0.143
943	0.143
943	0.142
944	0.142
944	0.142
944	0.142
945	0.142
945	0.141
946	0.141
946	0.141
946	0.14
947	0.14
947	0.14
948	0.139
948	0.139
949	0.138
949	0.138
949	0.137
950	0.137
950	0.136
951	0.136
951	0.135
952	0.134
952	0.133
952	0.132
953	0.131
953	0.13
954	0.129
954	0.128
955	0.127
955	0.126
955	0.126
956	0.126
956	0.126
957	0.127
957	0.127
957	0.128
958	0.128
958	0.128
959	0.129
959	0.129
960	0.129
960	0.129
960	0.129
961	0.128
961	0.128
962	0.127
962	0.126
963	0.126
963	0.125
963	0.125
964	0.124
964	0.124
965	0.124
965	0.124
966	0.124
966	0.124
966	0.124
967	0.124
967	0.124
968	0.124
968	0.124
968	0.124
969	0.124
969	0.124
970	0.124
970	0.123
971	0.123
971	0.123
971	0.122
972	0.122
972	0.122
973	0.121
973	0.121
974	0.121
974	0.122
974	0.122
975	0.122
975	0.122
976	0.122
976	0.122
976	0.122
977	0.122
977	0.121
978	0.121
978	0.12
979	0.119
979	0.119
979	0.118
980	0.118
980	0.117
981	0.116
981	0.115
982	0.114
982	0.114
982	0.113
983	0.113
983	0.112
984	0.112
984	0.111
984	0.11
985	0.109
985	0.109
986	0.108
986	0.107
987	0.106
987	0.106
987	0.105
988	0.104
988	0.103
989	0.102
989	0.102
990	0.101
990	0.1
990	0.1
991	0.099
991	0.099
992	0.098
992	0.098
992	0.097
993	0.097
993	0.096
994	0.096
994	0.095
995	0.095
995	0.094
995	0.094
996	0.094
996	0.095
997	0.095
997	0.096
997	0.096
998	0.097
998	0.097
999	0.098
999	0.099
1000	0.1
1000	0.1
1000	0.101
1001	0.101
1001	0.101
1002	0.102
1002	0.102
1003	0.102
1003	0.102
1003	0.101
1004	0.101
1004	0.101
1005	0.1
1005	0.1
1005	0.1
1006	0.099
1006	0.099
1007	0.099
1007	0.098
1008	0.098
1008	0.098
1008	0.098
1009	0.097
1009	0.097
1010	0.097
1010	0.096
1010	0.096
1011	0.096
1011	0.095
1012	0.095
1012	0.095
1013	0.095
1013	0.094
1013	0.094
1014	0.093
1014	0.093
1015	0.093
1015	0.093
1016	0.092
1016	0.092
1016	0.092
1017	0.091
1017	0.091
1018	0.091
1018	0.091
1018	0.091
1019	0.09
1019	0.09
1020	0.09
1020	0.089
1021	0.089
1021	0.089
1021	0.089
1022	0.088
1022	0.088
1023	0.088
1023	0.087
1023	0.087
1024	0.087
1024	0.086
1025	0.086
1025	0.085
1026	0.085
1026	0.084
1026	0.083
1027	0.083
1027	0.082
1028	0.081
1028	0.081
1028	0.08
1029	0.08
1029	0.08
1030	0.079
1030	0.079
1031	0.079
1031	0.08
1031	0.079
1032	0.079
1032	0.08
1033	0.08
1033	0.08
1033	0.08
1034	0.08
1034	0.079
1035	0.079
1035	0.079
1036	0.079
1036	0.078
1036	0.078
1037	0.078
1037	0.078
1038	0.078
1038	0.078
1039	0.078
1039	0.078
1039	0.078
1040	0.078
1040	0.078
1041	0.078
1041	0.078
1041	0.078
1042	0.078
1042	0.078
1043	0.078
1043	0.078
1044	0.078
1044	0.078
1044	0.078
1045	0.079
1045	0.079
1046	0.079
1046	0.079
1046	0.08
1047	0.08
1047	0.08
1048	0.081
1048	0.081
1049	0.081
1049	0.082
1049	0.081
1050	0.081
1050	0.081
1051	0.08
1051	0.08
1051	0.079
1052	0.078
1052	0.077
1053	0.076
1053	0.075
1053	0.074
1054	0.073
1054	0.072
1055	0.072
1055	0.071
1056	0.07
1056	0.07
1056	0.069
1057	0.068
1057	0.067
1058	0.066
1058	0.065
1058	0.064
1059	0.064
1059	0.063
1060	0.062
1060	0.062
1061	0.061
1061	0.061
1061	0.061
1062	0.06
1062	0.06
1063	0.06
1063	0.06
1063	0.06
1064	0.059
1064	0.059
1065	0.059
1065	0.059
1066	0.059
1066	0.059
1066	0.059
1067	0.058
1067	0.058
1068	0.057
1068	0.057
1068	0.057
1069	0.056
1069	0.055
1070	0.055
1070	0.054
1071	0.053
1071	0.053
1071	0.052
1072	0.052
1072	0.051
1073	0.05
1073	0.049
1073	0.049
1074	0.049
1074	0.049
1075	0.049
1075	0.049
1076	0.049
1076	0.05
1076	0.05
1077	0.051
1077	0.051
1078	0.051
1078	0.052
1078	0.052
1079	0.052
1079	0.052
1080	0.052
1080	0.053
1080	0.053
1081	0.053
1081	0.053
1082	0.054
1082	0.054
1083	0.054
1083	0.054
1083	0.054
1084	0.053
1084	0.053
1085	0.053
1085	0.052
1085	0.052
1086	0.052
1086	0.05
1087	0.05
1087	0.05
1088	0.049
1088	0.049
1088	0.049
1089	0.047
1089	0.047
1090	0.046
1090	0.045
1090	0.044
1091	0.044
1091	0.043
1092	0.043
1092	0.043
1092	0.043
1093	0.042
1093	0.043
1094	0.042
1094	0.042
1095	0.042
1095	0.042
1095	0.041
1096	0.041
1096	0.041
1097	0.04
1097	0.04
1097	0.04
1098	0.039
1098	0.039
1099	0.038
1099	0.037
1100	0.037
1100	0.036
1100	0.035
1101	0.033
1101	0.032
1102	0.031
1102	0.03
1102	0.029
1103	0.028
1103	0.027
1104	0.027
1104	0.027
1104	0.026
1105	0.026
1105	0.025
1106	0.023
1106	0.023
1107	0.022
1107	0.021
1107	0.021
1108	0.02
1108	0.018
1109	0.016
1109	0.016
1109	0.015
1110	0.016
1110	0.015
1111	0.014
1111	0.018
