Data from reversibility-20sec_Absorbance__1612__000000000001612.txt Node

Date: Tue Dec 05 21:10:25 CET 2023
User: Marek
Spectrometer: MAYP115816
Trigger mode: 0
Integration Time (sec): 2.000000E-1
Scans to average: 10
Electric dark correction enabled: true
Nonlinearity correction enabled: true
Boxcar width: 5
XAxis mode: Wavelengths
Number of Pixels in Spectrum: 2068
>>>>>Begin Spectral Data<<<<<
199	-0.249
199	-0.213
200	-0.135
200	-0.08
201	-0.053
201	-0.035
202	-0.019
202	-0.009
203	-0.002
203	0.002
204	0.018
204	0.031
205	0.044
205	0.048
205	0.046
206	0.047
206	0.047
207	0.047
207	0.046
208	0.046
208	0.046
209	0.047
209	0.046
210	0.045
210	0.045
211	0.044
211	0.047
212	0.044
212	0.046
213	0.05
213	0.053
213	0.052
214	0.055
214	0.058
215	0.061
215	0.063
216	0.068
216	0.065
217	0.072
217	0.074
218	0.072
218	0.073
219	0.078
219	0.081
220	0.082
220	0.082
221	0.082
221	0.082
221	0.088
222	0.091
222	0.095
223	0.101
223	0.105
224	0.112
224	0.119
225	0.126
225	0.139
226	0.148
226	0.16
227	0.17
227	0.18
228	0.195
228	0.212
229	0.23
229	0.253
229	0.275
230	0.301
230	0.332
231	0.364
231	0.405
232	0.443
232	0.487
233	0.531
233	0.577
234	0.63
234	0.681
235	0.737
235	0.789
236	0.84
236	0.894
236	0.942
237	0.993
237	1.044
238	1.092
238	1.141
239	1.189
239	1.231
240	1.276
240	1.317
241	1.356
241	1.395
242	1.433
242	1.473
243	1.507
243	1.539
243	1.57
244	1.596
244	1.622
245	1.642
245	1.668
246	1.69
246	1.712
247	1.73
247	1.746
248	1.768
248	1.785
249	1.799
249	1.809
250	1.823
250	1.838
250	1.845
251	1.854
251	1.858
252	1.868
252	1.874
253	1.876
253	1.875
254	1.878
254	1.885
255	1.886
255	1.888
256	1.891
256	1.895
257	1.899
257	1.899
258	1.9
258	1.901
258	1.904
259	1.905
259	1.905
260	1.906
260	1.911
261	1.911
261	1.914
262	1.918
262	1.922
263	1.927
263	1.932
264	1.934
264	1.939
265	1.94
265	1.942
265	1.943
266	1.945
266	1.947
267	1.944
267	1.945
268	1.945
268	1.946
269	1.951
269	1.951
270	1.951
270	1.953
271	1.953
271	1.955
272	1.954
272	1.954
272	1.952
273	1.945
273	1.939
274	1.934
274	1.929
275	1.924
275	1.918
276	1.911
276	1.904
277	1.897
277	1.887
278	1.878
278	1.868
278	1.856
279	1.841
279	1.822
280	1.798
280	1.768
281	1.734
281	1.694
282	1.654
282	1.613
283	1.572
283	1.531
284	1.491
284	1.452
285	1.416
285	1.382
285	1.352
286	1.325
286	1.301
287	1.28
287	1.261
288	1.245
288	1.231
289	1.22
289	1.21
290	1.2
290	1.193
291	1.186
291	1.179
292	1.174
292	1.169
292	1.164
293	1.16
293	1.156
294	1.152
294	1.148
295	1.145
295	1.141
296	1.137
296	1.134
297	1.131
297	1.128
298	1.124
298	1.121
298	1.118
299	1.115
299	1.113
300	1.11
300	1.106
301	1.103
301	1.101
302	1.098
302	1.095
303	1.092
303	1.089
304	1.086
304	1.083
305	1.08
305	1.077
305	1.075
306	1.072
306	1.069
307	1.067
307	1.064
308	1.061
308	1.058
309	1.055
309	1.052
310	1.048
310	1.045
311	1.042
311	1.038
311	1.035
312	1.031
312	1.027
313	1.023
313	1.019
314	1.014
314	1.01
315	1.006
315	1.001
316	0.996
316	0.992
317	0.987
317	0.982
318	0.977
318	0.971
318	0.966
319	0.96
319	0.954
320	0.949
320	0.943
321	0.937
321	0.93
322	0.924
322	0.917
323	0.911
323	0.904
324	0.898
324	0.891
324	0.884
325	0.877
325	0.87
326	0.863
326	0.856
327	0.849
327	0.842
328	0.835
328	0.828
329	0.82
329	0.813
330	0.806
330	0.799
330	0.792
331	0.784
331	0.777
332	0.77
332	0.763
333	0.756
333	0.749
334	0.742
334	0.735
335	0.728
335	0.721
336	0.714
336	0.708
336	0.701
337	0.694
337	0.688
338	0.681
338	0.675
339	0.669
339	0.663
340	0.657
340	0.651
341	0.645
341	0.639
342	0.634
342	0.628
342	0.623
343	0.617
343	0.612
344	0.607
344	0.602
345	0.597
345	0.592
346	0.587
346	0.583
347	0.578
347	0.574
348	0.57
348	0.566
348	0.562
349	0.558
349	0.554
350	0.55
350	0.547
351	0.543
351	0.54
352	0.536
352	0.533
353	0.53
353	0.527
354	0.523
354	0.52
354	0.517
355	0.514
355	0.511
356	0.508
356	0.506
357	0.502
357	0.499
358	0.496
358	0.493
359	0.49
359	0.488
360	0.485
360	0.483
360	0.481
361	0.479
361	0.477
362	0.475
362	0.473
363	0.471
363	0.469
364	0.467
364	0.465
365	0.462
365	0.46
366	0.458
366	0.456
366	0.454
367	0.452
367	0.45
368	0.448
368	0.446
369	0.445
369	0.443
370	0.441
370	0.44
371	0.438
371	0.437
372	0.435
372	0.434
372	0.432
373	0.431
373	0.429
374	0.428
374	0.427
375	0.425
375	0.424
376	0.423
376	0.422
377	0.421
377	0.419
378	0.418
378	0.417
378	0.416
379	0.415
379	0.414
380	0.413
380	0.411
381	0.41
381	0.409
382	0.408
382	0.407
383	0.407
383	0.406
383	0.405
384	0.404
384	0.403
385	0.402
385	0.401
386	0.401
386	0.4
387	0.399
387	0.398
388	0.397
388	0.396
389	0.396
389	0.395
389	0.394
390	0.394
390	0.393
391	0.392
391	0.392
392	0.391
392	0.391
393	0.39
393	0.389
394	0.388
394	0.387
394	0.387
395	0.386
395	0.385
396	0.385
396	0.384
397	0.383
397	0.382
398	0.382
398	0.381
399	0.38
399	0.38
400	0.379
400	0.379
400	0.378
401	0.378
401	0.377
402	0.377
402	0.376
403	0.376
403	0.376
404	0.375
404	0.375
405	0.374
405	0.374
405	0.373
406	0.373
406	0.372
407	0.372
407	0.371
408	0.371
408	0.37
409	0.37
409	0.369
410	0.368
410	0.368
411	0.367
411	0.367
411	0.367
412	0.366
412	0.366
413	0.365
413	0.365
414	0.364
414	0.364
415	0.364
415	0.363
416	0.363
416	0.362
416	0.362
417	0.361
417	0.361
418	0.361
418	0.36
419	0.36
419	0.359
420	0.359
420	0.358
421	0.358
421	0.358
421	0.357
422	0.357
422	0.356
423	0.356
423	0.356
424	0.355
424	0.355
425	0.354
425	0.354
426	0.354
426	0.353
427	0.353
427	0.353
427	0.352
428	0.352
428	0.352
429	0.351
429	0.351
430	0.351
430	0.351
431	0.35
431	0.35
432	0.35
432	0.35
432	0.349
433	0.349
433	0.349
434	0.349
434	0.349
435	0.348
435	0.348
436	0.348
436	0.348
437	0.347
437	0.347
437	0.347
438	0.347
438	0.346
439	0.346
439	0.346
440	0.346
440	0.346
441	0.346
441	0.346
442	0.345
442	0.345
442	0.345
443	0.345
443	0.345
444	0.344
444	0.344
445	0.344
445	0.344
446	0.344
446	0.344
447	0.344
447	0.344
447	0.344
448	0.344
448	0.344
449	0.344
449	0.344
450	0.344
450	0.344
451	0.343
451	0.344
452	0.343
452	0.343
452	0.343
453	0.344
453	0.344
454	0.343
454	0.343
455	0.343
455	0.343
456	0.343
456	0.343
457	0.343
457	0.343
458	0.343
458	0.343
458	0.343
459	0.343
459	0.343
460	0.343
460	0.344
461	0.344
461	0.344
462	0.344
462	0.344
463	0.344
463	0.344
463	0.344
464	0.344
464	0.344
465	0.344
465	0.344
466	0.345
466	0.345
467	0.345
467	0.345
467	0.345
468	0.346
468	0.346
469	0.346
469	0.347
470	0.347
470	0.348
471	0.348
471	0.348
472	0.349
472	0.349
472	0.349
473	0.35
473	0.351
474	0.351
474	0.351
475	0.352
475	0.352
476	0.353
476	0.354
477	0.355
477	0.356
477	0.357
478	0.357
478	0.358
479	0.359
479	0.36
480	0.36
480	0.361
481	0.362
481	0.362
482	0.363
482	0.364
482	0.365
483	0.366
483	0.367
484	0.368
484	0.369
485	0.37
485	0.37
486	0.371
486	0.372
487	0.373
487	0.374
487	0.375
488	0.376
488	0.377
489	0.378
489	0.38
490	0.381
490	0.383
491	0.385
491	0.386
492	0.387
492	0.389
492	0.39
493	0.392
493	0.393
494	0.395
494	0.397
495	0.398
495	0.4
496	0.401
496	0.403
496	0.404
497	0.406
497	0.408
498	0.409
498	0.411
499	0.412
499	0.414
500	0.416
500	0.418
501	0.419
501	0.421
501	0.422
502	0.424
502	0.425
503	0.426
503	0.428
504	0.429
504	0.431
505	0.432
505	0.433
506	0.435
506	0.436
506	0.438
507	0.439
507	0.441
508	0.442
508	0.444
509	0.445
509	0.447
510	0.448
510	0.449
511	0.451
511	0.452
511	0.453
512	0.455
512	0.456
513	0.457
513	0.458
514	0.459
514	0.46
515	0.461
515	0.462
515	0.462
516	0.463
516	0.464
517	0.464
517	0.465
518	0.465
518	0.465
519	0.465
519	0.466
520	0.466
520	0.466
520	0.466
521	0.465
521	0.465
522	0.465
522	0.465
523	0.465
523	0.465
524	0.465
524	0.465
524	0.464
525	0.464
525	0.463
526	0.463
526	0.462
527	0.461
527	0.46
528	0.459
528	0.458
529	0.456
529	0.455
529	0.453
530	0.452
530	0.451
531	0.449
531	0.448
532	0.446
532	0.445
533	0.443
533	0.441
533	0.44
534	0.438
534	0.436
535	0.435
535	0.433
536	0.431
536	0.429
537	0.427
537	0.425
538	0.422
538	0.421
538	0.418
539	0.416
539	0.414
540	0.412
540	0.409
541	0.406
541	0.404
542	0.402
542	0.399
542	0.397
543	0.394
543	0.391
544	0.389
544	0.386
545	0.384
545	0.381
546	0.379
546	0.376
547	0.373
547	0.37
547	0.367
548	0.365
548	0.362
549	0.359
549	0.357
550	0.354
550	0.351
551	0.348
551	0.345
551	0.343
552	0.34
552	0.337
553	0.335
553	0.332
554	0.33
554	0.327
555	0.324
555	0.321
556	0.319
556	0.316
556	0.314
557	0.312
557	0.309
558	0.307
558	0.304
559	0.302
559	0.299
560	0.297
560	0.294
560	0.292
561	0.29
561	0.288
562	0.285
562	0.283
563	0.28
563	0.278
564	0.275
564	0.273
564	0.271
565	0.269
565	0.267
566	0.265
566	0.262
567	0.26
567	0.259
568	0.257
568	0.255
568	0.253
569	0.252
569	0.25
570	0.247
570	0.245
571	0.244
571	0.242
572	0.24
572	0.238
573	0.236
573	0.234
573	0.232
574	0.23
574	0.228
575	0.226
575	0.225
576	0.223
576	0.221
577	0.219
577	0.217
577	0.216
578	0.215
578	0.213
579	0.212
579	0.211
580	0.209
580	0.208
581	0.206
581	0.204
581	0.203
582	0.203
582	0.202
583	0.201
583	0.199
584	0.197
584	0.195
585	0.194
585	0.193
585	0.191
586	0.19
586	0.189
587	0.187
587	0.185
588	0.184
588	0.183
589	0.182
589	0.181
590	0.18
590	0.179
590	0.179
591	0.178
591	0.176
592	0.175
592	0.174
593	0.173
593	0.172
594	0.171
594	0.169
594	0.168
595	0.167
595	0.166
596	0.164
596	0.164
597	0.164
597	0.163
598	0.162
598	0.161
598	0.16
599	0.16
599	0.159
600	0.158
600	0.157
601	0.156
601	0.155
602	0.154
602	0.153
602	0.152
603	0.151
603	0.151
604	0.15
604	0.149
605	0.149
605	0.149
606	0.148
606	0.146
606	0.146
607	0.145
607	0.144
608	0.144
608	0.142
609	0.141
609	0.141
610	0.14
610	0.139
610	0.139
611	0.138
611	0.138
612	0.137
612	0.137
613	0.137
613	0.136
614	0.136
614	0.135
614	0.135
615	0.134
615	0.133
616	0.133
616	0.132
617	0.131
617	0.131
618	0.13
618	0.129
618	0.129
619	0.129
619	0.129
620	0.129
620	0.128
621	0.127
621	0.127
622	0.126
622	0.125
622	0.124
623	0.124
623	0.123
624	0.123
624	0.122
625	0.121
625	0.121
626	0.12
626	0.119
626	0.119
627	0.119
627	0.119
628	0.118
628	0.118
629	0.117
629	0.117
630	0.116
630	0.115
630	0.115
631	0.115
631	0.114
632	0.114
632	0.113
633	0.113
633	0.112
634	0.112
634	0.112
634	0.112
635	0.112
635	0.111
636	0.111
636	0.11
637	0.11
637	0.109
638	0.109
638	0.109
638	0.108
639	0.107
639	0.107
640	0.107
640	0.107
641	0.107
641	0.106
642	0.106
642	0.106
642	0.106
643	0.106
643	0.105
644	0.105
644	0.105
645	0.104
645	0.104
646	0.104
646	0.104
646	0.103
647	0.103
647	0.102
648	0.102
648	0.101
649	0.101
649	0.101
650	0.1
650	0.1
650	0.1
651	0.099
651	0.099
652	0.098
652	0.098
653	0.098
653	0.1
653	0.107
654	0.086
654	0.07
655	0.067
655	0.067
656	0.067
656	0.067
657	0.067
657	0.067
657	0.067
658	0.066
658	0.057
659	0.07
659	0.089
660	0.094
660	0.094
661	0.093
661	0.093
661	0.092
662	0.092
662	0.092
663	0.091
663	0.091
664	0.09
664	0.09
665	0.089
665	0.089
665	0.088
666	0.088
666	0.088
667	0.088
667	0.088
668	0.088
668	0.088
669	0.088
669	0.088
669	0.089
670	0.089
670	0.089
671	0.088
671	0.088
672	0.087
672	0.087
672	0.086
673	0.086
673	0.085
674	0.085
674	0.084
675	0.084
675	0.084
676	0.084
676	0.084
676	0.084
677	0.084
677	0.083
678	0.083
678	0.082
679	0.082
679	0.082
680	0.081
680	0.081
680	0.08
681	0.08
681	0.081
682	0.081
682	0.081
683	0.082
683	0.083
684	0.083
684	0.083
684	0.083
685	0.083
685	0.083
686	0.082
686	0.082
687	0.081
687	0.081
687	0.08
688	0.08
688	0.079
689	0.079
689	0.079
690	0.079
690	0.079
691	0.079
691	0.079
691	0.079
692	0.079
692	0.079
693	0.079
693	0.08
694	0.079
694	0.079
695	0.079
695	0.08
695	0.08
696	0.079
696	0.078
697	0.078
697	0.078
698	0.077
698	0.076
698	0.076
699	0.076
699	0.075
700	0.075
700	0.075
701	0.075
701	0.075
702	0.075
702	0.075
702	0.075
703	0.075
703	0.075
704	0.075
704	0.075
705	0.074
705	0.074
705	0.073
706	0.073
706	0.073
707	0.073
707	0.073
708	0.073
708	0.073
709	0.073
709	0.073
709	0.072
710	0.072
710	0.073
711	0.073
711	0.073
712	0.072
712	0.072
713	0.072
713	0.072
713	0.072
714	0.071
714	0.071
715	0.071
715	0.071
716	0.07
716	0.07
716	0.07
717	0.069
717	0.069
718	0.068
718	0.068
719	0.068
719	0.068
720	0.068
720	0.069
720	0.069
721	0.069
721	0.069
722	0.07
722	0.07
723	0.07
723	0.071
723	0.071
724	0.07
724	0.07
725	0.069
725	0.068
726	0.068
726	0.067
727	0.066
727	0.066
727	0.065
728	0.065
728	0.064
729	0.064
729	0.064
730	0.064
730	0.064
730	0.064
731	0.064
731	0.064
732	0.064
732	0.064
733	0.064
733	0.064
734	0.064
734	0.064
734	0.064
735	0.065
735	0.064
736	0.064
736	0.065
737	0.065
737	0.066
737	0.066
738	0.065
738	0.065
739	0.064
739	0.064
740	0.063
740	0.062
741	0.062
741	0.061
741	0.061
742	0.06
742	0.059
743	0.06
743	0.06
744	0.061
744	0.061
744	0.061
745	0.062
745	0.062
746	0.063
746	0.063
747	0.064
747	0.064
748	0.064
748	0.064
748	0.064
749	0.064
749	0.063
750	0.063
750	0.062
751	0.062
751	0.061
751	0.061
752	0.06
752	0.059
753	0.059
753	0.059
754	0.058
754	0.058
754	0.058
755	0.058
755	0.058
756	0.057
756	0.056
757	0.055
757	0.055
758	0.054
758	0.054
758	0.054
759	0.054
759	0.054
760	0.053
760	0.053
761	0.054
761	0.055
761	0.056
762	0.056
762	0.056
763	0.057
763	0.057
764	0.056
764	0.056
764	0.056
765	0.056
765	0.055
766	0.055
766	0.055
767	0.054
767	0.053
768	0.052
768	0.051
768	0.051
769	0.051
769	0.051
770	0.051
770	0.051
771	0.051
771	0.051
771	0.051
772	0.051
772	0.052
773	0.052
773	0.052
774	0.052
774	0.052
775	0.052
775	0.052
775	0.051
776	0.051
776	0.051
777	0.051
777	0.051
778	0.05
778	0.05
778	0.05
779	0.05
779	0.05
780	0.049
780	0.049
781	0.049
781	0.049
781	0.049
782	0.049
782	0.049
783	0.05
783	0.05
784	0.05
784	0.051
784	0.051
785	0.052
785	0.052
786	0.052
786	0.053
787	0.053
787	0.053
788	0.052
788	0.052
788	0.051
789	0.051
789	0.051
790	0.051
790	0.051
791	0.05
791	0.05
791	0.05
792	0.051
792	0.051
793	0.05
793	0.05
794	0.05
794	0.049
794	0.049
795	0.049
795	0.049
796	0.049
796	0.048
797	0.048
797	0.048
797	0.048
798	0.048
798	0.047
799	0.047
799	0.047
800	0.046
800	0.046
801	0.046
801	0.046
801	0.046
802	0.047
802	0.047
803	0.048
803	0.049
804	0.05
804	0.051
804	0.051
805	0.051
805	0.051
806	0.051
806	0.05
807	0.05
807	0.049
807	0.049
808	0.049
808	0.048
809	0.048
809	0.048
810	0.048
810	0.047
810	0.047
811	0.048
811	0.048
812	0.048
812	0.049
813	0.049
813	0.049
813	0.05
814	0.05
814	0.051
815	0.052
815	0.052
816	0.052
816	0.052
817	0.052
817	0.052
817	0.052
818	0.052
818	0.051
819	0.051
819	0.05
820	0.049
820	0.048
820	0.048
821	0.048
821	0.048
822	0.047
822	0.047
823	0.047
823	0.047
823	0.047
824	0.048
824	0.049
825	0.049
825	0.049
826	0.049
826	0.049
826	0.048
827	0.048
827	0.048
828	0.048
828	0.047
829	0.047
829	0.047
829	0.046
830	0.046
830	0.046
831	0.047
831	0.048
832	0.048
832	0.049
832	0.049
833	0.049
833	0.05
834	0.05
834	0.05
835	0.05
835	0.05
835	0.05
836	0.05
836	0.051
837	0.051
837	0.051
838	0.05
838	0.05
839	0.05
839	0.049
839	0.048
840	0.047
840	0.045
841	0.044
841	0.043
842	0.042
842	0.042
842	0.042
843	0.041
843	0.041
844	0.042
844	0.042
845	0.042
845	0.043
845	0.043
846	0.043
846	0.043
847	0.043
847	0.043
848	0.043
848	0.044
848	0.044
849	0.044
849	0.045
850	0.045
850	0.045
851	0.045
851	0.045
851	0.044
852	0.044
852	0.043
853	0.042
853	0.041
854	0.041
854	0.041
854	0.041
855	0.041
855	0.041
856	0.041
856	0.042
857	0.042
857	0.043
857	0.043
858	0.043
858	0.043
859	0.042
859	0.041
860	0.041
860	0.04
860	0.04
861	0.04
861	0.039
862	0.039
862	0.038
863	0.038
863	0.037
863	0.037
864	0.037
864	0.037
865	0.037
865	0.037
866	0.036
866	0.036
866	0.036
867	0.036
867	0.036
868	0.036
868	0.036
869	0.037
869	0.037
869	0.037
870	0.038
870	0.039
871	0.039
871	0.04
872	0.041
872	0.042
872	0.042
873	0.043
873	0.043
874	0.043
874	0.043
875	0.044
875	0.043
875	0.043
876	0.044
876	0.043
877	0.043
877	0.044
878	0.044
878	0.045
878	0.045
879	0.045
879	0.046
880	0.046
880	0.045
881	0.045
881	0.044
881	0.043
882	0.042
882	0.041
883	0.04
883	0.038
884	0.037
884	0.037
884	0.036
885	0.035
885	0.035
886	0.034
886	0.034
887	0.034
887	0.034
887	0.034
888	0.033
888	0.033
889	0.033
889	0.033
890	0.033
890	0.034
890	0.034
891	0.035
891	0.036
892	0.037
892	0.038
893	0.038
893	0.039
893	0.04
894	0.04
894	0.04
895	0.04
895	0.041
895	0.04
896	0.04
896	0.04
897	0.039
897	0.039
898	0.038
898	0.038
898	0.038
899	0.037
899	0.037
900	0.037
900	0.037
901	0.037
901	0.037
901	0.037
902	0.037
902	0.037
903	0.037
903	0.038
904	0.038
904	0.038
904	0.038
905	0.038
905	0.038
906	0.039
906	0.039
907	0.04
907	0.04
907	0.041
908	0.041
908	0.042
909	0.042
909	0.042
910	0.043
910	0.043
910	0.042
911	0.042
911	0.042
912	0.041
912	0.041
913	0.04
913	0.04
913	0.04
914	0.039
914	0.039
915	0.039
915	0.039
916	0.039
916	0.039
916	0.038
917	0.038
917	0.037
918	0.037
918	0.036
918	0.036
919	0.035
919	0.035
920	0.035
920	0.035
921	0.035
921	0.036
921	0.036
922	0.037
922	0.038
923	0.038
923	0.039
924	0.04
924	0.04
924	0.04
925	0.04
925	0.04
926	0.04
926	0.039
927	0.039
927	0.038
927	0.038
928	0.038
928	0.037
929	0.037
929	0.037
930	0.036
930	0.036
930	0.036
931	0.036
931	0.036
932	0.036
932	0.036
933	0.035
933	0.035
933	0.035
934	0.035
934	0.034
935	0.034
935	0.034
935	0.034
936	0.034
936	0.034
937	0.034
937	0.034
938	0.034
938	0.035
938	0.035
939	0.035
939	0.035
940	0.036
940	0.037
941	0.037
941	0.038
941	0.039
942	0.039
942	0.039
943	0.04
943	0.04
944	0.04
944	0.04
944	0.04
945	0.04
945	0.041
946	0.041
946	0.041
946	0.041
947	0.042
947	0.042
948	0.042
948	0.042
949	0.042
949	0.043
949	0.042
950	0.043
950	0.043
951	0.042
951	0.042
952	0.041
952	0.041
952	0.041
953	0.041
953	0.04
954	0.04
954	0.04
955	0.039
955	0.039
955	0.039
956	0.04
956	0.04
957	0.041
957	0.041
957	0.041
958	0.042
958	0.042
959	0.042
959	0.042
960	0.042
960	0.042
960	0.042
961	0.042
961	0.042
962	0.042
962	0.042
963	0.042
963	0.042
963	0.042
964	0.042
964	0.042
965	0.042
965	0.042
966	0.043
966	0.043
966	0.043
967	0.043
967	0.043
968	0.043
968	0.043
968	0.044
969	0.044
969	0.044
970	0.044
970	0.044
971	0.044
971	0.044
971	0.044
972	0.044
972	0.044
973	0.044
973	0.044
974	0.045
974	0.045
974	0.045
975	0.045
975	0.045
976	0.045
976	0.046
976	0.045
977	0.045
977	0.045
978	0.045
978	0.045
979	0.044
979	0.044
979	0.043
980	0.043
980	0.042
981	0.041
981	0.041
982	0.04
982	0.04
982	0.04
983	0.039
983	0.039
984	0.038
984	0.038
984	0.037
985	0.037
985	0.037
986	0.036
986	0.036
987	0.035
987	0.035
987	0.034
988	0.034
988	0.033
989	0.033
989	0.032
990	0.032
990	0.032
990	0.032
991	0.032
991	0.032
992	0.032
992	0.032
992	0.032
993	0.032
993	0.032
994	0.032
994	0.032
995	0.031
995	0.031
995	0.031
996	0.031
996	0.031
997	0.032
997	0.032
997	0.032
998	0.033
998	0.034
999	0.035
999	0.036
1000	0.037
1000	0.038
1000	0.038
1001	0.039
1001	0.04
1002	0.04
1002	0.041
1003	0.041
1003	0.04
1003	0.04
1004	0.039
1004	0.039
1005	0.038
1005	0.037
1005	0.037
1006	0.036
1006	0.035
1007	0.035
1007	0.035
1008	0.035
1008	0.035
1008	0.035
1009	0.035
1009	0.035
1010	0.035
1010	0.035
1010	0.035
1011	0.035
1011	0.035
1012	0.035
1012	0.035
1013	0.035
1013	0.035
1013	0.034
1014	0.034
1014	0.034
1015	0.034
1015	0.034
1016	0.034
1016	0.034
1016	0.033
1017	0.033
1017	0.033
1018	0.032
1018	0.032
1018	0.032
1019	0.032
1019	0.032
1020	0.031
1020	0.031
1021	0.031
1021	0.031
1021	0.032
1022	0.032
1022	0.032
1023	0.032
1023	0.032
1023	0.032
1024	0.032
1024	0.032
1025	0.032
1025	0.032
1026	0.032
1026	0.032
1026	0.032
1027	0.031
1027	0.031
1028	0.031
1028	0.031
1028	0.031
1029	0.031
1029	0.031
1030	0.031
1030	0.032
1031	0.032
1031	0.032
1031	0.032
1032	0.032
1032	0.032
1033	0.032
1033	0.032
1033	0.032
1034	0.032
1034	0.032
1035	0.031
1035	0.031
1036	0.031
1036	0.031
1036	0.031
1037	0.031
1037	0.031
1038	0.031
1038	0.031
1039	0.031
1039	0.031
1039	0.031
1040	0.032
1040	0.032
1041	0.032
1041	0.032
1041	0.031
1042	0.031
1042	0.031
1043	0.031
1043	0.031
1044	0.031
1044	0.031
1044	0.031
1045	0.032
1045	0.032
1046	0.032
1046	0.033
1046	0.033
1047	0.034
1047	0.034
1048	0.035
1048	0.035
1049	0.035
1049	0.035
1049	0.035
1050	0.035
1050	0.034
1051	0.033
1051	0.033
1051	0.032
1052	0.031
1052	0.03
1053	0.029
1053	0.029
1053	0.028
1054	0.028
1054	0.028
1055	0.028
1055	0.027
1056	0.027
1056	0.027
1056	0.027
1057	0.027
1057	0.027
1058	0.026
1058	0.026
1058	0.025
1059	0.025
1059	0.024
1060	0.024
1060	0.024
1061	0.023
1061	0.023
1061	0.023
1062	0.023
1062	0.023
1063	0.023
1063	0.023
1063	0.023
1064	0.023
1064	0.024
1065	0.024
1065	0.024
1066	0.024
1066	0.024
1066	0.024
1067	0.024
1067	0.024
1068	0.024
1068	0.024
1068	0.024
1069	0.023
1069	0.023
1070	0.022
1070	0.021
1071	0.021
1071	0.021
1071	0.02
1072	0.019
1072	0.019
1073	0.018
1073	0.018
1073	0.018
1074	0.018
1074	0.018
1075	0.018
1075	0.018
1076	0.018
1076	0.019
1076	0.019
1077	0.019
1077	0.019
1078	0.019
1078	0.019
1078	0.019
1079	0.019
1079	0.019
1080	0.019
1080	0.019
1080	0.019
1081	0.019
1081	0.019
1082	0.019
1082	0.02
1083	0.019
1083	0.019
1083	0.019
1084	0.018
1084	0.018
1085	0.017
1085	0.017
1085	0.017
1086	0.016
1086	0.015
1087	0.015
1087	0.015
1088	0.015
1088	0.015
1088	0.015
1089	0.014
1089	0.013
1090	0.013
1090	0.012
1090	0.012
1091	0.012
1091	0.012
1092	0.012
1092	0.012
1092	0.012
1093	0.011
1093	0.012
1094	0.012
1094	0.012
1095	0.012
1095	0.012
1095	0.012
1096	0.011
1096	0.011
1097	0.01
1097	0.009
1097	0.009
1098	0.008
1098	0.007
1099	0.007
1099	0.006
1100	0.004
1100	0.003
1100	0.002
1101	0.001
1101	-0
1102	-0.001
1102	-0.002
1102	-0.003
1103	-0.004
1103	-0.005
1104	-0.005
1104	-0.005
1104	-0.005
1105	-0.006
1105	-0.008
1106	-0.009
1106	-0.01
1107	-0.012
1107	-0.013
1107	-0.014
1108	-0.015
1108	-0.017
1109	-0.018
1109	-0.02
1109	-0.019
1110	-0.018
1110	-0.02
1111	-0.02
1111	-0.018
