Data from reversibility-20sec_Absorbance__4991__000000000004991.txt Node

Date: Wed Dec 06 15:56:46 CET 2023
User: Marek
Spectrometer: MAYP115816
Trigger mode: 0
Integration Time (sec): 2.000000E-1
Scans to average: 10
Electric dark correction enabled: true
Nonlinearity correction enabled: true
Boxcar width: 5
XAxis mode: Wavelengths
Number of Pixels in Spectrum: 2068
>>>>>Begin Spectral Data<<<<<
199	-0.21
199	-0.178
200	-0.11
200	-0.053
201	-0.021
201	-0.007
202	0.004
202	0.012
203	0.02
203	0.025
204	0.039
204	0.053
205	0.065
205	0.072
205	0.069
206	0.067
206	0.071
207	0.072
207	0.074
208	0.075
208	0.075
209	0.075
209	0.071
210	0.071
210	0.071
211	0.073
211	0.076
212	0.072
212	0.075
213	0.076
213	0.076
213	0.076
214	0.08
214	0.083
215	0.083
215	0.084
216	0.085
216	0.085
217	0.09
217	0.09
218	0.088
218	0.091
219	0.095
219	0.096
220	0.1
220	0.1
221	0.103
221	0.104
221	0.109
222	0.113
222	0.118
223	0.127
223	0.131
224	0.134
224	0.141
225	0.151
225	0.161
226	0.169
226	0.182
227	0.191
227	0.203
228	0.218
228	0.232
229	0.247
229	0.275
229	0.298
230	0.322
230	0.351
231	0.381
231	0.419
232	0.456
232	0.498
233	0.542
233	0.588
234	0.639
234	0.689
235	0.741
235	0.796
236	0.848
236	0.904
236	0.952
237	1.004
237	1.052
238	1.097
238	1.145
239	1.192
239	1.235
240	1.276
240	1.313
241	1.35
241	1.384
242	1.418
242	1.449
243	1.478
243	1.504
243	1.53
244	1.551
244	1.571
245	1.59
245	1.61
246	1.629
246	1.645
247	1.659
247	1.674
248	1.69
248	1.706
249	1.717
249	1.727
250	1.738
250	1.747
250	1.751
251	1.758
251	1.761
252	1.768
252	1.769
253	1.771
253	1.769
254	1.768
254	1.771
255	1.769
255	1.77
256	1.77
256	1.769
257	1.769
257	1.765
258	1.766
258	1.765
258	1.765
259	1.765
259	1.763
260	1.762
260	1.764
261	1.763
261	1.765
262	1.768
262	1.771
263	1.774
263	1.776
264	1.776
264	1.778
265	1.778
265	1.779
265	1.778
266	1.779
266	1.779
267	1.776
267	1.774
268	1.773
268	1.773
269	1.774
269	1.772
270	1.772
270	1.77
271	1.767
271	1.767
272	1.764
272	1.762
272	1.76
273	1.755
273	1.751
274	1.748
274	1.743
275	1.737
275	1.732
276	1.726
276	1.719
277	1.713
277	1.704
278	1.693
278	1.682
278	1.669
279	1.655
279	1.639
280	1.62
280	1.596
281	1.569
281	1.537
282	1.502
282	1.467
283	1.433
283	1.397
284	1.363
284	1.328
285	1.294
285	1.264
285	1.236
286	1.211
286	1.189
287	1.169
287	1.152
288	1.138
288	1.125
289	1.114
289	1.104
290	1.097
290	1.089
291	1.082
291	1.076
292	1.071
292	1.066
292	1.061
293	1.057
293	1.052
294	1.048
294	1.045
295	1.041
295	1.037
296	1.034
296	1.03
297	1.027
297	1.024
298	1.021
298	1.018
298	1.014
299	1.012
299	1.008
300	1.005
300	1.003
301	1
301	0.997
302	0.994
302	0.992
303	0.989
303	0.987
304	0.984
304	0.981
305	0.979
305	0.976
305	0.973
306	0.97
306	0.967
307	0.964
307	0.961
308	0.958
308	0.955
309	0.952
309	0.949
310	0.946
310	0.943
311	0.939
311	0.936
311	0.933
312	0.929
312	0.926
313	0.922
313	0.918
314	0.915
314	0.911
315	0.906
315	0.902
316	0.898
316	0.893
317	0.888
317	0.883
318	0.878
318	0.873
318	0.868
319	0.862
319	0.857
320	0.852
320	0.846
321	0.84
321	0.834
322	0.828
322	0.822
323	0.815
323	0.809
324	0.803
324	0.796
324	0.789
325	0.783
325	0.776
326	0.769
326	0.762
327	0.756
327	0.749
328	0.742
328	0.735
329	0.728
329	0.721
330	0.714
330	0.708
330	0.701
331	0.694
331	0.687
332	0.68
332	0.673
333	0.666
333	0.66
334	0.653
334	0.646
335	0.639
335	0.633
336	0.626
336	0.62
336	0.613
337	0.607
337	0.601
338	0.595
338	0.589
339	0.583
339	0.577
340	0.571
340	0.566
341	0.56
341	0.555
342	0.549
342	0.544
342	0.539
343	0.534
343	0.529
344	0.524
344	0.519
345	0.514
345	0.51
346	0.505
346	0.501
347	0.497
347	0.493
348	0.488
348	0.485
348	0.481
349	0.477
349	0.473
350	0.47
350	0.466
351	0.463
351	0.46
352	0.456
352	0.453
353	0.45
353	0.447
354	0.444
354	0.441
354	0.438
355	0.435
355	0.432
356	0.429
356	0.426
357	0.423
357	0.42
358	0.417
358	0.414
359	0.412
359	0.41
360	0.408
360	0.406
360	0.404
361	0.402
361	0.4
362	0.399
362	0.397
363	0.395
363	0.393
364	0.391
364	0.389
365	0.387
365	0.385
366	0.383
366	0.382
366	0.38
367	0.378
367	0.376
368	0.374
368	0.373
369	0.371
369	0.37
370	0.368
370	0.367
371	0.365
371	0.364
372	0.362
372	0.361
372	0.36
373	0.359
373	0.358
374	0.357
374	0.356
375	0.354
375	0.353
376	0.353
376	0.351
377	0.35
377	0.349
378	0.348
378	0.347
378	0.346
379	0.345
379	0.344
380	0.343
380	0.342
381	0.341
381	0.34
382	0.34
382	0.339
383	0.338
383	0.337
383	0.337
384	0.336
384	0.335
385	0.334
385	0.334
386	0.333
386	0.333
387	0.332
387	0.331
388	0.331
388	0.33
389	0.329
389	0.329
389	0.328
390	0.328
390	0.327
391	0.327
391	0.326
392	0.326
392	0.325
393	0.325
393	0.324
394	0.324
394	0.323
394	0.323
395	0.323
395	0.322
396	0.321
396	0.321
397	0.32
397	0.32
398	0.319
398	0.319
399	0.319
399	0.318
400	0.318
400	0.317
400	0.317
401	0.317
401	0.316
402	0.316
402	0.316
403	0.315
403	0.315
404	0.315
404	0.314
405	0.314
405	0.314
405	0.313
406	0.313
406	0.312
407	0.312
407	0.312
408	0.311
408	0.311
409	0.31
409	0.31
410	0.31
410	0.309
411	0.309
411	0.309
411	0.308
412	0.308
412	0.307
413	0.307
413	0.307
414	0.307
414	0.306
415	0.306
415	0.305
416	0.305
416	0.305
416	0.304
417	0.304
417	0.303
418	0.303
418	0.302
419	0.302
419	0.301
420	0.301
420	0.301
421	0.3
421	0.3
421	0.3
422	0.299
422	0.299
423	0.299
423	0.298
424	0.298
424	0.298
425	0.297
425	0.297
426	0.297
426	0.296
427	0.296
427	0.296
427	0.295
428	0.295
428	0.295
429	0.294
429	0.294
430	0.294
430	0.294
431	0.294
431	0.294
432	0.293
432	0.293
432	0.293
433	0.293
433	0.293
434	0.293
434	0.293
435	0.293
435	0.292
436	0.292
436	0.292
437	0.292
437	0.292
437	0.291
438	0.291
438	0.291
439	0.291
439	0.291
440	0.29
440	0.29
441	0.29
441	0.29
442	0.29
442	0.289
442	0.289
443	0.289
443	0.289
444	0.289
444	0.289
445	0.289
445	0.289
446	0.289
446	0.289
447	0.289
447	0.288
447	0.288
448	0.288
448	0.288
449	0.288
449	0.288
450	0.288
450	0.288
451	0.288
451	0.288
452	0.288
452	0.288
452	0.288
453	0.288
453	0.288
454	0.288
454	0.288
455	0.288
455	0.288
456	0.288
456	0.288
457	0.288
457	0.288
458	0.288
458	0.288
458	0.288
459	0.287
459	0.288
460	0.288
460	0.288
461	0.288
461	0.287
462	0.287
462	0.287
463	0.287
463	0.287
463	0.287
464	0.287
464	0.287
465	0.287
465	0.287
466	0.288
466	0.288
467	0.288
467	0.288
467	0.288
468	0.289
468	0.289
469	0.289
469	0.29
470	0.29
470	0.291
471	0.291
471	0.292
472	0.292
472	0.292
472	0.293
473	0.294
473	0.294
474	0.295
474	0.295
475	0.296
475	0.296
476	0.296
476	0.297
477	0.297
477	0.298
477	0.298
478	0.299
478	0.299
479	0.3
479	0.3
480	0.3
480	0.301
481	0.302
481	0.302
482	0.303
482	0.304
482	0.305
483	0.306
483	0.306
484	0.307
484	0.308
485	0.309
485	0.309
486	0.31
486	0.311
487	0.311
487	0.312
487	0.313
488	0.314
488	0.314
489	0.315
489	0.317
490	0.318
490	0.319
491	0.32
491	0.322
492	0.323
492	0.324
492	0.325
493	0.327
493	0.328
494	0.329
494	0.331
495	0.332
495	0.333
496	0.335
496	0.336
496	0.338
497	0.339
497	0.34
498	0.341
498	0.343
499	0.344
499	0.345
500	0.347
500	0.348
501	0.35
501	0.351
501	0.352
502	0.353
502	0.354
503	0.356
503	0.357
504	0.358
504	0.359
505	0.36
505	0.361
506	0.363
506	0.364
506	0.365
507	0.366
507	0.367
508	0.369
508	0.37
509	0.371
509	0.373
510	0.374
510	0.375
511	0.376
511	0.378
511	0.379
512	0.38
512	0.381
513	0.382
513	0.383
514	0.383
514	0.384
515	0.385
515	0.385
515	0.386
516	0.387
516	0.387
517	0.388
517	0.389
518	0.389
518	0.389
519	0.39
519	0.39
520	0.39
520	0.39
520	0.39
521	0.39
521	0.39
522	0.39
522	0.389
523	0.389
523	0.389
524	0.389
524	0.389
524	0.388
525	0.388
525	0.388
526	0.387
526	0.387
527	0.386
527	0.386
528	0.385
528	0.384
529	0.383
529	0.382
529	0.381
530	0.38
530	0.379
531	0.378
531	0.376
532	0.375
532	0.374
533	0.373
533	0.371
533	0.37
534	0.369
534	0.367
535	0.366
535	0.364
536	0.363
536	0.361
537	0.36
537	0.358
538	0.356
538	0.355
538	0.353
539	0.351
539	0.35
540	0.348
540	0.346
541	0.344
541	0.342
542	0.34
542	0.338
542	0.335
543	0.334
543	0.332
544	0.329
544	0.327
545	0.325
545	0.323
546	0.321
546	0.319
547	0.316
547	0.314
547	0.312
548	0.31
548	0.308
549	0.306
549	0.304
550	0.302
550	0.3
551	0.298
551	0.295
551	0.293
552	0.291
552	0.289
553	0.287
553	0.285
554	0.282
554	0.28
555	0.278
555	0.276
556	0.274
556	0.272
556	0.271
557	0.269
557	0.267
558	0.266
558	0.264
559	0.262
559	0.26
560	0.258
560	0.257
560	0.255
561	0.253
561	0.251
562	0.249
562	0.247
563	0.244
563	0.242
564	0.24
564	0.238
564	0.236
565	0.235
565	0.233
566	0.232
566	0.23
567	0.228
567	0.227
568	0.226
568	0.224
568	0.222
569	0.221
569	0.219
570	0.217
570	0.215
571	0.214
571	0.212
572	0.211
572	0.209
573	0.208
573	0.207
573	0.205
574	0.204
574	0.203
575	0.202
575	0.201
576	0.2
576	0.198
577	0.196
577	0.195
577	0.193
578	0.192
578	0.191
579	0.19
579	0.19
580	0.188
580	0.186
581	0.185
581	0.184
581	0.183
582	0.183
582	0.182
583	0.181
583	0.18
584	0.178
584	0.176
585	0.175
585	0.174
585	0.173
586	0.172
586	0.171
587	0.169
587	0.168
588	0.167
588	0.166
589	0.165
589	0.164
590	0.164
590	0.163
590	0.163
591	0.163
591	0.162
592	0.161
592	0.16
593	0.159
593	0.158
594	0.157
594	0.156
594	0.155
595	0.155
595	0.153
596	0.152
596	0.152
597	0.152
597	0.152
598	0.151
598	0.15
598	0.15
599	0.149
599	0.149
600	0.148
600	0.147
601	0.146
601	0.146
602	0.145
602	0.144
602	0.144
603	0.143
603	0.143
604	0.142
604	0.142
605	0.141
605	0.141
606	0.14
606	0.139
606	0.138
607	0.137
607	0.137
608	0.136
608	0.135
609	0.134
609	0.134
610	0.133
610	0.133
610	0.133
611	0.133
611	0.133
612	0.132
612	0.132
613	0.132
613	0.131
614	0.131
614	0.13
614	0.129
615	0.129
615	0.128
616	0.128
616	0.127
617	0.127
617	0.126
618	0.125
618	0.125
618	0.125
619	0.125
619	0.125
620	0.125
620	0.124
621	0.123
621	0.123
622	0.122
622	0.122
622	0.121
623	0.12
623	0.12
624	0.119
624	0.118
625	0.118
625	0.117
626	0.116
626	0.116
626	0.116
627	0.115
627	0.115
628	0.115
628	0.114
629	0.114
629	0.114
630	0.114
630	0.114
630	0.114
631	0.114
631	0.113
632	0.113
632	0.113
633	0.113
633	0.113
634	0.113
634	0.113
634	0.112
635	0.112
635	0.111
636	0.111
636	0.111
637	0.11
637	0.109
638	0.109
638	0.108
638	0.108
639	0.107
639	0.107
640	0.107
640	0.107
641	0.107
641	0.107
642	0.107
642	0.107
642	0.107
643	0.107
643	0.107
644	0.107
644	0.107
645	0.107
645	0.106
646	0.106
646	0.106
646	0.105
647	0.105
647	0.104
648	0.104
648	0.103
649	0.102
649	0.102
650	0.102
650	0.102
650	0.102
651	0.102
651	0.101
652	0.101
652	0.101
653	0.101
653	0.103
653	0.109
654	0.088
654	0.071
655	0.069
655	0.069
656	0.069
656	0.069
657	0.069
657	0.07
657	0.07
658	0.069
658	0.06
659	0.076
659	0.095
660	0.101
660	0.102
661	0.101
661	0.101
661	0.101
662	0.101
662	0.1
663	0.1
663	0.1
664	0.099
664	0.099
665	0.099
665	0.099
665	0.099
666	0.099
666	0.099
667	0.099
667	0.099
668	0.099
668	0.099
669	0.099
669	0.099
669	0.1
670	0.1
670	0.099
671	0.098
671	0.098
672	0.097
672	0.096
672	0.096
673	0.095
673	0.095
674	0.094
674	0.094
675	0.093
675	0.093
676	0.094
676	0.094
676	0.093
677	0.093
677	0.093
678	0.092
678	0.092
679	0.091
679	0.091
680	0.091
680	0.09
680	0.09
681	0.09
681	0.09
682	0.091
682	0.091
683	0.091
683	0.092
684	0.092
684	0.092
684	0.092
685	0.092
685	0.092
686	0.092
686	0.092
687	0.092
687	0.092
687	0.092
688	0.092
688	0.092
689	0.092
689	0.092
690	0.092
690	0.091
691	0.091
691	0.091
691	0.091
692	0.09
692	0.09
693	0.089
693	0.09
694	0.089
694	0.089
695	0.09
695	0.091
695	0.091
696	0.091
696	0.091
697	0.092
697	0.092
698	0.092
698	0.091
698	0.092
699	0.092
699	0.091
700	0.09
700	0.09
701	0.09
701	0.089
702	0.088
702	0.088
702	0.088
703	0.087
703	0.086
704	0.086
704	0.086
705	0.086
705	0.086
705	0.086
706	0.087
706	0.087
707	0.087
707	0.088
708	0.088
708	0.088
709	0.089
709	0.088
709	0.088
710	0.088
710	0.088
711	0.088
711	0.088
712	0.087
712	0.087
713	0.086
713	0.086
713	0.085
714	0.085
714	0.084
715	0.084
715	0.083
716	0.082
716	0.082
716	0.081
717	0.081
717	0.08
718	0.08
718	0.08
719	0.08
719	0.081
720	0.081
720	0.081
720	0.081
721	0.082
721	0.082
722	0.083
722	0.083
723	0.083
723	0.083
723	0.083
724	0.083
724	0.083
725	0.082
725	0.081
726	0.081
726	0.081
727	0.08
727	0.08
727	0.08
728	0.08
728	0.079
729	0.079
729	0.079
730	0.079
730	0.079
730	0.079
731	0.08
731	0.08
732	0.081
732	0.081
733	0.081
733	0.082
734	0.082
734	0.083
734	0.083
735	0.084
735	0.084
736	0.083
736	0.083
737	0.083
737	0.083
737	0.082
738	0.081
738	0.08
739	0.08
739	0.079
740	0.079
740	0.078
741	0.078
741	0.078
741	0.078
742	0.077
742	0.078
743	0.079
743	0.079
744	0.08
744	0.08
744	0.08
745	0.08
745	0.08
746	0.08
746	0.079
747	0.079
747	0.078
748	0.078
748	0.077
748	0.077
749	0.076
749	0.076
750	0.075
750	0.074
751	0.074
751	0.074
751	0.073
752	0.073
752	0.072
753	0.072
753	0.071
754	0.072
754	0.071
754	0.071
755	0.072
755	0.072
756	0.071
756	0.071
757	0.07
757	0.07
758	0.071
758	0.071
758	0.071
759	0.071
759	0.071
760	0.071
760	0.071
761	0.071
761	0.072
761	0.073
762	0.073
762	0.073
763	0.073
763	0.072
764	0.072
764	0.071
764	0.071
765	0.071
765	0.07
766	0.07
766	0.069
767	0.069
767	0.067
768	0.067
768	0.067
768	0.067
769	0.067
769	0.067
770	0.068
770	0.068
771	0.069
771	0.069
771	0.07
772	0.071
772	0.071
773	0.071
773	0.071
774	0.071
774	0.071
775	0.07
775	0.07
775	0.069
776	0.069
776	0.069
777	0.068
777	0.068
778	0.068
778	0.067
778	0.067
779	0.067
779	0.067
780	0.066
780	0.065
781	0.065
781	0.065
781	0.065
782	0.065
782	0.065
783	0.065
783	0.066
784	0.066
784	0.066
784	0.066
785	0.067
785	0.067
786	0.068
786	0.068
787	0.068
787	0.068
788	0.067
788	0.067
788	0.066
789	0.065
789	0.065
790	0.064
790	0.063
791	0.062
791	0.061
791	0.06
792	0.06
792	0.06
793	0.059
793	0.058
794	0.058
794	0.057
794	0.057
795	0.057
795	0.058
796	0.058
796	0.059
797	0.059
797	0.059
797	0.06
798	0.061
798	0.061
799	0.061
799	0.062
800	0.061
800	0.061
801	0.06
801	0.06
801	0.059
802	0.059
802	0.058
803	0.058
803	0.058
804	0.058
804	0.059
804	0.058
805	0.058
805	0.058
806	0.058
806	0.058
807	0.058
807	0.058
807	0.058
808	0.058
808	0.058
809	0.058
809	0.059
810	0.059
810	0.059
810	0.059
811	0.059
811	0.059
812	0.06
812	0.059
813	0.059
813	0.059
813	0.058
814	0.058
814	0.058
815	0.059
815	0.059
816	0.059
816	0.058
817	0.058
817	0.058
817	0.058
818	0.058
818	0.058
819	0.058
819	0.058
820	0.057
820	0.057
820	0.057
821	0.057
821	0.057
822	0.058
822	0.058
823	0.058
823	0.057
823	0.058
824	0.058
824	0.059
825	0.06
825	0.06
826	0.06
826	0.06
826	0.06
827	0.061
827	0.061
828	0.061
828	0.061
829	0.061
829	0.061
829	0.061
830	0.061
830	0.061
831	0.062
831	0.062
832	0.061
832	0.061
832	0.061
833	0.06
833	0.06
834	0.06
834	0.059
835	0.059
835	0.058
835	0.058
836	0.057
836	0.057
837	0.056
837	0.056
838	0.055
838	0.054
839	0.054
839	0.053
839	0.053
840	0.052
840	0.051
841	0.051
841	0.05
842	0.05
842	0.049
842	0.049
843	0.048
843	0.047
844	0.046
844	0.046
845	0.045
845	0.044
845	0.043
846	0.043
846	0.042
847	0.042
847	0.042
848	0.042
848	0.043
848	0.043
849	0.044
849	0.045
850	0.045
850	0.046
851	0.047
851	0.047
851	0.048
852	0.048
852	0.048
853	0.048
853	0.048
854	0.048
854	0.049
854	0.05
855	0.05
855	0.051
856	0.051
856	0.052
857	0.052
857	0.053
857	0.053
858	0.053
858	0.052
859	0.051
859	0.05
860	0.05
860	0.049
860	0.048
861	0.048
861	0.047
862	0.046
862	0.046
863	0.045
863	0.045
863	0.045
864	0.045
864	0.045
865	0.045
865	0.046
866	0.046
866	0.046
866	0.047
867	0.047
867	0.048
868	0.048
868	0.048
869	0.048
869	0.048
869	0.048
870	0.047
870	0.047
871	0.047
871	0.047
872	0.046
872	0.046
872	0.046
873	0.046
873	0.045
874	0.045
874	0.046
875	0.046
875	0.046
875	0.046
876	0.047
876	0.047
877	0.047
877	0.047
878	0.047
878	0.048
878	0.048
879	0.048
879	0.048
880	0.048
880	0.048
881	0.047
881	0.047
881	0.047
882	0.046
882	0.046
883	0.046
883	0.046
884	0.045
884	0.045
884	0.045
885	0.045
885	0.045
886	0.045
886	0.045
887	0.044
887	0.044
887	0.043
888	0.042
888	0.042
889	0.041
889	0.041
890	0.04
890	0.04
890	0.04
891	0.04
891	0.04
892	0.039
892	0.039
893	0.039
893	0.039
893	0.038
894	0.038
894	0.038
895	0.037
895	0.038
895	0.038
896	0.038
896	0.039
897	0.039
897	0.04
898	0.041
898	0.042
898	0.042
899	0.043
899	0.044
900	0.044
900	0.045
901	0.045
901	0.045
901	0.045
902	0.045
902	0.044
903	0.044
903	0.044
904	0.043
904	0.043
904	0.042
905	0.041
905	0.041
906	0.041
906	0.041
907	0.041
907	0.042
907	0.042
908	0.042
908	0.042
909	0.041
909	0.041
910	0.041
910	0.041
910	0.041
911	0.041
911	0.041
912	0.04
912	0.04
913	0.04
913	0.04
913	0.04
914	0.041
914	0.041
915	0.041
915	0.041
916	0.041
916	0.041
916	0.041
917	0.041
917	0.041
918	0.041
918	0.041
918	0.041
919	0.041
919	0.041
920	0.042
920	0.042
921	0.042
921	0.042
921	0.043
922	0.043
922	0.043
923	0.043
923	0.043
924	0.044
924	0.045
924	0.045
925	0.045
925	0.046
926	0.046
926	0.046
927	0.046
927	0.046
927	0.046
928	0.046
928	0.046
929	0.045
929	0.045
930	0.044
930	0.044
930	0.043
931	0.043
931	0.043
932	0.042
932	0.042
933	0.042
933	0.042
933	0.042
934	0.041
934	0.041
935	0.04
935	0.04
935	0.04
936	0.039
936	0.039
937	0.038
937	0.038
938	0.038
938	0.038
938	0.038
939	0.038
939	0.038
940	0.039
940	0.039
941	0.039
941	0.04
941	0.04
942	0.04
942	0.04
943	0.04
943	0.041
944	0.041
944	0.041
944	0.041
945	0.041
945	0.042
946	0.042
946	0.042
946	0.042
947	0.042
947	0.042
948	0.042
948	0.041
949	0.041
949	0.041
949	0.041
950	0.041
950	0.041
951	0.041
951	0.041
952	0.041
952	0.041
952	0.041
953	0.041
953	0.041
954	0.04
954	0.04
955	0.04
955	0.039
955	0.039
956	0.039
956	0.039
957	0.039
957	0.039
957	0.039
958	0.039
958	0.039
959	0.039
959	0.038
960	0.038
960	0.038
960	0.038
961	0.038
961	0.038
962	0.038
962	0.038
963	0.038
963	0.038
963	0.038
964	0.038
964	0.039
965	0.039
965	0.039
966	0.04
966	0.04
966	0.04
967	0.04
967	0.04
968	0.041
968	0.041
968	0.041
969	0.04
969	0.04
970	0.039
970	0.039
971	0.038
971	0.038
971	0.037
972	0.037
972	0.036
973	0.036
973	0.036
974	0.036
974	0.036
974	0.036
975	0.036
975	0.036
976	0.036
976	0.036
976	0.036
977	0.036
977	0.036
978	0.035
978	0.035
979	0.035
979	0.034
979	0.034
980	0.034
980	0.033
981	0.032
981	0.032
982	0.032
982	0.032
982	0.032
983	0.032
983	0.032
984	0.032
984	0.032
984	0.032
985	0.032
985	0.032
986	0.032
986	0.033
987	0.033
987	0.033
987	0.033
988	0.033
988	0.033
989	0.034
989	0.034
990	0.034
990	0.034
990	0.034
991	0.034
991	0.034
992	0.034
992	0.033
992	0.033
993	0.032
993	0.031
994	0.031
994	0.03
995	0.029
995	0.029
995	0.028
996	0.028
996	0.028
997	0.028
997	0.029
997	0.029
998	0.03
998	0.03
999	0.031
999	0.032
1000	0.033
1000	0.034
1000	0.034
1001	0.035
1001	0.035
1002	0.035
1002	0.035
1003	0.035
1003	0.034
1003	0.034
1004	0.033
1004	0.032
1005	0.031
1005	0.03
1005	0.03
1006	0.029
1006	0.029
1007	0.029
1007	0.028
1008	0.028
1008	0.028
1008	0.028
1009	0.028
1009	0.028
1010	0.029
1010	0.029
1010	0.029
1011	0.028
1011	0.028
1012	0.028
1012	0.027
1013	0.027
1013	0.027
1013	0.026
1014	0.026
1014	0.025
1015	0.025
1015	0.026
1016	0.026
1016	0.026
1016	0.026
1017	0.026
1017	0.026
1018	0.027
1018	0.027
1018	0.028
1019	0.028
1019	0.028
1020	0.028
1020	0.028
1021	0.029
1021	0.029
1021	0.029
1022	0.03
1022	0.03
1023	0.03
1023	0.03
1023	0.031
1024	0.031
1024	0.031
1025	0.031
1025	0.031
1026	0.031
1026	0.031
1026	0.031
1027	0.031
1027	0.031
1028	0.031
1028	0.031
1028	0.032
1029	0.032
1029	0.032
1030	0.033
1030	0.033
1031	0.033
1031	0.034
1031	0.034
1032	0.034
1032	0.034
1033	0.034
1033	0.034
1033	0.034
1034	0.034
1034	0.033
1035	0.033
1035	0.033
1036	0.033
1036	0.032
1036	0.032
1037	0.032
1037	0.032
1038	0.032
1038	0.032
1039	0.032
1039	0.032
1039	0.032
1040	0.032
1040	0.032
1041	0.032
1041	0.032
1041	0.032
1042	0.032
1042	0.032
1043	0.032
1043	0.032
1044	0.032
1044	0.032
1044	0.032
1045	0.032
1045	0.032
1046	0.032
1046	0.032
1046	0.032
1047	0.033
1047	0.033
1048	0.033
1048	0.034
1049	0.034
1049	0.034
1049	0.034
1050	0.034
1050	0.033
1051	0.033
1051	0.033
1051	0.032
1052	0.032
1052	0.031
1053	0.03
1053	0.029
1053	0.029
1054	0.028
1054	0.028
1055	0.028
1055	0.028
1056	0.027
1056	0.027
1056	0.026
1057	0.026
1057	0.026
1058	0.025
1058	0.024
1058	0.024
1059	0.024
1059	0.023
1060	0.023
1060	0.022
1061	0.022
1061	0.022
1061	0.022
1062	0.022
1062	0.022
1063	0.022
1063	0.022
1063	0.022
1064	0.022
1064	0.021
1065	0.021
1065	0.021
1066	0.021
1066	0.021
1066	0.021
1067	0.02
1067	0.02
1068	0.02
1068	0.02
1068	0.02
1069	0.019
1069	0.019
1070	0.018
1070	0.018
1071	0.018
1071	0.018
1071	0.017
1072	0.017
1072	0.017
1073	0.017
1073	0.017
1073	0.017
1074	0.017
1074	0.018
1075	0.018
1075	0.018
1076	0.019
1076	0.019
1076	0.019
1077	0.019
1077	0.02
1078	0.019
1078	0.019
1078	0.019
1079	0.019
1079	0.019
1080	0.018
1080	0.018
1080	0.018
1081	0.017
1081	0.017
1082	0.018
1082	0.018
1083	0.018
1083	0.018
1083	0.018
1084	0.018
1084	0.019
1085	0.019
1085	0.019
1085	0.019
1086	0.02
1086	0.019
1087	0.019
1087	0.019
1088	0.019
1088	0.019
1088	0.02
1089	0.019
1089	0.019
1090	0.018
1090	0.019
1090	0.018
1091	0.018
1091	0.018
1092	0.018
1092	0.018
1092	0.017
1093	0.017
1093	0.017
1094	0.017
1094	0.016
1095	0.016
1095	0.016
1095	0.015
1096	0.015
1096	0.015
1097	0.014
1097	0.014
1097	0.013
1098	0.012
1098	0.011
1099	0.011
1099	0.009
1100	0.009
1100	0.007
1100	0.005
1101	0.004
1101	0.003
1102	0.002
1102	0.001
1102	-0
1103	-0.001
1103	-0.001
1104	-0.001
1104	-0.002
1104	-0.002
1105	-0.003
1105	-0.004
1106	-0.006
1106	-0.007
1107	-0.009
1107	-0.009
1107	-0.01
1108	-0.012
1108	-0.013
1109	-0.014
1109	-0.016
1109	-0.016
1110	-0.017
1110	-0.017
1111	-0.016
1111	-0.014
