Data from reversibility-20sec_Absorbance__5650__000000000005650.txt Node

Date: Wed Dec 06 19:36:25 CET 2023
User: Marek
Spectrometer: MAYP115816
Trigger mode: 0
Integration Time (sec): 2.000000E-1
Scans to average: 10
Electric dark correction enabled: true
Nonlinearity correction enabled: true
Boxcar width: 5
XAxis mode: Wavelengths
Number of Pixels in Spectrum: 2068
>>>>>Begin Spectral Data<<<<<
199	-0.173
199	-0.128
200	-0.063
200	-0.006
201	0.026
201	0.044
202	0.054
202	0.064
203	0.071
203	0.073
204	0.087
204	0.101
205	0.112
205	0.119
205	0.114
206	0.114
206	0.111
207	0.114
207	0.111
208	0.11
208	0.111
209	0.113
209	0.11
210	0.111
210	0.112
211	0.115
211	0.117
212	0.116
212	0.116
213	0.122
213	0.123
213	0.123
214	0.127
214	0.131
215	0.132
215	0.131
216	0.132
216	0.131
217	0.136
217	0.139
218	0.138
218	0.142
219	0.144
219	0.143
220	0.144
220	0.14
221	0.141
221	0.14
221	0.144
222	0.148
222	0.152
223	0.154
223	0.157
224	0.161
224	0.17
225	0.18
225	0.193
226	0.205
226	0.216
227	0.226
227	0.235
228	0.25
228	0.267
229	0.284
229	0.31
229	0.332
230	0.358
230	0.384
231	0.414
231	0.453
232	0.49
232	0.535
233	0.576
233	0.624
234	0.673
234	0.724
235	0.776
235	0.826
236	0.879
236	0.931
236	0.98
237	1.033
237	1.079
238	1.128
238	1.172
239	1.22
239	1.261
240	1.3
240	1.339
241	1.373
241	1.405
242	1.439
242	1.472
243	1.503
243	1.527
243	1.553
244	1.574
244	1.596
245	1.615
245	1.636
246	1.655
246	1.674
247	1.686
247	1.699
248	1.713
248	1.728
249	1.74
249	1.747
250	1.753
250	1.761
250	1.765
251	1.767
251	1.769
252	1.771
252	1.77
253	1.771
253	1.767
254	1.762
254	1.762
255	1.759
255	1.76
256	1.757
256	1.758
257	1.758
257	1.758
258	1.759
258	1.758
258	1.758
259	1.759
259	1.76
260	1.76
260	1.761
261	1.763
261	1.765
262	1.767
262	1.769
263	1.772
263	1.772
264	1.774
264	1.776
265	1.778
265	1.781
265	1.782
266	1.782
266	1.783
267	1.781
267	1.783
268	1.783
268	1.785
269	1.787
269	1.786
270	1.785
270	1.783
271	1.78
271	1.78
272	1.776
272	1.775
272	1.771
273	1.764
273	1.756
274	1.75
274	1.743
275	1.734
275	1.727
276	1.72
276	1.712
277	1.704
277	1.694
278	1.682
278	1.67
278	1.656
279	1.638
279	1.617
280	1.59
280	1.557
281	1.518
281	1.474
282	1.43
282	1.385
283	1.34
283	1.298
284	1.257
284	1.218
285	1.181
285	1.148
285	1.119
286	1.093
286	1.071
287	1.052
287	1.036
288	1.022
288	1.01
289	1
289	0.991
290	0.984
290	0.977
291	0.972
291	0.967
292	0.963
292	0.958
292	0.955
293	0.951
293	0.947
294	0.944
294	0.941
295	0.938
295	0.936
296	0.933
296	0.93
297	0.927
297	0.925
298	0.922
298	0.919
298	0.917
299	0.915
299	0.912
300	0.909
300	0.907
301	0.904
301	0.902
302	0.9
302	0.897
303	0.895
303	0.893
304	0.891
304	0.889
305	0.887
305	0.885
305	0.882
306	0.88
306	0.878
307	0.876
307	0.873
308	0.871
308	0.868
309	0.866
309	0.863
310	0.86
310	0.858
311	0.855
311	0.852
311	0.849
312	0.846
312	0.843
313	0.84
313	0.836
314	0.832
314	0.828
315	0.824
315	0.82
316	0.816
316	0.812
317	0.807
317	0.802
318	0.798
318	0.793
318	0.788
319	0.783
319	0.777
320	0.772
320	0.766
321	0.76
321	0.754
322	0.748
322	0.742
323	0.735
323	0.729
324	0.723
324	0.716
324	0.709
325	0.703
325	0.696
326	0.689
326	0.683
327	0.676
327	0.669
328	0.662
328	0.655
329	0.648
329	0.641
330	0.634
330	0.628
330	0.62
331	0.613
331	0.607
332	0.6
332	0.593
333	0.586
333	0.579
334	0.572
334	0.566
335	0.559
335	0.552
336	0.546
336	0.539
336	0.532
337	0.526
337	0.52
338	0.514
338	0.507
339	0.502
339	0.495
340	0.49
340	0.484
341	0.479
341	0.473
342	0.468
342	0.463
342	0.457
343	0.452
343	0.447
344	0.442
344	0.438
345	0.433
345	0.429
346	0.424
346	0.42
347	0.415
347	0.411
348	0.407
348	0.403
348	0.399
349	0.396
349	0.392
350	0.388
350	0.385
351	0.381
351	0.378
352	0.375
352	0.372
353	0.369
353	0.366
354	0.364
354	0.361
354	0.358
355	0.355
355	0.352
356	0.35
356	0.347
357	0.344
357	0.341
358	0.339
358	0.336
359	0.334
359	0.332
360	0.33
360	0.328
360	0.326
361	0.324
361	0.323
362	0.322
362	0.32
363	0.318
363	0.317
364	0.315
364	0.313
365	0.311
365	0.309
366	0.308
366	0.306
366	0.304
367	0.303
367	0.301
368	0.3
368	0.298
369	0.297
369	0.295
370	0.294
370	0.293
371	0.292
371	0.29
372	0.289
372	0.288
372	0.287
373	0.286
373	0.285
374	0.284
374	0.283
375	0.282
375	0.281
376	0.281
376	0.28
377	0.279
377	0.278
378	0.277
378	0.277
378	0.276
379	0.276
379	0.275
380	0.274
380	0.274
381	0.273
381	0.272
382	0.272
382	0.271
383	0.271
383	0.271
383	0.27
384	0.269
384	0.269
385	0.268
385	0.268
386	0.268
386	0.267
387	0.267
387	0.267
388	0.266
388	0.266
389	0.265
389	0.265
389	0.265
390	0.264
390	0.264
391	0.264
391	0.263
392	0.263
392	0.263
393	0.263
393	0.262
394	0.262
394	0.262
394	0.261
395	0.261
395	0.26
396	0.26
396	0.26
397	0.259
397	0.259
398	0.259
398	0.258
399	0.258
399	0.258
400	0.258
400	0.258
400	0.257
401	0.257
401	0.257
402	0.257
402	0.257
403	0.257
403	0.256
404	0.256
404	0.256
405	0.256
405	0.256
405	0.255
406	0.255
406	0.255
407	0.254
407	0.254
408	0.254
408	0.254
409	0.253
409	0.253
410	0.253
410	0.253
411	0.253
411	0.252
411	0.252
412	0.252
412	0.251
413	0.251
413	0.251
414	0.251
414	0.25
415	0.25
415	0.25
416	0.249
416	0.249
416	0.249
417	0.248
417	0.248
418	0.248
418	0.248
419	0.247
419	0.246
420	0.246
420	0.246
421	0.245
421	0.245
421	0.245
422	0.244
422	0.244
423	0.243
423	0.243
424	0.243
424	0.243
425	0.242
425	0.242
426	0.242
426	0.242
427	0.241
427	0.241
427	0.241
428	0.24
428	0.24
429	0.239
429	0.239
430	0.239
430	0.239
431	0.239
431	0.238
432	0.238
432	0.238
432	0.238
433	0.238
433	0.238
434	0.237
434	0.237
435	0.237
435	0.237
436	0.236
436	0.236
437	0.236
437	0.236
437	0.235
438	0.235
438	0.235
439	0.235
439	0.234
440	0.234
440	0.234
441	0.234
441	0.234
442	0.234
442	0.233
442	0.233
443	0.233
443	0.233
444	0.233
444	0.232
445	0.232
445	0.232
446	0.232
446	0.231
447	0.231
447	0.231
447	0.23
448	0.23
448	0.23
449	0.23
449	0.23
450	0.23
450	0.229
451	0.229
451	0.229
452	0.229
452	0.229
452	0.229
453	0.229
453	0.228
454	0.228
454	0.228
455	0.228
455	0.227
456	0.227
456	0.227
457	0.227
457	0.226
458	0.226
458	0.226
458	0.226
459	0.225
459	0.225
460	0.225
460	0.225
461	0.224
461	0.224
462	0.224
462	0.224
463	0.223
463	0.223
463	0.223
464	0.223
464	0.222
465	0.222
465	0.222
466	0.222
466	0.221
467	0.221
467	0.221
467	0.221
468	0.221
468	0.221
469	0.221
469	0.221
470	0.221
470	0.221
471	0.221
471	0.221
472	0.221
472	0.221
472	0.221
473	0.221
473	0.221
474	0.221
474	0.22
475	0.22
475	0.22
476	0.22
476	0.22
477	0.22
477	0.22
477	0.22
478	0.22
478	0.22
479	0.22
479	0.22
480	0.22
480	0.22
481	0.22
481	0.219
482	0.219
482	0.219
482	0.219
483	0.219
483	0.22
484	0.22
484	0.219
485	0.219
485	0.219
486	0.219
486	0.219
487	0.219
487	0.219
487	0.22
488	0.22
488	0.22
489	0.22
489	0.22
490	0.221
490	0.221
491	0.221
491	0.222
492	0.222
492	0.222
492	0.222
493	0.223
493	0.223
494	0.223
494	0.224
495	0.224
495	0.224
496	0.224
496	0.225
496	0.225
497	0.226
497	0.226
498	0.226
498	0.226
499	0.227
499	0.227
500	0.228
500	0.228
501	0.229
501	0.229
501	0.229
502	0.229
502	0.229
503	0.23
503	0.23
504	0.231
504	0.231
505	0.231
505	0.231
506	0.232
506	0.232
506	0.233
507	0.233
507	0.233
508	0.233
508	0.234
509	0.234
509	0.234
510	0.235
510	0.235
511	0.236
511	0.236
511	0.237
512	0.237
512	0.238
513	0.238
513	0.239
514	0.239
514	0.239
515	0.239
515	0.24
515	0.24
516	0.241
516	0.241
517	0.241
517	0.242
518	0.242
518	0.243
519	0.243
519	0.243
520	0.244
520	0.244
520	0.244
521	0.244
521	0.244
522	0.244
522	0.244
523	0.244
523	0.245
524	0.245
524	0.245
524	0.245
525	0.245
525	0.245
526	0.245
526	0.245
527	0.246
527	0.246
528	0.246
528	0.246
529	0.246
529	0.246
529	0.246
530	0.246
530	0.247
531	0.247
531	0.247
532	0.247
532	0.247
533	0.247
533	0.247
533	0.247
534	0.246
534	0.246
535	0.246
535	0.247
536	0.247
536	0.247
537	0.247
537	0.247
538	0.247
538	0.247
538	0.247
539	0.247
539	0.247
540	0.246
540	0.246
541	0.246
541	0.246
542	0.245
542	0.245
542	0.245
543	0.245
543	0.245
544	0.244
544	0.244
545	0.244
545	0.244
546	0.245
546	0.244
547	0.244
547	0.244
547	0.243
548	0.244
548	0.244
549	0.243
549	0.243
550	0.243
550	0.243
551	0.242
551	0.242
551	0.242
552	0.242
552	0.241
553	0.241
553	0.24
554	0.24
554	0.239
555	0.239
555	0.238
556	0.238
556	0.238
556	0.238
557	0.238
557	0.238
558	0.238
558	0.238
559	0.238
559	0.238
560	0.238
560	0.238
560	0.238
561	0.238
561	0.238
562	0.237
562	0.236
563	0.236
563	0.235
564	0.235
564	0.234
564	0.234
565	0.234
565	0.234
566	0.233
566	0.233
567	0.233
567	0.233
568	0.233
568	0.233
568	0.233
569	0.233
569	0.232
570	0.232
570	0.231
571	0.23
571	0.23
572	0.229
572	0.229
573	0.229
573	0.228
573	0.228
574	0.227
574	0.227
575	0.227
575	0.227
576	0.227
576	0.227
577	0.226
577	0.226
577	0.225
578	0.225
578	0.225
579	0.225
579	0.225
580	0.225
580	0.224
581	0.223
581	0.223
581	0.223
582	0.223
582	0.223
583	0.223
583	0.223
584	0.223
584	0.221
585	0.221
585	0.222
585	0.221
586	0.221
586	0.221
587	0.22
587	0.219
588	0.218
588	0.218
589	0.218
589	0.218
590	0.218
590	0.218
590	0.218
591	0.219
591	0.218
592	0.218
592	0.217
593	0.217
593	0.217
594	0.217
594	0.216
594	0.215
595	0.215
595	0.215
596	0.214
596	0.215
597	0.215
597	0.216
598	0.215
598	0.215
598	0.215
599	0.215
599	0.214
600	0.214
600	0.213
601	0.213
601	0.213
602	0.212
602	0.212
602	0.211
603	0.211
603	0.211
604	0.212
604	0.212
605	0.212
605	0.212
606	0.211
606	0.211
606	0.21
607	0.21
607	0.21
608	0.21
608	0.209
609	0.209
609	0.209
610	0.209
610	0.208
610	0.209
611	0.209
611	0.209
612	0.209
612	0.209
613	0.209
613	0.209
614	0.209
614	0.208
614	0.208
615	0.208
615	0.208
616	0.208
616	0.208
617	0.208
617	0.208
618	0.207
618	0.207
618	0.207
619	0.208
619	0.208
620	0.208
620	0.208
621	0.207
621	0.207
622	0.207
622	0.206
622	0.206
623	0.205
623	0.205
624	0.205
624	0.204
625	0.203
625	0.203
626	0.203
626	0.203
626	0.203
627	0.203
627	0.202
628	0.202
628	0.202
629	0.201
629	0.201
630	0.201
630	0.2
630	0.2
631	0.2
631	0.2
632	0.2
632	0.2
633	0.2
633	0.2
634	0.201
634	0.201
634	0.201
635	0.201
635	0.201
636	0.201
636	0.201
637	0.201
637	0.201
638	0.2
638	0.2
638	0.2
639	0.2
639	0.2
640	0.2
640	0.2
641	0.199
641	0.199
642	0.199
642	0.199
642	0.199
643	0.199
643	0.199
644	0.199
644	0.199
645	0.199
645	0.199
646	0.199
646	0.199
646	0.199
647	0.199
647	0.199
648	0.198
648	0.198
649	0.198
649	0.198
650	0.197
650	0.197
650	0.197
651	0.197
651	0.197
652	0.196
652	0.197
653	0.197
653	0.199
653	0.205
654	0.161
654	0.128
655	0.129
655	0.13
656	0.13
656	0.13
657	0.131
657	0.131
657	0.131
658	0.13
658	0.119
659	0.15
659	0.194
660	0.198
660	0.198
661	0.198
661	0.197
661	0.197
662	0.197
662	0.196
663	0.196
663	0.196
664	0.195
664	0.195
665	0.195
665	0.195
665	0.195
666	0.196
666	0.196
667	0.196
667	0.197
668	0.197
668	0.198
669	0.198
669	0.199
669	0.199
670	0.2
670	0.2
671	0.2
671	0.2
672	0.2
672	0.199
672	0.199
673	0.198
673	0.198
674	0.198
674	0.197
675	0.196
675	0.196
676	0.196
676	0.196
676	0.196
677	0.196
677	0.196
678	0.196
678	0.195
679	0.195
679	0.195
680	0.195
680	0.195
680	0.195
681	0.195
681	0.196
682	0.196
682	0.197
683	0.197
683	0.198
684	0.199
684	0.199
684	0.199
685	0.199
685	0.2
686	0.199
686	0.199
687	0.199
687	0.199
687	0.199
688	0.199
688	0.198
689	0.199
689	0.199
690	0.199
690	0.198
691	0.198
691	0.198
691	0.199
692	0.198
692	0.198
693	0.199
693	0.199
694	0.199
694	0.199
695	0.199
695	0.2
695	0.2
696	0.2
696	0.2
697	0.2
697	0.2
698	0.2
698	0.199
698	0.199
699	0.199
699	0.199
700	0.199
700	0.2
701	0.2
701	0.2
702	0.2
702	0.201
702	0.201
703	0.201
703	0.201
704	0.201
704	0.201
705	0.201
705	0.201
705	0.201
706	0.201
706	0.202
707	0.202
707	0.202
708	0.202
708	0.203
709	0.203
709	0.203
709	0.202
710	0.202
710	0.203
711	0.203
711	0.202
712	0.202
712	0.202
713	0.202
713	0.201
713	0.201
714	0.201
714	0.2
715	0.2
715	0.199
716	0.199
716	0.199
716	0.199
717	0.198
717	0.198
718	0.198
718	0.198
719	0.198
719	0.199
720	0.199
720	0.2
720	0.2
721	0.201
721	0.202
722	0.202
722	0.203
723	0.203
723	0.203
723	0.204
724	0.203
724	0.203
725	0.203
725	0.202
726	0.202
726	0.202
727	0.201
727	0.201
727	0.201
728	0.201
728	0.201
729	0.201
729	0.201
730	0.202
730	0.202
730	0.202
731	0.203
731	0.203
732	0.204
732	0.204
733	0.204
733	0.204
734	0.204
734	0.205
734	0.205
735	0.206
735	0.206
736	0.205
736	0.206
737	0.205
737	0.206
737	0.206
738	0.205
738	0.204
739	0.204
739	0.204
740	0.204
740	0.204
741	0.204
741	0.204
741	0.204
742	0.204
742	0.205
743	0.206
743	0.207
744	0.208
744	0.209
744	0.209
745	0.209
745	0.209
746	0.21
746	0.21
747	0.21
747	0.21
748	0.21
748	0.21
748	0.21
749	0.209
749	0.209
750	0.209
750	0.208
751	0.208
751	0.208
751	0.208
752	0.207
752	0.206
753	0.205
753	0.205
754	0.205
754	0.205
754	0.205
755	0.206
755	0.206
756	0.206
756	0.205
757	0.205
757	0.205
758	0.206
758	0.206
758	0.207
759	0.208
759	0.207
760	0.208
760	0.208
761	0.208
761	0.209
761	0.21
762	0.21
762	0.21
763	0.21
763	0.21
764	0.21
764	0.209
764	0.209
765	0.209
765	0.209
766	0.209
766	0.209
767	0.209
767	0.208
768	0.207
768	0.207
768	0.207
769	0.207
769	0.207
770	0.208
770	0.208
771	0.208
771	0.209
771	0.21
772	0.211
772	0.212
773	0.212
773	0.212
774	0.213
774	0.213
775	0.214
775	0.214
775	0.214
776	0.214
776	0.214
777	0.214
777	0.214
778	0.214
778	0.213
778	0.214
779	0.214
779	0.214
780	0.214
780	0.213
781	0.213
781	0.213
781	0.213
782	0.213
782	0.214
783	0.214
783	0.214
784	0.214
784	0.215
784	0.215
785	0.216
785	0.216
786	0.217
786	0.217
787	0.217
787	0.217
788	0.216
788	0.215
788	0.215
789	0.214
789	0.213
790	0.213
790	0.212
791	0.212
791	0.212
791	0.211
792	0.212
792	0.213
793	0.213
793	0.213
794	0.213
794	0.213
794	0.213
795	0.214
795	0.214
796	0.214
796	0.215
797	0.214
797	0.215
797	0.215
798	0.215
798	0.216
799	0.216
799	0.216
800	0.216
800	0.215
801	0.215
801	0.215
801	0.215
802	0.215
802	0.216
803	0.216
803	0.216
804	0.216
804	0.217
804	0.217
805	0.217
805	0.216
806	0.216
806	0.216
807	0.215
807	0.215
807	0.215
808	0.215
808	0.215
809	0.215
809	0.216
810	0.216
810	0.217
810	0.217
811	0.218
811	0.219
812	0.22
812	0.22
813	0.22
813	0.221
813	0.221
814	0.221
814	0.222
815	0.223
815	0.223
816	0.223
816	0.223
817	0.222
817	0.222
817	0.222
818	0.222
818	0.222
819	0.222
819	0.221
820	0.22
820	0.22
820	0.22
821	0.22
821	0.22
822	0.22
822	0.22
823	0.22
823	0.22
823	0.221
824	0.221
824	0.222
825	0.223
825	0.223
826	0.224
826	0.223
826	0.224
827	0.224
827	0.224
828	0.225
828	0.225
829	0.225
829	0.225
829	0.225
830	0.225
830	0.226
831	0.227
831	0.227
832	0.227
832	0.227
832	0.227
833	0.227
833	0.227
834	0.227
834	0.227
835	0.227
835	0.227
835	0.227
836	0.226
836	0.226
837	0.226
837	0.226
838	0.226
838	0.225
839	0.225
839	0.224
839	0.223
840	0.221
840	0.22
841	0.22
841	0.219
842	0.218
842	0.218
842	0.217
843	0.217
843	0.216
844	0.216
844	0.215
845	0.215
845	0.215
845	0.215
846	0.215
846	0.215
847	0.215
847	0.215
848	0.216
848	0.216
848	0.217
849	0.218
849	0.219
850	0.22
850	0.22
851	0.221
851	0.221
851	0.221
852	0.221
852	0.221
853	0.221
853	0.22
854	0.22
854	0.221
854	0.221
855	0.221
855	0.222
856	0.222
856	0.222
857	0.223
857	0.223
857	0.223
858	0.223
858	0.223
859	0.222
859	0.222
860	0.221
860	0.22
860	0.219
861	0.219
861	0.219
862	0.218
862	0.218
863	0.218
863	0.218
863	0.218
864	0.218
864	0.218
865	0.219
865	0.219
866	0.219
866	0.219
866	0.219
867	0.219
867	0.22
868	0.221
868	0.221
869	0.222
869	0.223
869	0.223
870	0.224
870	0.224
871	0.225
871	0.225
872	0.225
872	0.225
872	0.224
873	0.224
873	0.223
874	0.223
874	0.222
875	0.222
875	0.221
875	0.22
876	0.22
876	0.219
877	0.219
877	0.219
878	0.218
878	0.218
878	0.218
879	0.218
879	0.218
880	0.219
880	0.219
881	0.219
881	0.219
881	0.219
882	0.219
882	0.219
883	0.219
883	0.219
884	0.219
884	0.219
884	0.219
885	0.219
885	0.218
886	0.218
886	0.218
887	0.217
887	0.216
887	0.215
888	0.215
888	0.214
889	0.213
889	0.213
890	0.213
890	0.213
890	0.212
891	0.212
891	0.212
892	0.212
892	0.212
893	0.212
893	0.212
893	0.212
894	0.212
894	0.212
895	0.212
895	0.212
895	0.212
896	0.213
896	0.213
897	0.213
897	0.213
898	0.213
898	0.213
898	0.213
899	0.212
899	0.212
900	0.212
900	0.211
901	0.211
901	0.21
901	0.21
902	0.209
902	0.209
903	0.208
903	0.208
904	0.207
904	0.206
904	0.206
905	0.206
905	0.206
906	0.205
906	0.205
907	0.205
907	0.206
907	0.206
908	0.206
908	0.206
909	0.206
909	0.205
910	0.205
910	0.205
910	0.204
911	0.203
911	0.203
912	0.202
912	0.202
913	0.202
913	0.201
913	0.201
914	0.201
914	0.201
915	0.201
915	0.201
916	0.201
916	0.201
916	0.2
917	0.2
917	0.2
918	0.199
918	0.199
918	0.199
919	0.199
919	0.199
920	0.198
920	0.198
921	0.198
921	0.198
921	0.197
922	0.197
922	0.197
923	0.198
923	0.198
924	0.198
924	0.199
924	0.199
925	0.2
925	0.201
926	0.201
926	0.201
927	0.202
927	0.202
927	0.202
928	0.201
928	0.201
929	0.201
929	0.2
930	0.199
930	0.199
930	0.198
931	0.197
931	0.197
932	0.196
932	0.196
933	0.195
933	0.195
933	0.194
934	0.194
934	0.193
935	0.193
935	0.193
935	0.192
936	0.192
936	0.191
937	0.191
937	0.19
938	0.19
938	0.19
938	0.189
939	0.188
939	0.187
940	0.187
940	0.187
941	0.186
941	0.186
941	0.186
942	0.186
942	0.185
943	0.185
943	0.185
944	0.185
944	0.185
944	0.185
945	0.185
945	0.185
946	0.185
946	0.185
946	0.185
947	0.186
947	0.186
948	0.186
948	0.186
949	0.185
949	0.185
949	0.185
950	0.184
950	0.184
951	0.184
951	0.183
952	0.182
952	0.182
952	0.181
953	0.181
953	0.181
954	0.18
954	0.18
955	0.18
955	0.179
955	0.179
956	0.178
956	0.178
957	0.178
957	0.177
957	0.177
958	0.176
958	0.176
959	0.175
959	0.175
960	0.175
960	0.174
960	0.174
961	0.173
961	0.173
962	0.173
962	0.172
963	0.172
963	0.172
963	0.172
964	0.172
964	0.173
965	0.173
965	0.173
966	0.173
966	0.174
966	0.174
967	0.174
967	0.174
968	0.174
968	0.174
968	0.174
969	0.173
969	0.172
970	0.172
970	0.171
971	0.17
971	0.169
971	0.168
972	0.168
972	0.167
973	0.167
973	0.167
974	0.167
974	0.167
974	0.167
975	0.167
975	0.167
976	0.168
976	0.168
976	0.169
977	0.169
977	0.169
978	0.169
978	0.168
979	0.168
979	0.168
979	0.167
980	0.167
980	0.166
981	0.165
981	0.164
982	0.163
982	0.163
982	0.162
983	0.162
983	0.162
984	0.161
984	0.161
984	0.161
985	0.161
985	0.161
986	0.161
986	0.161
987	0.161
987	0.16
987	0.16
988	0.16
988	0.159
989	0.159
989	0.158
990	0.158
990	0.157
990	0.157
991	0.156
991	0.155
992	0.155
992	0.154
992	0.152
993	0.151
993	0.15
994	0.149
994	0.148
995	0.147
995	0.146
995	0.145
996	0.145
996	0.145
997	0.145
997	0.146
997	0.146
998	0.147
998	0.148
999	0.149
999	0.15
1000	0.151
1000	0.151
1000	0.152
1001	0.152
1001	0.152
1002	0.152
1002	0.151
1003	0.151
1003	0.15
1003	0.149
1004	0.148
1004	0.147
1005	0.146
1005	0.145
1005	0.144
1006	0.143
1006	0.143
1007	0.142
1007	0.142
1008	0.142
1008	0.142
1008	0.142
1009	0.143
1009	0.143
1010	0.143
1010	0.144
1010	0.144
1011	0.144
1011	0.144
1012	0.144
1012	0.143
1013	0.143
1013	0.143
1013	0.142
1014	0.142
1014	0.141
1015	0.141
1015	0.141
1016	0.14
1016	0.14
1016	0.14
1017	0.14
1017	0.14
1018	0.14
1018	0.14
1018	0.14
1019	0.14
1019	0.14
1020	0.14
1020	0.14
1021	0.14
1021	0.14
1021	0.14
1022	0.141
1022	0.141
1023	0.141
1023	0.142
1023	0.142
1024	0.142
1024	0.142
1025	0.142
1025	0.143
1026	0.143
1026	0.142
1026	0.142
1027	0.142
1027	0.141
1028	0.141
1028	0.141
1028	0.14
1029	0.14
1029	0.14
1030	0.14
1030	0.14
1031	0.14
1031	0.14
1031	0.14
1032	0.14
1032	0.14
1033	0.14
1033	0.14
1033	0.14
1034	0.14
1034	0.139
1035	0.139
1035	0.138
1036	0.138
1036	0.138
1036	0.137
1037	0.137
1037	0.137
1038	0.136
1038	0.136
1039	0.136
1039	0.136
1039	0.136
1040	0.136
1040	0.136
1041	0.136
1041	0.136
1041	0.135
1042	0.135
1042	0.135
1043	0.135
1043	0.135
1044	0.135
1044	0.134
1044	0.134
1045	0.135
1045	0.134
1046	0.135
1046	0.135
1046	0.135
1047	0.135
1047	0.135
1048	0.135
1048	0.135
1049	0.135
1049	0.135
1049	0.134
1050	0.134
1050	0.133
1051	0.132
1051	0.132
1051	0.131
1052	0.13
1052	0.129
1053	0.128
1053	0.127
1053	0.126
1054	0.125
1054	0.124
1055	0.124
1055	0.123
1056	0.123
1056	0.122
1056	0.121
1057	0.121
1057	0.12
1058	0.12
1058	0.119
1058	0.118
1059	0.117
1059	0.117
1060	0.116
1060	0.116
1061	0.115
1061	0.114
1061	0.114
1062	0.114
1062	0.113
1063	0.113
1063	0.113
1063	0.113
1064	0.112
1064	0.112
1065	0.112
1065	0.111
1066	0.111
1066	0.111
1066	0.11
1067	0.11
1067	0.11
1068	0.109
1068	0.109
1068	0.109
1069	0.108
1069	0.107
1070	0.107
1070	0.106
1071	0.105
1071	0.105
1071	0.104
1072	0.104
1072	0.103
1073	0.102
1073	0.101
1073	0.101
1074	0.101
1074	0.101
1075	0.101
1075	0.101
1076	0.102
1076	0.102
1076	0.102
1077	0.102
1077	0.102
1078	0.102
1078	0.102
1078	0.102
1079	0.101
1079	0.101
1080	0.1
1080	0.099
1080	0.099
1081	0.098
1081	0.099
1082	0.099
1082	0.099
1083	0.098
1083	0.098
1083	0.098
1084	0.098
1084	0.098
1085	0.099
1085	0.098
1085	0.099
1086	0.098
1086	0.098
1087	0.097
1087	0.097
1088	0.097
1088	0.097
1088	0.096
1089	0.096
1089	0.095
1090	0.094
1090	0.094
1090	0.093
1091	0.093
1091	0.092
1092	0.092
1092	0.092
1092	0.092
1093	0.091
1093	0.091
1094	0.091
1094	0.091
1095	0.09
1095	0.09
1095	0.09
1096	0.089
1096	0.088
1097	0.087
1097	0.086
1097	0.086
1098	0.086
1098	0.084
1099	0.084
1099	0.082
1100	0.081
1100	0.079
1100	0.078
1101	0.076
1101	0.075
1102	0.074
1102	0.072
1102	0.069
1103	0.068
1103	0.068
1104	0.067
1104	0.067
1104	0.066
1105	0.064
1105	0.063
1106	0.062
1106	0.06
1107	0.06
1107	0.059
1107	0.059
1108	0.057
1108	0.056
1109	0.053
1109	0.054
1109	0.053
1110	0.054
1110	0.052
1111	0.055
1111	0.054
