Data from reversibility-20sec_Absorbance__4694__000000000004694.txt Node

Date: Wed Dec 06 14:17:45 CET 2023
User: Marek
Spectrometer: MAYP115816
Trigger mode: 0
Integration Time (sec): 2.000000E-1
Scans to average: 10
Electric dark correction enabled: true
Nonlinearity correction enabled: true
Boxcar width: 5
XAxis mode: Wavelengths
Number of Pixels in Spectrum: 2068
>>>>>Begin Spectral Data<<<<<
199	-0.241
199	-0.203
200	-0.128
200	-0.075
201	-0.044
201	-0.024
202	-0.008
202	0.003
203	0.011
203	0.017
204	0.033
204	0.048
205	0.062
205	0.069
205	0.067
206	0.067
206	0.066
207	0.066
207	0.067
208	0.065
208	0.063
209	0.064
209	0.062
210	0.058
210	0.056
211	0.059
211	0.061
212	0.058
212	0.062
213	0.064
213	0.066
213	0.066
214	0.07
214	0.072
215	0.077
215	0.08
216	0.079
216	0.079
217	0.083
217	0.085
218	0.083
218	0.088
219	0.093
219	0.094
220	0.097
220	0.096
221	0.096
221	0.097
221	0.102
222	0.108
222	0.109
223	0.113
223	0.115
224	0.121
224	0.127
225	0.134
225	0.145
226	0.154
226	0.168
227	0.179
227	0.184
228	0.202
228	0.218
229	0.236
229	0.258
229	0.282
230	0.307
230	0.335
231	0.368
231	0.405
232	0.442
232	0.491
233	0.535
233	0.584
234	0.633
234	0.681
235	0.735
235	0.787
236	0.84
236	0.89
236	0.942
237	0.995
237	1.045
238	1.091
238	1.138
239	1.187
239	1.234
240	1.272
240	1.31
241	1.344
241	1.379
242	1.413
242	1.445
243	1.471
243	1.495
243	1.522
244	1.542
244	1.562
245	1.582
245	1.602
246	1.623
246	1.641
247	1.654
247	1.667
248	1.684
248	1.698
249	1.707
249	1.718
250	1.727
250	1.736
250	1.743
251	1.747
251	1.751
252	1.757
252	1.761
253	1.762
253	1.762
254	1.763
254	1.764
255	1.763
255	1.764
256	1.764
256	1.762
257	1.762
257	1.759
258	1.759
258	1.76
258	1.76
259	1.76
259	1.759
260	1.758
260	1.759
261	1.76
261	1.763
262	1.764
262	1.767
263	1.769
263	1.768
264	1.768
264	1.769
265	1.771
265	1.772
265	1.771
266	1.771
266	1.772
267	1.77
267	1.77
268	1.768
268	1.769
269	1.771
269	1.769
270	1.768
270	1.766
271	1.763
271	1.764
272	1.76
272	1.759
272	1.757
273	1.754
273	1.751
274	1.746
274	1.741
275	1.736
275	1.732
276	1.726
276	1.718
277	1.712
277	1.702
278	1.692
278	1.681
278	1.669
279	1.656
279	1.64
280	1.621
280	1.598
281	1.572
281	1.541
282	1.508
282	1.474
283	1.439
283	1.404
284	1.369
284	1.334
285	1.302
285	1.271
285	1.243
286	1.218
286	1.196
287	1.176
287	1.158
288	1.143
288	1.131
289	1.12
289	1.11
290	1.102
290	1.094
291	1.088
291	1.082
292	1.076
292	1.071
292	1.067
293	1.062
293	1.058
294	1.054
294	1.05
295	1.047
295	1.043
296	1.039
296	1.036
297	1.033
297	1.029
298	1.026
298	1.023
298	1.02
299	1.017
299	1.014
300	1.011
300	1.008
301	1.005
301	1.002
302	1
302	0.997
303	0.994
303	0.991
304	0.989
304	0.986
305	0.983
305	0.98
305	0.978
306	0.975
306	0.972
307	0.969
307	0.966
308	0.963
308	0.96
309	0.957
309	0.954
310	0.951
310	0.948
311	0.944
311	0.941
311	0.938
312	0.935
312	0.931
313	0.927
313	0.923
314	0.919
314	0.914
315	0.91
315	0.906
316	0.902
316	0.897
317	0.892
317	0.887
318	0.883
318	0.878
318	0.873
319	0.867
319	0.862
320	0.857
320	0.851
321	0.845
321	0.839
322	0.833
322	0.827
323	0.821
323	0.814
324	0.808
324	0.801
324	0.795
325	0.788
325	0.782
326	0.775
326	0.768
327	0.762
327	0.755
328	0.748
328	0.742
329	0.734
329	0.728
330	0.72
330	0.713
330	0.706
331	0.7
331	0.693
332	0.686
332	0.679
333	0.672
333	0.665
334	0.659
334	0.652
335	0.646
335	0.639
336	0.632
336	0.626
336	0.62
337	0.613
337	0.607
338	0.601
338	0.595
339	0.589
339	0.583
340	0.578
340	0.572
341	0.567
341	0.561
342	0.556
342	0.551
342	0.546
343	0.541
343	0.536
344	0.531
344	0.526
345	0.521
345	0.517
346	0.512
346	0.508
347	0.504
347	0.499
348	0.495
348	0.491
348	0.487
349	0.483
349	0.48
350	0.476
350	0.473
351	0.47
351	0.466
352	0.463
352	0.46
353	0.457
353	0.454
354	0.451
354	0.448
354	0.445
355	0.442
355	0.439
356	0.436
356	0.433
357	0.43
357	0.427
358	0.424
358	0.422
359	0.419
359	0.417
360	0.415
360	0.413
360	0.411
361	0.409
361	0.407
362	0.406
362	0.404
363	0.402
363	0.4
364	0.398
364	0.396
365	0.394
365	0.392
366	0.39
366	0.389
366	0.387
367	0.385
367	0.383
368	0.381
368	0.38
369	0.378
369	0.376
370	0.375
370	0.373
371	0.372
371	0.37
372	0.369
372	0.367
372	0.366
373	0.365
373	0.364
374	0.363
374	0.362
375	0.361
375	0.36
376	0.359
376	0.358
377	0.356
377	0.355
378	0.354
378	0.353
378	0.352
379	0.351
379	0.35
380	0.349
380	0.348
381	0.347
381	0.347
382	0.346
382	0.345
383	0.344
383	0.344
383	0.343
384	0.342
384	0.341
385	0.341
385	0.34
386	0.34
386	0.339
387	0.338
387	0.338
388	0.337
388	0.336
389	0.336
389	0.335
389	0.334
390	0.334
390	0.333
391	0.333
391	0.332
392	0.332
392	0.331
393	0.331
393	0.33
394	0.33
394	0.33
394	0.329
395	0.329
395	0.328
396	0.328
396	0.327
397	0.327
397	0.326
398	0.326
398	0.325
399	0.325
399	0.324
400	0.323
400	0.323
400	0.323
401	0.322
401	0.322
402	0.321
402	0.321
403	0.32
403	0.32
404	0.32
404	0.319
405	0.319
405	0.319
405	0.318
406	0.318
406	0.317
407	0.317
407	0.316
408	0.316
408	0.315
409	0.315
409	0.315
410	0.314
410	0.314
411	0.314
411	0.314
411	0.313
412	0.313
412	0.313
413	0.312
413	0.312
414	0.311
414	0.311
415	0.311
415	0.31
416	0.31
416	0.309
416	0.309
417	0.309
417	0.308
418	0.308
418	0.308
419	0.307
419	0.307
420	0.307
420	0.306
421	0.306
421	0.305
421	0.305
422	0.305
422	0.304
423	0.304
423	0.304
424	0.303
424	0.303
425	0.303
425	0.302
426	0.302
426	0.302
427	0.301
427	0.301
427	0.301
428	0.301
428	0.301
429	0.3
429	0.3
430	0.3
430	0.299
431	0.299
431	0.299
432	0.299
432	0.299
432	0.299
433	0.298
433	0.298
434	0.298
434	0.298
435	0.298
435	0.298
436	0.298
436	0.297
437	0.297
437	0.297
437	0.297
438	0.297
438	0.296
439	0.296
439	0.296
440	0.296
440	0.296
441	0.295
441	0.295
442	0.295
442	0.295
442	0.295
443	0.295
443	0.295
444	0.295
444	0.294
445	0.294
445	0.294
446	0.294
446	0.293
447	0.293
447	0.293
447	0.293
448	0.293
448	0.293
449	0.293
449	0.293
450	0.293
450	0.293
451	0.293
451	0.293
452	0.293
452	0.293
452	0.293
453	0.293
453	0.293
454	0.293
454	0.293
455	0.293
455	0.293
456	0.293
456	0.293
457	0.292
457	0.292
458	0.293
458	0.293
458	0.293
459	0.293
459	0.293
460	0.293
460	0.293
461	0.293
461	0.293
462	0.293
462	0.293
463	0.293
463	0.293
463	0.293
464	0.293
464	0.293
465	0.293
465	0.293
466	0.293
466	0.294
467	0.294
467	0.294
467	0.294
468	0.295
468	0.295
469	0.295
469	0.296
470	0.297
470	0.297
471	0.298
471	0.298
472	0.298
472	0.299
472	0.299
473	0.3
473	0.3
474	0.301
474	0.301
475	0.302
475	0.302
476	0.302
476	0.303
477	0.304
477	0.304
477	0.305
478	0.305
478	0.306
479	0.306
479	0.307
480	0.307
480	0.308
481	0.309
481	0.309
482	0.31
482	0.311
482	0.311
483	0.312
483	0.313
484	0.314
484	0.315
485	0.315
485	0.316
486	0.317
486	0.318
487	0.318
487	0.319
487	0.32
488	0.321
488	0.322
489	0.323
489	0.324
490	0.326
490	0.327
491	0.328
491	0.33
492	0.331
492	0.332
492	0.334
493	0.335
493	0.336
494	0.338
494	0.339
495	0.34
495	0.341
496	0.343
496	0.344
496	0.346
497	0.347
497	0.348
498	0.35
498	0.351
499	0.352
499	0.354
500	0.356
500	0.357
501	0.359
501	0.36
501	0.361
502	0.362
502	0.363
503	0.365
503	0.366
504	0.368
504	0.369
505	0.37
505	0.371
506	0.372
506	0.374
506	0.375
507	0.376
507	0.377
508	0.378
508	0.379
509	0.381
509	0.382
510	0.384
510	0.385
511	0.386
511	0.388
511	0.389
512	0.391
512	0.392
513	0.393
513	0.393
514	0.394
514	0.395
515	0.396
515	0.396
515	0.397
516	0.398
516	0.398
517	0.399
517	0.399
518	0.4
518	0.4
519	0.4
519	0.4
520	0.401
520	0.401
520	0.401
521	0.401
521	0.401
522	0.401
522	0.401
523	0.401
523	0.4
524	0.4
524	0.4
524	0.4
525	0.399
525	0.398
526	0.398
526	0.397
527	0.396
527	0.396
528	0.395
528	0.394
529	0.393
529	0.392
529	0.391
530	0.39
530	0.389
531	0.388
531	0.387
532	0.386
532	0.384
533	0.382
533	0.381
533	0.379
534	0.378
534	0.376
535	0.375
535	0.373
536	0.371
536	0.37
537	0.368
537	0.366
538	0.364
538	0.362
538	0.36
539	0.359
539	0.357
540	0.355
540	0.353
541	0.351
541	0.349
542	0.347
542	0.345
542	0.343
543	0.341
543	0.339
544	0.336
544	0.334
545	0.332
545	0.33
546	0.328
546	0.325
547	0.323
547	0.321
547	0.319
548	0.316
548	0.314
549	0.312
549	0.31
550	0.307
550	0.305
551	0.302
551	0.3
551	0.298
552	0.295
552	0.293
553	0.291
553	0.289
554	0.287
554	0.285
555	0.282
555	0.28
556	0.278
556	0.275
556	0.274
557	0.272
557	0.27
558	0.268
558	0.266
559	0.264
559	0.262
560	0.26
560	0.258
560	0.256
561	0.254
561	0.252
562	0.25
562	0.247
563	0.245
563	0.243
564	0.241
564	0.238
564	0.237
565	0.235
565	0.233
566	0.231
566	0.23
567	0.228
567	0.226
568	0.225
568	0.223
568	0.222
569	0.22
569	0.219
570	0.217
570	0.215
571	0.213
571	0.212
572	0.21
572	0.209
573	0.207
573	0.206
573	0.204
574	0.203
574	0.202
575	0.2
575	0.199
576	0.198
576	0.196
577	0.195
577	0.193
577	0.192
578	0.191
578	0.189
579	0.189
579	0.188
580	0.186
580	0.184
581	0.182
581	0.181
581	0.18
582	0.18
582	0.179
583	0.178
583	0.177
584	0.175
584	0.173
585	0.172
585	0.171
585	0.17
586	0.169
586	0.168
587	0.167
587	0.165
588	0.164
588	0.163
589	0.162
589	0.161
590	0.161
590	0.16
590	0.16
591	0.159
591	0.158
592	0.157
592	0.155
593	0.154
593	0.153
594	0.152
594	0.151
594	0.15
595	0.149
595	0.148
596	0.147
596	0.146
597	0.147
597	0.147
598	0.146
598	0.146
598	0.145
599	0.145
599	0.144
600	0.143
600	0.143
601	0.142
601	0.142
602	0.141
602	0.14
602	0.139
603	0.138
603	0.138
604	0.138
604	0.137
605	0.137
605	0.137
606	0.136
606	0.134
606	0.133
607	0.133
607	0.132
608	0.131
608	0.13
609	0.129
609	0.128
610	0.128
610	0.127
610	0.126
611	0.126
611	0.126
612	0.125
612	0.125
613	0.125
613	0.125
614	0.124
614	0.123
614	0.123
615	0.122
615	0.122
616	0.121
616	0.121
617	0.12
617	0.119
618	0.119
618	0.118
618	0.118
619	0.118
619	0.117
620	0.117
620	0.117
621	0.116
621	0.116
622	0.115
622	0.115
622	0.114
623	0.113
623	0.113
624	0.113
624	0.112
625	0.111
625	0.111
626	0.111
626	0.11
626	0.11
627	0.109
627	0.109
628	0.109
628	0.108
629	0.108
629	0.108
630	0.107
630	0.107
630	0.107
631	0.106
631	0.106
632	0.105
632	0.105
633	0.105
633	0.104
634	0.104
634	0.104
634	0.104
635	0.103
635	0.103
636	0.103
636	0.103
637	0.102
637	0.102
638	0.102
638	0.101
638	0.101
639	0.1
639	0.1
640	0.099
640	0.099
641	0.099
641	0.098
642	0.098
642	0.098
642	0.098
643	0.098
643	0.098
644	0.098
644	0.097
645	0.097
645	0.096
646	0.096
646	0.096
646	0.096
647	0.095
647	0.094
648	0.093
648	0.093
649	0.092
649	0.092
650	0.092
650	0.092
650	0.092
651	0.091
651	0.091
652	0.091
652	0.091
653	0.092
653	0.093
653	0.1
654	0.081
654	0.066
655	0.063
655	0.063
656	0.063
656	0.063
657	0.063
657	0.063
657	0.063
658	0.062
658	0.054
659	0.067
659	0.085
660	0.091
660	0.091
661	0.091
661	0.09
661	0.09
662	0.09
662	0.09
663	0.089
663	0.089
664	0.089
664	0.089
665	0.088
665	0.088
665	0.088
666	0.087
666	0.087
667	0.087
667	0.087
668	0.087
668	0.087
669	0.087
669	0.087
669	0.088
670	0.088
670	0.088
671	0.088
671	0.087
672	0.087
672	0.086
672	0.085
673	0.085
673	0.085
674	0.084
674	0.084
675	0.084
675	0.083
676	0.084
676	0.084
676	0.083
677	0.083
677	0.083
678	0.083
678	0.082
679	0.082
679	0.082
680	0.081
680	0.081
680	0.08
681	0.08
681	0.08
682	0.081
682	0.081
683	0.082
683	0.082
684	0.082
684	0.082
684	0.082
685	0.082
685	0.083
686	0.083
686	0.083
687	0.082
687	0.082
687	0.082
688	0.082
688	0.082
689	0.082
689	0.082
690	0.082
690	0.081
691	0.081
691	0.081
691	0.081
692	0.08
692	0.08
693	0.079
693	0.079
694	0.079
694	0.079
695	0.079
695	0.081
695	0.081
696	0.08
696	0.08
697	0.081
697	0.081
698	0.081
698	0.08
698	0.08
699	0.081
699	0.08
700	0.079
700	0.079
701	0.079
701	0.078
702	0.078
702	0.078
702	0.077
703	0.077
703	0.076
704	0.076
704	0.076
705	0.076
705	0.075
705	0.075
706	0.075
706	0.075
707	0.075
707	0.075
708	0.076
708	0.076
709	0.076
709	0.075
709	0.075
710	0.075
710	0.075
711	0.075
711	0.075
712	0.075
712	0.075
713	0.075
713	0.075
713	0.074
714	0.074
714	0.073
715	0.073
715	0.072
716	0.071
716	0.071
716	0.07
717	0.069
717	0.069
718	0.069
718	0.069
719	0.069
719	0.069
720	0.07
720	0.07
720	0.07
721	0.07
721	0.071
722	0.071
722	0.071
723	0.071
723	0.071
723	0.071
724	0.071
724	0.07
725	0.07
725	0.069
726	0.068
726	0.068
727	0.067
727	0.067
727	0.067
728	0.067
728	0.067
729	0.067
729	0.067
730	0.067
730	0.068
730	0.068
731	0.069
731	0.069
732	0.07
732	0.07
733	0.07
733	0.07
734	0.07
734	0.07
734	0.07
735	0.07
735	0.07
736	0.069
736	0.068
737	0.068
737	0.068
737	0.067
738	0.066
738	0.065
739	0.065
739	0.064
740	0.064
740	0.064
741	0.065
741	0.065
741	0.064
742	0.064
742	0.065
743	0.065
743	0.066
744	0.066
744	0.066
744	0.066
745	0.066
745	0.065
746	0.065
746	0.065
747	0.065
747	0.065
748	0.065
748	0.065
748	0.064
749	0.064
749	0.064
750	0.064
750	0.064
751	0.064
751	0.064
751	0.064
752	0.063
752	0.062
753	0.061
753	0.061
754	0.06
754	0.059
754	0.059
755	0.059
755	0.059
756	0.058
756	0.057
757	0.057
757	0.058
758	0.058
758	0.058
758	0.059
759	0.059
759	0.059
760	0.059
760	0.059
761	0.059
761	0.06
761	0.06
762	0.06
762	0.06
763	0.06
763	0.059
764	0.058
764	0.058
764	0.057
765	0.057
765	0.056
766	0.056
766	0.056
767	0.056
767	0.055
768	0.054
768	0.054
768	0.055
769	0.055
769	0.055
770	0.055
770	0.056
771	0.056
771	0.056
771	0.056
772	0.056
772	0.057
773	0.056
773	0.056
774	0.056
774	0.056
775	0.055
775	0.055
775	0.055
776	0.054
776	0.055
777	0.055
777	0.055
778	0.055
778	0.055
778	0.055
779	0.055
779	0.054
780	0.054
780	0.053
781	0.053
781	0.052
781	0.052
782	0.051
782	0.051
783	0.052
783	0.052
784	0.052
784	0.052
784	0.053
785	0.054
785	0.054
786	0.055
786	0.056
787	0.056
787	0.056
788	0.056
788	0.055
788	0.055
789	0.054
789	0.054
790	0.054
790	0.053
791	0.052
791	0.051
791	0.05
792	0.05
792	0.049
793	0.049
793	0.048
794	0.047
794	0.047
794	0.046
795	0.046
795	0.046
796	0.046
796	0.046
797	0.046
797	0.046
797	0.046
798	0.047
798	0.047
799	0.047
799	0.047
800	0.047
800	0.046
801	0.046
801	0.047
801	0.047
802	0.047
802	0.047
803	0.047
803	0.048
804	0.048
804	0.048
804	0.048
805	0.048
805	0.048
806	0.047
806	0.047
807	0.047
807	0.047
807	0.047
808	0.047
808	0.047
809	0.047
809	0.048
810	0.048
810	0.049
810	0.049
811	0.05
811	0.05
812	0.051
812	0.051
813	0.05
813	0.05
813	0.05
814	0.049
814	0.049
815	0.049
815	0.048
816	0.048
816	0.047
817	0.046
817	0.046
817	0.046
818	0.046
818	0.046
819	0.046
819	0.045
820	0.045
820	0.045
820	0.045
821	0.045
821	0.045
822	0.045
822	0.045
823	0.046
823	0.046
823	0.047
824	0.048
824	0.049
825	0.05
825	0.051
826	0.052
826	0.052
826	0.052
827	0.052
827	0.052
828	0.052
828	0.052
829	0.051
829	0.051
829	0.05
830	0.049
830	0.049
831	0.049
831	0.049
832	0.048
832	0.048
832	0.049
833	0.049
833	0.049
834	0.049
834	0.049
835	0.049
835	0.049
835	0.049
836	0.049
836	0.049
837	0.049
837	0.049
838	0.049
838	0.049
839	0.049
839	0.048
839	0.047
840	0.047
840	0.046
841	0.045
841	0.044
842	0.043
842	0.042
842	0.042
843	0.041
843	0.04
844	0.039
844	0.039
845	0.038
845	0.038
845	0.038
846	0.038
846	0.037
847	0.037
847	0.037
848	0.037
848	0.037
848	0.037
849	0.037
849	0.038
850	0.038
850	0.039
851	0.039
851	0.039
851	0.04
852	0.04
852	0.04
853	0.039
853	0.039
854	0.039
854	0.039
854	0.04
855	0.04
855	0.04
856	0.04
856	0.041
857	0.042
857	0.042
857	0.043
858	0.043
858	0.043
859	0.043
859	0.043
860	0.043
860	0.043
860	0.043
861	0.043
861	0.043
862	0.043
862	0.042
863	0.042
863	0.042
863	0.042
864	0.042
864	0.042
865	0.042
865	0.042
866	0.042
866	0.041
866	0.042
867	0.042
867	0.042
868	0.043
868	0.043
869	0.043
869	0.043
869	0.042
870	0.042
870	0.041
871	0.041
871	0.041
872	0.041
872	0.04
872	0.04
873	0.04
873	0.04
874	0.039
874	0.04
875	0.04
875	0.04
875	0.041
876	0.041
876	0.041
877	0.042
877	0.042
878	0.043
878	0.043
878	0.044
879	0.044
879	0.044
880	0.044
880	0.044
881	0.044
881	0.043
881	0.043
882	0.042
882	0.042
883	0.041
883	0.04
884	0.04
884	0.039
884	0.039
885	0.038
885	0.038
886	0.037
886	0.037
887	0.037
887	0.036
887	0.036
888	0.035
888	0.035
889	0.035
889	0.035
890	0.035
890	0.036
890	0.036
891	0.036
891	0.036
892	0.036
892	0.037
893	0.037
893	0.037
893	0.037
894	0.037
894	0.036
895	0.036
895	0.037
895	0.037
896	0.037
896	0.038
897	0.038
897	0.039
898	0.039
898	0.04
898	0.04
899	0.041
899	0.041
900	0.042
900	0.042
901	0.043
901	0.043
901	0.043
902	0.043
902	0.043
903	0.043
903	0.042
904	0.042
904	0.041
904	0.041
905	0.04
905	0.039
906	0.038
906	0.038
907	0.037
907	0.037
907	0.037
908	0.037
908	0.036
909	0.036
909	0.036
910	0.036
910	0.036
910	0.036
911	0.036
911	0.036
912	0.036
912	0.036
913	0.036
913	0.036
913	0.036
914	0.036
914	0.036
915	0.037
915	0.037
916	0.037
916	0.037
916	0.038
917	0.038
917	0.038
918	0.038
918	0.037
918	0.037
919	0.037
919	0.037
920	0.036
920	0.036
921	0.035
921	0.035
921	0.034
922	0.034
922	0.034
923	0.034
923	0.034
924	0.034
924	0.034
924	0.034
925	0.035
925	0.035
926	0.035
926	0.036
927	0.036
927	0.036
927	0.037
928	0.037
928	0.037
929	0.037
929	0.038
930	0.038
930	0.038
930	0.038
931	0.038
931	0.039
932	0.039
932	0.039
933	0.039
933	0.038
933	0.038
934	0.037
934	0.037
935	0.036
935	0.036
935	0.035
936	0.035
936	0.034
937	0.033
937	0.033
938	0.033
938	0.032
938	0.032
939	0.032
939	0.032
940	0.032
940	0.032
941	0.032
941	0.033
941	0.033
942	0.034
942	0.034
943	0.035
943	0.035
944	0.036
944	0.037
944	0.037
945	0.038
945	0.038
946	0.039
946	0.039
946	0.039
947	0.039
947	0.038
948	0.038
948	0.037
949	0.036
949	0.035
949	0.035
950	0.034
950	0.034
951	0.033
951	0.033
952	0.032
952	0.032
952	0.032
953	0.032
953	0.031
954	0.031
954	0.031
955	0.031
955	0.03
955	0.03
956	0.03
956	0.03
957	0.03
957	0.03
957	0.03
958	0.03
958	0.03
959	0.03
959	0.03
960	0.031
960	0.031
960	0.031
961	0.032
961	0.032
962	0.033
962	0.033
963	0.033
963	0.033
963	0.034
964	0.034
964	0.034
965	0.034
965	0.035
966	0.035
966	0.035
966	0.035
967	0.036
967	0.036
968	0.036
968	0.037
968	0.036
969	0.036
969	0.036
970	0.035
970	0.034
971	0.033
971	0.032
971	0.031
972	0.03
972	0.029
973	0.028
973	0.027
974	0.027
974	0.027
974	0.027
975	0.027
975	0.028
976	0.029
976	0.03
976	0.031
977	0.032
977	0.033
978	0.033
978	0.034
979	0.035
979	0.035
979	0.036
980	0.036
980	0.035
981	0.035
981	0.034
982	0.034
982	0.034
982	0.034
983	0.033
983	0.033
984	0.033
984	0.033
984	0.032
985	0.032
985	0.032
986	0.032
986	0.032
987	0.032
987	0.032
987	0.031
988	0.031
988	0.031
989	0.031
989	0.031
990	0.031
990	0.031
990	0.031
991	0.031
991	0.031
992	0.031
992	0.031
992	0.031
993	0.03
993	0.03
994	0.029
994	0.028
995	0.028
995	0.027
995	0.027
996	0.027
996	0.026
997	0.026
997	0.027
997	0.027
998	0.028
998	0.028
999	0.029
999	0.03
1000	0.031
1000	0.031
1000	0.032
1001	0.032
1001	0.032
1002	0.032
1002	0.032
1003	0.032
1003	0.031
1003	0.031
1004	0.03
1004	0.029
1005	0.028
1005	0.027
1005	0.026
1006	0.025
1006	0.024
1007	0.024
1007	0.023
1008	0.022
1008	0.022
1008	0.022
1009	0.022
1009	0.022
1010	0.021
1010	0.021
1010	0.021
1011	0.021
1011	0.021
1012	0.021
1012	0.021
1013	0.02
1013	0.02
1013	0.02
1014	0.02
1014	0.019
1015	0.019
1015	0.019
1016	0.019
1016	0.019
1016	0.019
1017	0.019
1017	0.02
1018	0.02
1018	0.02
1018	0.021
1019	0.021
1019	0.021
1020	0.022
1020	0.022
1021	0.023
1021	0.023
1021	0.023
1022	0.024
1022	0.024
1023	0.024
1023	0.024
1023	0.025
1024	0.025
1024	0.025
1025	0.025
1025	0.025
1026	0.025
1026	0.025
1026	0.025
1027	0.026
1027	0.026
1028	0.026
1028	0.026
1028	0.027
1029	0.027
1029	0.027
1030	0.028
1030	0.028
1031	0.028
1031	0.028
1031	0.029
1032	0.029
1032	0.029
1033	0.029
1033	0.029
1033	0.029
1034	0.029
1034	0.029
1035	0.029
1035	0.028
1036	0.028
1036	0.028
1036	0.028
1037	0.027
1037	0.027
1038	0.026
1038	0.026
1039	0.026
1039	0.026
1039	0.026
1040	0.026
1040	0.026
1041	0.026
1041	0.026
1041	0.026
1042	0.026
1042	0.026
1043	0.026
1043	0.026
1044	0.026
1044	0.026
1044	0.026
1045	0.025
1045	0.025
1046	0.025
1046	0.025
1046	0.025
1047	0.026
1047	0.026
1048	0.026
1048	0.027
1049	0.027
1049	0.027
1049	0.027
1050	0.027
1050	0.026
1051	0.026
1051	0.026
1051	0.025
1052	0.024
1052	0.024
1053	0.023
1053	0.022
1053	0.021
1054	0.021
1054	0.02
1055	0.02
1055	0.019
1056	0.019
1056	0.018
1056	0.018
1057	0.017
1057	0.017
1058	0.016
1058	0.015
1058	0.015
1059	0.014
1059	0.014
1060	0.013
1060	0.013
1061	0.012
1061	0.012
1061	0.012
1062	0.012
1062	0.012
1063	0.012
1063	0.011
1063	0.011
1064	0.01
1064	0.011
1065	0.011
1065	0.01
1066	0.011
1066	0.01
1066	0.01
1067	0.01
1067	0.009
1068	0.009
1068	0.009
1068	0.01
1069	0.01
1069	0.009
1070	0.009
1070	0.009
1071	0.009
1071	0.009
1071	0.009
1072	0.009
1072	0.009
1073	0.009
1073	0.009
1073	0.009
1074	0.01
1074	0.01
1075	0.01
1075	0.01
1076	0.011
1076	0.011
1076	0.012
1077	0.012
1077	0.012
1078	0.012
1078	0.013
1078	0.013
1079	0.013
1079	0.013
1080	0.012
1080	0.012
1080	0.012
1081	0.012
1081	0.012
1082	0.012
1082	0.012
1083	0.012
1083	0.012
1083	0.012
1084	0.012
1084	0.013
1085	0.013
1085	0.013
1085	0.014
1086	0.014
1086	0.013
1087	0.013
1087	0.013
1088	0.013
1088	0.013
1088	0.013
1089	0.012
1089	0.012
1090	0.011
1090	0.011
1090	0.01
1091	0.01
1091	0.01
1092	0.01
1092	0.01
1092	0.01
1093	0.01
1093	0.01
1094	0.01
1094	0.01
1095	0.009
1095	0.009
1095	0.009
1096	0.008
1096	0.008
1097	0.007
1097	0.006
1097	0.006
1098	0.006
1098	0.005
1099	0.005
1099	0.004
1100	0.002
1100	0.001
1100	-0
1101	-0.002
1101	-0.003
1102	-0.004
1102	-0.005
1102	-0.007
1103	-0.007
1103	-0.009
1104	-0.009
1104	-0.009
1104	-0.009
1105	-0.01
1105	-0.012
1106	-0.013
1106	-0.015
1107	-0.015
1107	-0.016
1107	-0.018
1108	-0.018
1108	-0.02
1109	-0.022
1109	-0.023
1109	-0.024
1110	-0.022
1110	-0.024
1111	-0.023
1111	-0.026
