Data from reversibility-20sec_Absorbance__195__000000000000195.txt Node

Date: Tue Dec 05 13:18:06 CET 2023
User: Marek
Spectrometer: MAYP115816
Trigger mode: 0
Integration Time (sec): 2.000000E-1
Scans to average: 10
Electric dark correction enabled: true
Nonlinearity correction enabled: true
Boxcar width: 5
XAxis mode: Wavelengths
Number of Pixels in Spectrum: 2068
>>>>>Begin Spectral Data<<<<<
199	-0.212
199	-0.177
200	-0.113
200	-0.064
201	-0.036
201	-0.015
202	-0.003
202	0.003
203	0.011
203	0.012
204	0.027
204	0.038
205	0.049
205	0.054
205	0.052
206	0.052
206	0.05
207	0.052
207	0.054
208	0.051
208	0.051
209	0.053
209	0.052
210	0.051
210	0.051
211	0.052
211	0.054
212	0.055
212	0.056
213	0.057
213	0.058
213	0.059
214	0.063
214	0.064
215	0.067
215	0.067
216	0.07
216	0.07
217	0.073
217	0.075
218	0.076
218	0.083
219	0.088
219	0.09
220	0.09
220	0.093
221	0.095
221	0.096
221	0.099
222	0.103
222	0.106
223	0.111
223	0.115
224	0.117
224	0.124
225	0.132
225	0.141
226	0.15
226	0.161
227	0.168
227	0.179
228	0.193
228	0.207
229	0.224
229	0.249
229	0.27
230	0.298
230	0.326
231	0.358
231	0.396
232	0.439
232	0.482
233	0.525
233	0.576
234	0.624
234	0.676
235	0.725
235	0.774
236	0.826
236	0.878
236	0.929
237	0.979
237	1.023
238	1.071
238	1.116
239	1.164
239	1.203
240	1.245
240	1.282
241	1.319
241	1.354
242	1.386
242	1.416
243	1.45
243	1.476
243	1.5
244	1.521
244	1.545
245	1.561
245	1.584
246	1.602
246	1.617
247	1.631
247	1.646
248	1.659
248	1.672
249	1.682
249	1.689
250	1.697
250	1.707
250	1.709
251	1.712
251	1.714
252	1.719
252	1.719
253	1.719
253	1.716
254	1.715
254	1.716
255	1.714
255	1.713
256	1.713
256	1.713
257	1.713
257	1.71
258	1.71
258	1.71
258	1.711
259	1.712
259	1.711
260	1.711
260	1.712
261	1.713
261	1.714
262	1.716
262	1.717
263	1.719
263	1.72
264	1.72
264	1.721
265	1.722
265	1.721
265	1.722
266	1.721
266	1.722
267	1.721
267	1.722
268	1.722
268	1.721
269	1.724
269	1.722
270	1.72
270	1.72
271	1.718
271	1.716
272	1.713
272	1.71
272	1.706
273	1.7
273	1.694
274	1.687
274	1.682
275	1.674
275	1.668
276	1.661
276	1.654
277	1.647
277	1.638
278	1.627
278	1.616
278	1.603
279	1.588
279	1.568
280	1.546
280	1.517
281	1.483
281	1.446
282	1.407
282	1.367
283	1.329
283	1.291
284	1.254
284	1.218
285	1.184
285	1.153
285	1.126
286	1.102
286	1.081
287	1.063
287	1.047
288	1.034
288	1.022
289	1.012
289	1.005
290	0.998
290	0.992
291	0.987
291	0.983
292	0.979
292	0.975
292	0.972
293	0.969
293	0.967
294	0.964
294	0.961
295	0.959
295	0.957
296	0.955
296	0.952
297	0.95
297	0.947
298	0.945
298	0.943
298	0.941
299	0.939
299	0.937
300	0.935
300	0.933
301	0.931
301	0.929
302	0.927
302	0.925
303	0.923
303	0.921
304	0.919
304	0.917
305	0.915
305	0.913
305	0.91
306	0.908
306	0.906
307	0.904
307	0.902
308	0.899
308	0.897
309	0.894
309	0.892
310	0.889
310	0.887
311	0.884
311	0.881
311	0.878
312	0.875
312	0.872
313	0.869
313	0.865
314	0.862
314	0.858
315	0.854
315	0.85
316	0.846
316	0.842
317	0.838
317	0.833
318	0.828
318	0.823
318	0.818
319	0.813
319	0.808
320	0.803
320	0.797
321	0.791
321	0.785
322	0.779
322	0.773
323	0.767
323	0.761
324	0.755
324	0.748
324	0.742
325	0.735
325	0.729
326	0.723
326	0.716
327	0.709
327	0.703
328	0.696
328	0.69
329	0.683
329	0.676
330	0.669
330	0.662
330	0.656
331	0.649
331	0.642
332	0.635
332	0.628
333	0.622
333	0.615
334	0.608
334	0.602
335	0.595
335	0.589
336	0.582
336	0.575
336	0.569
337	0.563
337	0.557
338	0.551
338	0.545
339	0.539
339	0.533
340	0.528
340	0.522
341	0.517
341	0.511
342	0.506
342	0.501
342	0.496
343	0.491
343	0.486
344	0.481
344	0.476
345	0.472
345	0.467
346	0.463
346	0.459
347	0.455
347	0.45
348	0.447
348	0.443
348	0.439
349	0.435
349	0.432
350	0.428
350	0.425
351	0.422
351	0.419
352	0.416
352	0.413
353	0.41
353	0.407
354	0.404
354	0.401
354	0.398
355	0.396
355	0.393
356	0.39
356	0.387
357	0.384
357	0.381
358	0.378
358	0.376
359	0.373
359	0.371
360	0.369
360	0.367
360	0.365
361	0.363
361	0.362
362	0.361
362	0.359
363	0.357
363	0.355
364	0.353
364	0.351
365	0.35
365	0.348
366	0.346
366	0.344
366	0.343
367	0.341
367	0.339
368	0.338
368	0.336
369	0.335
369	0.333
370	0.332
370	0.33
371	0.329
371	0.328
372	0.326
372	0.325
372	0.324
373	0.323
373	0.322
374	0.321
374	0.32
375	0.319
375	0.318
376	0.317
376	0.316
377	0.315
377	0.313
378	0.312
378	0.311
378	0.31
379	0.31
379	0.308
380	0.308
380	0.307
381	0.306
381	0.305
382	0.304
382	0.304
383	0.303
383	0.302
383	0.302
384	0.301
384	0.3
385	0.3
385	0.299
386	0.298
386	0.298
387	0.297
387	0.296
388	0.296
388	0.295
389	0.294
389	0.294
389	0.293
390	0.293
390	0.292
391	0.292
391	0.291
392	0.291
392	0.291
393	0.29
393	0.289
394	0.289
394	0.289
394	0.288
395	0.287
395	0.287
396	0.286
396	0.286
397	0.285
397	0.285
398	0.284
398	0.284
399	0.284
399	0.283
400	0.283
400	0.282
400	0.282
401	0.282
401	0.281
402	0.281
402	0.28
403	0.28
403	0.279
404	0.279
404	0.279
405	0.279
405	0.279
405	0.278
406	0.278
406	0.277
407	0.277
407	0.277
408	0.276
408	0.276
409	0.275
409	0.275
410	0.274
410	0.274
411	0.274
411	0.273
411	0.273
412	0.273
412	0.273
413	0.272
413	0.272
414	0.272
414	0.271
415	0.271
415	0.271
416	0.271
416	0.27
416	0.27
417	0.269
417	0.269
418	0.269
418	0.268
419	0.268
419	0.268
420	0.268
420	0.267
421	0.267
421	0.267
421	0.267
422	0.266
422	0.266
423	0.266
423	0.265
424	0.265
424	0.265
425	0.264
425	0.264
426	0.264
426	0.264
427	0.263
427	0.263
427	0.263
428	0.263
428	0.262
429	0.262
429	0.262
430	0.262
430	0.262
431	0.261
431	0.261
432	0.261
432	0.261
432	0.261
433	0.261
433	0.261
434	0.261
434	0.261
435	0.261
435	0.261
436	0.261
436	0.261
437	0.26
437	0.26
437	0.26
438	0.26
438	0.259
439	0.259
439	0.259
440	0.259
440	0.259
441	0.258
441	0.258
442	0.258
442	0.258
442	0.258
443	0.258
443	0.258
444	0.258
444	0.258
445	0.258
445	0.258
446	0.258
446	0.258
447	0.257
447	0.257
447	0.257
448	0.257
448	0.257
449	0.257
449	0.257
450	0.257
450	0.256
451	0.256
451	0.256
452	0.256
452	0.257
452	0.257
453	0.257
453	0.257
454	0.257
454	0.256
455	0.256
455	0.256
456	0.256
456	0.256
457	0.256
457	0.256
458	0.256
458	0.256
458	0.256
459	0.256
459	0.256
460	0.256
460	0.256
461	0.256
461	0.255
462	0.255
462	0.255
463	0.255
463	0.255
463	0.255
464	0.256
464	0.255
465	0.255
465	0.255
466	0.256
466	0.256
467	0.256
467	0.256
467	0.257
468	0.257
468	0.257
469	0.257
469	0.257
470	0.258
470	0.258
471	0.258
471	0.258
472	0.259
472	0.259
472	0.259
473	0.26
473	0.26
474	0.26
474	0.26
475	0.261
475	0.261
476	0.262
476	0.262
477	0.263
477	0.263
477	0.264
478	0.264
478	0.265
479	0.265
479	0.266
480	0.266
480	0.267
481	0.267
481	0.268
482	0.268
482	0.268
482	0.269
483	0.27
483	0.271
484	0.271
484	0.272
485	0.273
485	0.273
486	0.273
486	0.274
487	0.275
487	0.276
487	0.277
488	0.277
488	0.278
489	0.279
489	0.281
490	0.282
490	0.283
491	0.284
491	0.285
492	0.286
492	0.287
492	0.288
493	0.289
493	0.29
494	0.291
494	0.292
495	0.293
495	0.294
496	0.295
496	0.297
496	0.298
497	0.299
497	0.3
498	0.302
498	0.303
499	0.304
499	0.305
500	0.306
500	0.308
501	0.309
501	0.31
501	0.311
502	0.312
502	0.313
503	0.315
503	0.316
504	0.317
504	0.318
505	0.319
505	0.321
506	0.322
506	0.323
506	0.324
507	0.325
507	0.326
508	0.327
508	0.328
509	0.329
509	0.33
510	0.331
510	0.332
511	0.333
511	0.334
511	0.335
512	0.336
512	0.337
513	0.338
513	0.339
514	0.34
514	0.341
515	0.342
515	0.343
515	0.343
516	0.344
516	0.345
517	0.345
517	0.346
518	0.346
518	0.347
519	0.347
519	0.347
520	0.347
520	0.348
520	0.348
521	0.348
521	0.348
522	0.348
522	0.348
523	0.348
523	0.348
524	0.348
524	0.348
524	0.348
525	0.349
525	0.348
526	0.348
526	0.348
527	0.348
527	0.347
528	0.347
528	0.346
529	0.346
529	0.345
529	0.344
530	0.343
530	0.342
531	0.341
531	0.34
532	0.339
532	0.339
533	0.338
533	0.337
533	0.336
534	0.335
534	0.334
535	0.333
535	0.332
536	0.331
536	0.33
537	0.329
537	0.327
538	0.326
538	0.324
538	0.323
539	0.322
539	0.32
540	0.319
540	0.318
541	0.316
541	0.314
542	0.313
542	0.311
542	0.31
543	0.308
543	0.307
544	0.306
544	0.304
545	0.303
545	0.302
546	0.3
546	0.299
547	0.297
547	0.296
547	0.294
548	0.293
548	0.291
549	0.29
549	0.288
550	0.286
550	0.285
551	0.283
551	0.281
551	0.279
552	0.278
552	0.276
553	0.274
553	0.273
554	0.271
554	0.269
555	0.267
555	0.266
556	0.264
556	0.263
556	0.261
557	0.26
557	0.259
558	0.258
558	0.257
559	0.256
559	0.254
560	0.253
560	0.252
560	0.25
561	0.249
561	0.248
562	0.246
562	0.245
563	0.243
563	0.241
564	0.24
564	0.238
564	0.237
565	0.235
565	0.234
566	0.233
566	0.231
567	0.23
567	0.229
568	0.228
568	0.227
568	0.226
569	0.225
569	0.224
570	0.222
570	0.221
571	0.22
571	0.219
572	0.218
572	0.217
573	0.216
573	0.215
573	0.214
574	0.213
574	0.212
575	0.211
575	0.21
576	0.209
576	0.208
577	0.207
577	0.206
577	0.206
578	0.205
578	0.204
579	0.203
579	0.202
580	0.201
580	0.2
581	0.199
581	0.198
581	0.197
582	0.197
582	0.196
583	0.196
583	0.195
584	0.193
584	0.192
585	0.191
585	0.19
585	0.189
586	0.188
586	0.187
587	0.186
587	0.185
588	0.184
588	0.183
589	0.182
589	0.181
590	0.181
590	0.18
590	0.18
591	0.18
591	0.179
592	0.178
592	0.178
593	0.177
593	0.176
594	0.176
594	0.175
594	0.174
595	0.174
595	0.173
596	0.172
596	0.172
597	0.171
597	0.171
598	0.171
598	0.17
598	0.17
599	0.169
599	0.168
600	0.168
600	0.167
601	0.167
601	0.166
602	0.165
602	0.164
602	0.163
603	0.163
603	0.163
604	0.162
604	0.162
605	0.161
605	0.161
606	0.161
606	0.16
606	0.16
607	0.159
607	0.159
608	0.158
608	0.157
609	0.157
609	0.156
610	0.156
610	0.155
610	0.155
611	0.155
611	0.155
612	0.154
612	0.154
613	0.154
613	0.153
614	0.153
614	0.152
614	0.152
615	0.152
615	0.151
616	0.151
616	0.151
617	0.15
617	0.15
618	0.149
618	0.149
618	0.148
619	0.148
619	0.148
620	0.148
620	0.147
621	0.147
621	0.146
622	0.146
622	0.145
622	0.145
623	0.145
623	0.145
624	0.145
624	0.144
625	0.144
625	0.143
626	0.143
626	0.143
626	0.143
627	0.142
627	0.141
628	0.141
628	0.14
629	0.139
629	0.138
630	0.138
630	0.137
630	0.137
631	0.137
631	0.137
632	0.137
632	0.137
633	0.137
633	0.137
634	0.138
634	0.138
634	0.138
635	0.138
635	0.138
636	0.137
636	0.137
637	0.137
637	0.136
638	0.136
638	0.136
638	0.135
639	0.135
639	0.134
640	0.134
640	0.133
641	0.133
641	0.133
642	0.132
642	0.132
642	0.132
643	0.132
643	0.132
644	0.132
644	0.132
645	0.131
645	0.131
646	0.131
646	0.131
646	0.131
647	0.131
647	0.131
648	0.131
648	0.13
649	0.13
649	0.13
650	0.13
650	0.13
650	0.13
651	0.13
651	0.129
652	0.129
652	0.129
653	0.13
653	0.131
653	0.136
654	0.108
654	0.088
655	0.088
655	0.089
656	0.089
656	0.089
657	0.089
657	0.09
657	0.09
658	0.088
658	0.081
659	0.101
659	0.128
660	0.131
660	0.13
661	0.13
661	0.13
661	0.129
662	0.129
662	0.128
663	0.128
663	0.128
664	0.127
664	0.127
665	0.127
665	0.127
665	0.127
666	0.127
666	0.127
667	0.127
667	0.127
668	0.127
668	0.127
669	0.127
669	0.127
669	0.127
670	0.127
670	0.127
671	0.126
671	0.126
672	0.125
672	0.125
672	0.125
673	0.125
673	0.124
674	0.124
674	0.124
675	0.124
675	0.124
676	0.124
676	0.124
676	0.125
677	0.125
677	0.125
678	0.125
678	0.125
679	0.125
679	0.125
680	0.125
680	0.125
680	0.125
681	0.125
681	0.125
682	0.126
682	0.126
683	0.127
683	0.127
684	0.127
684	0.127
684	0.127
685	0.127
685	0.127
686	0.127
686	0.127
687	0.127
687	0.126
687	0.126
688	0.126
688	0.125
689	0.125
689	0.125
690	0.125
690	0.125
691	0.125
691	0.125
691	0.125
692	0.125
692	0.125
693	0.126
693	0.126
694	0.126
694	0.126
695	0.127
695	0.128
695	0.128
696	0.128
696	0.128
697	0.128
697	0.128
698	0.128
698	0.128
698	0.128
699	0.128
699	0.127
700	0.127
700	0.127
701	0.127
701	0.126
702	0.126
702	0.126
702	0.126
703	0.126
703	0.126
704	0.125
704	0.125
705	0.125
705	0.125
705	0.125
706	0.125
706	0.125
707	0.125
707	0.125
708	0.125
708	0.125
709	0.125
709	0.125
709	0.125
710	0.125
710	0.125
711	0.125
711	0.125
712	0.125
712	0.125
713	0.126
713	0.126
713	0.126
714	0.126
714	0.126
715	0.126
715	0.126
716	0.125
716	0.126
716	0.125
717	0.125
717	0.125
718	0.125
718	0.125
719	0.125
719	0.125
720	0.126
720	0.126
720	0.127
721	0.127
721	0.128
722	0.128
722	0.128
723	0.128
723	0.128
723	0.128
724	0.128
724	0.128
725	0.127
725	0.126
726	0.126
726	0.126
727	0.125
727	0.125
727	0.125
728	0.125
728	0.126
729	0.126
729	0.126
730	0.126
730	0.126
730	0.127
731	0.127
731	0.127
732	0.127
732	0.127
733	0.126
733	0.126
734	0.126
734	0.126
734	0.126
735	0.127
735	0.126
736	0.126
736	0.126
737	0.126
737	0.126
737	0.126
738	0.126
738	0.125
739	0.125
739	0.125
740	0.125
740	0.125
741	0.125
741	0.125
741	0.125
742	0.125
742	0.125
743	0.126
743	0.126
744	0.127
744	0.127
744	0.127
745	0.127
745	0.127
746	0.127
746	0.128
747	0.128
747	0.128
748	0.128
748	0.128
748	0.128
749	0.128
749	0.128
750	0.128
750	0.127
751	0.127
751	0.127
751	0.127
752	0.126
752	0.126
753	0.126
753	0.126
754	0.127
754	0.127
754	0.127
755	0.128
755	0.128
756	0.127
756	0.127
757	0.126
757	0.126
758	0.125
758	0.125
758	0.125
759	0.125
759	0.124
760	0.124
760	0.124
761	0.124
761	0.125
761	0.125
762	0.125
762	0.126
763	0.126
763	0.125
764	0.125
764	0.125
764	0.125
765	0.125
765	0.124
766	0.124
766	0.123
767	0.123
767	0.122
768	0.122
768	0.122
768	0.122
769	0.122
769	0.121
770	0.121
770	0.122
771	0.122
771	0.122
771	0.122
772	0.122
772	0.122
773	0.122
773	0.123
774	0.123
774	0.123
775	0.123
775	0.123
775	0.123
776	0.123
776	0.123
777	0.123
777	0.123
778	0.123
778	0.122
778	0.122
779	0.121
779	0.12
780	0.12
780	0.119
781	0.118
781	0.118
781	0.118
782	0.117
782	0.117
783	0.117
783	0.118
784	0.118
784	0.118
784	0.118
785	0.118
785	0.118
786	0.119
786	0.119
787	0.119
787	0.119
788	0.118
788	0.118
788	0.117
789	0.117
789	0.116
790	0.116
790	0.116
791	0.115
791	0.115
791	0.114
792	0.114
792	0.113
793	0.113
793	0.113
794	0.112
794	0.111
794	0.111
795	0.11
795	0.11
796	0.11
796	0.11
797	0.109
797	0.109
797	0.109
798	0.109
798	0.109
799	0.109
799	0.108
800	0.108
800	0.107
801	0.107
801	0.107
801	0.107
802	0.107
802	0.106
803	0.106
803	0.106
804	0.107
804	0.107
804	0.107
805	0.108
805	0.108
806	0.108
806	0.108
807	0.108
807	0.108
807	0.108
808	0.108
808	0.108
809	0.108
809	0.108
810	0.107
810	0.107
810	0.107
811	0.107
811	0.107
812	0.107
812	0.107
813	0.106
813	0.106
813	0.106
814	0.106
814	0.106
815	0.106
815	0.106
816	0.106
816	0.105
817	0.105
817	0.104
817	0.104
818	0.103
818	0.103
819	0.102
819	0.101
820	0.1
820	0.099
820	0.098
821	0.097
821	0.096
822	0.096
822	0.095
823	0.095
823	0.095
823	0.096
824	0.096
824	0.097
825	0.098
825	0.098
826	0.099
826	0.099
826	0.099
827	0.099
827	0.099
828	0.099
828	0.098
829	0.098
829	0.098
829	0.098
830	0.097
830	0.097
831	0.098
831	0.097
832	0.097
832	0.097
832	0.097
833	0.097
833	0.096
834	0.096
834	0.096
835	0.095
835	0.095
835	0.095
836	0.095
836	0.095
837	0.094
837	0.094
838	0.093
838	0.092
839	0.091
839	0.09
839	0.089
840	0.088
840	0.086
841	0.085
841	0.084
842	0.084
842	0.083
842	0.083
843	0.082
843	0.082
844	0.082
844	0.082
845	0.082
845	0.081
845	0.081
846	0.081
846	0.08
847	0.08
847	0.081
848	0.081
848	0.081
848	0.081
849	0.081
849	0.082
850	0.082
850	0.082
851	0.082
851	0.082
851	0.081
852	0.08
852	0.08
853	0.079
853	0.078
854	0.078
854	0.077
854	0.078
855	0.078
855	0.078
856	0.078
856	0.079
857	0.079
857	0.079
857	0.079
858	0.079
858	0.079
859	0.078
859	0.077
860	0.076
860	0.076
860	0.075
861	0.075
861	0.074
862	0.074
862	0.073
863	0.073
863	0.073
863	0.073
864	0.072
864	0.072
865	0.072
865	0.071
866	0.071
866	0.07
866	0.07
867	0.069
867	0.069
868	0.069
868	0.069
869	0.069
869	0.069
869	0.069
870	0.07
870	0.07
871	0.071
871	0.071
872	0.071
872	0.072
872	0.072
873	0.072
873	0.071
874	0.071
874	0.071
875	0.07
875	0.07
875	0.07
876	0.069
876	0.069
877	0.069
877	0.068
878	0.069
878	0.069
878	0.07
879	0.07
879	0.07
880	0.07
880	0.07
881	0.069
881	0.069
881	0.069
882	0.068
882	0.067
883	0.066
883	0.065
884	0.064
884	0.063
884	0.061
885	0.06
885	0.058
886	0.057
886	0.056
887	0.055
887	0.054
887	0.054
888	0.053
888	0.052
889	0.052
889	0.052
890	0.052
890	0.053
890	0.053
891	0.054
891	0.055
892	0.055
892	0.056
893	0.057
893	0.058
893	0.059
894	0.059
894	0.06
895	0.06
895	0.06
895	0.06
896	0.06
896	0.06
897	0.059
897	0.058
898	0.058
898	0.057
898	0.057
899	0.057
899	0.056
900	0.056
900	0.056
901	0.056
901	0.056
901	0.055
902	0.055
902	0.055
903	0.054
903	0.054
904	0.053
904	0.053
904	0.052
905	0.052
905	0.051
906	0.051
906	0.051
907	0.051
907	0.051
907	0.052
908	0.052
908	0.052
909	0.052
909	0.052
910	0.053
910	0.053
910	0.052
911	0.052
911	0.052
912	0.051
912	0.051
913	0.05
913	0.05
913	0.05
914	0.049
914	0.049
915	0.048
915	0.048
916	0.048
916	0.047
916	0.047
917	0.046
917	0.046
918	0.045
918	0.045
918	0.045
919	0.044
919	0.044
920	0.044
920	0.044
921	0.044
921	0.045
921	0.045
922	0.045
922	0.046
923	0.047
923	0.047
924	0.048
924	0.048
924	0.049
925	0.049
925	0.049
926	0.049
926	0.049
927	0.049
927	0.048
927	0.048
928	0.047
928	0.047
929	0.047
929	0.046
930	0.046
930	0.046
930	0.045
931	0.045
931	0.045
932	0.045
932	0.045
933	0.045
933	0.045
933	0.045
934	0.044
934	0.044
935	0.044
935	0.044
935	0.044
936	0.044
936	0.043
937	0.043
937	0.043
938	0.043
938	0.042
938	0.042
939	0.042
939	0.042
940	0.042
940	0.042
941	0.042
941	0.042
941	0.043
942	0.043
942	0.043
943	0.043
943	0.043
944	0.043
944	0.043
944	0.043
945	0.043
945	0.043
946	0.043
946	0.042
946	0.042
947	0.042
947	0.041
948	0.041
948	0.04
949	0.039
949	0.039
949	0.038
950	0.038
950	0.038
951	0.037
951	0.037
952	0.037
952	0.036
952	0.036
953	0.036
953	0.035
954	0.035
954	0.035
955	0.034
955	0.034
955	0.034
956	0.034
956	0.034
957	0.034
957	0.034
957	0.034
958	0.034
958	0.034
959	0.034
959	0.034
960	0.034
960	0.034
960	0.034
961	0.034
961	0.034
962	0.034
962	0.034
963	0.034
963	0.034
963	0.035
964	0.035
964	0.035
965	0.036
965	0.036
966	0.037
966	0.038
966	0.038
967	0.039
967	0.039
968	0.04
968	0.04
968	0.04
969	0.04
969	0.04
970	0.04
970	0.04
971	0.039
971	0.039
971	0.039
972	0.039
972	0.038
973	0.038
973	0.037
974	0.037
974	0.037
974	0.037
975	0.037
975	0.037
976	0.037
976	0.037
976	0.037
977	0.037
977	0.036
978	0.036
978	0.036
979	0.036
979	0.036
979	0.036
980	0.035
980	0.035
981	0.034
981	0.034
982	0.034
982	0.034
982	0.033
983	0.033
983	0.033
984	0.033
984	0.033
984	0.033
985	0.033
985	0.033
986	0.033
986	0.032
987	0.032
987	0.032
987	0.031
988	0.031
988	0.03
989	0.03
989	0.029
990	0.029
990	0.028
990	0.028
991	0.027
991	0.027
992	0.027
992	0.026
992	0.026
993	0.025
993	0.025
994	0.024
994	0.024
995	0.024
995	0.023
995	0.023
996	0.023
996	0.024
997	0.024
997	0.025
997	0.026
998	0.027
998	0.028
999	0.029
999	0.03
1000	0.031
1000	0.032
1000	0.032
1001	0.033
1001	0.033
1002	0.033
1002	0.033
1003	0.033
1003	0.033
1003	0.033
1004	0.033
1004	0.032
1005	0.032
1005	0.031
1005	0.031
1006	0.031
1006	0.03
1007	0.03
1007	0.03
1008	0.03
1008	0.03
1008	0.03
1009	0.03
1009	0.03
1010	0.03
1010	0.03
1010	0.03
1011	0.03
1011	0.03
1012	0.03
1012	0.029
1013	0.029
1013	0.029
1013	0.028
1014	0.028
1014	0.027
1015	0.027
1015	0.027
1016	0.026
1016	0.026
1016	0.026
1017	0.025
1017	0.025
1018	0.025
1018	0.025
1018	0.025
1019	0.025
1019	0.025
1020	0.025
1020	0.025
1021	0.025
1021	0.025
1021	0.025
1022	0.025
1022	0.024
1023	0.024
1023	0.024
1023	0.023
1024	0.023
1024	0.023
1025	0.022
1025	0.022
1026	0.022
1026	0.021
1026	0.021
1027	0.02
1027	0.02
1028	0.02
1028	0.02
1028	0.019
1029	0.019
1029	0.019
1030	0.019
1030	0.018
1031	0.018
1031	0.018
1031	0.018
1032	0.018
1032	0.018
1033	0.018
1033	0.018
1033	0.018
1034	0.018
1034	0.018
1035	0.018
1035	0.018
1036	0.018
1036	0.019
1036	0.019
1037	0.019
1037	0.019
1038	0.019
1038	0.019
1039	0.019
1039	0.019
1039	0.019
1040	0.019
1040	0.019
1041	0.019
1041	0.019
1041	0.019
1042	0.019
1042	0.019
1043	0.019
1043	0.019
1044	0.019
1044	0.019
1044	0.02
1045	0.02
1045	0.02
1046	0.021
1046	0.021
1046	0.022
1047	0.022
1047	0.023
1048	0.023
1048	0.024
1049	0.024
1049	0.024
1049	0.024
1050	0.024
1050	0.023
1051	0.023
1051	0.023
1051	0.022
1052	0.021
1052	0.02
1053	0.019
1053	0.018
1053	0.018
1054	0.017
1054	0.017
1055	0.017
1055	0.016
1056	0.016
1056	0.016
1056	0.015
1057	0.015
1057	0.014
1058	0.014
1058	0.013
1058	0.013
1059	0.012
1059	0.012
1060	0.011
1060	0.011
1061	0.01
1061	0.01
1061	0.01
1062	0.01
1062	0.01
1063	0.01
1063	0.01
1063	0.01
1064	0.01
1064	0.01
1065	0.01
1065	0.01
1066	0.01
1066	0.01
1066	0.01
1067	0.009
1067	0.009
1068	0.009
1068	0.009
1068	0.008
1069	0.008
1069	0.007
1070	0.007
1070	0.006
1071	0.006
1071	0.005
1071	0.005
1072	0.005
1072	0.004
1073	0.003
1073	0.003
1073	0.003
1074	0.003
1074	0.003
1075	0.003
1075	0.003
1076	0.004
1076	0.004
1076	0.005
1077	0.006
1077	0.006
1078	0.006
1078	0.007
1078	0.007
1079	0.008
1079	0.008
1080	0.008
1080	0.008
1080	0.008
1081	0.008
1081	0.008
1082	0.008
1082	0.008
1083	0.008
1083	0.008
1083	0.008
1084	0.007
1084	0.007
1085	0.006
1085	0.006
1085	0.006
1086	0.006
1086	0.004
1087	0.004
1087	0.003
1088	0.003
1088	0.002
1088	0.002
1089	0.002
1089	0.001
1090	0.001
1090	0.001
1090	-0
1091	-0.001
1091	-0.001
1092	-0
1092	-0
1092	-0
1093	-0.001
1093	-0
1094	-0
1094	-0.001
1095	-0.001
1095	-0.001
1095	-0.001
1096	-0.002
1096	-0.003
1097	-0.004
1097	-0.004
1097	-0.004
1098	-0.005
1098	-0.006
1099	-0.006
1099	-0.007
1100	-0.008
1100	-0.009
1100	-0.01
1101	-0.011
1101	-0.012
1102	-0.012
1102	-0.013
1102	-0.014
1103	-0.015
1103	-0.015
1104	-0.016
1104	-0.015
1104	-0.015
1105	-0.015
1105	-0.017
1106	-0.018
1106	-0.02
1107	-0.021
1107	-0.021
1107	-0.022
1108	-0.023
1108	-0.024
1109	-0.026
1109	-0.027
1109	-0.028
1110	-0.026
1110	-0.028
1111	-0.029
1111	-0.028
