Data from reversibility-20sec_Absorbance__6516__000000000006516.txt Node

Date: Thu Dec 07 00:25:06 CET 2023
User: Marek
Spectrometer: MAYP115816
Trigger mode: 0
Integration Time (sec): 2.000000E-1
Scans to average: 10
Electric dark correction enabled: true
Nonlinearity correction enabled: true
Boxcar width: 5
XAxis mode: Wavelengths
Number of Pixels in Spectrum: 2068
>>>>>Begin Spectral Data<<<<<
199	-0.168
199	-0.142
200	-0.075
200	-0.028
201	0.001
201	0.019
202	0.03
202	0.038
203	0.046
203	0.047
204	0.061
204	0.072
205	0.082
205	0.086
205	0.084
206	0.084
206	0.084
207	0.083
207	0.082
208	0.079
208	0.08
209	0.081
209	0.082
210	0.082
210	0.083
211	0.085
211	0.085
212	0.081
212	0.085
213	0.089
213	0.091
213	0.092
214	0.095
214	0.095
215	0.097
215	0.095
216	0.096
216	0.094
217	0.1
217	0.098
218	0.097
218	0.101
219	0.106
219	0.107
220	0.11
220	0.11
221	0.113
221	0.117
221	0.125
222	0.13
222	0.137
223	0.144
223	0.15
224	0.155
224	0.163
225	0.172
225	0.183
226	0.195
226	0.205
227	0.215
227	0.227
228	0.243
228	0.258
229	0.273
229	0.296
229	0.319
230	0.343
230	0.373
231	0.405
231	0.44
232	0.478
232	0.52
233	0.562
233	0.61
234	0.659
234	0.711
235	0.764
235	0.819
236	0.872
236	0.922
236	0.973
237	1.023
237	1.071
238	1.118
238	1.166
239	1.212
239	1.256
240	1.293
240	1.328
241	1.363
241	1.398
242	1.431
242	1.464
243	1.492
243	1.517
243	1.541
244	1.561
244	1.581
245	1.6
245	1.622
246	1.639
246	1.658
247	1.67
247	1.684
248	1.699
248	1.713
249	1.723
249	1.733
250	1.741
250	1.751
250	1.755
251	1.762
251	1.765
252	1.773
252	1.775
253	1.776
253	1.776
254	1.775
254	1.776
255	1.774
255	1.774
256	1.775
256	1.776
257	1.777
257	1.775
258	1.775
258	1.775
258	1.774
259	1.775
259	1.774
260	1.775
260	1.775
261	1.774
261	1.775
262	1.775
262	1.775
263	1.777
263	1.778
264	1.779
264	1.78
265	1.779
265	1.781
265	1.781
266	1.781
266	1.779
267	1.778
267	1.781
268	1.779
268	1.779
269	1.778
269	1.778
270	1.778
270	1.776
271	1.774
271	1.774
272	1.772
272	1.771
272	1.768
273	1.765
273	1.762
274	1.758
274	1.754
275	1.749
275	1.743
276	1.737
276	1.73
277	1.724
277	1.714
278	1.703
278	1.693
278	1.68
279	1.666
279	1.651
280	1.631
280	1.608
281	1.581
281	1.549
282	1.515
282	1.479
283	1.443
283	1.407
284	1.372
284	1.336
285	1.302
285	1.271
285	1.242
286	1.216
286	1.194
287	1.174
287	1.156
288	1.141
288	1.127
289	1.116
289	1.105
290	1.097
290	1.089
291	1.082
291	1.076
292	1.07
292	1.064
292	1.06
293	1.055
293	1.051
294	1.046
294	1.042
295	1.038
295	1.035
296	1.031
296	1.027
297	1.024
297	1.021
298	1.017
298	1.014
298	1.01
299	1.008
299	1.005
300	1.001
300	0.998
301	0.995
301	0.992
302	0.989
302	0.986
303	0.983
303	0.98
304	0.977
304	0.974
305	0.971
305	0.969
305	0.966
306	0.963
306	0.961
307	0.958
307	0.955
308	0.952
308	0.949
309	0.946
309	0.943
310	0.939
310	0.936
311	0.933
311	0.93
311	0.926
312	0.922
312	0.918
313	0.915
313	0.911
314	0.907
314	0.903
315	0.899
315	0.894
316	0.889
316	0.885
317	0.88
317	0.875
318	0.87
318	0.864
318	0.859
319	0.854
319	0.848
320	0.843
320	0.837
321	0.831
321	0.825
322	0.819
322	0.813
323	0.806
323	0.8
324	0.793
324	0.786
324	0.779
325	0.772
325	0.766
326	0.759
326	0.752
327	0.745
327	0.738
328	0.732
328	0.725
329	0.718
329	0.711
330	0.704
330	0.697
330	0.689
331	0.682
331	0.675
332	0.668
332	0.661
333	0.654
333	0.647
334	0.64
334	0.634
335	0.627
335	0.621
336	0.614
336	0.607
336	0.601
337	0.595
337	0.589
338	0.583
338	0.577
339	0.571
339	0.565
340	0.559
340	0.553
341	0.547
341	0.542
342	0.536
342	0.531
342	0.526
343	0.52
343	0.515
344	0.51
344	0.505
345	0.5
345	0.496
346	0.491
346	0.487
347	0.482
347	0.478
348	0.474
348	0.47
348	0.466
349	0.462
349	0.459
350	0.455
350	0.451
351	0.448
351	0.444
352	0.441
352	0.438
353	0.435
353	0.432
354	0.429
354	0.426
354	0.423
355	0.42
355	0.416
356	0.413
356	0.411
357	0.407
357	0.404
358	0.401
358	0.399
359	0.396
359	0.394
360	0.392
360	0.39
360	0.388
361	0.386
361	0.384
362	0.383
362	0.381
363	0.379
363	0.377
364	0.375
364	0.373
365	0.371
365	0.369
366	0.368
366	0.366
366	0.364
367	0.362
367	0.36
368	0.358
368	0.357
369	0.355
369	0.354
370	0.352
370	0.351
371	0.349
371	0.348
372	0.346
372	0.345
372	0.344
373	0.343
373	0.341
374	0.34
374	0.339
375	0.338
375	0.337
376	0.336
376	0.335
377	0.334
377	0.333
378	0.332
378	0.331
378	0.33
379	0.329
379	0.328
380	0.327
380	0.326
381	0.325
381	0.325
382	0.324
382	0.323
383	0.322
383	0.322
383	0.321
384	0.32
384	0.319
385	0.319
385	0.318
386	0.318
386	0.317
387	0.316
387	0.316
388	0.315
388	0.315
389	0.314
389	0.313
389	0.313
390	0.312
390	0.312
391	0.311
391	0.311
392	0.31
392	0.31
393	0.309
393	0.309
394	0.309
394	0.308
394	0.308
395	0.307
395	0.307
396	0.306
396	0.306
397	0.305
397	0.304
398	0.304
398	0.304
399	0.303
399	0.303
400	0.302
400	0.302
400	0.301
401	0.301
401	0.3
402	0.3
402	0.3
403	0.299
403	0.299
404	0.298
404	0.298
405	0.297
405	0.297
405	0.297
406	0.296
406	0.296
407	0.296
407	0.295
408	0.295
408	0.295
409	0.294
409	0.294
410	0.294
410	0.293
411	0.293
411	0.293
411	0.292
412	0.292
412	0.291
413	0.291
413	0.291
414	0.29
414	0.29
415	0.29
415	0.289
416	0.289
416	0.289
416	0.288
417	0.288
417	0.288
418	0.287
418	0.287
419	0.287
419	0.286
420	0.286
420	0.285
421	0.285
421	0.284
421	0.284
422	0.283
422	0.283
423	0.283
423	0.283
424	0.282
424	0.282
425	0.282
425	0.282
426	0.281
426	0.281
427	0.281
427	0.281
427	0.28
428	0.28
428	0.28
429	0.279
429	0.279
430	0.279
430	0.278
431	0.278
431	0.278
432	0.278
432	0.278
432	0.277
433	0.277
433	0.277
434	0.277
434	0.277
435	0.277
435	0.277
436	0.277
436	0.276
437	0.276
437	0.276
437	0.276
438	0.276
438	0.275
439	0.275
439	0.275
440	0.275
440	0.275
441	0.275
441	0.274
442	0.274
442	0.274
442	0.274
443	0.273
443	0.273
444	0.273
444	0.273
445	0.273
445	0.273
446	0.273
446	0.272
447	0.272
447	0.272
447	0.272
448	0.272
448	0.272
449	0.271
449	0.271
450	0.271
450	0.271
451	0.271
451	0.271
452	0.271
452	0.272
452	0.272
453	0.271
453	0.271
454	0.271
454	0.271
455	0.271
455	0.271
456	0.271
456	0.271
457	0.271
457	0.271
458	0.271
458	0.271
458	0.271
459	0.271
459	0.271
460	0.271
460	0.271
461	0.271
461	0.271
462	0.271
462	0.272
463	0.272
463	0.271
463	0.272
464	0.271
464	0.271
465	0.271
465	0.272
466	0.272
466	0.272
467	0.272
467	0.272
467	0.273
468	0.273
468	0.273
469	0.274
469	0.274
470	0.275
470	0.275
471	0.275
471	0.275
472	0.276
472	0.276
472	0.277
473	0.277
473	0.277
474	0.278
474	0.278
475	0.278
475	0.278
476	0.279
476	0.279
477	0.28
477	0.28
477	0.281
478	0.281
478	0.281
479	0.282
479	0.282
480	0.283
480	0.284
481	0.284
481	0.284
482	0.285
482	0.286
482	0.286
483	0.287
483	0.288
484	0.289
484	0.289
485	0.29
485	0.29
486	0.29
486	0.291
487	0.292
487	0.293
487	0.293
488	0.294
488	0.295
489	0.296
489	0.298
490	0.299
490	0.3
491	0.302
491	0.303
492	0.304
492	0.305
492	0.306
493	0.307
493	0.309
494	0.31
494	0.311
495	0.312
495	0.313
496	0.314
496	0.315
496	0.317
497	0.318
497	0.319
498	0.32
498	0.321
499	0.322
499	0.324
500	0.325
500	0.326
501	0.328
501	0.329
501	0.33
502	0.331
502	0.332
503	0.334
503	0.335
504	0.336
504	0.337
505	0.339
505	0.339
506	0.34
506	0.341
506	0.343
507	0.344
507	0.345
508	0.346
508	0.347
509	0.348
509	0.349
510	0.35
510	0.351
511	0.352
511	0.353
511	0.354
512	0.355
512	0.356
513	0.357
513	0.358
514	0.359
514	0.36
515	0.361
515	0.361
515	0.362
516	0.363
516	0.364
517	0.364
517	0.365
518	0.365
518	0.365
519	0.365
519	0.366
520	0.366
520	0.366
520	0.366
521	0.366
521	0.366
522	0.366
522	0.366
523	0.365
523	0.365
524	0.365
524	0.365
524	0.365
525	0.365
525	0.364
526	0.363
526	0.363
527	0.362
527	0.361
528	0.361
528	0.36
529	0.359
529	0.359
529	0.358
530	0.356
530	0.355
531	0.354
531	0.353
532	0.352
532	0.351
533	0.349
533	0.348
533	0.347
534	0.345
534	0.344
535	0.342
535	0.341
536	0.34
536	0.338
537	0.337
537	0.335
538	0.334
538	0.332
538	0.33
539	0.329
539	0.327
540	0.326
540	0.324
541	0.322
541	0.321
542	0.319
542	0.317
542	0.315
543	0.313
543	0.311
544	0.309
544	0.308
545	0.306
545	0.304
546	0.302
546	0.3
547	0.297
547	0.295
547	0.293
548	0.291
548	0.289
549	0.287
549	0.285
550	0.283
550	0.281
551	0.279
551	0.277
551	0.274
552	0.273
552	0.271
553	0.269
553	0.267
554	0.265
554	0.263
555	0.26
555	0.258
556	0.256
556	0.254
556	0.253
557	0.251
557	0.249
558	0.248
558	0.246
559	0.244
559	0.242
560	0.241
560	0.239
560	0.237
561	0.236
561	0.234
562	0.232
562	0.23
563	0.228
563	0.226
564	0.224
564	0.223
564	0.221
565	0.22
565	0.218
566	0.217
566	0.215
567	0.214
567	0.212
568	0.21
568	0.209
568	0.207
569	0.205
569	0.204
570	0.201
570	0.2
571	0.198
571	0.197
572	0.195
572	0.193
573	0.192
573	0.191
573	0.189
574	0.188
574	0.187
575	0.186
575	0.186
576	0.185
576	0.183
577	0.182
577	0.18
577	0.179
578	0.178
578	0.177
579	0.176
579	0.175
580	0.174
580	0.172
581	0.171
581	0.17
581	0.169
582	0.169
582	0.168
583	0.167
583	0.167
584	0.165
584	0.163
585	0.162
585	0.161
585	0.16
586	0.159
586	0.158
587	0.157
587	0.156
588	0.155
588	0.154
589	0.153
589	0.152
590	0.152
590	0.151
590	0.151
591	0.15
591	0.149
592	0.148
592	0.147
593	0.147
593	0.146
594	0.145
594	0.144
594	0.143
595	0.142
595	0.141
596	0.14
596	0.14
597	0.14
597	0.139
598	0.138
598	0.138
598	0.137
599	0.137
599	0.136
600	0.135
600	0.135
601	0.134
601	0.133
602	0.132
602	0.132
602	0.131
603	0.13
603	0.13
604	0.13
604	0.129
605	0.129
605	0.128
606	0.128
606	0.127
606	0.126
607	0.126
607	0.125
608	0.125
608	0.124
609	0.123
609	0.123
610	0.122
610	0.121
610	0.121
611	0.121
611	0.12
612	0.12
612	0.12
613	0.12
613	0.119
614	0.119
614	0.118
614	0.118
615	0.117
615	0.117
616	0.116
616	0.116
617	0.115
617	0.115
618	0.114
618	0.114
618	0.114
619	0.114
619	0.114
620	0.114
620	0.114
621	0.114
621	0.113
622	0.112
622	0.112
622	0.111
623	0.11
623	0.11
624	0.11
624	0.109
625	0.108
625	0.107
626	0.107
626	0.107
626	0.107
627	0.106
627	0.106
628	0.105
628	0.105
629	0.105
629	0.104
630	0.104
630	0.103
630	0.103
631	0.103
631	0.102
632	0.101
632	0.101
633	0.101
633	0.101
634	0.101
634	0.101
634	0.101
635	0.101
635	0.1
636	0.1
636	0.1
637	0.1
637	0.1
638	0.099
638	0.099
638	0.098
639	0.098
639	0.097
640	0.097
640	0.097
641	0.096
641	0.096
642	0.096
642	0.096
642	0.096
643	0.096
643	0.096
644	0.096
644	0.096
645	0.096
645	0.095
646	0.095
646	0.095
646	0.095
647	0.094
647	0.094
648	0.093
648	0.092
649	0.092
649	0.092
650	0.091
650	0.091
650	0.091
651	0.091
651	0.091
652	0.09
652	0.09
653	0.091
653	0.092
653	0.098
654	0.079
654	0.064
655	0.062
655	0.062
656	0.062
656	0.063
657	0.063
657	0.063
657	0.063
658	0.062
658	0.055
659	0.069
659	0.087
660	0.092
660	0.092
661	0.092
661	0.091
661	0.091
662	0.09
662	0.09
663	0.089
663	0.089
664	0.089
664	0.088
665	0.088
665	0.087
665	0.087
666	0.087
666	0.087
667	0.087
667	0.088
668	0.088
668	0.088
669	0.088
669	0.089
669	0.089
670	0.089
670	0.089
671	0.089
671	0.088
672	0.087
672	0.087
672	0.086
673	0.086
673	0.085
674	0.085
674	0.084
675	0.084
675	0.084
676	0.084
676	0.084
676	0.084
677	0.084
677	0.085
678	0.084
678	0.084
679	0.083
679	0.083
680	0.083
680	0.082
680	0.082
681	0.081
681	0.081
682	0.081
682	0.081
683	0.081
683	0.082
684	0.082
684	0.082
684	0.082
685	0.082
685	0.083
686	0.083
686	0.083
687	0.083
687	0.083
687	0.083
688	0.083
688	0.082
689	0.083
689	0.083
690	0.083
690	0.082
691	0.082
691	0.082
691	0.082
692	0.082
692	0.082
693	0.082
693	0.082
694	0.081
694	0.081
695	0.081
695	0.082
695	0.082
696	0.082
696	0.082
697	0.082
697	0.082
698	0.081
698	0.081
698	0.081
699	0.082
699	0.081
700	0.08
700	0.08
701	0.08
701	0.08
702	0.08
702	0.08
702	0.08
703	0.08
703	0.079
704	0.079
704	0.079
705	0.079
705	0.079
705	0.079
706	0.079
706	0.079
707	0.079
707	0.079
708	0.079
708	0.079
709	0.079
709	0.078
709	0.078
710	0.078
710	0.078
711	0.078
711	0.078
712	0.078
712	0.078
713	0.078
713	0.078
713	0.078
714	0.077
714	0.077
715	0.076
715	0.075
716	0.075
716	0.074
716	0.074
717	0.073
717	0.073
718	0.072
718	0.072
719	0.072
719	0.072
720	0.073
720	0.073
720	0.073
721	0.073
721	0.074
722	0.074
722	0.074
723	0.074
723	0.074
723	0.074
724	0.074
724	0.074
725	0.073
725	0.072
726	0.072
726	0.071
727	0.071
727	0.07
727	0.07
728	0.07
728	0.07
729	0.07
729	0.07
730	0.07
730	0.07
730	0.071
731	0.071
731	0.072
732	0.073
732	0.073
733	0.073
733	0.073
734	0.074
734	0.074
734	0.074
735	0.074
735	0.074
736	0.073
736	0.073
737	0.073
737	0.072
737	0.072
738	0.071
738	0.071
739	0.07
739	0.07
740	0.069
740	0.069
741	0.069
741	0.068
741	0.068
742	0.068
742	0.068
743	0.069
743	0.069
744	0.07
744	0.07
744	0.07
745	0.07
745	0.07
746	0.07
746	0.07
747	0.07
747	0.07
748	0.069
748	0.069
748	0.069
749	0.069
749	0.069
750	0.069
750	0.068
751	0.068
751	0.068
751	0.068
752	0.067
752	0.066
753	0.066
753	0.065
754	0.065
754	0.064
754	0.064
755	0.064
755	0.065
756	0.064
756	0.063
757	0.063
757	0.064
758	0.064
758	0.064
758	0.064
759	0.064
759	0.063
760	0.063
760	0.062
761	0.062
761	0.062
761	0.062
762	0.062
762	0.062
763	0.062
763	0.061
764	0.061
764	0.061
764	0.061
765	0.061
765	0.061
766	0.061
766	0.061
767	0.061
767	0.06
768	0.059
768	0.06
768	0.06
769	0.06
769	0.06
770	0.061
770	0.061
771	0.061
771	0.062
771	0.062
772	0.063
772	0.063
773	0.064
773	0.064
774	0.064
774	0.064
775	0.064
775	0.064
775	0.064
776	0.065
776	0.065
777	0.065
777	0.066
778	0.066
778	0.065
778	0.065
779	0.065
779	0.065
780	0.064
780	0.064
781	0.063
781	0.062
781	0.062
782	0.062
782	0.061
783	0.062
783	0.062
784	0.061
784	0.061
784	0.061
785	0.061
785	0.061
786	0.061
786	0.061
787	0.06
787	0.059
788	0.058
788	0.057
788	0.056
789	0.055
789	0.055
790	0.054
790	0.054
791	0.053
791	0.053
791	0.053
792	0.054
792	0.054
793	0.054
793	0.054
794	0.054
794	0.054
794	0.054
795	0.054
795	0.054
796	0.054
796	0.054
797	0.054
797	0.054
797	0.055
798	0.055
798	0.055
799	0.055
799	0.055
800	0.054
800	0.054
801	0.054
801	0.054
801	0.053
802	0.054
802	0.054
803	0.054
803	0.054
804	0.054
804	0.054
804	0.054
805	0.054
805	0.054
806	0.054
806	0.054
807	0.053
807	0.053
807	0.054
808	0.054
808	0.054
809	0.054
809	0.055
810	0.055
810	0.055
810	0.055
811	0.055
811	0.056
812	0.056
812	0.056
813	0.055
813	0.055
813	0.055
814	0.055
814	0.055
815	0.055
815	0.055
816	0.055
816	0.054
817	0.054
817	0.053
817	0.053
818	0.053
818	0.053
819	0.052
819	0.051
820	0.051
820	0.05
820	0.05
821	0.05
821	0.05
822	0.05
822	0.049
823	0.049
823	0.049
823	0.05
824	0.051
824	0.052
825	0.052
825	0.053
826	0.054
826	0.054
826	0.054
827	0.055
827	0.055
828	0.056
828	0.056
829	0.056
829	0.056
829	0.056
830	0.056
830	0.056
831	0.057
831	0.057
832	0.057
832	0.057
832	0.057
833	0.056
833	0.056
834	0.056
834	0.055
835	0.054
835	0.053
835	0.053
836	0.052
836	0.051
837	0.051
837	0.05
838	0.05
838	0.049
839	0.049
839	0.048
839	0.048
840	0.047
840	0.047
841	0.046
841	0.046
842	0.045
842	0.045
842	0.045
843	0.044
843	0.044
844	0.043
844	0.043
845	0.042
845	0.042
845	0.041
846	0.041
846	0.041
847	0.041
847	0.041
848	0.042
848	0.042
848	0.043
849	0.044
849	0.044
850	0.045
850	0.045
851	0.046
851	0.046
851	0.046
852	0.046
852	0.046
853	0.046
853	0.045
854	0.045
854	0.046
854	0.046
855	0.046
855	0.046
856	0.046
856	0.047
857	0.047
857	0.048
857	0.048
858	0.049
858	0.048
859	0.048
859	0.048
860	0.048
860	0.048
860	0.047
861	0.047
861	0.046
862	0.046
862	0.045
863	0.044
863	0.044
863	0.043
864	0.042
864	0.042
865	0.042
865	0.042
866	0.041
866	0.041
866	0.042
867	0.042
867	0.043
868	0.044
868	0.045
869	0.045
869	0.046
869	0.046
870	0.046
870	0.046
871	0.046
871	0.046
872	0.046
872	0.046
872	0.046
873	0.046
873	0.045
874	0.045
874	0.045
875	0.045
875	0.045
875	0.045
876	0.045
876	0.044
877	0.044
877	0.044
878	0.044
878	0.044
878	0.044
879	0.044
879	0.045
880	0.045
880	0.045
881	0.045
881	0.045
881	0.045
882	0.044
882	0.044
883	0.044
883	0.044
884	0.045
884	0.045
884	0.045
885	0.044
885	0.044
886	0.044
886	0.043
887	0.043
887	0.042
887	0.042
888	0.041
888	0.041
889	0.04
889	0.04
890	0.04
890	0.04
890	0.04
891	0.04
891	0.04
892	0.04
892	0.041
893	0.041
893	0.041
893	0.04
894	0.04
894	0.04
895	0.04
895	0.04
895	0.04
896	0.04
896	0.041
897	0.041
897	0.041
898	0.041
898	0.041
898	0.041
899	0.041
899	0.041
900	0.041
900	0.041
901	0.041
901	0.041
901	0.04
902	0.04
902	0.04
903	0.039
903	0.039
904	0.039
904	0.039
904	0.039
905	0.038
905	0.038
906	0.038
906	0.038
907	0.038
907	0.039
907	0.039
908	0.039
908	0.039
909	0.039
909	0.039
910	0.039
910	0.039
910	0.039
911	0.039
911	0.039
912	0.039
912	0.039
913	0.038
913	0.038
913	0.038
914	0.038
914	0.038
915	0.038
915	0.038
916	0.038
916	0.038
916	0.037
917	0.037
917	0.037
918	0.036
918	0.036
918	0.036
919	0.035
919	0.035
920	0.035
920	0.035
921	0.035
921	0.035
921	0.035
922	0.035
922	0.035
923	0.036
923	0.036
924	0.037
924	0.037
924	0.038
925	0.038
925	0.039
926	0.039
926	0.04
927	0.041
927	0.041
927	0.041
928	0.041
928	0.042
929	0.042
929	0.042
930	0.042
930	0.042
930	0.042
931	0.042
931	0.042
932	0.042
932	0.042
933	0.042
933	0.042
933	0.042
934	0.042
934	0.042
935	0.042
935	0.042
935	0.041
936	0.041
936	0.04
937	0.039
937	0.038
938	0.037
938	0.037
938	0.036
939	0.035
939	0.034
940	0.034
940	0.034
941	0.034
941	0.034
941	0.035
942	0.035
942	0.036
943	0.036
943	0.036
944	0.036
944	0.037
944	0.037
945	0.037
945	0.037
946	0.037
946	0.037
946	0.037
947	0.037
947	0.037
948	0.037
948	0.037
949	0.036
949	0.036
949	0.036
950	0.036
950	0.036
951	0.036
951	0.036
952	0.036
952	0.036
952	0.036
953	0.037
953	0.037
954	0.037
954	0.037
955	0.037
955	0.038
955	0.038
956	0.038
956	0.039
957	0.039
957	0.039
957	0.039
958	0.039
958	0.04
959	0.04
959	0.04
960	0.04
960	0.04
960	0.041
961	0.041
961	0.041
962	0.041
962	0.041
963	0.042
963	0.042
963	0.042
964	0.042
964	0.042
965	0.042
965	0.042
966	0.042
966	0.042
966	0.042
967	0.042
967	0.042
968	0.042
968	0.041
968	0.041
969	0.04
969	0.039
970	0.038
970	0.037
971	0.036
971	0.035
971	0.035
972	0.034
972	0.033
973	0.033
973	0.033
974	0.033
974	0.033
974	0.034
975	0.034
975	0.035
976	0.036
976	0.037
976	0.037
977	0.037
977	0.037
978	0.038
978	0.037
979	0.037
979	0.037
979	0.037
980	0.037
980	0.036
981	0.036
981	0.036
982	0.036
982	0.035
982	0.035
983	0.035
983	0.035
984	0.035
984	0.035
984	0.035
985	0.035
985	0.035
986	0.035
986	0.035
987	0.035
987	0.036
987	0.036
988	0.036
988	0.036
989	0.036
989	0.036
990	0.036
990	0.036
990	0.036
991	0.036
991	0.035
992	0.035
992	0.034
992	0.033
993	0.032
993	0.031
994	0.03
994	0.03
995	0.029
995	0.028
995	0.028
996	0.028
996	0.028
997	0.029
997	0.029
997	0.03
998	0.03
998	0.031
999	0.032
999	0.033
1000	0.033
1000	0.034
1000	0.034
1001	0.034
1001	0.034
1002	0.034
1002	0.034
1003	0.033
1003	0.033
1003	0.032
1004	0.031
1004	0.03
1005	0.03
1005	0.029
1005	0.028
1006	0.027
1006	0.026
1007	0.026
1007	0.025
1008	0.025
1008	0.025
1008	0.025
1009	0.026
1009	0.026
1010	0.026
1010	0.027
1010	0.027
1011	0.027
1011	0.027
1012	0.027
1012	0.027
1013	0.027
1013	0.027
1013	0.027
1014	0.026
1014	0.026
1015	0.026
1015	0.026
1016	0.025
1016	0.025
1016	0.025
1017	0.025
1017	0.025
1018	0.025
1018	0.025
1018	0.025
1019	0.025
1019	0.025
1020	0.025
1020	0.025
1021	0.026
1021	0.026
1021	0.026
1022	0.026
1022	0.026
1023	0.027
1023	0.027
1023	0.027
1024	0.027
1024	0.028
1025	0.028
1025	0.028
1026	0.028
1026	0.028
1026	0.028
1027	0.028
1027	0.028
1028	0.028
1028	0.028
1028	0.028
1029	0.028
1029	0.029
1030	0.029
1030	0.029
1031	0.03
1031	0.03
1031	0.031
1032	0.031
1032	0.031
1033	0.032
1033	0.032
1033	0.032
1034	0.033
1034	0.033
1035	0.033
1035	0.033
1036	0.033
1036	0.032
1036	0.033
1037	0.032
1037	0.032
1038	0.032
1038	0.032
1039	0.031
1039	0.031
1039	0.031
1040	0.032
1040	0.032
1041	0.032
1041	0.032
1041	0.032
1042	0.032
1042	0.032
1043	0.032
1043	0.032
1044	0.032
1044	0.032
1044	0.031
1045	0.031
1045	0.031
1046	0.031
1046	0.031
1046	0.031
1047	0.031
1047	0.031
1048	0.032
1048	0.032
1049	0.032
1049	0.032
1049	0.032
1050	0.032
1050	0.032
1051	0.032
1051	0.032
1051	0.032
1052	0.031
1052	0.031
1053	0.03
1053	0.03
1053	0.029
1054	0.028
1054	0.028
1055	0.027
1055	0.027
1056	0.026
1056	0.025
1056	0.024
1057	0.024
1057	0.023
1058	0.022
1058	0.021
1058	0.021
1059	0.02
1059	0.02
1060	0.019
1060	0.019
1061	0.019
1061	0.019
1061	0.019
1062	0.018
1062	0.019
1063	0.019
1063	0.018
1063	0.018
1064	0.018
1064	0.018
1065	0.017
1065	0.017
1066	0.017
1066	0.017
1066	0.017
1067	0.017
1067	0.017
1068	0.016
1068	0.017
1068	0.017
1069	0.017
1069	0.017
1070	0.017
1070	0.017
1071	0.017
1071	0.017
1071	0.017
1072	0.017
1072	0.017
1073	0.016
1073	0.016
1073	0.016
1074	0.016
1074	0.016
1075	0.016
1075	0.017
1076	0.017
1076	0.018
1076	0.018
1077	0.018
1077	0.018
1078	0.018
1078	0.018
1078	0.018
1079	0.018
1079	0.018
1080	0.017
1080	0.017
1080	0.016
1081	0.016
1081	0.016
1082	0.016
1082	0.017
1083	0.016
1083	0.016
1083	0.017
1084	0.017
1084	0.017
1085	0.018
1085	0.018
1085	0.019
1086	0.019
1086	0.019
1087	0.019
1087	0.019
1088	0.019
1088	0.019
1088	0.02
1089	0.019
1089	0.018
1090	0.017
1090	0.017
1090	0.016
1091	0.016
1091	0.015
1092	0.016
1092	0.016
1092	0.015
1093	0.014
1093	0.015
1094	0.015
1094	0.014
1095	0.014
1095	0.013
1095	0.013
1096	0.013
1096	0.012
1097	0.011
1097	0.011
1097	0.011
1098	0.01
1098	0.009
1099	0.009
1099	0.008
1100	0.008
1100	0.007
1100	0.006
1101	0.005
1101	0.005
1102	0.004
1102	0.003
1102	0.002
1103	0.001
1103	0
1104	-0.001
1104	-0.002
1104	-0.003
1105	-0.004
1105	-0.007
1106	-0.008
1106	-0.009
1107	-0.009
1107	-0.011
1107	-0.012
1108	-0.013
1108	-0.014
1109	-0.015
1109	-0.015
1109	-0.016
1110	-0.014
1110	-0.013
1111	-0.015
1111	-0.018
