Data from reversibility-20sec_Absorbance__7660__000000000007660.txt Node

Date: Thu Dec 07 06:46:26 CET 2023
User: Marek
Spectrometer: MAYP115816
Trigger mode: 0
Integration Time (sec): 2.000000E-1
Scans to average: 10
Electric dark correction enabled: true
Nonlinearity correction enabled: true
Boxcar width: 5
XAxis mode: Wavelengths
Number of Pixels in Spectrum: 2068
>>>>>Begin Spectral Data<<<<<
199	-0.131
199	-0.109
200	-0.037
200	0.005
201	0.034
201	0.049
202	0.059
202	0.066
203	0.073
203	0.079
204	0.089
204	0.103
205	0.114
205	0.12
205	0.118
206	0.117
206	0.118
207	0.122
207	0.122
208	0.123
208	0.121
209	0.125
209	0.123
210	0.126
210	0.127
211	0.131
211	0.133
212	0.131
212	0.133
213	0.137
213	0.135
213	0.134
214	0.138
214	0.14
215	0.141
215	0.139
216	0.139
216	0.139
217	0.141
217	0.138
218	0.136
218	0.141
219	0.146
219	0.145
220	0.147
220	0.145
221	0.147
221	0.151
221	0.156
222	0.164
222	0.173
223	0.182
223	0.186
224	0.191
224	0.201
225	0.212
225	0.224
226	0.237
226	0.249
227	0.259
227	0.27
228	0.284
228	0.296
229	0.312
229	0.338
229	0.36
230	0.387
230	0.418
231	0.446
231	0.482
232	0.519
232	0.563
233	0.608
233	0.656
234	0.711
234	0.764
235	0.818
235	0.869
236	0.917
236	0.971
236	1.021
237	1.073
237	1.119
238	1.162
238	1.211
239	1.256
239	1.292
240	1.333
240	1.367
241	1.407
241	1.442
242	1.475
242	1.506
243	1.536
243	1.562
243	1.585
244	1.605
244	1.628
245	1.643
245	1.666
246	1.68
246	1.695
247	1.705
247	1.719
248	1.733
248	1.749
249	1.756
249	1.766
250	1.774
250	1.785
250	1.788
251	1.795
251	1.8
252	1.806
252	1.808
253	1.809
253	1.806
254	1.807
254	1.807
255	1.808
255	1.807
256	1.808
256	1.807
257	1.807
257	1.807
258	1.807
258	1.807
258	1.808
259	1.809
259	1.81
260	1.806
260	1.808
261	1.808
261	1.811
262	1.813
262	1.814
263	1.817
263	1.816
264	1.815
264	1.815
265	1.815
265	1.817
265	1.817
266	1.816
266	1.814
267	1.811
267	1.81
268	1.809
268	1.809
269	1.811
269	1.81
270	1.808
270	1.808
271	1.804
271	1.803
272	1.801
272	1.801
272	1.798
273	1.793
273	1.788
274	1.784
274	1.78
275	1.774
275	1.768
276	1.761
276	1.753
277	1.744
277	1.734
278	1.723
278	1.712
278	1.698
279	1.683
279	1.666
280	1.645
280	1.618
281	1.588
281	1.552
282	1.516
282	1.477
283	1.438
283	1.4
284	1.362
284	1.324
285	1.289
285	1.256
285	1.226
286	1.199
286	1.176
287	1.155
287	1.138
288	1.122
288	1.109
289	1.098
289	1.088
290	1.079
290	1.071
291	1.065
291	1.059
292	1.053
292	1.048
292	1.043
293	1.039
293	1.034
294	1.03
294	1.026
295	1.023
295	1.019
296	1.016
296	1.013
297	1.009
297	1.006
298	1.003
298	1
298	0.996
299	0.993
299	0.99
300	0.987
300	0.984
301	0.98
301	0.977
302	0.974
302	0.972
303	0.969
303	0.966
304	0.964
304	0.961
305	0.959
305	0.956
305	0.954
306	0.951
306	0.948
307	0.946
307	0.943
308	0.94
308	0.937
309	0.934
309	0.931
310	0.928
310	0.924
311	0.921
311	0.917
311	0.914
312	0.91
312	0.906
313	0.903
313	0.899
314	0.894
314	0.89
315	0.886
315	0.882
316	0.877
316	0.872
317	0.867
317	0.862
318	0.857
318	0.852
318	0.846
319	0.841
319	0.836
320	0.83
320	0.823
321	0.818
321	0.811
322	0.805
322	0.798
323	0.792
323	0.785
324	0.779
324	0.772
324	0.765
325	0.759
325	0.752
326	0.744
326	0.737
327	0.731
327	0.724
328	0.717
328	0.709
329	0.702
329	0.695
330	0.687
330	0.68
330	0.673
331	0.666
331	0.659
332	0.652
332	0.644
333	0.637
333	0.63
334	0.623
334	0.616
335	0.609
335	0.602
336	0.595
336	0.589
336	0.582
337	0.575
337	0.569
338	0.562
338	0.556
339	0.55
339	0.544
340	0.538
340	0.532
341	0.526
341	0.521
342	0.515
342	0.51
342	0.504
343	0.499
343	0.494
344	0.488
344	0.484
345	0.479
345	0.474
346	0.469
346	0.464
347	0.46
347	0.455
348	0.451
348	0.447
348	0.444
349	0.439
349	0.436
350	0.432
350	0.429
351	0.425
351	0.422
352	0.418
352	0.415
353	0.412
353	0.409
354	0.406
354	0.403
354	0.4
355	0.397
355	0.394
356	0.391
356	0.388
357	0.385
357	0.382
358	0.379
358	0.376
359	0.374
359	0.371
360	0.369
360	0.367
360	0.365
361	0.363
361	0.361
362	0.36
362	0.358
363	0.357
363	0.355
364	0.353
364	0.351
365	0.349
365	0.347
366	0.345
366	0.343
366	0.341
367	0.339
367	0.338
368	0.336
368	0.334
369	0.332
369	0.331
370	0.329
370	0.328
371	0.327
371	0.325
372	0.324
372	0.323
372	0.322
373	0.321
373	0.319
374	0.318
374	0.317
375	0.316
375	0.315
376	0.314
376	0.313
377	0.312
377	0.311
378	0.31
378	0.309
378	0.308
379	0.307
379	0.306
380	0.305
380	0.304
381	0.304
381	0.303
382	0.302
382	0.302
383	0.301
383	0.3
383	0.3
384	0.299
384	0.299
385	0.298
385	0.298
386	0.297
386	0.296
387	0.296
387	0.295
388	0.295
388	0.295
389	0.294
389	0.293
389	0.293
390	0.292
390	0.292
391	0.292
391	0.291
392	0.291
392	0.29
393	0.29
393	0.289
394	0.289
394	0.289
394	0.288
395	0.288
395	0.287
396	0.287
396	0.286
397	0.286
397	0.285
398	0.285
398	0.285
399	0.284
399	0.284
400	0.283
400	0.283
400	0.283
401	0.282
401	0.282
402	0.282
402	0.281
403	0.281
403	0.28
404	0.28
404	0.279
405	0.279
405	0.279
405	0.278
406	0.278
406	0.278
407	0.278
407	0.277
408	0.277
408	0.277
409	0.277
409	0.276
410	0.276
410	0.276
411	0.276
411	0.275
411	0.275
412	0.275
412	0.274
413	0.274
413	0.274
414	0.273
414	0.273
415	0.272
415	0.272
416	0.272
416	0.271
416	0.271
417	0.27
417	0.27
418	0.27
418	0.27
419	0.269
419	0.269
420	0.268
420	0.268
421	0.267
421	0.267
421	0.267
422	0.267
422	0.266
423	0.266
423	0.265
424	0.265
424	0.265
425	0.264
425	0.264
426	0.264
426	0.264
427	0.263
427	0.263
427	0.262
428	0.262
428	0.261
429	0.261
429	0.261
430	0.261
430	0.26
431	0.26
431	0.26
432	0.26
432	0.26
432	0.259
433	0.259
433	0.259
434	0.259
434	0.259
435	0.259
435	0.259
436	0.258
436	0.258
437	0.258
437	0.258
437	0.257
438	0.257
438	0.257
439	0.257
439	0.257
440	0.256
440	0.256
441	0.256
441	0.255
442	0.255
442	0.255
442	0.255
443	0.255
443	0.255
444	0.254
444	0.254
445	0.254
445	0.254
446	0.254
446	0.254
447	0.253
447	0.253
447	0.253
448	0.253
448	0.253
449	0.253
449	0.253
450	0.252
450	0.252
451	0.252
451	0.252
452	0.252
452	0.252
452	0.252
453	0.252
453	0.252
454	0.252
454	0.252
455	0.252
455	0.252
456	0.251
456	0.251
457	0.251
457	0.251
458	0.251
458	0.251
458	0.25
459	0.25
459	0.25
460	0.25
460	0.25
461	0.25
461	0.25
462	0.25
462	0.25
463	0.25
463	0.25
463	0.25
464	0.25
464	0.25
465	0.249
465	0.249
466	0.249
466	0.249
467	0.25
467	0.25
467	0.25
468	0.25
468	0.25
469	0.251
469	0.251
470	0.252
470	0.252
471	0.252
471	0.252
472	0.252
472	0.252
472	0.253
473	0.253
473	0.253
474	0.253
474	0.253
475	0.253
475	0.254
476	0.254
476	0.254
477	0.254
477	0.255
477	0.255
478	0.255
478	0.256
479	0.256
479	0.257
480	0.257
480	0.257
481	0.258
481	0.258
482	0.258
482	0.259
482	0.259
483	0.26
483	0.26
484	0.261
484	0.261
485	0.261
485	0.261
486	0.262
486	0.262
487	0.262
487	0.263
487	0.263
488	0.264
488	0.264
489	0.265
489	0.266
490	0.267
490	0.268
491	0.269
491	0.27
492	0.271
492	0.272
492	0.273
493	0.274
493	0.275
494	0.276
494	0.277
495	0.278
495	0.278
496	0.279
496	0.28
496	0.281
497	0.282
497	0.282
498	0.283
498	0.284
499	0.285
499	0.286
500	0.287
500	0.288
501	0.29
501	0.29
501	0.291
502	0.292
502	0.293
503	0.294
503	0.294
504	0.295
504	0.296
505	0.297
505	0.298
506	0.299
506	0.299
506	0.3
507	0.301
507	0.302
508	0.303
508	0.304
509	0.305
509	0.306
510	0.306
510	0.307
511	0.308
511	0.309
511	0.309
512	0.31
512	0.311
513	0.311
513	0.312
514	0.312
514	0.313
515	0.314
515	0.314
515	0.315
516	0.315
516	0.316
517	0.317
517	0.317
518	0.318
518	0.318
519	0.318
519	0.318
520	0.319
520	0.319
520	0.319
521	0.319
521	0.319
522	0.319
522	0.319
523	0.319
523	0.319
524	0.319
524	0.319
524	0.319
525	0.319
525	0.318
526	0.318
526	0.317
527	0.317
527	0.317
528	0.316
528	0.316
529	0.315
529	0.315
529	0.314
530	0.313
530	0.312
531	0.312
531	0.311
532	0.31
532	0.309
533	0.308
533	0.307
533	0.306
534	0.305
534	0.304
535	0.303
535	0.302
536	0.301
536	0.3
537	0.299
537	0.298
538	0.297
538	0.296
538	0.295
539	0.294
539	0.293
540	0.292
540	0.291
541	0.29
541	0.289
542	0.287
542	0.286
542	0.285
543	0.283
543	0.282
544	0.28
544	0.279
545	0.278
545	0.276
546	0.274
546	0.273
547	0.271
547	0.269
547	0.268
548	0.267
548	0.265
549	0.264
549	0.263
550	0.261
550	0.26
551	0.259
551	0.257
551	0.256
552	0.254
552	0.253
553	0.251
553	0.25
554	0.248
554	0.247
555	0.245
555	0.244
556	0.242
556	0.241
556	0.24
557	0.239
557	0.238
558	0.237
558	0.236
559	0.235
559	0.234
560	0.233
560	0.232
560	0.23
561	0.229
561	0.228
562	0.226
562	0.224
563	0.223
563	0.221
564	0.219
564	0.218
564	0.217
565	0.216
565	0.214
566	0.213
566	0.212
567	0.211
567	0.21
568	0.209
568	0.208
568	0.207
569	0.206
569	0.204
570	0.203
570	0.201
571	0.2
571	0.199
572	0.198
572	0.197
573	0.196
573	0.195
573	0.194
574	0.193
574	0.192
575	0.191
575	0.191
576	0.19
576	0.189
577	0.187
577	0.186
577	0.186
578	0.185
578	0.184
579	0.184
579	0.183
580	0.182
580	0.181
581	0.18
581	0.179
581	0.178
582	0.178
582	0.178
583	0.177
583	0.176
584	0.175
584	0.173
585	0.172
585	0.172
585	0.171
586	0.17
586	0.17
587	0.169
587	0.168
588	0.167
588	0.167
589	0.166
589	0.166
590	0.166
590	0.166
590	0.165
591	0.165
591	0.164
592	0.163
592	0.162
593	0.161
593	0.16
594	0.159
594	0.159
594	0.158
595	0.157
595	0.156
596	0.156
596	0.156
597	0.156
597	0.156
598	0.156
598	0.155
598	0.155
599	0.155
599	0.154
600	0.153
600	0.153
601	0.152
601	0.152
602	0.151
602	0.15
602	0.149
603	0.149
603	0.149
604	0.148
604	0.148
605	0.148
605	0.148
606	0.147
606	0.146
606	0.145
607	0.145
607	0.144
608	0.144
608	0.143
609	0.142
609	0.141
610	0.141
610	0.14
610	0.14
611	0.14
611	0.14
612	0.14
612	0.14
613	0.14
613	0.14
614	0.14
614	0.139
614	0.139
615	0.139
615	0.139
616	0.139
616	0.139
617	0.138
617	0.138
618	0.138
618	0.137
618	0.137
619	0.137
619	0.137
620	0.137
620	0.136
621	0.136
621	0.135
622	0.135
622	0.134
622	0.133
623	0.133
623	0.133
624	0.132
624	0.132
625	0.132
625	0.132
626	0.131
626	0.131
626	0.131
627	0.131
627	0.131
628	0.131
628	0.131
629	0.131
629	0.131
630	0.13
630	0.13
630	0.13
631	0.129
631	0.129
632	0.128
632	0.128
633	0.127
633	0.127
634	0.127
634	0.127
634	0.127
635	0.127
635	0.126
636	0.126
636	0.126
637	0.125
637	0.125
638	0.125
638	0.124
638	0.123
639	0.123
639	0.122
640	0.122
640	0.122
641	0.122
641	0.122
642	0.121
642	0.121
642	0.121
643	0.121
643	0.122
644	0.122
644	0.122
645	0.122
645	0.122
646	0.123
646	0.123
646	0.123
647	0.123
647	0.123
648	0.122
648	0.121
649	0.121
649	0.12
650	0.12
650	0.12
650	0.12
651	0.119
651	0.119
652	0.119
652	0.119
653	0.12
653	0.122
653	0.126
654	0.101
654	0.082
655	0.081
655	0.081
656	0.081
656	0.081
657	0.081
657	0.082
657	0.082
658	0.08
658	0.073
659	0.091
659	0.115
660	0.12
660	0.12
661	0.12
661	0.119
661	0.119
662	0.118
662	0.118
663	0.117
663	0.117
664	0.117
664	0.117
665	0.116
665	0.116
665	0.116
666	0.116
666	0.116
667	0.116
667	0.117
668	0.117
668	0.117
669	0.117
669	0.117
669	0.117
670	0.118
670	0.118
671	0.117
671	0.117
672	0.117
672	0.116
672	0.116
673	0.115
673	0.115
674	0.114
674	0.114
675	0.113
675	0.113
676	0.114
676	0.114
676	0.114
677	0.114
677	0.114
678	0.114
678	0.114
679	0.114
679	0.114
680	0.114
680	0.114
680	0.113
681	0.113
681	0.113
682	0.113
682	0.113
683	0.113
683	0.113
684	0.114
684	0.113
684	0.113
685	0.113
685	0.114
686	0.114
686	0.114
687	0.114
687	0.114
687	0.115
688	0.115
688	0.115
689	0.115
689	0.116
690	0.116
690	0.115
691	0.115
691	0.115
691	0.115
692	0.115
692	0.115
693	0.116
693	0.116
694	0.116
694	0.116
695	0.116
695	0.117
695	0.117
696	0.117
696	0.117
697	0.117
697	0.117
698	0.116
698	0.116
698	0.116
699	0.115
699	0.115
700	0.114
700	0.114
701	0.113
701	0.113
702	0.112
702	0.112
702	0.111
703	0.111
703	0.11
704	0.11
704	0.11
705	0.11
705	0.109
705	0.109
706	0.109
706	0.109
707	0.109
707	0.109
708	0.109
708	0.109
709	0.109
709	0.109
709	0.109
710	0.109
710	0.11
711	0.111
711	0.111
712	0.111
712	0.112
713	0.112
713	0.112
713	0.112
714	0.111
714	0.112
715	0.111
715	0.111
716	0.11
716	0.11
716	0.109
717	0.109
717	0.108
718	0.108
718	0.108
719	0.109
719	0.109
720	0.11
720	0.11
720	0.111
721	0.112
721	0.112
722	0.113
722	0.113
723	0.114
723	0.114
723	0.113
724	0.113
724	0.112
725	0.111
725	0.11
726	0.11
726	0.109
727	0.108
727	0.107
727	0.107
728	0.106
728	0.106
729	0.106
729	0.106
730	0.106
730	0.106
730	0.106
731	0.107
731	0.107
732	0.108
732	0.108
733	0.108
733	0.109
734	0.109
734	0.11
734	0.11
735	0.111
735	0.111
736	0.111
736	0.111
737	0.111
737	0.111
737	0.111
738	0.11
738	0.109
739	0.109
739	0.108
740	0.108
740	0.108
741	0.108
741	0.108
741	0.108
742	0.108
742	0.109
743	0.11
743	0.111
744	0.112
744	0.112
744	0.112
745	0.112
745	0.112
746	0.112
746	0.112
747	0.111
747	0.111
748	0.11
748	0.11
748	0.11
749	0.11
749	0.111
750	0.111
750	0.111
751	0.111
751	0.111
751	0.112
752	0.111
752	0.111
753	0.111
753	0.11
754	0.11
754	0.109
754	0.109
755	0.108
755	0.108
756	0.107
756	0.106
757	0.105
757	0.105
758	0.105
758	0.105
758	0.105
759	0.105
759	0.104
760	0.104
760	0.104
761	0.104
761	0.105
761	0.105
762	0.105
762	0.106
763	0.106
763	0.105
764	0.105
764	0.105
764	0.105
765	0.104
765	0.104
766	0.104
766	0.103
767	0.103
767	0.102
768	0.101
768	0.101
768	0.101
769	0.101
769	0.101
770	0.101
770	0.102
771	0.102
771	0.102
771	0.102
772	0.103
772	0.104
773	0.104
773	0.104
774	0.104
774	0.104
775	0.104
775	0.104
775	0.104
776	0.104
776	0.105
777	0.105
777	0.105
778	0.105
778	0.104
778	0.104
779	0.104
779	0.103
780	0.102
780	0.101
781	0.1
781	0.099
781	0.098
782	0.098
782	0.098
783	0.098
783	0.098
784	0.098
784	0.098
784	0.098
785	0.099
785	0.099
786	0.099
786	0.1
787	0.1
787	0.1
788	0.099
788	0.099
788	0.099
789	0.098
789	0.098
790	0.098
790	0.098
791	0.098
791	0.097
791	0.098
792	0.098
792	0.098
793	0.098
793	0.098
794	0.098
794	0.097
794	0.097
795	0.097
795	0.097
796	0.097
796	0.097
797	0.096
797	0.096
797	0.096
798	0.096
798	0.096
799	0.095
799	0.095
800	0.095
800	0.094
801	0.094
801	0.095
801	0.095
802	0.095
802	0.095
803	0.095
803	0.095
804	0.095
804	0.096
804	0.095
805	0.095
805	0.095
806	0.095
806	0.094
807	0.094
807	0.094
807	0.094
808	0.094
808	0.094
809	0.094
809	0.094
810	0.094
810	0.094
810	0.094
811	0.094
811	0.095
812	0.095
812	0.095
813	0.096
813	0.096
813	0.097
814	0.097
814	0.098
815	0.099
815	0.099
816	0.099
816	0.099
817	0.098
817	0.098
817	0.098
818	0.097
818	0.096
819	0.095
819	0.094
820	0.093
820	0.092
820	0.092
821	0.091
821	0.091
822	0.09
822	0.09
823	0.09
823	0.09
823	0.091
824	0.092
824	0.093
825	0.094
825	0.095
826	0.096
826	0.096
826	0.097
827	0.097
827	0.098
828	0.098
828	0.098
829	0.098
829	0.098
829	0.098
830	0.098
830	0.098
831	0.098
831	0.098
832	0.098
832	0.098
832	0.098
833	0.097
833	0.097
834	0.097
834	0.096
835	0.095
835	0.095
835	0.094
836	0.094
836	0.094
837	0.093
837	0.093
838	0.092
838	0.092
839	0.091
839	0.09
839	0.09
840	0.089
840	0.088
841	0.087
841	0.086
842	0.086
842	0.085
842	0.084
843	0.083
843	0.083
844	0.082
844	0.082
845	0.082
845	0.082
845	0.082
846	0.082
846	0.082
847	0.082
847	0.082
848	0.082
848	0.082
848	0.082
849	0.082
849	0.081
850	0.081
850	0.081
851	0.08
851	0.08
851	0.08
852	0.079
852	0.079
853	0.079
853	0.079
854	0.079
854	0.08
854	0.081
855	0.082
855	0.083
856	0.084
856	0.085
857	0.087
857	0.088
857	0.088
858	0.089
858	0.089
859	0.089
859	0.089
860	0.088
860	0.088
860	0.087
861	0.087
861	0.086
862	0.085
862	0.084
863	0.084
863	0.083
863	0.083
864	0.083
864	0.083
865	0.084
865	0.084
866	0.084
866	0.084
866	0.084
867	0.084
867	0.085
868	0.085
868	0.085
869	0.085
869	0.084
869	0.084
870	0.083
870	0.083
871	0.083
871	0.083
872	0.083
872	0.082
872	0.082
873	0.082
873	0.081
874	0.081
874	0.08
875	0.08
875	0.08
875	0.08
876	0.08
876	0.079
877	0.079
877	0.079
878	0.079
878	0.079
878	0.08
879	0.08
879	0.08
880	0.08
880	0.08
881	0.08
881	0.08
881	0.08
882	0.08
882	0.08
883	0.08
883	0.08
884	0.08
884	0.08
884	0.08
885	0.079
885	0.079
886	0.079
886	0.079
887	0.079
887	0.079
887	0.078
888	0.078
888	0.078
889	0.078
889	0.079
890	0.079
890	0.079
890	0.08
891	0.08
891	0.081
892	0.081
892	0.081
893	0.081
893	0.08
893	0.08
894	0.079
894	0.079
895	0.078
895	0.077
895	0.077
896	0.076
896	0.076
897	0.076
897	0.075
898	0.075
898	0.075
898	0.075
899	0.075
899	0.075
900	0.075
900	0.075
901	0.075
901	0.075
901	0.075
902	0.075
902	0.075
903	0.074
903	0.074
904	0.074
904	0.074
904	0.074
905	0.073
905	0.073
906	0.072
906	0.072
907	0.072
907	0.072
907	0.072
908	0.072
908	0.072
909	0.071
909	0.072
910	0.072
910	0.072
910	0.071
911	0.071
911	0.071
912	0.07
912	0.07
913	0.069
913	0.069
913	0.068
914	0.068
914	0.068
915	0.067
915	0.067
916	0.067
916	0.067
916	0.067
917	0.067
917	0.067
918	0.067
918	0.067
918	0.067
919	0.067
919	0.067
920	0.067
920	0.067
921	0.067
921	0.067
921	0.067
922	0.066
922	0.066
923	0.067
923	0.067
924	0.067
924	0.067
924	0.067
925	0.067
925	0.067
926	0.067
926	0.067
927	0.068
927	0.068
927	0.068
928	0.068
928	0.069
929	0.069
929	0.07
930	0.07
930	0.07
930	0.071
931	0.071
931	0.071
932	0.071
932	0.071
933	0.071
933	0.071
933	0.071
934	0.07
934	0.069
935	0.069
935	0.068
935	0.067
936	0.066
936	0.065
937	0.065
937	0.064
938	0.063
938	0.062
938	0.061
939	0.061
939	0.06
940	0.06
940	0.06
941	0.06
941	0.06
941	0.061
942	0.062
942	0.063
943	0.063
943	0.064
944	0.065
944	0.065
944	0.066
945	0.067
945	0.068
946	0.068
946	0.068
946	0.067
947	0.067
947	0.067
948	0.067
948	0.066
949	0.065
949	0.065
949	0.064
950	0.063
950	0.063
951	0.062
951	0.061
952	0.061
952	0.06
952	0.06
953	0.059
953	0.059
954	0.059
954	0.059
955	0.059
955	0.059
955	0.06
956	0.06
956	0.061
957	0.062
957	0.063
957	0.064
958	0.065
958	0.066
959	0.066
959	0.067
960	0.068
960	0.068
960	0.069
961	0.069
961	0.069
962	0.069
962	0.069
963	0.069
963	0.068
963	0.068
964	0.068
964	0.068
965	0.067
965	0.067
966	0.067
966	0.067
966	0.066
967	0.066
967	0.066
968	0.066
968	0.066
968	0.066
969	0.065
969	0.064
970	0.063
970	0.063
971	0.062
971	0.061
971	0.06
972	0.059
972	0.059
973	0.058
973	0.058
974	0.058
974	0.058
974	0.059
975	0.059
975	0.059
976	0.06
976	0.06
976	0.06
977	0.06
977	0.06
978	0.06
978	0.06
979	0.06
979	0.059
979	0.06
980	0.06
980	0.06
981	0.06
981	0.061
982	0.061
982	0.061
982	0.062
983	0.062
983	0.063
984	0.063
984	0.063
984	0.063
985	0.063
985	0.062
986	0.062
986	0.062
987	0.061
987	0.061
987	0.061
988	0.06
988	0.06
989	0.06
989	0.06
990	0.06
990	0.06
990	0.06
991	0.06
991	0.06
992	0.059
992	0.059
992	0.058
993	0.058
993	0.057
994	0.056
994	0.056
995	0.055
995	0.055
995	0.055
996	0.054
996	0.054
997	0.054
997	0.054
997	0.054
998	0.055
998	0.055
999	0.056
999	0.056
1000	0.057
1000	0.058
1000	0.058
1001	0.059
1001	0.059
1002	0.059
1002	0.059
1003	0.059
1003	0.059
1003	0.059
1004	0.058
1004	0.058
1005	0.057
1005	0.057
1005	0.056
1006	0.056
1006	0.056
1007	0.055
1007	0.054
1008	0.054
1008	0.054
1008	0.053
1009	0.053
1009	0.053
1010	0.053
1010	0.053
1010	0.052
1011	0.052
1011	0.051
1012	0.051
1012	0.051
1013	0.051
1013	0.05
1013	0.05
1014	0.05
1014	0.05
1015	0.05
1015	0.05
1016	0.05
1016	0.05
1016	0.05
1017	0.049
1017	0.049
1018	0.049
1018	0.049
1018	0.049
1019	0.049
1019	0.049
1020	0.049
1020	0.049
1021	0.05
1021	0.05
1021	0.051
1022	0.051
1022	0.052
1023	0.052
1023	0.052
1023	0.053
1024	0.053
1024	0.053
1025	0.053
1025	0.053
1026	0.053
1026	0.053
1026	0.053
1027	0.053
1027	0.053
1028	0.052
1028	0.052
1028	0.052
1029	0.052
1029	0.052
1030	0.052
1030	0.052
1031	0.052
1031	0.053
1031	0.053
1032	0.053
1032	0.053
1033	0.053
1033	0.053
1033	0.053
1034	0.053
1034	0.053
1035	0.053
1035	0.053
1036	0.053
1036	0.053
1036	0.053
1037	0.053
1037	0.053
1038	0.053
1038	0.053
1039	0.052
1039	0.052
1039	0.052
1040	0.052
1040	0.051
1041	0.051
1041	0.05
1041	0.05
1042	0.049
1042	0.049
1043	0.048
1043	0.048
1044	0.047
1044	0.047
1044	0.047
1045	0.046
1045	0.046
1046	0.046
1046	0.046
1046	0.046
1047	0.046
1047	0.046
1048	0.046
1048	0.046
1049	0.047
1049	0.047
1049	0.047
1050	0.047
1050	0.046
1051	0.046
1051	0.046
1051	0.046
1052	0.046
1052	0.046
1053	0.045
1053	0.044
1053	0.044
1054	0.044
1054	0.043
1055	0.043
1055	0.043
1056	0.043
1056	0.042
1056	0.042
1057	0.042
1057	0.042
1058	0.042
1058	0.041
1058	0.041
1059	0.041
1059	0.041
1060	0.04
1060	0.04
1061	0.04
1061	0.04
1061	0.04
1062	0.04
1062	0.04
1063	0.04
1063	0.04
1063	0.04
1064	0.04
1064	0.04
1065	0.04
1065	0.04
1066	0.041
1066	0.04
1066	0.04
1067	0.04
1067	0.04
1068	0.04
1068	0.04
1068	0.04
1069	0.04
1069	0.04
1070	0.04
1070	0.039
1071	0.039
1071	0.039
1071	0.039
1072	0.038
1072	0.038
1073	0.038
1073	0.037
1073	0.037
1074	0.037
1074	0.037
1075	0.038
1075	0.038
1076	0.038
1076	0.039
1076	0.039
1077	0.039
1077	0.04
1078	0.04
1078	0.04
1078	0.04
1079	0.04
1079	0.04
1080	0.039
1080	0.039
1080	0.038
1081	0.038
1081	0.037
1082	0.038
1082	0.038
1083	0.038
1083	0.037
1083	0.038
1084	0.037
1084	0.038
1085	0.038
1085	0.038
1085	0.038
1086	0.038
1086	0.038
1087	0.038
1087	0.038
1088	0.038
1088	0.037
1088	0.038
1089	0.037
1089	0.037
1090	0.037
1090	0.036
1090	0.036
1091	0.036
1091	0.036
1092	0.036
1092	0.036
1092	0.036
1093	0.036
1093	0.036
1094	0.036
1094	0.036
1095	0.036
1095	0.035
1095	0.035
1096	0.034
1096	0.033
1097	0.032
1097	0.031
1097	0.031
1098	0.03
1098	0.029
1099	0.028
1099	0.027
1100	0.026
1100	0.025
1100	0.025
1101	0.025
1101	0.024
1102	0.024
1102	0.024
1102	0.022
1103	0.022
1103	0.022
1104	0.022
1104	0.023
1104	0.023
1105	0.022
1105	0.021
1106	0.02
1106	0.019
1107	0.018
1107	0.018
1107	0.017
1108	0.016
1108	0.016
1109	0.014
1109	0.014
1109	0.015
1110	0.015
1110	0.013
1111	0.014
1111	0.01
