Data from reversibility-20sec_Absorbance__2270__000000000002270.txt Node

Date: Wed Dec 06 00:49:46 CET 2023
User: Marek
Spectrometer: MAYP115816
Trigger mode: 0
Integration Time (sec): 2.000000E-1
Scans to average: 10
Electric dark correction enabled: true
Nonlinearity correction enabled: true
Boxcar width: 5
XAxis mode: Wavelengths
Number of Pixels in Spectrum: 2068
>>>>>Begin Spectral Data<<<<<
199	-0.209
199	-0.176
200	-0.106
200	-0.056
201	-0.026
201	-0.005
202	0.007
202	0.018
203	0.025
203	0.03
204	0.044
204	0.059
205	0.074
205	0.08
205	0.08
206	0.08
206	0.079
207	0.081
207	0.079
208	0.079
208	0.08
209	0.08
209	0.079
210	0.077
210	0.077
211	0.077
211	0.081
212	0.08
212	0.083
213	0.085
213	0.087
213	0.085
214	0.091
214	0.092
215	0.094
215	0.096
216	0.097
216	0.094
217	0.098
217	0.1
218	0.103
218	0.107
219	0.112
219	0.113
220	0.114
220	0.115
221	0.114
221	0.118
221	0.123
222	0.128
222	0.129
223	0.133
223	0.135
224	0.14
224	0.148
225	0.158
225	0.171
226	0.182
226	0.194
227	0.205
227	0.216
228	0.23
228	0.246
229	0.265
229	0.288
229	0.309
230	0.332
230	0.357
231	0.39
231	0.428
232	0.466
232	0.511
233	0.558
233	0.606
234	0.655
234	0.709
235	0.762
235	0.815
236	0.87
236	0.924
236	0.975
237	1.028
237	1.076
238	1.128
238	1.18
239	1.234
239	1.276
240	1.321
240	1.362
241	1.402
241	1.438
242	1.473
242	1.508
243	1.542
243	1.57
243	1.595
244	1.618
244	1.646
245	1.666
245	1.692
246	1.713
246	1.733
247	1.747
247	1.766
248	1.782
248	1.799
249	1.812
249	1.823
250	1.835
250	1.85
250	1.858
251	1.868
251	1.876
252	1.887
252	1.891
253	1.895
253	1.896
254	1.899
254	1.904
255	1.904
255	1.904
256	1.904
256	1.903
257	1.905
257	1.905
258	1.907
258	1.909
258	1.91
259	1.911
259	1.912
260	1.913
260	1.915
261	1.917
261	1.922
262	1.924
262	1.925
263	1.928
263	1.93
264	1.934
264	1.935
265	1.937
265	1.94
265	1.941
266	1.943
266	1.945
267	1.945
267	1.948
268	1.949
268	1.952
269	1.955
269	1.954
270	1.955
270	1.953
271	1.951
271	1.953
272	1.952
272	1.953
272	1.95
273	1.943
273	1.939
274	1.933
274	1.93
275	1.924
275	1.92
276	1.913
276	1.904
277	1.896
277	1.886
278	1.877
278	1.867
278	1.853
279	1.837
279	1.817
280	1.793
280	1.763
281	1.728
281	1.689
282	1.647
282	1.606
283	1.564
283	1.522
284	1.481
284	1.442
285	1.405
285	1.371
285	1.341
286	1.314
286	1.291
287	1.269
287	1.251
288	1.235
288	1.222
289	1.21
289	1.2
290	1.192
290	1.184
291	1.177
291	1.171
292	1.165
292	1.16
292	1.155
293	1.151
293	1.147
294	1.143
294	1.139
295	1.135
295	1.132
296	1.128
296	1.125
297	1.122
297	1.118
298	1.115
298	1.112
298	1.109
299	1.106
299	1.103
300	1.099
300	1.096
301	1.094
301	1.09
302	1.087
302	1.084
303	1.082
303	1.079
304	1.077
304	1.074
305	1.071
305	1.068
305	1.065
306	1.063
306	1.06
307	1.057
307	1.054
308	1.051
308	1.048
309	1.045
309	1.042
310	1.038
310	1.034
311	1.031
311	1.027
311	1.024
312	1.02
312	1.017
313	1.012
313	1.008
314	1.004
314	1
315	0.995
315	0.991
316	0.987
316	0.982
317	0.977
317	0.972
318	0.967
318	0.961
318	0.956
319	0.95
319	0.945
320	0.939
320	0.933
321	0.926
321	0.92
322	0.914
322	0.907
323	0.9
323	0.894
324	0.887
324	0.88
324	0.873
325	0.866
325	0.86
326	0.853
326	0.846
327	0.839
327	0.832
328	0.825
328	0.818
329	0.811
329	0.803
330	0.796
330	0.789
330	0.782
331	0.775
331	0.767
332	0.76
332	0.753
333	0.746
333	0.739
334	0.732
334	0.725
335	0.719
335	0.712
336	0.705
336	0.698
336	0.692
337	0.685
337	0.679
338	0.672
338	0.666
339	0.66
339	0.654
340	0.648
340	0.642
341	0.636
341	0.63
342	0.625
342	0.619
342	0.614
343	0.608
343	0.603
344	0.598
344	0.593
345	0.588
345	0.583
346	0.579
346	0.574
347	0.57
347	0.565
348	0.561
348	0.557
348	0.553
349	0.549
349	0.545
350	0.542
350	0.538
351	0.535
351	0.531
352	0.528
352	0.524
353	0.521
353	0.518
354	0.515
354	0.512
354	0.509
355	0.506
355	0.502
356	0.5
356	0.497
357	0.494
357	0.491
358	0.488
358	0.486
359	0.483
359	0.481
360	0.478
360	0.476
360	0.474
361	0.472
361	0.47
362	0.468
362	0.466
363	0.463
363	0.461
364	0.459
364	0.457
365	0.455
365	0.453
366	0.451
366	0.449
366	0.447
367	0.445
367	0.443
368	0.441
368	0.44
369	0.438
369	0.436
370	0.435
370	0.433
371	0.431
371	0.43
372	0.428
372	0.427
372	0.425
373	0.424
373	0.423
374	0.422
374	0.42
375	0.419
375	0.418
376	0.417
376	0.415
377	0.414
377	0.413
378	0.412
378	0.411
378	0.41
379	0.409
379	0.407
380	0.406
380	0.405
381	0.404
381	0.403
382	0.403
382	0.402
383	0.401
383	0.4
383	0.399
384	0.398
384	0.397
385	0.396
385	0.396
386	0.395
386	0.394
387	0.393
387	0.392
388	0.392
388	0.391
389	0.39
389	0.39
389	0.389
390	0.388
390	0.387
391	0.387
391	0.386
392	0.386
392	0.385
393	0.384
393	0.384
394	0.384
394	0.383
394	0.382
395	0.382
395	0.381
396	0.381
396	0.38
397	0.379
397	0.379
398	0.378
398	0.378
399	0.377
399	0.376
400	0.376
400	0.375
400	0.374
401	0.374
401	0.373
402	0.373
402	0.373
403	0.372
403	0.371
404	0.371
404	0.371
405	0.37
405	0.37
405	0.369
406	0.369
406	0.368
407	0.367
407	0.367
408	0.366
408	0.366
409	0.365
409	0.365
410	0.365
410	0.364
411	0.364
411	0.363
411	0.363
412	0.363
412	0.362
413	0.362
413	0.362
414	0.361
414	0.361
415	0.36
415	0.36
416	0.359
416	0.359
416	0.359
417	0.358
417	0.358
418	0.358
418	0.357
419	0.356
419	0.356
420	0.355
420	0.355
421	0.354
421	0.354
421	0.354
422	0.353
422	0.353
423	0.353
423	0.352
424	0.351
424	0.351
425	0.351
425	0.351
426	0.35
426	0.35
427	0.349
427	0.349
427	0.349
428	0.349
428	0.348
429	0.348
429	0.348
430	0.348
430	0.347
431	0.347
431	0.347
432	0.347
432	0.347
432	0.346
433	0.346
433	0.346
434	0.346
434	0.346
435	0.346
435	0.345
436	0.345
436	0.345
437	0.345
437	0.345
437	0.345
438	0.345
438	0.345
439	0.345
439	0.344
440	0.344
440	0.344
441	0.344
441	0.343
442	0.343
442	0.343
442	0.343
443	0.342
443	0.342
444	0.342
444	0.342
445	0.342
445	0.342
446	0.342
446	0.341
447	0.341
447	0.341
447	0.341
448	0.341
448	0.341
449	0.341
449	0.34
450	0.34
450	0.34
451	0.34
451	0.34
452	0.34
452	0.34
452	0.34
453	0.34
453	0.34
454	0.34
454	0.34
455	0.34
455	0.34
456	0.34
456	0.34
457	0.34
457	0.34
458	0.34
458	0.34
458	0.34
459	0.34
459	0.34
460	0.34
460	0.34
461	0.34
461	0.34
462	0.34
462	0.34
463	0.341
463	0.341
463	0.341
464	0.341
464	0.341
465	0.341
465	0.341
466	0.341
466	0.342
467	0.342
467	0.342
467	0.342
468	0.342
468	0.343
469	0.343
469	0.344
470	0.344
470	0.345
471	0.345
471	0.346
472	0.346
472	0.347
472	0.347
473	0.348
473	0.348
474	0.349
474	0.349
475	0.349
475	0.35
476	0.35
476	0.351
477	0.352
477	0.352
477	0.353
478	0.353
478	0.354
479	0.354
479	0.355
480	0.356
480	0.356
481	0.357
481	0.358
482	0.358
482	0.359
482	0.36
483	0.361
483	0.363
484	0.364
484	0.364
485	0.365
485	0.366
486	0.367
486	0.368
487	0.369
487	0.37
487	0.371
488	0.372
488	0.372
489	0.374
489	0.376
490	0.377
490	0.379
491	0.38
491	0.382
492	0.383
492	0.384
492	0.386
493	0.387
493	0.389
494	0.391
494	0.392
495	0.393
495	0.395
496	0.396
496	0.398
496	0.4
497	0.401
497	0.402
498	0.404
498	0.405
499	0.406
499	0.408
500	0.41
500	0.411
501	0.413
501	0.414
501	0.415
502	0.417
502	0.419
503	0.421
503	0.422
504	0.423
504	0.425
505	0.426
505	0.428
506	0.429
506	0.431
506	0.432
507	0.433
507	0.435
508	0.436
508	0.437
509	0.438
509	0.44
510	0.441
510	0.443
511	0.444
511	0.445
511	0.447
512	0.448
512	0.449
513	0.45
513	0.451
514	0.452
514	0.453
515	0.454
515	0.454
515	0.455
516	0.455
516	0.456
517	0.457
517	0.458
518	0.459
518	0.459
519	0.46
519	0.46
520	0.46
520	0.461
520	0.461
521	0.461
521	0.461
522	0.46
522	0.46
523	0.46
523	0.46
524	0.459
524	0.459
524	0.459
525	0.458
525	0.457
526	0.457
526	0.456
527	0.456
527	0.455
528	0.454
528	0.453
529	0.452
529	0.451
529	0.449
530	0.448
530	0.447
531	0.445
531	0.444
532	0.442
532	0.441
533	0.439
533	0.437
533	0.436
534	0.434
534	0.433
535	0.431
535	0.429
536	0.428
536	0.425
537	0.423
537	0.421
538	0.419
538	0.417
538	0.414
539	0.412
539	0.41
540	0.408
540	0.405
541	0.403
541	0.401
542	0.399
542	0.396
542	0.394
543	0.392
543	0.389
544	0.387
544	0.384
545	0.382
545	0.38
546	0.377
546	0.374
547	0.371
547	0.368
547	0.366
548	0.363
548	0.361
549	0.358
549	0.356
550	0.354
550	0.351
551	0.349
551	0.346
551	0.344
552	0.342
552	0.339
553	0.337
553	0.334
554	0.332
554	0.329
555	0.326
555	0.323
556	0.32
556	0.318
556	0.315
557	0.313
557	0.311
558	0.308
558	0.306
559	0.304
559	0.301
560	0.299
560	0.297
560	0.295
561	0.293
561	0.291
562	0.288
562	0.286
563	0.283
563	0.281
564	0.279
564	0.277
564	0.275
565	0.273
565	0.271
566	0.269
566	0.267
567	0.265
567	0.263
568	0.261
568	0.259
568	0.258
569	0.256
569	0.254
570	0.252
570	0.25
571	0.248
571	0.246
572	0.244
572	0.243
573	0.241
573	0.239
573	0.237
574	0.235
574	0.234
575	0.232
575	0.231
576	0.23
576	0.228
577	0.226
577	0.225
577	0.223
578	0.222
578	0.221
579	0.22
579	0.219
580	0.217
580	0.215
581	0.213
581	0.212
581	0.212
582	0.211
582	0.21
583	0.209
583	0.208
584	0.206
584	0.203
585	0.202
585	0.201
585	0.199
586	0.198
586	0.196
587	0.195
587	0.193
588	0.192
588	0.19
589	0.189
589	0.189
590	0.188
590	0.187
590	0.186
591	0.186
591	0.184
592	0.183
592	0.182
593	0.181
593	0.18
594	0.179
594	0.178
594	0.177
595	0.176
595	0.175
596	0.174
596	0.174
597	0.174
597	0.173
598	0.172
598	0.172
598	0.171
599	0.171
599	0.17
600	0.169
600	0.168
601	0.167
601	0.166
602	0.165
602	0.163
602	0.162
603	0.161
603	0.161
604	0.16
604	0.16
605	0.159
605	0.159
606	0.158
606	0.157
606	0.157
607	0.156
607	0.155
608	0.155
608	0.154
609	0.153
609	0.152
610	0.151
610	0.15
610	0.149
611	0.149
611	0.149
612	0.148
612	0.148
613	0.148
613	0.148
614	0.147
614	0.146
614	0.146
615	0.145
615	0.145
616	0.144
616	0.143
617	0.143
617	0.142
618	0.142
618	0.141
618	0.141
619	0.141
619	0.142
620	0.142
620	0.141
621	0.14
621	0.14
622	0.139
622	0.138
622	0.137
623	0.136
623	0.136
624	0.135
624	0.134
625	0.133
625	0.132
626	0.132
626	0.131
626	0.131
627	0.131
627	0.13
628	0.13
628	0.129
629	0.129
629	0.128
630	0.128
630	0.127
630	0.127
631	0.127
631	0.127
632	0.126
632	0.126
633	0.126
633	0.126
634	0.125
634	0.125
634	0.125
635	0.124
635	0.124
636	0.123
636	0.123
637	0.123
637	0.122
638	0.122
638	0.121
638	0.12
639	0.12
639	0.119
640	0.119
640	0.118
641	0.118
641	0.117
642	0.117
642	0.117
642	0.117
643	0.116
643	0.116
644	0.116
644	0.116
645	0.116
645	0.116
646	0.116
646	0.116
646	0.115
647	0.115
647	0.115
648	0.114
648	0.113
649	0.113
649	0.113
650	0.113
650	0.113
650	0.113
651	0.112
651	0.112
652	0.112
652	0.112
653	0.113
653	0.114
653	0.12
654	0.097
654	0.078
655	0.076
655	0.076
656	0.076
656	0.076
657	0.077
657	0.077
657	0.077
658	0.075
658	0.067
659	0.083
659	0.105
660	0.111
660	0.111
661	0.11
661	0.109
661	0.109
662	0.108
662	0.107
663	0.106
663	0.105
664	0.105
664	0.104
665	0.104
665	0.103
665	0.103
666	0.103
666	0.103
667	0.103
667	0.104
668	0.104
668	0.104
669	0.105
669	0.105
669	0.105
670	0.105
670	0.105
671	0.105
671	0.104
672	0.104
672	0.103
672	0.103
673	0.102
673	0.102
674	0.102
674	0.101
675	0.1
675	0.1
676	0.1
676	0.1
676	0.1
677	0.1
677	0.1
678	0.099
678	0.099
679	0.099
679	0.099
680	0.099
680	0.099
680	0.099
681	0.099
681	0.099
682	0.099
682	0.099
683	0.099
683	0.099
684	0.099
684	0.099
684	0.098
685	0.098
685	0.098
686	0.098
686	0.097
687	0.097
687	0.097
687	0.096
688	0.096
688	0.095
689	0.095
689	0.096
690	0.095
690	0.095
691	0.095
691	0.095
691	0.095
692	0.095
692	0.096
693	0.096
693	0.096
694	0.096
694	0.095
695	0.096
695	0.097
695	0.096
696	0.096
696	0.095
697	0.095
697	0.094
698	0.094
698	0.093
698	0.093
699	0.094
699	0.093
700	0.092
700	0.093
701	0.093
701	0.093
702	0.092
702	0.092
702	0.092
703	0.092
703	0.092
704	0.091
704	0.091
705	0.091
705	0.091
705	0.09
706	0.09
706	0.09
707	0.09
707	0.089
708	0.089
708	0.089
709	0.089
709	0.089
709	0.088
710	0.087
710	0.087
711	0.087
711	0.087
712	0.087
712	0.086
713	0.086
713	0.086
713	0.086
714	0.086
714	0.086
715	0.086
715	0.085
716	0.085
716	0.084
716	0.084
717	0.083
717	0.083
718	0.082
718	0.082
719	0.082
719	0.082
720	0.082
720	0.083
720	0.083
721	0.083
721	0.083
722	0.084
722	0.084
723	0.084
723	0.084
723	0.084
724	0.084
724	0.084
725	0.083
725	0.082
726	0.082
726	0.081
727	0.081
727	0.081
727	0.08
728	0.08
728	0.079
729	0.079
729	0.079
730	0.079
730	0.079
730	0.08
731	0.08
731	0.081
732	0.081
732	0.081
733	0.081
733	0.081
734	0.081
734	0.081
734	0.081
735	0.08
735	0.08
736	0.079
736	0.078
737	0.077
737	0.077
737	0.076
738	0.075
738	0.074
739	0.074
739	0.074
740	0.073
740	0.073
741	0.073
741	0.073
741	0.073
742	0.073
742	0.073
743	0.074
743	0.074
744	0.074
744	0.075
744	0.075
745	0.075
745	0.074
746	0.074
746	0.075
747	0.075
747	0.075
748	0.075
748	0.075
748	0.075
749	0.075
749	0.076
750	0.076
750	0.076
751	0.076
751	0.076
751	0.076
752	0.075
752	0.075
753	0.074
753	0.074
754	0.074
754	0.073
754	0.073
755	0.072
755	0.072
756	0.071
756	0.07
757	0.069
757	0.069
758	0.069
758	0.069
758	0.069
759	0.069
759	0.069
760	0.068
760	0.068
761	0.069
761	0.069
761	0.07
762	0.07
762	0.07
763	0.071
763	0.07
764	0.07
764	0.07
764	0.07
765	0.069
765	0.069
766	0.069
766	0.069
767	0.068
767	0.067
768	0.066
768	0.066
768	0.066
769	0.066
769	0.066
770	0.066
770	0.066
771	0.065
771	0.065
771	0.065
772	0.065
772	0.066
773	0.066
773	0.066
774	0.066
774	0.067
775	0.067
775	0.067
775	0.067
776	0.068
776	0.068
777	0.068
777	0.068
778	0.068
778	0.068
778	0.067
779	0.067
779	0.066
780	0.065
780	0.065
781	0.064
781	0.064
781	0.064
782	0.063
782	0.063
783	0.064
783	0.064
784	0.063
784	0.064
784	0.064
785	0.064
785	0.064
786	0.064
786	0.064
787	0.064
787	0.063
788	0.063
788	0.063
788	0.063
789	0.062
789	0.063
790	0.063
790	0.063
791	0.063
791	0.062
791	0.062
792	0.063
792	0.064
793	0.063
793	0.063
794	0.063
794	0.063
794	0.063
795	0.063
795	0.064
796	0.064
796	0.064
797	0.063
797	0.063
797	0.063
798	0.063
798	0.063
799	0.063
799	0.062
800	0.061
800	0.06
801	0.06
801	0.059
801	0.059
802	0.058
802	0.058
803	0.058
803	0.058
804	0.058
804	0.058
804	0.058
805	0.058
805	0.058
806	0.058
806	0.058
807	0.058
807	0.058
807	0.058
808	0.058
808	0.058
809	0.058
809	0.058
810	0.059
810	0.059
810	0.059
811	0.059
811	0.06
812	0.06
812	0.061
813	0.061
813	0.061
813	0.061
814	0.061
814	0.062
815	0.062
815	0.061
816	0.061
816	0.061
817	0.06
817	0.06
817	0.06
818	0.059
818	0.06
819	0.059
819	0.059
820	0.058
820	0.058
820	0.058
821	0.058
821	0.058
822	0.057
822	0.057
823	0.057
823	0.057
823	0.057
824	0.058
824	0.059
825	0.059
825	0.06
826	0.06
826	0.06
826	0.06
827	0.06
827	0.06
828	0.06
828	0.06
829	0.06
829	0.059
829	0.059
830	0.059
830	0.059
831	0.059
831	0.059
832	0.059
832	0.059
832	0.059
833	0.059
833	0.059
834	0.059
834	0.059
835	0.059
835	0.059
835	0.059
836	0.059
836	0.059
837	0.059
837	0.059
838	0.059
838	0.059
839	0.059
839	0.059
839	0.058
840	0.058
840	0.057
841	0.055
841	0.054
842	0.053
842	0.053
842	0.052
843	0.051
843	0.051
844	0.051
844	0.051
845	0.051
845	0.051
845	0.051
846	0.051
846	0.052
847	0.052
847	0.052
848	0.053
848	0.053
848	0.053
849	0.054
849	0.054
850	0.054
850	0.054
851	0.054
851	0.054
851	0.054
852	0.053
852	0.053
853	0.052
853	0.052
854	0.052
854	0.052
854	0.053
855	0.053
855	0.054
856	0.055
856	0.055
857	0.056
857	0.057
857	0.058
858	0.058
858	0.058
859	0.058
859	0.057
860	0.057
860	0.056
860	0.055
861	0.055
861	0.054
862	0.053
862	0.052
863	0.051
863	0.05
863	0.05
864	0.05
864	0.049
865	0.049
865	0.049
866	0.049
866	0.048
866	0.048
867	0.049
867	0.049
868	0.049
868	0.049
869	0.049
869	0.049
869	0.049
870	0.049
870	0.049
871	0.049
871	0.05
872	0.05
872	0.05
872	0.05
873	0.05
873	0.05
874	0.05
874	0.049
875	0.049
875	0.049
875	0.048
876	0.048
876	0.048
877	0.048
877	0.048
878	0.049
878	0.049
878	0.051
879	0.051
879	0.052
880	0.053
880	0.054
881	0.054
881	0.054
881	0.055
882	0.054
882	0.054
883	0.054
883	0.054
884	0.053
884	0.052
884	0.052
885	0.051
885	0.05
886	0.05
886	0.049
887	0.049
887	0.048
887	0.047
888	0.047
888	0.047
889	0.046
889	0.046
890	0.046
890	0.046
890	0.047
891	0.047
891	0.047
892	0.047
892	0.048
893	0.048
893	0.049
893	0.049
894	0.05
894	0.05
895	0.05
895	0.05
895	0.05
896	0.05
896	0.049
897	0.049
897	0.048
898	0.048
898	0.047
898	0.047
899	0.047
899	0.047
900	0.047
900	0.047
901	0.047
901	0.048
901	0.048
902	0.048
902	0.049
903	0.049
903	0.049
904	0.049
904	0.049
904	0.049
905	0.049
905	0.049
906	0.049
906	0.049
907	0.049
907	0.049
907	0.049
908	0.049
908	0.05
909	0.049
909	0.049
910	0.049
910	0.049
910	0.049
911	0.049
911	0.049
912	0.048
912	0.048
913	0.048
913	0.048
913	0.048
914	0.048
914	0.048
915	0.049
915	0.049
916	0.048
916	0.048
916	0.048
917	0.047
917	0.047
918	0.047
918	0.046
918	0.045
919	0.045
919	0.045
920	0.044
920	0.044
921	0.043
921	0.043
921	0.043
922	0.042
922	0.042
923	0.042
923	0.042
924	0.042
924	0.043
924	0.043
925	0.043
925	0.044
926	0.044
926	0.045
927	0.045
927	0.046
927	0.046
928	0.046
928	0.046
929	0.046
929	0.047
930	0.046
930	0.046
930	0.046
931	0.046
931	0.047
932	0.047
932	0.047
933	0.048
933	0.047
933	0.047
934	0.047
934	0.047
935	0.047
935	0.047
935	0.047
936	0.046
936	0.046
937	0.046
937	0.046
938	0.046
938	0.045
938	0.045
939	0.045
939	0.045
940	0.046
940	0.046
941	0.046
941	0.047
941	0.047
942	0.047
942	0.047
943	0.048
943	0.048
944	0.048
944	0.048
944	0.049
945	0.049
945	0.049
946	0.049
946	0.049
946	0.049
947	0.049
947	0.049
948	0.049
948	0.049
949	0.049
949	0.049
949	0.049
950	0.049
950	0.049
951	0.048
951	0.048
952	0.047
952	0.047
952	0.046
953	0.045
953	0.045
954	0.044
954	0.043
955	0.043
955	0.042
955	0.041
956	0.042
956	0.042
957	0.042
957	0.042
957	0.042
958	0.042
958	0.042
959	0.043
959	0.043
960	0.044
960	0.044
960	0.045
961	0.045
961	0.045
962	0.045
962	0.046
963	0.046
963	0.046
963	0.046
964	0.047
964	0.047
965	0.047
965	0.047
966	0.048
966	0.048
966	0.049
967	0.049
967	0.05
968	0.05
968	0.051
968	0.051
969	0.051
969	0.051
970	0.051
970	0.05
971	0.05
971	0.05
971	0.05
972	0.049
972	0.049
973	0.048
973	0.049
974	0.048
974	0.049
974	0.049
975	0.049
975	0.05
976	0.05
976	0.051
976	0.051
977	0.051
977	0.052
978	0.052
978	0.052
979	0.052
979	0.052
979	0.052
980	0.052
980	0.051
981	0.051
981	0.05
982	0.05
982	0.049
982	0.049
983	0.048
983	0.048
984	0.047
984	0.046
984	0.045
985	0.045
985	0.044
986	0.044
986	0.043
987	0.043
987	0.042
987	0.042
988	0.042
988	0.041
989	0.041
989	0.041
990	0.04
990	0.04
990	0.04
991	0.039
991	0.039
992	0.038
992	0.037
992	0.037
993	0.037
993	0.036
994	0.036
994	0.036
995	0.035
995	0.036
995	0.036
996	0.037
996	0.037
997	0.038
997	0.039
997	0.04
998	0.041
998	0.042
999	0.043
999	0.044
1000	0.045
1000	0.046
1000	0.047
1001	0.047
1001	0.047
1002	0.047
1002	0.047
1003	0.047
1003	0.046
1003	0.046
1004	0.045
1004	0.044
1005	0.044
1005	0.043
1005	0.042
1006	0.041
1006	0.041
1007	0.041
1007	0.04
1008	0.04
1008	0.04
1008	0.04
1009	0.04
1009	0.04
1010	0.04
1010	0.04
1010	0.04
1011	0.04
1011	0.04
1012	0.04
1012	0.04
1013	0.04
1013	0.04
1013	0.04
1014	0.04
1014	0.04
1015	0.04
1015	0.04
1016	0.04
1016	0.04
1016	0.04
1017	0.04
1017	0.039
1018	0.04
1018	0.039
1018	0.04
1019	0.04
1019	0.039
1020	0.039
1020	0.039
1021	0.04
1021	0.04
1021	0.04
1022	0.04
1022	0.04
1023	0.04
1023	0.04
1023	0.04
1024	0.039
1024	0.039
1025	0.039
1025	0.038
1026	0.038
1026	0.037
1026	0.037
1027	0.036
1027	0.036
1028	0.036
1028	0.035
1028	0.035
1029	0.035
1029	0.035
1030	0.036
1030	0.036
1031	0.036
1031	0.037
1031	0.037
1032	0.037
1032	0.037
1033	0.038
1033	0.038
1033	0.038
1034	0.037
1034	0.037
1035	0.037
1035	0.037
1036	0.037
1036	0.036
1036	0.036
1037	0.037
1037	0.036
1038	0.037
1038	0.037
1039	0.037
1039	0.037
1039	0.038
1040	0.038
1040	0.039
1041	0.039
1041	0.039
1041	0.039
1042	0.04
1042	0.04
1043	0.04
1043	0.04
1044	0.041
1044	0.041
1044	0.041
1045	0.042
1045	0.042
1046	0.042
1046	0.043
1046	0.043
1047	0.043
1047	0.044
1048	0.044
1048	0.045
1049	0.045
1049	0.045
1049	0.045
1050	0.045
1050	0.045
1051	0.045
1051	0.045
1051	0.045
1052	0.044
1052	0.044
1053	0.043
1053	0.042
1053	0.042
1054	0.041
1054	0.041
1055	0.04
1055	0.04
1056	0.039
1056	0.039
1056	0.038
1057	0.038
1057	0.037
1058	0.037
1058	0.036
1058	0.035
1059	0.034
1059	0.034
1060	0.033
1060	0.032
1061	0.032
1061	0.031
1061	0.031
1062	0.031
1062	0.03
1063	0.03
1063	0.029
1063	0.029
1064	0.028
1064	0.028
1065	0.028
1065	0.028
1066	0.028
1066	0.027
1066	0.027
1067	0.027
1067	0.027
1068	0.027
1068	0.028
1068	0.028
1069	0.028
1069	0.027
1070	0.027
1070	0.027
1071	0.027
1071	0.026
1071	0.026
1072	0.025
1072	0.025
1073	0.024
1073	0.023
1073	0.023
1074	0.023
1074	0.023
1075	0.023
1075	0.023
1076	0.024
1076	0.024
1076	0.024
1077	0.024
1077	0.025
1078	0.025
1078	0.025
1078	0.026
1079	0.026
1079	0.026
1080	0.026
1080	0.027
1080	0.027
1081	0.027
1081	0.027
1082	0.028
1082	0.029
1083	0.029
1083	0.029
1083	0.029
1084	0.029
1084	0.029
1085	0.029
1085	0.029
1085	0.03
1086	0.029
1086	0.028
1087	0.028
1087	0.027
1088	0.027
1088	0.026
1088	0.026
1089	0.025
1089	0.025
1090	0.024
1090	0.023
1090	0.022
1091	0.022
1091	0.022
1092	0.022
1092	0.021
1092	0.021
1093	0.021
1093	0.021
1094	0.021
1094	0.021
1095	0.021
1095	0.02
1095	0.02
1096	0.019
1096	0.019
1097	0.019
1097	0.018
1097	0.018
1098	0.017
1098	0.016
1099	0.016
1099	0.016
1100	0.015
1100	0.014
1100	0.014
1101	0.013
1101	0.013
1102	0.012
1102	0.011
1102	0.01
1103	0.01
1103	0.009
1104	0.009
1104	0.009
1104	0.008
1105	0.006
1105	0.005
1106	0.004
1106	0.002
1107	0.001
1107	0.002
1107	0.001
1108	0
1108	-0.001
1109	-0.002
1109	-0.003
1109	-0.003
1110	-0.001
1110	-0.004
1111	-0.002
1111	-0.001
