Data from reversibility-20sec_Absorbance__6317__000000000006317.txt Node

Date: Wed Dec 06 23:18:46 CET 2023
User: Marek
Spectrometer: MAYP115816
Trigger mode: 0
Integration Time (sec): 2.000000E-1
Scans to average: 10
Electric dark correction enabled: true
Nonlinearity correction enabled: true
Boxcar width: 5
XAxis mode: Wavelengths
Number of Pixels in Spectrum: 2068
>>>>>Begin Spectral Data<<<<<
199	-0.143
199	-0.112
200	-0.042
200	0.016
201	0.041
201	0.055
202	0.065
202	0.075
203	0.082
203	0.086
204	0.101
204	0.114
205	0.123
205	0.127
205	0.125
206	0.125
206	0.126
207	0.127
207	0.125
208	0.125
208	0.126
209	0.129
209	0.128
210	0.129
210	0.13
211	0.129
211	0.132
212	0.128
212	0.129
213	0.132
213	0.132
213	0.13
214	0.132
214	0.136
215	0.139
215	0.139
216	0.14
216	0.136
217	0.141
217	0.144
218	0.144
218	0.149
219	0.155
219	0.155
220	0.155
220	0.153
221	0.155
221	0.157
221	0.164
222	0.169
222	0.173
223	0.181
223	0.183
224	0.187
224	0.197
225	0.206
225	0.217
226	0.227
226	0.241
227	0.253
227	0.263
228	0.277
228	0.288
229	0.303
229	0.326
229	0.345
230	0.369
230	0.396
231	0.428
231	0.464
232	0.497
232	0.54
233	0.582
233	0.631
234	0.686
234	0.737
235	0.792
235	0.846
236	0.899
236	0.949
236	0.998
237	1.049
237	1.098
238	1.148
238	1.195
239	1.24
239	1.282
240	1.32
240	1.355
241	1.389
241	1.424
242	1.457
242	1.49
243	1.52
243	1.543
243	1.565
244	1.586
244	1.607
245	1.624
245	1.645
246	1.665
246	1.682
247	1.695
247	1.709
248	1.723
248	1.737
249	1.747
249	1.755
250	1.76
250	1.768
250	1.771
251	1.775
251	1.776
252	1.78
252	1.779
253	1.78
253	1.777
254	1.775
254	1.776
255	1.776
255	1.775
256	1.775
256	1.774
257	1.773
257	1.773
258	1.773
258	1.772
258	1.773
259	1.774
259	1.774
260	1.773
260	1.774
261	1.774
261	1.776
262	1.779
262	1.78
263	1.783
263	1.784
264	1.786
264	1.788
265	1.789
265	1.79
265	1.792
266	1.792
266	1.793
267	1.791
267	1.792
268	1.792
268	1.794
269	1.795
269	1.793
270	1.792
270	1.793
271	1.791
271	1.79
272	1.787
272	1.785
272	1.782
273	1.774
273	1.767
274	1.76
274	1.752
275	1.744
275	1.737
276	1.728
276	1.72
277	1.711
277	1.7
278	1.689
278	1.677
278	1.661
279	1.644
279	1.623
280	1.596
280	1.563
281	1.525
281	1.482
282	1.438
282	1.393
283	1.349
283	1.306
284	1.265
284	1.226
285	1.189
285	1.156
285	1.126
286	1.1
286	1.078
287	1.058
287	1.041
288	1.027
288	1.015
289	1.004
289	0.995
290	0.987
290	0.981
291	0.975
291	0.97
292	0.965
292	0.961
292	0.958
293	0.954
293	0.951
294	0.948
294	0.945
295	0.942
295	0.939
296	0.936
296	0.933
297	0.93
297	0.927
298	0.924
298	0.921
298	0.919
299	0.916
299	0.914
300	0.911
300	0.908
301	0.906
301	0.903
302	0.901
302	0.898
303	0.896
303	0.894
304	0.892
304	0.89
305	0.887
305	0.885
305	0.883
306	0.881
306	0.879
307	0.877
307	0.874
308	0.872
308	0.87
309	0.867
309	0.864
310	0.862
310	0.859
311	0.856
311	0.853
311	0.85
312	0.846
312	0.843
313	0.839
313	0.836
314	0.832
314	0.828
315	0.824
315	0.82
316	0.816
316	0.811
317	0.807
317	0.802
318	0.797
318	0.792
318	0.787
319	0.781
319	0.776
320	0.771
320	0.765
321	0.759
321	0.753
322	0.747
322	0.741
323	0.734
323	0.728
324	0.722
324	0.715
324	0.708
325	0.701
325	0.694
326	0.688
326	0.681
327	0.674
327	0.667
328	0.66
328	0.653
329	0.646
329	0.639
330	0.632
330	0.625
330	0.618
331	0.611
331	0.604
332	0.597
332	0.59
333	0.583
333	0.576
334	0.569
334	0.562
335	0.556
335	0.549
336	0.542
336	0.536
336	0.529
337	0.523
337	0.517
338	0.511
338	0.504
339	0.499
339	0.493
340	0.487
340	0.481
341	0.475
341	0.47
342	0.464
342	0.459
342	0.454
343	0.449
343	0.443
344	0.438
344	0.434
345	0.429
345	0.424
346	0.42
346	0.415
347	0.411
347	0.407
348	0.403
348	0.399
348	0.395
349	0.391
349	0.387
350	0.384
350	0.38
351	0.377
351	0.374
352	0.371
352	0.367
353	0.365
353	0.362
354	0.359
354	0.356
354	0.353
355	0.351
355	0.347
356	0.345
356	0.342
357	0.339
357	0.337
358	0.334
358	0.331
359	0.329
359	0.327
360	0.325
360	0.323
360	0.321
361	0.32
361	0.318
362	0.316
362	0.315
363	0.313
363	0.311
364	0.309
364	0.308
365	0.306
365	0.304
366	0.302
366	0.301
366	0.299
367	0.298
367	0.296
368	0.295
368	0.293
369	0.291
369	0.29
370	0.289
370	0.287
371	0.286
371	0.285
372	0.284
372	0.283
372	0.282
373	0.281
373	0.28
374	0.279
374	0.278
375	0.277
375	0.276
376	0.275
376	0.275
377	0.274
377	0.273
378	0.272
378	0.271
378	0.27
379	0.27
379	0.269
380	0.268
380	0.267
381	0.267
381	0.266
382	0.266
382	0.265
383	0.265
383	0.264
383	0.264
384	0.263
384	0.263
385	0.262
385	0.262
386	0.262
386	0.261
387	0.261
387	0.26
388	0.26
388	0.259
389	0.259
389	0.259
389	0.259
390	0.258
390	0.258
391	0.257
391	0.257
392	0.257
392	0.257
393	0.256
393	0.256
394	0.256
394	0.255
394	0.255
395	0.255
395	0.254
396	0.254
396	0.254
397	0.253
397	0.253
398	0.253
398	0.252
399	0.252
399	0.252
400	0.252
400	0.252
400	0.251
401	0.251
401	0.251
402	0.251
402	0.251
403	0.25
403	0.25
404	0.25
404	0.25
405	0.249
405	0.249
405	0.249
406	0.249
406	0.248
407	0.248
407	0.248
408	0.247
408	0.247
409	0.247
409	0.246
410	0.246
410	0.246
411	0.246
411	0.246
411	0.246
412	0.245
412	0.245
413	0.245
413	0.245
414	0.244
414	0.244
415	0.244
415	0.243
416	0.243
416	0.243
416	0.242
417	0.242
417	0.242
418	0.241
418	0.241
419	0.241
419	0.24
420	0.24
420	0.239
421	0.239
421	0.239
421	0.238
422	0.238
422	0.238
423	0.237
423	0.237
424	0.236
424	0.236
425	0.236
425	0.236
426	0.235
426	0.235
427	0.235
427	0.234
427	0.234
428	0.234
428	0.233
429	0.233
429	0.232
430	0.232
430	0.232
431	0.232
431	0.232
432	0.232
432	0.232
432	0.231
433	0.231
433	0.231
434	0.231
434	0.231
435	0.231
435	0.231
436	0.231
436	0.231
437	0.23
437	0.23
437	0.23
438	0.23
438	0.229
439	0.229
439	0.229
440	0.229
440	0.228
441	0.228
441	0.228
442	0.227
442	0.227
442	0.227
443	0.226
443	0.226
444	0.226
444	0.226
445	0.225
445	0.225
446	0.225
446	0.225
447	0.224
447	0.224
447	0.224
448	0.224
448	0.224
449	0.223
449	0.223
450	0.223
450	0.223
451	0.223
451	0.223
452	0.223
452	0.223
452	0.223
453	0.222
453	0.222
454	0.222
454	0.222
455	0.221
455	0.221
456	0.221
456	0.221
457	0.22
457	0.22
458	0.22
458	0.219
458	0.219
459	0.219
459	0.219
460	0.219
460	0.218
461	0.218
461	0.218
462	0.218
462	0.217
463	0.217
463	0.217
463	0.217
464	0.216
464	0.216
465	0.215
465	0.215
466	0.215
466	0.215
467	0.215
467	0.215
467	0.215
468	0.215
468	0.215
469	0.215
469	0.215
470	0.215
470	0.215
471	0.215
471	0.215
472	0.215
472	0.215
472	0.215
473	0.215
473	0.215
474	0.215
474	0.215
475	0.215
475	0.214
476	0.214
476	0.214
477	0.215
477	0.214
477	0.214
478	0.214
478	0.214
479	0.214
479	0.214
480	0.214
480	0.214
481	0.214
481	0.214
482	0.214
482	0.214
482	0.214
483	0.214
483	0.214
484	0.214
484	0.214
485	0.213
485	0.213
486	0.213
486	0.213
487	0.213
487	0.213
487	0.214
488	0.214
488	0.214
489	0.214
489	0.215
490	0.215
490	0.216
491	0.216
491	0.216
492	0.217
492	0.217
492	0.217
493	0.217
493	0.218
494	0.218
494	0.218
495	0.218
495	0.219
496	0.219
496	0.219
496	0.22
497	0.22
497	0.22
498	0.221
498	0.221
499	0.221
499	0.221
500	0.222
500	0.223
501	0.223
501	0.223
501	0.224
502	0.224
502	0.224
503	0.225
503	0.225
504	0.226
504	0.226
505	0.226
505	0.227
506	0.227
506	0.227
506	0.228
507	0.228
507	0.228
508	0.228
508	0.229
509	0.229
509	0.229
510	0.23
510	0.23
511	0.23
511	0.231
511	0.232
512	0.232
512	0.233
513	0.233
513	0.233
514	0.234
514	0.234
515	0.235
515	0.235
515	0.235
516	0.235
516	0.236
517	0.236
517	0.237
518	0.237
518	0.237
519	0.237
519	0.237
520	0.238
520	0.238
520	0.239
521	0.239
521	0.239
522	0.239
522	0.239
523	0.239
523	0.24
524	0.24
524	0.24
524	0.24
525	0.24
525	0.24
526	0.24
526	0.241
527	0.241
527	0.241
528	0.241
528	0.241
529	0.241
529	0.241
529	0.241
530	0.242
530	0.242
531	0.242
531	0.241
532	0.241
532	0.241
533	0.241
533	0.241
533	0.241
534	0.24
534	0.24
535	0.24
535	0.241
536	0.24
536	0.24
537	0.241
537	0.24
538	0.24
538	0.24
538	0.239
539	0.239
539	0.239
540	0.239
540	0.239
541	0.238
541	0.238
542	0.238
542	0.238
542	0.238
543	0.238
543	0.238
544	0.237
544	0.237
545	0.237
545	0.237
546	0.237
546	0.237
547	0.236
547	0.236
547	0.236
548	0.236
548	0.235
549	0.235
549	0.235
550	0.235
550	0.234
551	0.234
551	0.234
551	0.233
552	0.233
552	0.233
553	0.232
553	0.232
554	0.232
554	0.231
555	0.23
555	0.23
556	0.229
556	0.229
556	0.229
557	0.229
557	0.229
558	0.229
558	0.229
559	0.229
559	0.229
560	0.229
560	0.229
560	0.229
561	0.229
561	0.228
562	0.228
562	0.227
563	0.226
563	0.225
564	0.225
564	0.224
564	0.224
565	0.224
565	0.223
566	0.223
566	0.223
567	0.223
567	0.223
568	0.223
568	0.222
568	0.222
569	0.222
569	0.221
570	0.22
570	0.22
571	0.219
571	0.219
572	0.218
572	0.218
573	0.217
573	0.217
573	0.217
574	0.216
574	0.216
575	0.216
575	0.216
576	0.216
576	0.216
577	0.215
577	0.215
577	0.215
578	0.214
578	0.214
579	0.214
579	0.214
580	0.213
580	0.212
581	0.212
581	0.211
581	0.212
582	0.212
582	0.212
583	0.212
583	0.212
584	0.211
584	0.21
585	0.21
585	0.21
585	0.21
586	0.21
586	0.209
587	0.208
587	0.207
588	0.207
588	0.206
589	0.206
589	0.206
590	0.206
590	0.206
590	0.206
591	0.207
591	0.206
592	0.206
592	0.205
593	0.205
593	0.205
594	0.204
594	0.204
594	0.203
595	0.203
595	0.202
596	0.202
596	0.202
597	0.203
597	0.203
598	0.203
598	0.203
598	0.203
599	0.203
599	0.202
600	0.202
600	0.201
601	0.201
601	0.201
602	0.2
602	0.2
602	0.199
603	0.199
603	0.199
604	0.199
604	0.199
605	0.199
605	0.199
606	0.199
606	0.198
606	0.198
607	0.198
607	0.198
608	0.198
608	0.197
609	0.197
609	0.197
610	0.197
610	0.196
610	0.196
611	0.196
611	0.196
612	0.196
612	0.196
613	0.196
613	0.196
614	0.195
614	0.195
614	0.195
615	0.195
615	0.195
616	0.195
616	0.195
617	0.195
617	0.195
618	0.195
618	0.195
618	0.195
619	0.196
619	0.196
620	0.197
620	0.196
621	0.196
621	0.195
622	0.195
622	0.194
622	0.194
623	0.193
623	0.193
624	0.192
624	0.192
625	0.191
625	0.191
626	0.19
626	0.19
626	0.19
627	0.19
627	0.19
628	0.19
628	0.189
629	0.189
629	0.189
630	0.189
630	0.188
630	0.188
631	0.188
631	0.188
632	0.188
632	0.188
633	0.188
633	0.188
634	0.188
634	0.188
634	0.188
635	0.188
635	0.188
636	0.188
636	0.188
637	0.188
637	0.188
638	0.187
638	0.187
638	0.187
639	0.186
639	0.186
640	0.186
640	0.186
641	0.186
641	0.186
642	0.186
642	0.186
642	0.186
643	0.186
643	0.186
644	0.186
644	0.186
645	0.186
645	0.186
646	0.186
646	0.186
646	0.186
647	0.186
647	0.185
648	0.185
648	0.184
649	0.184
649	0.183
650	0.183
650	0.183
650	0.183
651	0.183
651	0.183
652	0.184
652	0.184
653	0.185
653	0.186
653	0.192
654	0.151
654	0.121
655	0.121
655	0.122
656	0.122
656	0.122
657	0.123
657	0.123
657	0.123
658	0.122
658	0.112
659	0.141
659	0.182
660	0.186
660	0.186
661	0.186
661	0.186
661	0.185
662	0.185
662	0.185
663	0.184
663	0.184
664	0.184
664	0.184
665	0.184
665	0.184
665	0.184
666	0.184
666	0.184
667	0.184
667	0.184
668	0.185
668	0.185
669	0.185
669	0.185
669	0.186
670	0.187
670	0.187
671	0.187
671	0.187
672	0.187
672	0.186
672	0.186
673	0.185
673	0.185
674	0.185
674	0.184
675	0.183
675	0.183
676	0.183
676	0.183
676	0.183
677	0.183
677	0.183
678	0.183
678	0.183
679	0.183
679	0.183
680	0.184
680	0.184
680	0.183
681	0.184
681	0.184
682	0.184
682	0.184
683	0.184
683	0.185
684	0.185
684	0.184
684	0.184
685	0.184
685	0.184
686	0.184
686	0.184
687	0.184
687	0.184
687	0.184
688	0.184
688	0.184
689	0.185
689	0.185
690	0.185
690	0.185
691	0.185
691	0.185
691	0.185
692	0.185
692	0.185
693	0.185
693	0.186
694	0.186
694	0.185
695	0.186
695	0.187
695	0.187
696	0.187
696	0.187
697	0.187
697	0.187
698	0.186
698	0.186
698	0.186
699	0.186
699	0.186
700	0.185
700	0.186
701	0.186
701	0.186
702	0.186
702	0.186
702	0.186
703	0.186
703	0.186
704	0.187
704	0.187
705	0.187
705	0.187
705	0.187
706	0.187
706	0.187
707	0.187
707	0.187
708	0.187
708	0.187
709	0.187
709	0.187
709	0.187
710	0.187
710	0.187
711	0.188
711	0.188
712	0.188
712	0.189
713	0.189
713	0.189
713	0.189
714	0.189
714	0.188
715	0.188
715	0.188
716	0.187
716	0.187
716	0.186
717	0.185
717	0.185
718	0.185
718	0.184
719	0.185
719	0.185
720	0.185
720	0.186
720	0.186
721	0.187
721	0.188
722	0.188
722	0.189
723	0.189
723	0.19
723	0.19
724	0.19
724	0.19
725	0.189
725	0.189
726	0.188
726	0.188
727	0.187
727	0.187
727	0.186
728	0.186
728	0.186
729	0.186
729	0.186
730	0.186
730	0.187
730	0.187
731	0.188
731	0.189
732	0.19
732	0.191
733	0.191
733	0.191
734	0.192
734	0.192
734	0.193
735	0.193
735	0.193
736	0.192
736	0.192
737	0.192
737	0.192
737	0.192
738	0.191
738	0.191
739	0.19
739	0.19
740	0.19
740	0.19
741	0.19
741	0.19
741	0.189
742	0.189
742	0.19
743	0.191
743	0.192
744	0.193
744	0.193
744	0.194
745	0.194
745	0.194
746	0.195
746	0.195
747	0.195
747	0.194
748	0.194
748	0.194
748	0.194
749	0.193
749	0.193
750	0.193
750	0.193
751	0.193
751	0.193
751	0.193
752	0.193
752	0.192
753	0.192
753	0.192
754	0.192
754	0.191
754	0.191
755	0.191
755	0.191
756	0.191
756	0.19
757	0.189
757	0.19
758	0.19
758	0.19
758	0.191
759	0.191
759	0.191
760	0.191
760	0.191
761	0.191
761	0.192
761	0.192
762	0.192
762	0.193
763	0.193
763	0.193
764	0.192
764	0.193
764	0.193
765	0.193
765	0.193
766	0.193
766	0.193
767	0.193
767	0.192
768	0.192
768	0.192
768	0.192
769	0.193
769	0.193
770	0.193
770	0.193
771	0.194
771	0.194
771	0.195
772	0.196
772	0.197
773	0.197
773	0.198
774	0.198
774	0.198
775	0.199
775	0.199
775	0.199
776	0.2
776	0.2
777	0.201
777	0.201
778	0.201
778	0.201
778	0.202
779	0.202
779	0.202
780	0.201
780	0.2
781	0.2
781	0.199
781	0.199
782	0.199
782	0.198
783	0.199
783	0.199
784	0.199
784	0.2
784	0.2
785	0.201
785	0.201
786	0.202
786	0.202
787	0.202
787	0.201
788	0.201
788	0.2
788	0.199
789	0.199
789	0.198
790	0.198
790	0.198
791	0.198
791	0.197
791	0.197
792	0.198
792	0.199
793	0.199
793	0.199
794	0.2
794	0.2
794	0.2
795	0.2
795	0.201
796	0.201
796	0.202
797	0.201
797	0.202
797	0.202
798	0.202
798	0.202
799	0.202
799	0.202
800	0.202
800	0.201
801	0.201
801	0.201
801	0.201
802	0.201
802	0.201
803	0.201
803	0.202
804	0.202
804	0.203
804	0.203
805	0.203
805	0.203
806	0.203
806	0.203
807	0.202
807	0.202
807	0.202
808	0.202
808	0.202
809	0.201
809	0.201
810	0.202
810	0.202
810	0.202
811	0.203
811	0.203
812	0.204
812	0.205
813	0.205
813	0.206
813	0.207
814	0.208
814	0.208
815	0.209
815	0.209
816	0.209
816	0.208
817	0.208
817	0.207
817	0.207
818	0.207
818	0.207
819	0.206
819	0.205
820	0.205
820	0.204
820	0.204
821	0.204
821	0.205
822	0.205
822	0.205
823	0.206
823	0.206
823	0.206
824	0.207
824	0.208
825	0.209
825	0.21
826	0.21
826	0.21
826	0.21
827	0.211
827	0.211
828	0.211
828	0.211
829	0.212
829	0.212
829	0.212
830	0.212
830	0.213
831	0.214
831	0.214
832	0.214
832	0.214
832	0.214
833	0.214
833	0.214
834	0.213
834	0.213
835	0.212
835	0.211
835	0.211
836	0.211
836	0.211
837	0.21
837	0.21
838	0.21
838	0.21
839	0.209
839	0.209
839	0.208
840	0.207
840	0.206
841	0.205
841	0.204
842	0.204
842	0.203
842	0.202
843	0.201
843	0.201
844	0.2
844	0.2
845	0.199
845	0.199
845	0.199
846	0.199
846	0.199
847	0.199
847	0.199
848	0.2
848	0.201
848	0.201
849	0.202
849	0.203
850	0.204
850	0.204
851	0.205
851	0.205
851	0.205
852	0.205
852	0.204
853	0.204
853	0.204
854	0.204
854	0.204
854	0.204
855	0.205
855	0.206
856	0.206
856	0.206
857	0.207
857	0.208
857	0.209
858	0.209
858	0.209
859	0.208
859	0.208
860	0.207
860	0.206
860	0.206
861	0.205
861	0.204
862	0.203
862	0.202
863	0.201
863	0.201
863	0.201
864	0.2
864	0.201
865	0.201
865	0.201
866	0.201
866	0.201
866	0.202
867	0.203
867	0.203
868	0.204
868	0.204
869	0.205
869	0.205
869	0.204
870	0.204
870	0.204
871	0.204
871	0.204
872	0.204
872	0.204
872	0.204
873	0.204
873	0.203
874	0.203
874	0.202
875	0.202
875	0.202
875	0.201
876	0.201
876	0.2
877	0.2
877	0.2
878	0.2
878	0.2
878	0.2
879	0.201
879	0.201
880	0.201
880	0.202
881	0.202
881	0.202
881	0.203
882	0.203
882	0.203
883	0.203
883	0.203
884	0.204
884	0.204
884	0.204
885	0.203
885	0.203
886	0.202
886	0.202
887	0.201
887	0.2
887	0.199
888	0.198
888	0.197
889	0.196
889	0.196
890	0.195
890	0.195
890	0.195
891	0.194
891	0.194
892	0.194
892	0.194
893	0.194
893	0.194
893	0.194
894	0.194
894	0.194
895	0.194
895	0.194
895	0.194
896	0.195
896	0.195
897	0.195
897	0.195
898	0.195
898	0.195
898	0.194
899	0.194
899	0.193
900	0.192
900	0.191
901	0.191
901	0.19
901	0.19
902	0.189
902	0.189
903	0.188
903	0.188
904	0.188
904	0.188
904	0.187
905	0.187
905	0.187
906	0.187
906	0.187
907	0.187
907	0.187
907	0.188
908	0.188
908	0.188
909	0.187
909	0.187
910	0.187
910	0.187
910	0.187
911	0.187
911	0.186
912	0.186
912	0.186
913	0.185
913	0.185
913	0.185
914	0.185
914	0.185
915	0.185
915	0.185
916	0.185
916	0.185
916	0.185
917	0.184
917	0.184
918	0.183
918	0.183
918	0.182
919	0.182
919	0.181
920	0.18
920	0.18
921	0.179
921	0.179
921	0.178
922	0.178
922	0.178
923	0.178
923	0.178
924	0.179
924	0.179
924	0.18
925	0.18
925	0.18
926	0.181
926	0.181
927	0.182
927	0.182
927	0.182
928	0.182
928	0.182
929	0.182
929	0.182
930	0.182
930	0.181
930	0.181
931	0.18
931	0.18
932	0.179
932	0.178
933	0.178
933	0.177
933	0.177
934	0.176
934	0.176
935	0.175
935	0.175
935	0.175
936	0.174
936	0.174
937	0.174
937	0.173
938	0.173
938	0.173
938	0.172
939	0.172
939	0.171
940	0.171
940	0.171
941	0.171
941	0.171
941	0.172
942	0.172
942	0.172
943	0.172
943	0.172
944	0.172
944	0.172
944	0.172
945	0.171
945	0.171
946	0.171
946	0.17
946	0.17
947	0.17
947	0.169
948	0.169
948	0.169
949	0.168
949	0.167
949	0.167
950	0.167
950	0.166
951	0.166
951	0.165
952	0.165
952	0.164
952	0.164
953	0.163
953	0.163
954	0.163
954	0.162
955	0.162
955	0.162
955	0.162
956	0.162
956	0.162
957	0.163
957	0.163
957	0.163
958	0.163
958	0.162
959	0.162
959	0.162
960	0.162
960	0.162
960	0.161
961	0.161
961	0.161
962	0.161
962	0.161
963	0.161
963	0.161
963	0.161
964	0.161
964	0.162
965	0.162
965	0.162
966	0.162
966	0.161
966	0.161
967	0.161
967	0.16
968	0.16
968	0.159
968	0.158
969	0.157
969	0.157
970	0.156
970	0.155
971	0.154
971	0.153
971	0.153
972	0.152
972	0.152
973	0.151
973	0.151
974	0.151
974	0.151
974	0.152
975	0.152
975	0.152
976	0.153
976	0.153
976	0.154
977	0.154
977	0.154
978	0.153
978	0.153
979	0.153
979	0.153
979	0.153
980	0.152
980	0.152
981	0.151
981	0.151
982	0.151
982	0.151
982	0.151
983	0.151
983	0.151
984	0.151
984	0.151
984	0.151
985	0.151
985	0.151
986	0.15
986	0.15
987	0.15
987	0.15
987	0.149
988	0.149
988	0.149
989	0.149
989	0.148
990	0.148
990	0.148
990	0.147
991	0.147
991	0.146
992	0.146
992	0.145
992	0.144
993	0.143
993	0.141
994	0.14
994	0.139
995	0.138
995	0.137
995	0.137
996	0.137
996	0.137
997	0.137
997	0.137
997	0.137
998	0.138
998	0.139
999	0.139
999	0.14
1000	0.141
1000	0.142
1000	0.142
1001	0.142
1001	0.142
1002	0.142
1002	0.142
1003	0.142
1003	0.141
1003	0.14
1004	0.14
1004	0.139
1005	0.138
1005	0.137
1005	0.136
1006	0.135
1006	0.135
1007	0.134
1007	0.133
1008	0.133
1008	0.132
1008	0.132
1009	0.133
1009	0.132
1010	0.132
1010	0.133
1010	0.133
1011	0.133
1011	0.133
1012	0.133
1012	0.133
1013	0.133
1013	0.132
1013	0.132
1014	0.131
1014	0.131
1015	0.13
1015	0.13
1016	0.129
1016	0.129
1016	0.129
1017	0.128
1017	0.127
1018	0.127
1018	0.126
1018	0.126
1019	0.126
1019	0.125
1020	0.125
1020	0.125
1021	0.125
1021	0.125
1021	0.126
1022	0.126
1022	0.126
1023	0.127
1023	0.127
1023	0.128
1024	0.128
1024	0.128
1025	0.128
1025	0.128
1026	0.129
1026	0.129
1026	0.129
1027	0.129
1027	0.129
1028	0.129
1028	0.129
1028	0.129
1029	0.129
1029	0.129
1030	0.129
1030	0.129
1031	0.129
1031	0.129
1031	0.129
1032	0.129
1032	0.13
1033	0.13
1033	0.13
1033	0.13
1034	0.13
1034	0.13
1035	0.13
1035	0.129
1036	0.129
1036	0.129
1036	0.129
1037	0.129
1037	0.128
1038	0.127
1038	0.127
1039	0.126
1039	0.126
1039	0.126
1040	0.125
1040	0.125
1041	0.125
1041	0.124
1041	0.124
1042	0.124
1042	0.124
1043	0.123
1043	0.123
1044	0.123
1044	0.123
1044	0.123
1045	0.122
1045	0.122
1046	0.122
1046	0.122
1046	0.122
1047	0.121
1047	0.121
1048	0.121
1048	0.122
1049	0.121
1049	0.121
1049	0.121
1050	0.121
1050	0.12
1051	0.12
1051	0.12
1051	0.119
1052	0.119
1052	0.118
1053	0.117
1053	0.117
1053	0.116
1054	0.116
1054	0.115
1055	0.115
1055	0.114
1056	0.113
1056	0.113
1056	0.112
1057	0.111
1057	0.111
1058	0.11
1058	0.109
1058	0.108
1059	0.108
1059	0.107
1060	0.106
1060	0.106
1061	0.105
1061	0.105
1061	0.105
1062	0.104
1062	0.104
1063	0.104
1063	0.103
1063	0.103
1064	0.103
1064	0.102
1065	0.102
1065	0.102
1066	0.102
1066	0.102
1066	0.101
1067	0.101
1067	0.101
1068	0.101
1068	0.101
1068	0.1
1069	0.1
1069	0.1
1070	0.099
1070	0.099
1071	0.098
1071	0.098
1071	0.098
1072	0.097
1072	0.097
1073	0.096
1073	0.096
1073	0.096
1074	0.096
1074	0.096
1075	0.095
1075	0.096
1076	0.096
1076	0.097
1076	0.097
1077	0.096
1077	0.096
1078	0.096
1078	0.095
1078	0.095
1079	0.095
1079	0.095
1080	0.094
1080	0.093
1080	0.092
1081	0.092
1081	0.092
1082	0.092
1082	0.093
1083	0.093
1083	0.092
1083	0.092
1084	0.093
1084	0.093
1085	0.093
1085	0.094
1085	0.094
1086	0.094
1086	0.093
1087	0.092
1087	0.091
1088	0.091
1088	0.091
1088	0.091
1089	0.09
1089	0.09
1090	0.089
1090	0.088
1090	0.088
1091	0.088
1091	0.088
1092	0.088
1092	0.089
1092	0.088
1093	0.087
1093	0.087
1094	0.087
1094	0.087
1095	0.086
1095	0.086
1095	0.085
1096	0.084
1096	0.083
1097	0.082
1097	0.082
1097	0.082
1098	0.081
1098	0.08
1099	0.078
1099	0.077
1100	0.076
1100	0.075
1100	0.073
1101	0.072
1101	0.072
1102	0.07
1102	0.069
1102	0.067
1103	0.068
1103	0.067
1104	0.067
1104	0.067
1104	0.066
1105	0.065
1105	0.064
1106	0.062
1106	0.061
1107	0.06
1107	0.06
1107	0.058
1108	0.057
1108	0.055
1109	0.054
1109	0.053
1109	0.053
1110	0.055
1110	0.053
1111	0.053
1111	0.05
