Data from reversibility-20sec_Absorbance__6436__000000000006436.txt Node

Date: Wed Dec 06 23:58:26 CET 2023
User: Marek
Spectrometer: MAYP115816
Trigger mode: 0
Integration Time (sec): 2.000000E-1
Scans to average: 10
Electric dark correction enabled: true
Nonlinearity correction enabled: true
Boxcar width: 5
XAxis mode: Wavelengths
Number of Pixels in Spectrum: 2068
>>>>>Begin Spectral Data<<<<<
199	-0.174
199	-0.148
200	-0.081
200	-0.029
201	-0.003
201	0.014
202	0.02
202	0.027
203	0.039
203	0.041
204	0.051
204	0.062
205	0.074
205	0.079
205	0.076
206	0.076
206	0.076
207	0.082
207	0.083
208	0.079
208	0.078
209	0.081
209	0.081
210	0.081
210	0.081
211	0.083
211	0.084
212	0.081
212	0.082
213	0.087
213	0.089
213	0.09
214	0.095
214	0.096
215	0.1
215	0.098
216	0.099
216	0.098
217	0.104
217	0.107
218	0.104
218	0.109
219	0.113
219	0.116
220	0.12
220	0.119
221	0.121
221	0.124
221	0.13
222	0.135
222	0.136
223	0.142
223	0.146
224	0.151
224	0.157
225	0.165
225	0.177
226	0.187
226	0.198
227	0.209
227	0.218
228	0.238
228	0.252
229	0.269
229	0.294
229	0.316
230	0.339
230	0.369
231	0.401
231	0.437
232	0.475
232	0.517
233	0.557
233	0.607
234	0.656
234	0.706
235	0.759
235	0.812
236	0.861
236	0.913
236	0.966
237	1.017
237	1.067
238	1.116
238	1.162
239	1.209
239	1.25
240	1.29
240	1.328
241	1.366
241	1.402
242	1.431
242	1.464
243	1.49
243	1.516
243	1.536
244	1.557
244	1.58
245	1.597
245	1.62
246	1.638
246	1.654
247	1.666
247	1.682
248	1.697
248	1.71
249	1.723
249	1.732
250	1.74
250	1.749
250	1.753
251	1.757
251	1.762
252	1.77
252	1.77
253	1.773
253	1.773
254	1.773
254	1.775
255	1.774
255	1.775
256	1.775
256	1.775
257	1.774
257	1.772
258	1.772
258	1.771
258	1.77
259	1.771
259	1.77
260	1.769
260	1.769
261	1.77
261	1.772
262	1.774
262	1.775
263	1.778
263	1.78
264	1.782
264	1.782
265	1.783
265	1.784
265	1.784
266	1.783
266	1.782
267	1.78
267	1.782
268	1.78
268	1.779
269	1.779
269	1.777
270	1.776
270	1.774
271	1.772
271	1.772
272	1.769
272	1.768
272	1.766
273	1.762
273	1.757
274	1.753
274	1.749
275	1.743
275	1.739
276	1.733
276	1.725
277	1.718
277	1.708
278	1.698
278	1.687
278	1.674
279	1.661
279	1.646
280	1.627
280	1.603
281	1.575
281	1.544
282	1.511
282	1.476
283	1.44
283	1.404
284	1.369
284	1.334
285	1.3
285	1.268
285	1.241
286	1.215
286	1.192
287	1.172
287	1.154
288	1.139
288	1.126
289	1.114
289	1.104
290	1.096
290	1.087
291	1.08
291	1.074
292	1.068
292	1.063
292	1.058
293	1.054
293	1.049
294	1.045
294	1.041
295	1.037
295	1.034
296	1.031
296	1.027
297	1.024
297	1.02
298	1.017
298	1.013
298	1.01
299	1.007
299	1.003
300	1
300	0.997
301	0.994
301	0.991
302	0.988
302	0.985
303	0.982
303	0.979
304	0.977
304	0.974
305	0.971
305	0.968
305	0.966
306	0.963
306	0.96
307	0.957
307	0.954
308	0.951
308	0.948
309	0.945
309	0.942
310	0.939
310	0.936
311	0.932
311	0.929
311	0.925
312	0.922
312	0.918
313	0.914
313	0.91
314	0.906
314	0.902
315	0.898
315	0.893
316	0.889
316	0.884
317	0.88
317	0.875
318	0.87
318	0.864
318	0.859
319	0.854
319	0.849
320	0.843
320	0.837
321	0.831
321	0.825
322	0.818
322	0.812
323	0.806
323	0.799
324	0.793
324	0.787
324	0.78
325	0.773
325	0.766
326	0.759
326	0.752
327	0.745
327	0.738
328	0.732
328	0.725
329	0.717
329	0.71
330	0.703
330	0.697
330	0.69
331	0.683
331	0.676
332	0.669
332	0.662
333	0.655
333	0.648
334	0.641
334	0.635
335	0.628
335	0.621
336	0.614
336	0.607
336	0.601
337	0.595
337	0.588
338	0.582
338	0.576
339	0.57
339	0.564
340	0.558
340	0.553
341	0.547
341	0.542
342	0.536
342	0.531
342	0.526
343	0.52
343	0.515
344	0.51
344	0.505
345	0.501
345	0.496
346	0.491
346	0.487
347	0.482
347	0.478
348	0.474
348	0.47
348	0.466
349	0.462
349	0.458
350	0.455
350	0.451
351	0.448
351	0.444
352	0.441
352	0.438
353	0.435
353	0.432
354	0.429
354	0.426
354	0.423
355	0.42
355	0.417
356	0.414
356	0.411
357	0.407
357	0.404
358	0.402
358	0.399
359	0.397
359	0.395
360	0.393
360	0.39
360	0.388
361	0.387
361	0.385
362	0.384
362	0.382
363	0.38
363	0.378
364	0.376
364	0.374
365	0.372
365	0.37
366	0.368
366	0.366
366	0.364
367	0.362
367	0.361
368	0.359
368	0.357
369	0.355
369	0.354
370	0.353
370	0.351
371	0.35
371	0.348
372	0.347
372	0.346
372	0.344
373	0.343
373	0.342
374	0.341
374	0.34
375	0.338
375	0.338
376	0.336
376	0.335
377	0.334
377	0.333
378	0.332
378	0.331
378	0.33
379	0.329
379	0.329
380	0.328
380	0.327
381	0.326
381	0.325
382	0.324
382	0.324
383	0.323
383	0.322
383	0.322
384	0.321
384	0.32
385	0.319
385	0.319
386	0.318
386	0.317
387	0.317
387	0.316
388	0.316
388	0.315
389	0.315
389	0.314
389	0.313
390	0.313
390	0.312
391	0.312
391	0.311
392	0.311
392	0.311
393	0.31
393	0.31
394	0.309
394	0.309
394	0.308
395	0.308
395	0.307
396	0.307
396	0.306
397	0.306
397	0.305
398	0.305
398	0.304
399	0.304
399	0.303
400	0.303
400	0.303
400	0.302
401	0.302
401	0.301
402	0.301
402	0.301
403	0.3
403	0.3
404	0.299
404	0.299
405	0.298
405	0.298
405	0.298
406	0.297
406	0.297
407	0.296
407	0.296
408	0.296
408	0.295
409	0.295
409	0.295
410	0.294
410	0.294
411	0.294
411	0.294
411	0.293
412	0.293
412	0.292
413	0.292
413	0.292
414	0.292
414	0.291
415	0.291
415	0.29
416	0.29
416	0.29
416	0.289
417	0.289
417	0.288
418	0.288
418	0.288
419	0.287
419	0.287
420	0.286
420	0.286
421	0.285
421	0.285
421	0.285
422	0.284
422	0.284
423	0.284
423	0.283
424	0.283
424	0.283
425	0.283
425	0.282
426	0.282
426	0.282
427	0.282
427	0.281
427	0.281
428	0.28
428	0.28
429	0.28
429	0.279
430	0.279
430	0.279
431	0.279
431	0.279
432	0.279
432	0.278
432	0.278
433	0.278
433	0.278
434	0.278
434	0.278
435	0.278
435	0.277
436	0.277
436	0.277
437	0.277
437	0.276
437	0.276
438	0.276
438	0.276
439	0.275
439	0.275
440	0.275
440	0.275
441	0.274
441	0.274
442	0.274
442	0.274
442	0.274
443	0.274
443	0.274
444	0.274
444	0.273
445	0.273
445	0.273
446	0.273
446	0.273
447	0.273
447	0.273
447	0.272
448	0.272
448	0.272
449	0.272
449	0.272
450	0.272
450	0.272
451	0.272
451	0.272
452	0.272
452	0.272
452	0.272
453	0.272
453	0.272
454	0.272
454	0.272
455	0.272
455	0.272
456	0.272
456	0.271
457	0.271
457	0.272
458	0.272
458	0.272
458	0.272
459	0.272
459	0.272
460	0.272
460	0.272
461	0.272
461	0.272
462	0.272
462	0.272
463	0.272
463	0.272
463	0.272
464	0.272
464	0.272
465	0.272
465	0.272
466	0.272
466	0.273
467	0.273
467	0.273
467	0.273
468	0.274
468	0.274
469	0.274
469	0.275
470	0.275
470	0.276
471	0.276
471	0.276
472	0.277
472	0.277
472	0.277
473	0.278
473	0.278
474	0.278
474	0.279
475	0.279
475	0.279
476	0.28
476	0.28
477	0.281
477	0.281
477	0.282
478	0.282
478	0.283
479	0.283
479	0.284
480	0.284
480	0.285
481	0.285
481	0.286
482	0.286
482	0.287
482	0.287
483	0.288
483	0.289
484	0.29
484	0.29
485	0.291
485	0.291
486	0.292
486	0.293
487	0.293
487	0.294
487	0.295
488	0.295
488	0.296
489	0.297
489	0.299
490	0.3
490	0.301
491	0.302
491	0.304
492	0.305
492	0.306
492	0.307
493	0.309
493	0.31
494	0.311
494	0.312
495	0.313
495	0.314
496	0.315
496	0.316
496	0.318
497	0.319
497	0.32
498	0.321
498	0.322
499	0.324
499	0.325
500	0.327
500	0.328
501	0.33
501	0.331
501	0.332
502	0.333
502	0.334
503	0.335
503	0.336
504	0.337
504	0.338
505	0.339
505	0.34
506	0.341
506	0.342
506	0.343
507	0.345
507	0.346
508	0.346
508	0.348
509	0.348
509	0.35
510	0.35
510	0.351
511	0.353
511	0.354
511	0.355
512	0.356
512	0.357
513	0.358
513	0.359
514	0.36
514	0.361
515	0.361
515	0.362
515	0.363
516	0.363
516	0.364
517	0.365
517	0.366
518	0.366
518	0.366
519	0.366
519	0.366
520	0.367
520	0.367
520	0.367
521	0.367
521	0.367
522	0.366
522	0.366
523	0.366
523	0.366
524	0.366
524	0.366
524	0.366
525	0.366
525	0.365
526	0.365
526	0.364
527	0.364
527	0.363
528	0.362
528	0.362
529	0.361
529	0.36
529	0.359
530	0.358
530	0.357
531	0.356
531	0.355
532	0.354
532	0.352
533	0.351
533	0.35
533	0.348
534	0.347
534	0.345
535	0.344
535	0.343
536	0.341
536	0.34
537	0.339
537	0.337
538	0.336
538	0.334
538	0.332
539	0.33
539	0.329
540	0.327
540	0.326
541	0.324
541	0.322
542	0.32
542	0.318
542	0.316
543	0.314
543	0.312
544	0.31
544	0.309
545	0.307
545	0.305
546	0.303
546	0.301
547	0.299
547	0.297
547	0.295
548	0.293
548	0.291
549	0.289
549	0.287
550	0.285
550	0.283
551	0.28
551	0.278
551	0.276
552	0.274
552	0.272
553	0.271
553	0.269
554	0.267
554	0.265
555	0.262
555	0.26
556	0.258
556	0.256
556	0.254
557	0.252
557	0.251
558	0.25
558	0.248
559	0.246
559	0.244
560	0.243
560	0.241
560	0.239
561	0.238
561	0.236
562	0.234
562	0.232
563	0.229
563	0.227
564	0.226
564	0.224
564	0.222
565	0.221
565	0.219
566	0.218
566	0.216
567	0.215
567	0.213
568	0.211
568	0.21
568	0.208
569	0.207
569	0.205
570	0.203
570	0.201
571	0.2
571	0.198
572	0.197
572	0.196
573	0.194
573	0.193
573	0.192
574	0.19
574	0.189
575	0.188
575	0.188
576	0.187
576	0.185
577	0.183
577	0.182
577	0.181
578	0.18
578	0.178
579	0.178
579	0.177
580	0.175
580	0.174
581	0.172
581	0.171
581	0.17
582	0.17
582	0.169
583	0.169
583	0.168
584	0.166
584	0.165
585	0.164
585	0.163
585	0.162
586	0.161
586	0.16
587	0.158
587	0.157
588	0.156
588	0.155
589	0.154
589	0.154
590	0.153
590	0.152
590	0.152
591	0.152
591	0.15
592	0.15
592	0.149
593	0.148
593	0.147
594	0.146
594	0.145
594	0.144
595	0.144
595	0.143
596	0.141
596	0.141
597	0.141
597	0.141
598	0.14
598	0.139
598	0.139
599	0.138
599	0.137
600	0.137
600	0.136
601	0.135
601	0.135
602	0.134
602	0.133
602	0.132
603	0.132
603	0.131
604	0.131
604	0.13
605	0.13
605	0.13
606	0.129
606	0.128
606	0.128
607	0.127
607	0.127
608	0.126
608	0.125
609	0.124
609	0.124
610	0.123
610	0.123
610	0.122
611	0.122
611	0.122
612	0.121
612	0.121
613	0.121
613	0.121
614	0.121
614	0.12
614	0.12
615	0.119
615	0.119
616	0.119
616	0.118
617	0.118
617	0.117
618	0.116
618	0.116
618	0.116
619	0.116
619	0.116
620	0.116
620	0.116
621	0.115
621	0.115
622	0.114
622	0.113
622	0.113
623	0.112
623	0.111
624	0.111
624	0.11
625	0.109
625	0.109
626	0.108
626	0.108
626	0.108
627	0.107
627	0.107
628	0.107
628	0.106
629	0.106
629	0.105
630	0.105
630	0.105
630	0.105
631	0.104
631	0.104
632	0.103
632	0.103
633	0.103
633	0.102
634	0.103
634	0.103
634	0.103
635	0.102
635	0.102
636	0.103
636	0.103
637	0.103
637	0.102
638	0.102
638	0.102
638	0.101
639	0.101
639	0.1
640	0.1
640	0.1
641	0.099
641	0.099
642	0.098
642	0.098
642	0.098
643	0.098
643	0.097
644	0.097
644	0.097
645	0.097
645	0.096
646	0.096
646	0.096
646	0.096
647	0.095
647	0.094
648	0.094
648	0.093
649	0.093
649	0.093
650	0.092
650	0.092
650	0.092
651	0.092
651	0.092
652	0.092
652	0.092
653	0.092
653	0.094
653	0.1
654	0.08
654	0.066
655	0.063
655	0.063
656	0.063
656	0.064
657	0.064
657	0.064
657	0.065
658	0.064
658	0.056
659	0.07
659	0.088
660	0.094
660	0.095
661	0.094
661	0.094
661	0.093
662	0.093
662	0.092
663	0.091
663	0.091
664	0.09
664	0.09
665	0.09
665	0.089
665	0.089
666	0.089
666	0.089
667	0.089
667	0.09
668	0.09
668	0.09
669	0.09
669	0.091
669	0.091
670	0.091
670	0.09
671	0.09
671	0.089
672	0.089
672	0.088
672	0.088
673	0.088
673	0.087
674	0.087
674	0.086
675	0.086
675	0.086
676	0.086
676	0.086
676	0.086
677	0.086
677	0.086
678	0.086
678	0.085
679	0.084
679	0.084
680	0.084
680	0.083
680	0.083
681	0.083
681	0.083
682	0.083
682	0.083
683	0.083
683	0.084
684	0.085
684	0.085
684	0.085
685	0.085
685	0.085
686	0.085
686	0.085
687	0.084
687	0.084
687	0.084
688	0.084
688	0.083
689	0.084
689	0.084
690	0.084
690	0.083
691	0.083
691	0.083
691	0.084
692	0.084
692	0.083
693	0.084
693	0.084
694	0.083
694	0.083
695	0.084
695	0.085
695	0.085
696	0.085
696	0.085
697	0.085
697	0.085
698	0.085
698	0.085
698	0.085
699	0.085
699	0.084
700	0.084
700	0.084
701	0.084
701	0.083
702	0.083
702	0.082
702	0.082
703	0.082
703	0.081
704	0.081
704	0.081
705	0.081
705	0.081
705	0.08
706	0.08
706	0.08
707	0.08
707	0.08
708	0.081
708	0.081
709	0.081
709	0.081
709	0.08
710	0.08
710	0.081
711	0.081
711	0.081
712	0.081
712	0.081
713	0.08
713	0.08
713	0.08
714	0.079
714	0.079
715	0.078
715	0.078
716	0.077
716	0.077
716	0.076
717	0.076
717	0.075
718	0.075
718	0.075
719	0.075
719	0.075
720	0.076
720	0.076
720	0.076
721	0.076
721	0.077
722	0.077
722	0.077
723	0.078
723	0.078
723	0.077
724	0.077
724	0.076
725	0.076
725	0.075
726	0.074
726	0.074
727	0.073
727	0.073
727	0.072
728	0.072
728	0.072
729	0.072
729	0.072
730	0.072
730	0.072
730	0.073
731	0.073
731	0.074
732	0.075
732	0.075
733	0.075
733	0.076
734	0.076
734	0.076
734	0.076
735	0.076
735	0.076
736	0.075
736	0.074
737	0.074
737	0.074
737	0.073
738	0.072
738	0.071
739	0.071
739	0.07
740	0.07
740	0.07
741	0.07
741	0.07
741	0.07
742	0.07
742	0.07
743	0.071
743	0.072
744	0.072
744	0.072
744	0.073
745	0.073
745	0.072
746	0.072
746	0.072
747	0.072
747	0.071
748	0.071
748	0.071
748	0.071
749	0.07
749	0.07
750	0.07
750	0.07
751	0.07
751	0.07
751	0.07
752	0.069
752	0.069
753	0.068
753	0.068
754	0.068
754	0.067
754	0.068
755	0.068
755	0.068
756	0.067
756	0.067
757	0.066
757	0.067
758	0.067
758	0.067
758	0.067
759	0.067
759	0.066
760	0.066
760	0.066
761	0.066
761	0.066
761	0.066
762	0.066
762	0.066
763	0.065
763	0.065
764	0.064
764	0.064
764	0.064
765	0.063
765	0.063
766	0.063
766	0.062
767	0.062
767	0.061
768	0.06
768	0.061
768	0.061
769	0.061
769	0.062
770	0.062
770	0.063
771	0.064
771	0.065
771	0.066
772	0.067
772	0.068
773	0.068
773	0.068
774	0.068
774	0.068
775	0.069
775	0.069
775	0.068
776	0.068
776	0.068
777	0.069
777	0.068
778	0.068
778	0.068
778	0.068
779	0.068
779	0.067
780	0.066
780	0.065
781	0.065
781	0.064
781	0.063
782	0.063
782	0.062
783	0.063
783	0.063
784	0.063
784	0.063
784	0.063
785	0.063
785	0.063
786	0.063
786	0.063
787	0.063
787	0.062
788	0.061
788	0.061
788	0.06
789	0.059
789	0.058
790	0.058
790	0.058
791	0.057
791	0.057
791	0.057
792	0.057
792	0.057
793	0.057
793	0.057
794	0.057
794	0.056
794	0.056
795	0.056
795	0.056
796	0.056
796	0.056
797	0.056
797	0.056
797	0.057
798	0.057
798	0.057
799	0.057
799	0.057
800	0.057
800	0.057
801	0.057
801	0.057
801	0.057
802	0.057
802	0.057
803	0.057
803	0.057
804	0.057
804	0.058
804	0.058
805	0.057
805	0.057
806	0.057
806	0.057
807	0.056
807	0.056
807	0.055
808	0.055
808	0.055
809	0.055
809	0.055
810	0.056
810	0.056
810	0.056
811	0.056
811	0.056
812	0.057
812	0.057
813	0.056
813	0.056
813	0.056
814	0.056
814	0.056
815	0.056
815	0.056
816	0.056
816	0.055
817	0.054
817	0.054
817	0.054
818	0.054
818	0.054
819	0.054
819	0.053
820	0.053
820	0.053
820	0.053
821	0.053
821	0.053
822	0.053
822	0.053
823	0.053
823	0.053
823	0.053
824	0.054
824	0.055
825	0.056
825	0.056
826	0.057
826	0.057
826	0.057
827	0.057
827	0.057
828	0.058
828	0.058
829	0.058
829	0.058
829	0.057
830	0.058
830	0.058
831	0.059
831	0.059
832	0.059
832	0.059
832	0.059
833	0.059
833	0.058
834	0.058
834	0.057
835	0.057
835	0.056
835	0.056
836	0.055
836	0.055
837	0.055
837	0.054
838	0.054
838	0.053
839	0.053
839	0.052
839	0.051
840	0.05
840	0.049
841	0.048
841	0.047
842	0.047
842	0.046
842	0.046
843	0.045
843	0.045
844	0.044
844	0.044
845	0.043
845	0.043
845	0.043
846	0.043
846	0.042
847	0.042
847	0.043
848	0.043
848	0.044
848	0.044
849	0.045
849	0.046
850	0.047
850	0.047
851	0.048
851	0.048
851	0.048
852	0.048
852	0.048
853	0.048
853	0.047
854	0.048
854	0.048
854	0.048
855	0.049
855	0.049
856	0.049
856	0.05
857	0.05
857	0.051
857	0.051
858	0.051
858	0.051
859	0.051
859	0.05
860	0.05
860	0.049
860	0.049
861	0.048
861	0.048
862	0.047
862	0.046
863	0.045
863	0.045
863	0.044
864	0.044
864	0.044
865	0.044
865	0.044
866	0.044
866	0.044
866	0.044
867	0.045
867	0.045
868	0.046
868	0.046
869	0.047
869	0.047
869	0.047
870	0.047
870	0.047
871	0.046
871	0.046
872	0.046
872	0.046
872	0.045
873	0.045
873	0.044
874	0.044
874	0.044
875	0.043
875	0.043
875	0.043
876	0.043
876	0.043
877	0.043
877	0.043
878	0.043
878	0.043
878	0.044
879	0.044
879	0.045
880	0.045
880	0.045
881	0.046
881	0.046
881	0.046
882	0.046
882	0.046
883	0.046
883	0.046
884	0.046
884	0.046
884	0.046
885	0.045
885	0.045
886	0.045
886	0.044
887	0.044
887	0.043
887	0.043
888	0.042
888	0.041
889	0.041
889	0.041
890	0.041
890	0.041
890	0.04
891	0.04
891	0.04
892	0.04
892	0.04
893	0.04
893	0.04
893	0.04
894	0.04
894	0.039
895	0.039
895	0.039
895	0.039
896	0.04
896	0.04
897	0.041
897	0.041
898	0.041
898	0.042
898	0.042
899	0.042
899	0.042
900	0.042
900	0.042
901	0.042
901	0.042
901	0.041
902	0.041
902	0.041
903	0.041
903	0.041
904	0.041
904	0.04
904	0.04
905	0.04
905	0.04
906	0.039
906	0.04
907	0.04
907	0.04
907	0.04
908	0.041
908	0.041
909	0.041
909	0.041
910	0.041
910	0.041
910	0.041
911	0.041
911	0.04
912	0.04
912	0.04
913	0.039
913	0.039
913	0.039
914	0.039
914	0.039
915	0.039
915	0.039
916	0.039
916	0.039
916	0.039
917	0.038
917	0.038
918	0.038
918	0.037
918	0.037
919	0.036
919	0.036
920	0.036
920	0.036
921	0.036
921	0.035
921	0.035
922	0.035
922	0.035
923	0.035
923	0.035
924	0.036
924	0.036
924	0.037
925	0.037
925	0.038
926	0.039
926	0.039
927	0.04
927	0.04
927	0.041
928	0.041
928	0.041
929	0.041
929	0.041
930	0.041
930	0.042
930	0.042
931	0.042
931	0.042
932	0.042
932	0.043
933	0.043
933	0.043
933	0.043
934	0.044
934	0.043
935	0.043
935	0.043
935	0.042
936	0.042
936	0.041
937	0.041
937	0.04
938	0.039
938	0.038
938	0.038
939	0.037
939	0.036
940	0.036
940	0.036
941	0.037
941	0.037
941	0.037
942	0.037
942	0.038
943	0.038
943	0.038
944	0.038
944	0.039
944	0.039
945	0.039
945	0.039
946	0.039
946	0.039
946	0.039
947	0.039
947	0.038
948	0.038
948	0.038
949	0.038
949	0.038
949	0.038
950	0.038
950	0.038
951	0.038
951	0.038
952	0.038
952	0.038
952	0.038
953	0.038
953	0.038
954	0.038
954	0.039
955	0.039
955	0.039
955	0.039
956	0.039
956	0.039
957	0.04
957	0.04
957	0.04
958	0.04
958	0.04
959	0.04
959	0.04
960	0.04
960	0.04
960	0.04
961	0.04
961	0.04
962	0.04
962	0.04
963	0.04
963	0.04
963	0.04
964	0.04
964	0.04
965	0.041
965	0.041
966	0.041
966	0.041
966	0.042
967	0.042
967	0.042
968	0.041
968	0.041
968	0.04
969	0.04
969	0.039
970	0.038
970	0.037
971	0.036
971	0.035
971	0.035
972	0.034
972	0.034
973	0.033
973	0.033
974	0.033
974	0.033
974	0.034
975	0.034
975	0.035
976	0.036
976	0.036
976	0.037
977	0.037
977	0.038
978	0.038
978	0.038
979	0.038
979	0.037
979	0.037
980	0.037
980	0.036
981	0.036
981	0.035
982	0.035
982	0.035
982	0.034
983	0.034
983	0.034
984	0.034
984	0.034
984	0.035
985	0.035
985	0.035
986	0.035
986	0.036
987	0.036
987	0.036
987	0.036
988	0.036
988	0.036
989	0.036
989	0.036
990	0.036
990	0.036
990	0.036
991	0.035
991	0.035
992	0.034
992	0.033
992	0.033
993	0.032
993	0.031
994	0.03
994	0.029
995	0.028
995	0.028
995	0.028
996	0.027
996	0.027
997	0.028
997	0.028
997	0.029
998	0.029
998	0.03
999	0.031
999	0.032
1000	0.033
1000	0.033
1000	0.033
1001	0.034
1001	0.034
1002	0.034
1002	0.033
1003	0.033
1003	0.032
1003	0.031
1004	0.03
1004	0.029
1005	0.028
1005	0.027
1005	0.027
1006	0.026
1006	0.025
1007	0.024
1007	0.024
1008	0.023
1008	0.023
1008	0.023
1009	0.023
1009	0.023
1010	0.024
1010	0.024
1010	0.024
1011	0.024
1011	0.024
1012	0.024
1012	0.024
1013	0.024
1013	0.024
1013	0.024
1014	0.024
1014	0.024
1015	0.024
1015	0.024
1016	0.024
1016	0.024
1016	0.024
1017	0.025
1017	0.025
1018	0.025
1018	0.025
1018	0.026
1019	0.026
1019	0.027
1020	0.027
1020	0.027
1021	0.028
1021	0.028
1021	0.029
1022	0.029
1022	0.029
1023	0.03
1023	0.03
1023	0.03
1024	0.03
1024	0.03
1025	0.03
1025	0.03
1026	0.03
1026	0.03
1026	0.03
1027	0.029
1027	0.029
1028	0.029
1028	0.029
1028	0.029
1029	0.029
1029	0.029
1030	0.029
1030	0.029
1031	0.03
1031	0.03
1031	0.03
1032	0.031
1032	0.032
1033	0.032
1033	0.033
1033	0.033
1034	0.033
1034	0.033
1035	0.033
1035	0.033
1036	0.033
1036	0.033
1036	0.033
1037	0.033
1037	0.033
1038	0.033
1038	0.033
1039	0.033
1039	0.033
1039	0.033
1040	0.033
1040	0.033
1041	0.033
1041	0.032
1041	0.032
1042	0.032
1042	0.032
1043	0.032
1043	0.032
1044	0.032
1044	0.031
1044	0.031
1045	0.031
1045	0.031
1046	0.031
1046	0.031
1046	0.031
1047	0.031
1047	0.032
1048	0.032
1048	0.032
1049	0.033
1049	0.033
1049	0.033
1050	0.033
1050	0.033
1051	0.033
1051	0.033
1051	0.032
1052	0.032
1052	0.031
1053	0.03
1053	0.03
1053	0.029
1054	0.029
1054	0.028
1055	0.028
1055	0.027
1056	0.027
1056	0.026
1056	0.026
1057	0.026
1057	0.025
1058	0.025
1058	0.024
1058	0.023
1059	0.023
1059	0.023
1060	0.022
1060	0.022
1061	0.022
1061	0.021
1061	0.021
1062	0.021
1062	0.021
1063	0.021
1063	0.02
1063	0.02
1064	0.02
1064	0.02
1065	0.019
1065	0.019
1066	0.019
1066	0.019
1066	0.019
1067	0.019
1067	0.019
1068	0.019
1068	0.019
1068	0.019
1069	0.019
1069	0.019
1070	0.019
1070	0.018
1071	0.018
1071	0.018
1071	0.017
1072	0.018
1072	0.017
1073	0.017
1073	0.017
1073	0.017
1074	0.017
1074	0.018
1075	0.018
1075	0.019
1076	0.019
1076	0.02
1076	0.02
1077	0.02
1077	0.021
1078	0.021
1078	0.021
1078	0.02
1079	0.02
1079	0.02
1080	0.019
1080	0.019
1080	0.018
1081	0.018
1081	0.018
1082	0.018
1082	0.018
1083	0.018
1083	0.018
1083	0.018
1084	0.018
1084	0.018
1085	0.018
1085	0.019
1085	0.019
1086	0.02
1086	0.019
1087	0.02
1087	0.02
1088	0.02
1088	0.02
1088	0.021
1089	0.02
1089	0.02
1090	0.019
1090	0.018
1090	0.017
1091	0.016
1091	0.016
1092	0.016
1092	0.016
1092	0.015
1093	0.014
1093	0.015
1094	0.014
1094	0.014
1095	0.014
1095	0.014
1095	0.014
1096	0.013
1096	0.012
1097	0.012
1097	0.011
1097	0.011
1098	0.009
1098	0.009
1099	0.008
1099	0.006
1100	0.005
1100	0.004
1100	0.003
1101	0.002
1101	0.001
1102	0
1102	-0
1102	-0.001
1103	-0.002
1103	-0.002
1104	-0.002
1104	-0.003
1104	-0.002
1105	-0.004
1105	-0.006
1106	-0.008
1106	-0.009
1107	-0.011
1107	-0.012
1107	-0.014
1108	-0.015
1108	-0.016
1109	-0.018
1109	-0.019
1109	-0.02
1110	-0.018
1110	-0.019
1111	-0.021
1111	-0.024
