Data from reversibility-20sec_Absorbance__84__000000000000084.txt Node

Date: Tue Dec 05 12:41:05 CET 2023
User: Marek
Spectrometer: MAYP115816
Trigger mode: 0
Integration Time (sec): 2.000000E-1
Scans to average: 10
Electric dark correction enabled: true
Nonlinearity correction enabled: true
Boxcar width: 5
XAxis mode: Wavelengths
Number of Pixels in Spectrum: 2068
>>>>>Begin Spectral Data<<<<<
199	-0.207
199	-0.188
200	-0.121
200	-0.072
201	-0.045
201	-0.029
202	-0.013
202	-0.003
203	0.003
203	0.005
204	0.016
204	0.028
205	0.041
205	0.045
205	0.042
206	0.041
206	0.04
207	0.04
207	0.038
208	0.037
208	0.037
209	0.041
209	0.038
210	0.039
210	0.039
211	0.042
211	0.045
212	0.044
212	0.046
213	0.05
213	0.052
213	0.053
214	0.056
214	0.058
215	0.059
215	0.061
216	0.064
216	0.062
217	0.069
217	0.069
218	0.069
218	0.073
219	0.078
219	0.079
220	0.082
220	0.081
221	0.081
221	0.083
221	0.088
222	0.092
222	0.098
223	0.105
223	0.108
224	0.113
224	0.119
225	0.128
225	0.14
226	0.152
226	0.164
227	0.174
227	0.185
228	0.196
228	0.209
229	0.23
229	0.253
229	0.275
230	0.299
230	0.326
231	0.357
231	0.394
232	0.43
232	0.47
233	0.516
233	0.566
234	0.611
234	0.663
235	0.712
235	0.766
236	0.817
236	0.87
236	0.921
237	0.973
237	1.023
238	1.068
238	1.112
239	1.16
239	1.202
240	1.246
240	1.281
241	1.316
241	1.349
242	1.381
242	1.415
243	1.443
243	1.47
243	1.493
244	1.514
244	1.535
245	1.552
245	1.572
246	1.59
246	1.608
247	1.621
247	1.633
248	1.648
248	1.662
249	1.673
249	1.681
250	1.689
250	1.699
250	1.705
251	1.71
251	1.712
252	1.717
252	1.719
253	1.719
253	1.715
254	1.715
254	1.717
255	1.715
255	1.714
256	1.714
256	1.713
257	1.712
257	1.71
258	1.709
258	1.708
258	1.71
259	1.709
259	1.708
260	1.706
260	1.706
261	1.705
261	1.707
262	1.708
262	1.709
263	1.711
263	1.711
264	1.71
264	1.711
265	1.71
265	1.711
265	1.711
266	1.71
266	1.708
267	1.707
267	1.707
268	1.705
268	1.705
269	1.707
269	1.705
270	1.705
270	1.703
271	1.702
271	1.702
272	1.699
272	1.698
272	1.695
273	1.691
273	1.687
274	1.683
274	1.679
275	1.673
275	1.666
276	1.66
276	1.653
277	1.646
277	1.637
278	1.626
278	1.615
278	1.602
279	1.587
279	1.57
280	1.551
280	1.527
281	1.499
281	1.467
282	1.433
282	1.398
283	1.364
283	1.33
284	1.296
284	1.262
285	1.23
285	1.2
285	1.173
286	1.149
286	1.128
287	1.11
287	1.094
288	1.08
288	1.068
289	1.057
289	1.048
290	1.041
290	1.034
291	1.028
291	1.023
292	1.018
292	1.014
292	1.01
293	1.007
293	1.003
294	1
294	0.998
295	0.995
295	0.992
296	0.989
296	0.987
297	0.984
297	0.982
298	0.979
298	0.976
298	0.973
299	0.971
299	0.969
300	0.966
300	0.964
301	0.962
301	0.959
302	0.957
302	0.954
303	0.952
303	0.95
304	0.948
304	0.946
305	0.943
305	0.941
305	0.938
306	0.936
306	0.933
307	0.931
307	0.929
308	0.926
308	0.924
309	0.921
309	0.918
310	0.915
310	0.912
311	0.909
311	0.906
311	0.903
312	0.899
312	0.896
313	0.892
313	0.889
314	0.885
314	0.881
315	0.877
315	0.873
316	0.869
316	0.864
317	0.86
317	0.855
318	0.85
318	0.846
318	0.841
319	0.835
319	0.83
320	0.824
320	0.819
321	0.813
321	0.808
322	0.802
322	0.796
323	0.789
323	0.783
324	0.777
324	0.771
324	0.764
325	0.758
325	0.751
326	0.745
326	0.738
327	0.732
327	0.725
328	0.719
328	0.712
329	0.705
329	0.698
330	0.692
330	0.685
330	0.678
331	0.672
331	0.665
332	0.658
332	0.651
333	0.644
333	0.638
334	0.631
334	0.625
335	0.618
335	0.611
336	0.605
336	0.599
336	0.592
337	0.586
337	0.58
338	0.574
338	0.568
339	0.563
339	0.557
340	0.551
340	0.546
341	0.54
341	0.535
342	0.53
342	0.524
342	0.519
343	0.514
343	0.509
344	0.504
344	0.5
345	0.495
345	0.491
346	0.486
346	0.482
347	0.478
347	0.473
348	0.469
348	0.466
348	0.462
349	0.458
349	0.454
350	0.451
350	0.448
351	0.445
351	0.441
352	0.438
352	0.435
353	0.432
353	0.43
354	0.427
354	0.424
354	0.421
355	0.418
355	0.415
356	0.412
356	0.409
357	0.406
357	0.403
358	0.4
358	0.398
359	0.395
359	0.393
360	0.391
360	0.389
360	0.387
361	0.385
361	0.383
362	0.382
362	0.38
363	0.378
363	0.376
364	0.374
364	0.372
365	0.371
365	0.369
366	0.367
366	0.365
366	0.363
367	0.362
367	0.36
368	0.358
368	0.356
369	0.355
369	0.353
370	0.351
370	0.35
371	0.348
371	0.347
372	0.345
372	0.344
372	0.343
373	0.342
373	0.34
374	0.339
374	0.338
375	0.337
375	0.336
376	0.335
376	0.334
377	0.332
377	0.331
378	0.33
378	0.329
378	0.328
379	0.327
379	0.326
380	0.325
380	0.324
381	0.323
381	0.322
382	0.321
382	0.32
383	0.319
383	0.318
383	0.318
384	0.317
384	0.316
385	0.315
385	0.315
386	0.314
386	0.313
387	0.313
387	0.312
388	0.311
388	0.311
389	0.31
389	0.309
389	0.309
390	0.308
390	0.308
391	0.307
391	0.307
392	0.306
392	0.306
393	0.305
393	0.304
394	0.304
394	0.303
394	0.302
395	0.302
395	0.301
396	0.301
396	0.3
397	0.299
397	0.299
398	0.298
398	0.298
399	0.297
399	0.296
400	0.296
400	0.296
400	0.295
401	0.295
401	0.294
402	0.294
402	0.293
403	0.293
403	0.292
404	0.292
404	0.291
405	0.291
405	0.291
405	0.29
406	0.29
406	0.289
407	0.289
407	0.288
408	0.288
408	0.287
409	0.287
409	0.287
410	0.286
410	0.286
411	0.285
411	0.285
411	0.285
412	0.284
412	0.284
413	0.283
413	0.283
414	0.283
414	0.282
415	0.282
415	0.282
416	0.281
416	0.281
416	0.281
417	0.28
417	0.28
418	0.28
418	0.28
419	0.279
419	0.279
420	0.279
420	0.278
421	0.278
421	0.278
421	0.277
422	0.277
422	0.277
423	0.277
423	0.276
424	0.276
424	0.276
425	0.276
425	0.275
426	0.275
426	0.275
427	0.274
427	0.274
427	0.274
428	0.274
428	0.274
429	0.274
429	0.273
430	0.273
430	0.273
431	0.273
431	0.273
432	0.273
432	0.273
432	0.273
433	0.273
433	0.272
434	0.272
434	0.272
435	0.272
435	0.272
436	0.272
436	0.271
437	0.271
437	0.271
437	0.271
438	0.271
438	0.271
439	0.271
439	0.271
440	0.27
440	0.27
441	0.27
441	0.27
442	0.27
442	0.27
442	0.27
443	0.269
443	0.27
444	0.27
444	0.27
445	0.27
445	0.27
446	0.27
446	0.27
447	0.27
447	0.27
447	0.27
448	0.27
448	0.27
449	0.27
449	0.27
450	0.27
450	0.27
451	0.27
451	0.27
452	0.27
452	0.27
452	0.27
453	0.27
453	0.27
454	0.27
454	0.27
455	0.27
455	0.27
456	0.27
456	0.27
457	0.27
457	0.27
458	0.27
458	0.271
458	0.271
459	0.271
459	0.271
460	0.272
460	0.272
461	0.272
461	0.272
462	0.272
462	0.272
463	0.273
463	0.273
463	0.273
464	0.273
464	0.273
465	0.273
465	0.273
466	0.274
466	0.274
467	0.274
467	0.275
467	0.275
468	0.275
468	0.276
469	0.276
469	0.277
470	0.277
470	0.278
471	0.278
471	0.278
472	0.279
472	0.28
472	0.28
473	0.281
473	0.281
474	0.282
474	0.282
475	0.283
475	0.284
476	0.284
476	0.285
477	0.286
477	0.287
477	0.288
478	0.288
478	0.289
479	0.29
479	0.291
480	0.291
480	0.292
481	0.293
481	0.294
482	0.295
482	0.296
482	0.297
483	0.298
483	0.299
484	0.3
484	0.301
485	0.302
485	0.303
486	0.304
486	0.305
487	0.306
487	0.307
487	0.309
488	0.31
488	0.311
489	0.312
489	0.314
490	0.316
490	0.317
491	0.319
491	0.32
492	0.321
492	0.323
492	0.324
493	0.326
493	0.327
494	0.329
494	0.33
495	0.332
495	0.334
496	0.335
496	0.337
496	0.339
497	0.34
497	0.342
498	0.344
498	0.345
499	0.347
499	0.349
500	0.351
500	0.353
501	0.354
501	0.356
501	0.357
502	0.359
502	0.36
503	0.362
503	0.364
504	0.365
504	0.367
505	0.368
505	0.37
506	0.371
506	0.373
506	0.374
507	0.376
507	0.378
508	0.379
508	0.38
509	0.382
509	0.383
510	0.385
510	0.386
511	0.388
511	0.389
511	0.39
512	0.392
512	0.393
513	0.394
513	0.395
514	0.396
514	0.397
515	0.398
515	0.398
515	0.399
516	0.4
516	0.401
517	0.402
517	0.403
518	0.403
518	0.403
519	0.404
519	0.404
520	0.405
520	0.405
520	0.405
521	0.405
521	0.405
522	0.405
522	0.405
523	0.405
523	0.405
524	0.404
524	0.404
524	0.404
525	0.404
525	0.403
526	0.402
526	0.401
527	0.401
527	0.4
528	0.399
528	0.398
529	0.397
529	0.396
529	0.394
530	0.392
530	0.391
531	0.39
531	0.389
532	0.387
532	0.385
533	0.384
533	0.382
533	0.381
534	0.379
534	0.377
535	0.376
535	0.374
536	0.372
536	0.37
537	0.368
537	0.365
538	0.363
538	0.361
538	0.358
539	0.356
539	0.354
540	0.351
540	0.349
541	0.347
541	0.344
542	0.342
542	0.339
542	0.336
543	0.334
543	0.331
544	0.329
544	0.326
545	0.324
545	0.321
546	0.319
546	0.316
547	0.313
547	0.311
547	0.308
548	0.306
548	0.303
549	0.301
549	0.298
550	0.295
550	0.292
551	0.289
551	0.287
551	0.284
552	0.281
552	0.279
553	0.276
553	0.273
554	0.27
554	0.268
555	0.265
555	0.262
556	0.26
556	0.257
556	0.255
557	0.253
557	0.251
558	0.249
558	0.246
559	0.244
559	0.241
560	0.239
560	0.237
560	0.235
561	0.233
561	0.23
562	0.227
562	0.225
563	0.222
563	0.22
564	0.217
564	0.215
564	0.213
565	0.211
565	0.208
566	0.206
566	0.204
567	0.202
567	0.2
568	0.198
568	0.196
568	0.195
569	0.193
569	0.191
570	0.189
570	0.187
571	0.185
571	0.183
572	0.182
572	0.18
573	0.178
573	0.177
573	0.175
574	0.174
574	0.172
575	0.171
575	0.169
576	0.168
576	0.166
577	0.165
577	0.163
577	0.162
578	0.16
578	0.159
579	0.158
579	0.156
580	0.154
580	0.153
581	0.151
581	0.15
581	0.148
582	0.147
582	0.146
583	0.145
583	0.144
584	0.142
584	0.14
585	0.139
585	0.137
585	0.136
586	0.134
586	0.133
587	0.131
587	0.13
588	0.129
588	0.128
589	0.126
589	0.126
590	0.125
590	0.124
590	0.124
591	0.123
591	0.121
592	0.12
592	0.119
593	0.118
593	0.117
594	0.116
594	0.115
594	0.114
595	0.113
595	0.112
596	0.111
596	0.11
597	0.11
597	0.109
598	0.108
598	0.108
598	0.107
599	0.106
599	0.105
600	0.105
600	0.104
601	0.103
601	0.102
602	0.101
602	0.1
602	0.099
603	0.099
603	0.098
604	0.098
604	0.097
605	0.097
605	0.096
606	0.096
606	0.095
606	0.094
607	0.093
607	0.092
608	0.091
608	0.09
609	0.089
609	0.089
610	0.088
610	0.087
610	0.086
611	0.086
611	0.085
612	0.085
612	0.084
613	0.084
613	0.083
614	0.083
614	0.082
614	0.081
615	0.081
615	0.08
616	0.079
616	0.079
617	0.078
617	0.078
618	0.077
618	0.077
618	0.076
619	0.076
619	0.076
620	0.076
620	0.075
621	0.075
621	0.074
622	0.073
622	0.073
622	0.072
623	0.072
623	0.071
624	0.071
624	0.07
625	0.069
625	0.068
626	0.068
626	0.067
626	0.067
627	0.067
627	0.066
628	0.065
628	0.065
629	0.064
629	0.063
630	0.063
630	0.062
630	0.062
631	0.062
631	0.061
632	0.061
632	0.061
633	0.061
633	0.061
634	0.061
634	0.061
634	0.061
635	0.061
635	0.061
636	0.061
636	0.061
637	0.06
637	0.06
638	0.06
638	0.059
638	0.059
639	0.058
639	0.057
640	0.057
640	0.057
641	0.056
641	0.056
642	0.055
642	0.055
642	0.054
643	0.054
643	0.054
644	0.054
644	0.053
645	0.053
645	0.053
646	0.052
646	0.052
646	0.052
647	0.052
647	0.051
648	0.051
648	0.05
649	0.05
649	0.05
650	0.049
650	0.049
650	0.049
651	0.049
651	0.049
652	0.049
652	0.048
653	0.048
653	0.049
653	0.053
654	0.043
654	0.035
655	0.034
655	0.034
656	0.034
656	0.035
657	0.035
657	0.035
657	0.035
658	0.034
658	0.03
659	0.037
659	0.046
660	0.048
660	0.047
661	0.047
661	0.046
661	0.045
662	0.045
662	0.044
663	0.043
663	0.043
664	0.042
664	0.042
665	0.042
665	0.042
665	0.042
666	0.042
666	0.041
667	0.041
667	0.041
668	0.042
668	0.042
669	0.041
669	0.041
669	0.042
670	0.041
670	0.041
671	0.041
671	0.04
672	0.04
672	0.039
672	0.039
673	0.038
673	0.038
674	0.038
674	0.037
675	0.037
675	0.037
676	0.037
676	0.037
676	0.037
677	0.037
677	0.037
678	0.037
678	0.036
679	0.036
679	0.036
680	0.036
680	0.036
680	0.036
681	0.036
681	0.036
682	0.036
682	0.036
683	0.036
683	0.037
684	0.037
684	0.037
684	0.037
685	0.037
685	0.037
686	0.036
686	0.036
687	0.036
687	0.035
687	0.035
688	0.035
688	0.034
689	0.034
689	0.034
690	0.034
690	0.034
691	0.034
691	0.034
691	0.034
692	0.034
692	0.034
693	0.034
693	0.035
694	0.034
694	0.034
695	0.035
695	0.036
695	0.035
696	0.035
696	0.035
697	0.035
697	0.035
698	0.034
698	0.034
698	0.034
699	0.034
699	0.033
700	0.033
700	0.033
701	0.033
701	0.033
702	0.033
702	0.032
702	0.032
703	0.031
703	0.031
704	0.03
704	0.03
705	0.03
705	0.029
705	0.029
706	0.029
706	0.029
707	0.029
707	0.029
708	0.03
708	0.03
709	0.03
709	0.03
709	0.03
710	0.03
710	0.03
711	0.03
711	0.03
712	0.03
712	0.03
713	0.029
713	0.029
713	0.029
714	0.029
714	0.029
715	0.029
715	0.029
716	0.028
716	0.028
716	0.027
717	0.027
717	0.026
718	0.025
718	0.025
719	0.025
719	0.025
720	0.025
720	0.025
720	0.025
721	0.025
721	0.026
722	0.026
722	0.026
723	0.026
723	0.026
723	0.026
724	0.026
724	0.025
725	0.024
725	0.023
726	0.023
726	0.022
727	0.022
727	0.022
727	0.022
728	0.021
728	0.021
729	0.022
729	0.022
730	0.022
730	0.022
730	0.023
731	0.023
731	0.023
732	0.023
732	0.023
733	0.022
733	0.022
734	0.022
734	0.023
734	0.023
735	0.023
735	0.023
736	0.022
736	0.022
737	0.022
737	0.023
737	0.023
738	0.022
738	0.022
739	0.021
739	0.021
740	0.02
740	0.02
741	0.02
741	0.02
741	0.02
742	0.02
742	0.02
743	0.021
743	0.021
744	0.021
744	0.022
744	0.022
745	0.022
745	0.022
746	0.022
746	0.022
747	0.022
747	0.021
748	0.021
748	0.021
748	0.02
749	0.02
749	0.019
750	0.019
750	0.018
751	0.018
751	0.017
751	0.017
752	0.017
752	0.017
753	0.017
753	0.017
754	0.017
754	0.017
754	0.017
755	0.018
755	0.018
756	0.018
756	0.017
757	0.016
757	0.016
758	0.016
758	0.015
758	0.015
759	0.015
759	0.015
760	0.015
760	0.015
761	0.015
761	0.016
761	0.016
762	0.016
762	0.016
763	0.016
763	0.016
764	0.016
764	0.015
764	0.015
765	0.014
765	0.014
766	0.013
766	0.012
767	0.012
767	0.011
768	0.011
768	0.011
768	0.011
769	0.011
769	0.011
770	0.011
770	0.011
771	0.011
771	0.011
771	0.011
772	0.012
772	0.012
773	0.012
773	0.011
774	0.011
774	0.011
775	0.011
775	0.011
775	0.011
776	0.011
776	0.012
777	0.012
777	0.012
778	0.012
778	0.011
778	0.011
779	0.012
779	0.011
780	0.011
780	0.011
781	0.011
781	0.011
781	0.011
782	0.011
782	0.012
783	0.012
783	0.012
784	0.012
784	0.012
784	0.013
785	0.013
785	0.013
786	0.013
786	0.013
787	0.013
787	0.013
788	0.013
788	0.012
788	0.012
789	0.012
789	0.012
790	0.011
790	0.011
791	0.01
791	0.01
791	0.009
792	0.008
792	0.008
793	0.007
793	0.006
794	0.006
794	0.005
794	0.005
795	0.005
795	0.005
796	0.005
796	0.005
797	0.005
797	0.006
797	0.007
798	0.007
798	0.008
799	0.008
799	0.009
800	0.009
800	0.009
801	0.008
801	0.008
801	0.008
802	0.008
802	0.008
803	0.008
803	0.008
804	0.008
804	0.008
804	0.008
805	0.009
805	0.009
806	0.01
806	0.01
807	0.01
807	0.01
807	0.01
808	0.011
808	0.011
809	0.011
809	0.011
810	0.012
810	0.012
810	0.012
811	0.012
811	0.012
812	0.012
812	0.012
813	0.012
813	0.012
813	0.012
814	0.012
814	0.012
815	0.012
815	0.012
816	0.012
816	0.012
817	0.012
817	0.011
817	0.011
818	0.01
818	0.01
819	0.01
819	0.009
820	0.009
820	0.008
820	0.008
821	0.008
821	0.008
822	0.008
822	0.008
823	0.008
823	0.008
823	0.008
824	0.009
824	0.01
825	0.01
825	0.011
826	0.011
826	0.011
826	0.011
827	0.012
827	0.012
828	0.012
828	0.012
829	0.012
829	0.012
829	0.011
830	0.012
830	0.012
831	0.012
831	0.012
832	0.012
832	0.012
832	0.012
833	0.012
833	0.012
834	0.011
834	0.011
835	0.011
835	0.01
835	0.01
836	0.01
836	0.01
837	0.009
837	0.009
838	0.008
838	0.007
839	0.007
839	0.006
839	0.005
840	0.004
840	0.003
841	0.002
841	0.002
842	0.001
842	0.001
842	0.001
843	0.001
843	0.001
844	0.001
844	0.001
845	0.001
845	0
845	0
846	0
846	-0
847	-0
847	-0
848	0
848	0.001
848	0.001
849	0.001
849	0.002
850	0.003
850	0.003
851	0.003
851	0.004
851	0.004
852	0.003
852	0.003
853	0.003
853	0.003
854	0.003
854	0.004
854	0.005
855	0.005
855	0.006
856	0.006
856	0.007
857	0.007
857	0.008
857	0.008
858	0.008
858	0.007
859	0.006
859	0.005
860	0.004
860	0.003
860	0.003
861	0.002
861	0.002
862	0.001
862	0.001
863	0.001
863	0.001
863	0.001
864	0.001
864	0.001
865	0.001
865	0.001
866	0
866	0
866	0
867	0
867	0
868	0
868	0.001
869	0.001
869	0.001
869	0.001
870	0.001
870	0.001
871	0.002
871	0.002
872	0.003
872	0.003
872	0.004
873	0.004
873	0.004
874	0.004
874	0.004
875	0.005
875	0.005
875	0.005
876	0.005
876	0.005
877	0.005
877	0.006
878	0.006
878	0.007
878	0.007
879	0.008
879	0.008
880	0.008
880	0.008
881	0.008
881	0.007
881	0.007
882	0.006
882	0.006
883	0.005
883	0.004
884	0.004
884	0.003
884	0.002
885	0.002
885	0.001
886	0
886	-0
887	-0.001
887	-0.001
887	-0.002
888	-0.003
888	-0.003
889	-0.004
889	-0.004
890	-0.004
890	-0.004
890	-0.004
891	-0.003
891	-0.003
892	-0.002
892	-0.001
893	-0.001
893	0
893	0.001
894	0.001
894	0.002
895	0.002
895	0.002
895	0.002
896	0.001
896	0.001
897	0
897	-0
898	-0.001
898	-0.002
898	-0.002
899	-0.002
899	-0.003
900	-0.003
900	-0.003
901	-0.003
901	-0.003
901	-0.003
902	-0.003
902	-0.002
903	-0.002
903	-0.002
904	-0.002
904	-0.002
904	-0.002
905	-0.002
905	-0.002
906	-0.002
906	-0.002
907	-0.001
907	-0.001
907	-0.001
908	-0
908	0
909	0
909	0
910	0
910	0
910	0
911	-0
911	-0
912	-0.001
912	-0.001
913	-0.001
913	-0.002
913	-0.002
914	-0.002
914	-0.002
915	-0.003
915	-0.003
916	-0.003
916	-0.003
916	-0.004
917	-0.004
917	-0.005
918	-0.005
918	-0.005
918	-0.005
919	-0.005
919	-0.004
920	-0.003
920	-0.003
921	-0.002
921	-0.001
921	-0
922	0.001
922	0.002
923	0.002
923	0.003
924	0.004
924	0.004
924	0.005
925	0.005
925	0.006
926	0.006
926	0.006
927	0.006
927	0.007
927	0.007
928	0.007
928	0.007
929	0.007
929	0.007
930	0.007
930	0.007
930	0.006
931	0.006
931	0.006
932	0.006
932	0.005
933	0.005
933	0.004
933	0.004
934	0.003
934	0.003
935	0.002
935	0.002
935	0.001
936	0.001
936	0.001
937	0.001
937	0.001
938	0.001
938	0.001
938	0.001
939	0.001
939	0.001
940	0.001
940	0.002
941	0.002
941	0.003
941	0.003
942	0.003
942	0.004
943	0.004
943	0.004
944	0.004
944	0.004
944	0.005
945	0.005
945	0.005
946	0.005
946	0.005
946	0.005
947	0.005
947	0.005
948	0.005
948	0.005
949	0.005
949	0.005
949	0.005
950	0.005
950	0.005
951	0.004
951	0.004
952	0.004
952	0.003
952	0.002
953	0.002
953	0.001
954	0.001
954	-0
955	-0.001
955	-0.002
955	-0.002
956	-0.002
956	-0.002
957	-0.002
957	-0.002
957	-0.002
958	-0.002
958	-0.002
959	-0.002
959	-0.002
960	-0.001
960	-0.001
960	-0.001
961	-0.001
961	-0.001
962	-0.001
962	-0
963	-0
963	-0
963	-0
964	0
964	0.001
965	0.001
965	0.001
966	0.002
966	0.002
966	0.002
967	0.003
967	0.004
968	0.004
968	0.005
968	0.005
969	0.005
969	0.006
970	0.005
970	0.005
971	0.005
971	0.005
971	0.005
972	0.004
972	0.004
973	0.004
973	0.004
974	0.004
974	0.004
974	0.004
975	0.004
975	0.004
976	0.004
976	0.004
976	0.004
977	0.003
977	0.003
978	0.003
978	0.002
979	0.002
979	0.001
979	0.001
980	0
980	-0
981	-0.001
981	-0.002
982	-0.002
982	-0.002
982	-0.002
983	-0.003
983	-0.003
984	-0.003
984	-0.004
984	-0.004
985	-0.004
985	-0.004
986	-0.004
986	-0.005
987	-0.005
987	-0.005
987	-0.005
988	-0.005
988	-0.005
989	-0.005
989	-0.005
990	-0.005
990	-0.005
990	-0.004
991	-0.004
991	-0.004
992	-0.004
992	-0.004
992	-0.004
993	-0.004
993	-0.004
994	-0.004
994	-0.004
995	-0.004
995	-0.004
995	-0.003
996	-0.003
996	-0.002
997	-0.002
997	-0.001
997	-0
998	0.001
998	0.001
999	0.002
999	0.003
1000	0.003
1000	0.004
1000	0.004
1001	0.004
1001	0.004
1002	0.003
1002	0.003
1003	0.002
1003	0.002
1003	0.001
1004	0.001
1004	-0
1005	-0.001
1005	-0.001
1005	-0.002
1006	-0.002
1006	-0.003
1007	-0.003
1007	-0.003
1008	-0.003
1008	-0.003
1008	-0.002
1009	-0.002
1009	-0.002
1010	-0.001
1010	-0.001
1010	-0
1011	-0
1011	-0
1012	-0
1012	-0
1013	-0
1013	-0.001
1013	-0.001
1014	-0.002
1014	-0.002
1015	-0.003
1015	-0.003
1016	-0.003
1016	-0.004
1016	-0.004
1017	-0.004
1017	-0.005
1018	-0.005
1018	-0.005
1018	-0.005
1019	-0.005
1019	-0.005
1020	-0.005
1020	-0.006
1021	-0.005
1021	-0.005
1021	-0.005
1022	-0.005
1022	-0.006
1023	-0.006
1023	-0.006
1023	-0.006
1024	-0.006
1024	-0.006
1025	-0.007
1025	-0.007
1026	-0.007
1026	-0.008
1026	-0.008
1027	-0.009
1027	-0.009
1028	-0.009
1028	-0.01
1028	-0.01
1029	-0.011
1029	-0.011
1030	-0.011
1030	-0.011
1031	-0.011
1031	-0.011
1031	-0.011
1032	-0.011
1032	-0.011
1033	-0.011
1033	-0.011
1033	-0.011
1034	-0.011
1034	-0.012
1035	-0.012
1035	-0.012
1036	-0.013
1036	-0.013
1036	-0.013
1037	-0.013
1037	-0.013
1038	-0.013
1038	-0.013
1039	-0.012
1039	-0.012
1039	-0.012
1040	-0.011
1040	-0.011
1041	-0.01
1041	-0.01
1041	-0.01
1042	-0.009
1042	-0.009
1043	-0.008
1043	-0.008
1044	-0.008
1044	-0.008
1044	-0.007
1045	-0.007
1045	-0.006
1046	-0.006
1046	-0.005
1046	-0.005
1047	-0.004
1047	-0.004
1048	-0.004
1048	-0.003
1049	-0.003
1049	-0.002
1049	-0.002
1050	-0.002
1050	-0.003
1051	-0.003
1051	-0.003
1051	-0.003
1052	-0.004
1052	-0.004
1053	-0.005
1053	-0.005
1053	-0.006
1054	-0.006
1054	-0.007
1055	-0.007
1055	-0.007
1056	-0.007
1056	-0.007
1056	-0.008
1057	-0.008
1057	-0.008
1058	-0.009
1058	-0.009
1058	-0.01
1059	-0.01
1059	-0.01
1060	-0.01
1060	-0.011
1061	-0.011
1061	-0.011
1061	-0.011
1062	-0.011
1062	-0.011
1063	-0.011
1063	-0.011
1063	-0.012
1064	-0.012
1064	-0.013
1065	-0.013
1065	-0.014
1066	-0.014
1066	-0.014
1066	-0.014
1067	-0.015
1067	-0.015
1068	-0.015
1068	-0.015
1068	-0.015
1069	-0.015
1069	-0.015
1070	-0.016
1070	-0.016
1071	-0.017
1071	-0.017
1071	-0.017
1072	-0.017
1072	-0.018
1073	-0.018
1073	-0.018
1073	-0.018
1074	-0.018
1074	-0.018
1075	-0.018
1075	-0.017
1076	-0.017
1076	-0.017
1076	-0.016
1077	-0.016
1077	-0.016
1078	-0.016
1078	-0.015
1078	-0.015
1079	-0.015
1079	-0.015
1080	-0.015
1080	-0.014
1080	-0.014
1081	-0.014
1081	-0.014
1082	-0.014
1082	-0.013
1083	-0.013
1083	-0.014
1083	-0.014
1084	-0.014
1084	-0.014
1085	-0.015
1085	-0.015
1085	-0.015
1086	-0.015
1086	-0.016
1087	-0.016
1087	-0.017
1088	-0.017
1088	-0.017
1088	-0.017
1089	-0.018
1089	-0.018
1090	-0.019
1090	-0.019
1090	-0.02
1091	-0.02
1091	-0.02
1092	-0.02
1092	-0.02
1092	-0.02
1093	-0.02
1093	-0.02
1094	-0.02
1094	-0.02
1095	-0.02
1095	-0.019
1095	-0.02
1096	-0.021
1096	-0.021
1097	-0.021
1097	-0.022
1097	-0.022
1098	-0.022
1098	-0.023
1099	-0.023
1099	-0.024
1100	-0.025
1100	-0.025
1100	-0.025
1101	-0.026
1101	-0.026
1102	-0.026
1102	-0.027
1102	-0.028
1103	-0.028
1103	-0.028
1104	-0.028
1104	-0.029
1104	-0.03
1105	-0.031
1105	-0.033
1106	-0.034
1106	-0.036
1107	-0.037
1107	-0.038
1107	-0.039
1108	-0.04
1108	-0.041
1109	-0.042
1109	-0.044
1109	-0.044
1110	-0.043
1110	-0.045
1111	-0.044
1111	-0.045
