Data from reversibility-20sec_Absorbance__6354__000000000006354.txt Node

Date: Wed Dec 06 23:31:06 CET 2023
User: Marek
Spectrometer: MAYP115816
Trigger mode: 0
Integration Time (sec): 2.000000E-1
Scans to average: 10
Electric dark correction enabled: true
Nonlinearity correction enabled: true
Boxcar width: 5
XAxis mode: Wavelengths
Number of Pixels in Spectrum: 2068
>>>>>Begin Spectral Data<<<<<
199	-0.182
199	-0.152
200	-0.085
200	-0.035
201	-0.01
201	0.008
202	0.018
202	0.025
203	0.032
203	0.038
204	0.051
204	0.065
205	0.075
205	0.08
205	0.078
206	0.078
206	0.078
207	0.082
207	0.082
208	0.079
208	0.077
209	0.078
209	0.075
210	0.074
210	0.076
211	0.08
211	0.083
212	0.081
212	0.083
213	0.085
213	0.091
213	0.091
214	0.095
214	0.098
215	0.1
215	0.101
216	0.1
216	0.099
217	0.104
217	0.105
218	0.103
218	0.106
219	0.112
219	0.114
220	0.117
220	0.117
221	0.118
221	0.12
221	0.124
222	0.128
222	0.131
223	0.137
223	0.139
224	0.141
224	0.148
225	0.156
225	0.168
226	0.177
226	0.188
227	0.199
227	0.209
228	0.224
228	0.241
229	0.258
229	0.283
229	0.304
230	0.33
230	0.357
231	0.389
231	0.428
232	0.465
232	0.509
233	0.554
233	0.603
234	0.655
234	0.709
235	0.761
235	0.817
236	0.872
236	0.922
236	0.972
237	1.026
237	1.076
238	1.122
238	1.167
239	1.208
239	1.251
240	1.291
240	1.325
241	1.357
241	1.392
242	1.426
242	1.457
243	1.486
243	1.512
243	1.538
244	1.56
244	1.579
245	1.596
245	1.619
246	1.639
246	1.657
247	1.667
247	1.68
248	1.695
248	1.709
249	1.72
249	1.73
250	1.738
250	1.747
250	1.752
251	1.758
251	1.762
252	1.768
252	1.77
253	1.771
253	1.769
254	1.767
254	1.77
255	1.769
255	1.771
256	1.771
256	1.77
257	1.771
257	1.77
258	1.77
258	1.771
258	1.771
259	1.771
259	1.77
260	1.769
260	1.769
261	1.768
261	1.77
262	1.771
262	1.773
263	1.774
263	1.775
264	1.776
264	1.777
265	1.778
265	1.779
265	1.78
266	1.78
266	1.78
267	1.778
267	1.779
268	1.779
268	1.779
269	1.781
269	1.78
270	1.778
270	1.777
271	1.774
271	1.773
272	1.77
272	1.769
272	1.766
273	1.762
273	1.757
274	1.751
274	1.746
275	1.741
275	1.737
276	1.73
276	1.724
277	1.717
277	1.707
278	1.697
278	1.686
278	1.674
279	1.661
279	1.645
280	1.626
280	1.602
281	1.575
281	1.543
282	1.508
282	1.473
283	1.437
283	1.401
284	1.365
284	1.33
285	1.296
285	1.265
285	1.237
286	1.211
286	1.188
287	1.168
287	1.151
288	1.135
288	1.123
289	1.111
289	1.101
290	1.092
290	1.085
291	1.078
291	1.072
292	1.066
292	1.061
292	1.056
293	1.052
293	1.047
294	1.043
294	1.039
295	1.035
295	1.032
296	1.028
296	1.024
297	1.021
297	1.018
298	1.014
298	1.011
298	1.007
299	1.004
299	1.001
300	0.998
300	0.995
301	0.992
301	0.989
302	0.986
302	0.984
303	0.981
303	0.978
304	0.976
304	0.973
305	0.97
305	0.967
305	0.964
306	0.961
306	0.958
307	0.956
307	0.952
308	0.949
308	0.946
309	0.943
309	0.94
310	0.937
310	0.934
311	0.931
311	0.927
311	0.924
312	0.92
312	0.917
313	0.913
313	0.909
314	0.905
314	0.901
315	0.897
315	0.892
316	0.888
316	0.883
317	0.879
317	0.874
318	0.869
318	0.864
318	0.858
319	0.853
319	0.847
320	0.842
320	0.835
321	0.829
321	0.823
322	0.817
322	0.81
323	0.804
323	0.798
324	0.791
324	0.785
324	0.778
325	0.771
325	0.765
326	0.758
326	0.751
327	0.744
327	0.737
328	0.73
328	0.723
329	0.716
329	0.709
330	0.702
330	0.695
330	0.688
331	0.681
331	0.675
332	0.668
332	0.661
333	0.654
333	0.647
334	0.64
334	0.634
335	0.627
335	0.62
336	0.613
336	0.607
336	0.6
337	0.594
337	0.588
338	0.582
338	0.576
339	0.57
339	0.563
340	0.558
340	0.552
341	0.546
341	0.541
342	0.535
342	0.53
342	0.525
343	0.519
343	0.514
344	0.509
344	0.505
345	0.5
345	0.495
346	0.491
346	0.486
347	0.482
347	0.478
348	0.473
348	0.469
348	0.465
349	0.461
349	0.458
350	0.454
350	0.451
351	0.447
351	0.444
352	0.44
352	0.437
353	0.434
353	0.432
354	0.429
354	0.425
354	0.422
355	0.419
355	0.416
356	0.413
356	0.41
357	0.407
357	0.404
358	0.401
358	0.398
359	0.396
359	0.394
360	0.391
360	0.39
360	0.388
361	0.386
361	0.384
362	0.383
362	0.381
363	0.379
363	0.377
364	0.375
364	0.373
365	0.371
365	0.369
366	0.368
366	0.366
366	0.364
367	0.362
367	0.36
368	0.358
368	0.357
369	0.355
369	0.354
370	0.352
370	0.351
371	0.349
371	0.348
372	0.346
372	0.345
372	0.344
373	0.343
373	0.341
374	0.34
374	0.339
375	0.338
375	0.337
376	0.336
376	0.335
377	0.334
377	0.333
378	0.332
378	0.331
378	0.33
379	0.329
379	0.328
380	0.327
380	0.326
381	0.326
381	0.325
382	0.324
382	0.324
383	0.323
383	0.322
383	0.321
384	0.321
384	0.32
385	0.319
385	0.319
386	0.318
386	0.318
387	0.317
387	0.316
388	0.315
388	0.315
389	0.314
389	0.314
389	0.313
390	0.313
390	0.312
391	0.312
391	0.311
392	0.311
392	0.31
393	0.31
393	0.309
394	0.309
394	0.309
394	0.308
395	0.308
395	0.307
396	0.307
396	0.306
397	0.306
397	0.305
398	0.305
398	0.304
399	0.304
399	0.304
400	0.303
400	0.303
400	0.302
401	0.302
401	0.302
402	0.301
402	0.301
403	0.3
403	0.3
404	0.299
404	0.299
405	0.299
405	0.298
405	0.298
406	0.297
406	0.297
407	0.297
407	0.296
408	0.296
408	0.296
409	0.295
409	0.295
410	0.294
410	0.294
411	0.294
411	0.294
411	0.293
412	0.293
412	0.292
413	0.292
413	0.291
414	0.291
414	0.291
415	0.291
415	0.29
416	0.29
416	0.29
416	0.289
417	0.289
417	0.289
418	0.289
418	0.288
419	0.288
419	0.287
420	0.287
420	0.286
421	0.286
421	0.285
421	0.285
422	0.285
422	0.284
423	0.284
423	0.283
424	0.283
424	0.283
425	0.283
425	0.282
426	0.282
426	0.282
427	0.282
427	0.281
427	0.281
428	0.281
428	0.28
429	0.28
429	0.28
430	0.28
430	0.279
431	0.279
431	0.279
432	0.279
432	0.279
432	0.279
433	0.278
433	0.278
434	0.278
434	0.278
435	0.278
435	0.278
436	0.277
436	0.277
437	0.277
437	0.277
437	0.276
438	0.276
438	0.276
439	0.276
439	0.275
440	0.275
440	0.275
441	0.275
441	0.275
442	0.275
442	0.274
442	0.274
443	0.274
443	0.274
444	0.274
444	0.274
445	0.273
445	0.273
446	0.273
446	0.273
447	0.273
447	0.272
447	0.272
448	0.272
448	0.272
449	0.272
449	0.272
450	0.272
450	0.272
451	0.272
451	0.272
452	0.272
452	0.272
452	0.272
453	0.272
453	0.272
454	0.272
454	0.272
455	0.272
455	0.271
456	0.272
456	0.272
457	0.272
457	0.272
458	0.272
458	0.272
458	0.272
459	0.272
459	0.272
460	0.272
460	0.272
461	0.272
461	0.272
462	0.272
462	0.272
463	0.272
463	0.272
463	0.272
464	0.272
464	0.272
465	0.272
465	0.272
466	0.272
466	0.272
467	0.273
467	0.273
467	0.273
468	0.273
468	0.274
469	0.274
469	0.275
470	0.275
470	0.276
471	0.276
471	0.276
472	0.277
472	0.277
472	0.277
473	0.278
473	0.278
474	0.278
474	0.278
475	0.278
475	0.279
476	0.279
476	0.28
477	0.28
477	0.28
477	0.281
478	0.281
478	0.281
479	0.282
479	0.282
480	0.283
480	0.284
481	0.284
481	0.284
482	0.285
482	0.286
482	0.286
483	0.287
483	0.288
484	0.289
484	0.289
485	0.29
485	0.29
486	0.291
486	0.292
487	0.292
487	0.293
487	0.294
488	0.294
488	0.295
489	0.296
489	0.298
490	0.299
490	0.3
491	0.301
491	0.303
492	0.304
492	0.305
492	0.306
493	0.307
493	0.308
494	0.309
494	0.31
495	0.311
495	0.312
496	0.314
496	0.315
496	0.316
497	0.317
497	0.318
498	0.319
498	0.32
499	0.322
499	0.323
500	0.325
500	0.326
501	0.327
501	0.328
501	0.33
502	0.331
502	0.332
503	0.333
503	0.334
504	0.335
504	0.336
505	0.338
505	0.339
506	0.34
506	0.341
506	0.342
507	0.343
507	0.344
508	0.345
508	0.346
509	0.347
509	0.348
510	0.349
510	0.35
511	0.351
511	0.353
511	0.354
512	0.355
512	0.356
513	0.357
513	0.357
514	0.358
514	0.359
515	0.359
515	0.36
515	0.36
516	0.361
516	0.362
517	0.362
517	0.363
518	0.363
518	0.364
519	0.364
519	0.364
520	0.365
520	0.365
520	0.365
521	0.365
521	0.365
522	0.364
522	0.364
523	0.364
523	0.364
524	0.364
524	0.364
524	0.363
525	0.363
525	0.363
526	0.362
526	0.362
527	0.362
527	0.361
528	0.36
528	0.36
529	0.359
529	0.358
529	0.357
530	0.355
530	0.354
531	0.354
531	0.352
532	0.352
532	0.35
533	0.349
533	0.348
533	0.347
534	0.345
534	0.344
535	0.343
535	0.342
536	0.341
536	0.339
537	0.338
537	0.336
538	0.335
538	0.333
538	0.332
539	0.33
539	0.329
540	0.327
540	0.325
541	0.323
541	0.322
542	0.32
542	0.318
542	0.316
543	0.314
543	0.312
544	0.31
544	0.308
545	0.306
545	0.305
546	0.303
546	0.3
547	0.298
547	0.296
547	0.294
548	0.292
548	0.29
549	0.288
549	0.286
550	0.284
550	0.283
551	0.281
551	0.278
551	0.277
552	0.275
552	0.273
553	0.271
553	0.269
554	0.267
554	0.265
555	0.263
555	0.261
556	0.258
556	0.256
556	0.255
557	0.253
557	0.252
558	0.25
558	0.249
559	0.247
559	0.246
560	0.244
560	0.242
560	0.241
561	0.24
561	0.238
562	0.236
562	0.234
563	0.232
563	0.23
564	0.228
564	0.226
564	0.225
565	0.223
565	0.221
566	0.22
566	0.218
567	0.217
567	0.215
568	0.214
568	0.212
568	0.21
569	0.209
569	0.207
570	0.206
570	0.204
571	0.203
571	0.201
572	0.2
572	0.198
573	0.197
573	0.196
573	0.194
574	0.193
574	0.192
575	0.191
575	0.19
576	0.19
576	0.188
577	0.186
577	0.185
577	0.184
578	0.183
578	0.182
579	0.181
579	0.18
580	0.179
580	0.177
581	0.175
581	0.174
581	0.174
582	0.173
582	0.173
583	0.172
583	0.171
584	0.17
584	0.168
585	0.167
585	0.166
585	0.165
586	0.164
586	0.163
587	0.162
587	0.161
588	0.159
588	0.158
589	0.157
589	0.157
590	0.157
590	0.156
590	0.156
591	0.156
591	0.155
592	0.154
592	0.153
593	0.152
593	0.152
594	0.151
594	0.15
594	0.149
595	0.148
595	0.147
596	0.145
596	0.145
597	0.145
597	0.145
598	0.144
598	0.143
598	0.143
599	0.143
599	0.142
600	0.141
600	0.14
601	0.14
601	0.139
602	0.138
602	0.138
602	0.137
603	0.137
603	0.136
604	0.136
604	0.135
605	0.135
605	0.135
606	0.134
606	0.133
606	0.133
607	0.132
607	0.132
608	0.131
608	0.13
609	0.129
609	0.129
610	0.128
610	0.127
610	0.127
611	0.127
611	0.126
612	0.126
612	0.126
613	0.126
613	0.126
614	0.125
614	0.125
614	0.124
615	0.124
615	0.124
616	0.123
616	0.123
617	0.123
617	0.122
618	0.121
618	0.121
618	0.121
619	0.121
619	0.121
620	0.121
620	0.121
621	0.12
621	0.12
622	0.119
622	0.119
622	0.118
623	0.117
623	0.117
624	0.116
624	0.115
625	0.114
625	0.114
626	0.113
626	0.113
626	0.112
627	0.112
627	0.112
628	0.111
628	0.111
629	0.111
629	0.11
630	0.11
630	0.11
630	0.11
631	0.11
631	0.109
632	0.109
632	0.108
633	0.108
633	0.108
634	0.108
634	0.109
634	0.108
635	0.108
635	0.108
636	0.108
636	0.108
637	0.108
637	0.108
638	0.107
638	0.107
638	0.106
639	0.106
639	0.105
640	0.105
640	0.105
641	0.104
641	0.104
642	0.103
642	0.103
642	0.103
643	0.103
643	0.103
644	0.103
644	0.102
645	0.102
645	0.102
646	0.101
646	0.101
646	0.101
647	0.101
647	0.1
648	0.099
648	0.099
649	0.099
649	0.098
650	0.098
650	0.098
650	0.098
651	0.098
651	0.097
652	0.097
652	0.097
653	0.098
653	0.099
653	0.105
654	0.085
654	0.069
655	0.067
655	0.067
656	0.067
656	0.067
657	0.068
657	0.068
657	0.068
658	0.067
658	0.06
659	0.074
659	0.094
660	0.099
660	0.1
661	0.099
661	0.099
661	0.099
662	0.098
662	0.098
663	0.097
663	0.097
664	0.096
664	0.096
665	0.095
665	0.095
665	0.095
666	0.095
666	0.095
667	0.095
667	0.096
668	0.096
668	0.096
669	0.097
669	0.097
669	0.097
670	0.097
670	0.097
671	0.096
671	0.096
672	0.095
672	0.094
672	0.094
673	0.093
673	0.093
674	0.093
674	0.092
675	0.092
675	0.092
676	0.092
676	0.092
676	0.092
677	0.092
677	0.092
678	0.092
678	0.091
679	0.091
679	0.09
680	0.09
680	0.09
680	0.09
681	0.089
681	0.09
682	0.09
682	0.09
683	0.09
683	0.091
684	0.091
684	0.091
684	0.091
685	0.091
685	0.092
686	0.092
686	0.091
687	0.091
687	0.091
687	0.091
688	0.09
688	0.09
689	0.09
689	0.091
690	0.09
690	0.09
691	0.09
691	0.09
691	0.09
692	0.09
692	0.09
693	0.09
693	0.091
694	0.09
694	0.09
695	0.091
695	0.092
695	0.092
696	0.092
696	0.092
697	0.092
697	0.092
698	0.091
698	0.091
698	0.091
699	0.092
699	0.091
700	0.09
700	0.091
701	0.091
701	0.09
702	0.09
702	0.089
702	0.089
703	0.089
703	0.088
704	0.088
704	0.088
705	0.088
705	0.088
705	0.087
706	0.088
706	0.088
707	0.088
707	0.088
708	0.088
708	0.088
709	0.088
709	0.088
709	0.088
710	0.088
710	0.088
711	0.088
711	0.088
712	0.088
712	0.087
713	0.087
713	0.087
713	0.087
714	0.086
714	0.085
715	0.085
715	0.084
716	0.083
716	0.083
716	0.082
717	0.082
717	0.082
718	0.081
718	0.081
719	0.082
719	0.082
720	0.082
720	0.083
720	0.083
721	0.083
721	0.084
722	0.084
722	0.084
723	0.084
723	0.084
723	0.084
724	0.083
724	0.083
725	0.082
725	0.081
726	0.081
726	0.08
727	0.08
727	0.079
727	0.079
728	0.079
728	0.079
729	0.079
729	0.079
730	0.079
730	0.079
730	0.08
731	0.08
731	0.081
732	0.082
732	0.082
733	0.082
733	0.083
734	0.083
734	0.083
734	0.083
735	0.083
735	0.083
736	0.082
736	0.081
737	0.081
737	0.081
737	0.08
738	0.079
738	0.078
739	0.078
739	0.077
740	0.077
740	0.077
741	0.077
741	0.077
741	0.077
742	0.077
742	0.077
743	0.078
743	0.079
744	0.08
744	0.08
744	0.08
745	0.08
745	0.08
746	0.08
746	0.08
747	0.079
747	0.079
748	0.078
748	0.078
748	0.078
749	0.077
749	0.078
750	0.078
750	0.077
751	0.077
751	0.077
751	0.077
752	0.077
752	0.076
753	0.075
753	0.075
754	0.075
754	0.074
754	0.075
755	0.075
755	0.075
756	0.074
756	0.074
757	0.073
757	0.074
758	0.074
758	0.074
758	0.074
759	0.074
759	0.074
760	0.074
760	0.073
761	0.073
761	0.074
761	0.074
762	0.073
762	0.074
763	0.073
763	0.073
764	0.072
764	0.072
764	0.071
765	0.071
765	0.07
766	0.07
766	0.07
767	0.069
767	0.068
768	0.068
768	0.068
768	0.068
769	0.069
769	0.069
770	0.07
770	0.07
771	0.071
771	0.072
771	0.073
772	0.074
772	0.075
773	0.075
773	0.075
774	0.075
774	0.076
775	0.076
775	0.076
775	0.076
776	0.075
776	0.075
777	0.075
777	0.075
778	0.075
778	0.075
778	0.075
779	0.075
779	0.074
780	0.073
780	0.072
781	0.072
781	0.071
781	0.071
782	0.07
782	0.07
783	0.07
783	0.07
784	0.07
784	0.07
784	0.07
785	0.07
785	0.07
786	0.07
786	0.07
787	0.07
787	0.07
788	0.069
788	0.068
788	0.067
789	0.066
789	0.066
790	0.065
790	0.065
791	0.064
791	0.064
791	0.064
792	0.064
792	0.064
793	0.064
793	0.064
794	0.064
794	0.063
794	0.063
795	0.063
795	0.063
796	0.063
796	0.063
797	0.063
797	0.063
797	0.064
798	0.064
798	0.065
799	0.065
799	0.065
800	0.064
800	0.064
801	0.064
801	0.064
801	0.063
802	0.064
802	0.064
803	0.064
803	0.064
804	0.064
804	0.064
804	0.064
805	0.064
805	0.064
806	0.063
806	0.063
807	0.062
807	0.062
807	0.062
808	0.062
808	0.062
809	0.061
809	0.062
810	0.062
810	0.062
810	0.062
811	0.062
811	0.062
812	0.063
812	0.063
813	0.062
813	0.062
813	0.062
814	0.062
814	0.063
815	0.063
815	0.063
816	0.062
816	0.062
817	0.061
817	0.061
817	0.061
818	0.06
818	0.061
819	0.06
819	0.06
820	0.059
820	0.059
820	0.059
821	0.059
821	0.06
822	0.06
822	0.06
823	0.06
823	0.059
823	0.06
824	0.06
824	0.061
825	0.062
825	0.062
826	0.063
826	0.063
826	0.063
827	0.063
827	0.064
828	0.064
828	0.064
829	0.064
829	0.064
829	0.064
830	0.064
830	0.064
831	0.065
831	0.065
832	0.065
832	0.065
832	0.065
833	0.064
833	0.064
834	0.064
834	0.063
835	0.063
835	0.062
835	0.062
836	0.061
836	0.061
837	0.06
837	0.06
838	0.059
838	0.059
839	0.058
839	0.057
839	0.056
840	0.056
840	0.055
841	0.054
841	0.053
842	0.053
842	0.052
842	0.051
843	0.051
843	0.05
844	0.05
844	0.05
845	0.049
845	0.049
845	0.049
846	0.048
846	0.048
847	0.048
847	0.048
848	0.049
848	0.049
848	0.05
849	0.05
849	0.051
850	0.052
850	0.052
851	0.053
851	0.053
851	0.053
852	0.053
852	0.053
853	0.053
853	0.053
854	0.053
854	0.053
854	0.054
855	0.054
855	0.054
856	0.054
856	0.055
857	0.055
857	0.056
857	0.056
858	0.056
858	0.056
859	0.056
859	0.055
860	0.055
860	0.055
860	0.054
861	0.054
861	0.053
862	0.052
862	0.052
863	0.051
863	0.05
863	0.05
864	0.05
864	0.049
865	0.049
865	0.049
866	0.049
866	0.049
866	0.049
867	0.05
867	0.05
868	0.051
868	0.051
869	0.052
869	0.052
869	0.052
870	0.052
870	0.052
871	0.052
871	0.052
872	0.051
872	0.051
872	0.05
873	0.05
873	0.049
874	0.049
874	0.048
875	0.048
875	0.048
875	0.048
876	0.047
876	0.047
877	0.047
877	0.048
878	0.047
878	0.048
878	0.048
879	0.048
879	0.049
880	0.049
880	0.049
881	0.049
881	0.05
881	0.05
882	0.05
882	0.05
883	0.05
883	0.05
884	0.05
884	0.05
884	0.05
885	0.05
885	0.049
886	0.049
886	0.049
887	0.048
887	0.047
887	0.047
888	0.046
888	0.045
889	0.045
889	0.045
890	0.044
890	0.044
890	0.044
891	0.044
891	0.044
892	0.043
892	0.043
893	0.043
893	0.043
893	0.043
894	0.043
894	0.042
895	0.042
895	0.042
895	0.043
896	0.043
896	0.044
897	0.044
897	0.045
898	0.045
898	0.045
898	0.046
899	0.046
899	0.046
900	0.046
900	0.046
901	0.046
901	0.046
901	0.046
902	0.045
902	0.045
903	0.045
903	0.045
904	0.045
904	0.045
904	0.044
905	0.044
905	0.044
906	0.043
906	0.043
907	0.044
907	0.044
907	0.044
908	0.045
908	0.045
909	0.045
909	0.045
910	0.045
910	0.045
910	0.045
911	0.044
911	0.044
912	0.044
912	0.043
913	0.043
913	0.043
913	0.043
914	0.043
914	0.043
915	0.043
915	0.043
916	0.043
916	0.043
916	0.043
917	0.042
917	0.042
918	0.042
918	0.041
918	0.04
919	0.04
919	0.04
920	0.039
920	0.039
921	0.039
921	0.038
921	0.038
922	0.038
922	0.038
923	0.038
923	0.039
924	0.039
924	0.04
924	0.04
925	0.041
925	0.042
926	0.042
926	0.043
927	0.044
927	0.044
927	0.044
928	0.044
928	0.045
929	0.045
929	0.045
930	0.045
930	0.045
930	0.045
931	0.045
931	0.045
932	0.045
932	0.045
933	0.045
933	0.046
933	0.046
934	0.046
934	0.045
935	0.045
935	0.045
935	0.044
936	0.044
936	0.043
937	0.043
937	0.042
938	0.042
938	0.041
938	0.04
939	0.04
939	0.039
940	0.039
940	0.039
941	0.04
941	0.04
941	0.04
942	0.04
942	0.04
943	0.041
943	0.041
944	0.041
944	0.041
944	0.041
945	0.041
945	0.041
946	0.042
946	0.042
946	0.042
947	0.042
947	0.042
948	0.042
948	0.042
949	0.041
949	0.041
949	0.041
950	0.041
950	0.041
951	0.041
951	0.041
952	0.041
952	0.041
952	0.041
953	0.041
953	0.041
954	0.041
954	0.041
955	0.041
955	0.041
955	0.041
956	0.042
956	0.042
957	0.042
957	0.042
957	0.042
958	0.043
958	0.043
959	0.042
959	0.042
960	0.042
960	0.042
960	0.042
961	0.042
961	0.041
962	0.041
962	0.041
963	0.041
963	0.041
963	0.041
964	0.042
964	0.042
965	0.042
965	0.043
966	0.043
966	0.043
966	0.043
967	0.043
967	0.043
968	0.044
968	0.043
968	0.043
969	0.042
969	0.041
970	0.041
970	0.04
971	0.039
971	0.038
971	0.038
972	0.037
972	0.037
973	0.036
973	0.036
974	0.036
974	0.036
974	0.037
975	0.037
975	0.038
976	0.038
976	0.039
976	0.04
977	0.04
977	0.04
978	0.04
978	0.04
979	0.04
979	0.04
979	0.04
980	0.039
980	0.038
981	0.037
981	0.037
982	0.037
982	0.036
982	0.036
983	0.036
983	0.036
984	0.036
984	0.036
984	0.036
985	0.037
985	0.037
986	0.037
986	0.038
987	0.038
987	0.039
987	0.039
988	0.039
988	0.039
989	0.039
989	0.039
990	0.038
990	0.038
990	0.038
991	0.037
991	0.037
992	0.036
992	0.035
992	0.034
993	0.034
993	0.033
994	0.032
994	0.031
995	0.03
995	0.029
995	0.029
996	0.029
996	0.029
997	0.029
997	0.029
997	0.03
998	0.031
998	0.031
999	0.032
999	0.033
1000	0.034
1000	0.034
1000	0.035
1001	0.035
1001	0.035
1002	0.035
1002	0.035
1003	0.034
1003	0.034
1003	0.033
1004	0.032
1004	0.031
1005	0.03
1005	0.029
1005	0.028
1006	0.027
1006	0.026
1007	0.026
1007	0.025
1008	0.025
1008	0.025
1008	0.025
1009	0.025
1009	0.025
1010	0.025
1010	0.026
1010	0.026
1011	0.026
1011	0.026
1012	0.027
1012	0.027
1013	0.027
1013	0.027
1013	0.027
1014	0.027
1014	0.026
1015	0.026
1015	0.027
1016	0.027
1016	0.027
1016	0.027
1017	0.027
1017	0.027
1018	0.028
1018	0.028
1018	0.028
1019	0.029
1019	0.029
1020	0.03
1020	0.03
1021	0.031
1021	0.031
1021	0.031
1022	0.031
1022	0.032
1023	0.032
1023	0.032
1023	0.032
1024	0.032
1024	0.032
1025	0.033
1025	0.032
1026	0.032
1026	0.032
1026	0.032
1027	0.032
1027	0.032
1028	0.032
1028	0.032
1028	0.031
1029	0.031
1029	0.031
1030	0.031
1030	0.031
1031	0.032
1031	0.032
1031	0.032
1032	0.033
1032	0.033
1033	0.034
1033	0.034
1033	0.034
1034	0.035
1034	0.035
1035	0.035
1035	0.035
1036	0.035
1036	0.035
1036	0.035
1037	0.035
1037	0.035
1038	0.035
1038	0.035
1039	0.035
1039	0.034
1039	0.035
1040	0.034
1040	0.034
1041	0.034
1041	0.034
1041	0.034
1042	0.034
1042	0.034
1043	0.034
1043	0.034
1044	0.034
1044	0.034
1044	0.034
1045	0.034
1045	0.034
1046	0.034
1046	0.034
1046	0.034
1047	0.034
1047	0.034
1048	0.034
1048	0.034
1049	0.035
1049	0.035
1049	0.035
1050	0.035
1050	0.035
1051	0.034
1051	0.034
1051	0.034
1052	0.033
1052	0.033
1053	0.032
1053	0.031
1053	0.031
1054	0.03
1054	0.03
1055	0.029
1055	0.029
1056	0.028
1056	0.028
1056	0.028
1057	0.027
1057	0.027
1058	0.026
1058	0.026
1058	0.025
1059	0.025
1059	0.025
1060	0.024
1060	0.024
1061	0.024
1061	0.023
1061	0.023
1062	0.023
1062	0.023
1063	0.023
1063	0.022
1063	0.022
1064	0.022
1064	0.022
1065	0.021
1065	0.021
1066	0.021
1066	0.021
1066	0.021
1067	0.021
1067	0.021
1068	0.021
1068	0.021
1068	0.021
1069	0.021
1069	0.021
1070	0.021
1070	0.02
1071	0.02
1071	0.02
1071	0.019
1072	0.019
1072	0.019
1073	0.018
1073	0.018
1073	0.018
1074	0.018
1074	0.018
1075	0.018
1075	0.019
1076	0.019
1076	0.02
1076	0.02
1077	0.021
1077	0.021
1078	0.021
1078	0.022
1078	0.022
1079	0.022
1079	0.021
1080	0.021
1080	0.021
1080	0.02
1081	0.02
1081	0.02
1082	0.02
1082	0.02
1083	0.02
1083	0.019
1083	0.02
1084	0.02
1084	0.02
1085	0.02
1085	0.02
1085	0.021
1086	0.021
1086	0.021
1087	0.021
1087	0.021
1088	0.021
1088	0.021
1088	0.021
1089	0.021
1089	0.021
1090	0.02
1090	0.019
1090	0.018
1091	0.018
1091	0.017
1092	0.017
1092	0.016
1092	0.016
1093	0.016
1093	0.016
1094	0.016
1094	0.016
1095	0.015
1095	0.015
1095	0.015
1096	0.015
1096	0.014
1097	0.013
1097	0.012
1097	0.012
1098	0.011
1098	0.01
1099	0.009
1099	0.008
1100	0.007
1100	0.007
1100	0.005
1101	0.004
1101	0.003
1102	0.002
1102	0.001
1102	-0.001
1103	-0.001
1103	-0.002
1104	-0.002
1104	-0.002
1104	-0.002
1105	-0.003
1105	-0.005
1106	-0.007
1106	-0.01
1107	-0.01
1107	-0.01
1107	-0.011
1108	-0.012
1108	-0.013
1109	-0.015
1109	-0.018
1109	-0.017
1110	-0.016
1110	-0.015
1111	-0.012
1111	-0.015
