Data from reversibility-20sec_Absorbance__6324__000000000006324.txt Node

Date: Wed Dec 06 23:21:06 CET 2023
User: Marek
Spectrometer: MAYP115816
Trigger mode: 0
Integration Time (sec): 2.000000E-1
Scans to average: 10
Electric dark correction enabled: true
Nonlinearity correction enabled: true
Boxcar width: 5
XAxis mode: Wavelengths
Number of Pixels in Spectrum: 2068
>>>>>Begin Spectral Data<<<<<
199	-0.138
199	-0.101
200	-0.037
200	0.016
201	0.041
201	0.061
202	0.07
202	0.08
203	0.091
203	0.093
204	0.107
204	0.12
205	0.131
205	0.137
205	0.134
206	0.135
206	0.134
207	0.135
207	0.135
208	0.128
208	0.128
209	0.128
209	0.128
210	0.13
210	0.131
211	0.132
211	0.134
212	0.131
212	0.133
213	0.134
213	0.137
213	0.137
214	0.142
214	0.142
215	0.141
215	0.14
216	0.142
216	0.137
217	0.142
217	0.146
218	0.148
218	0.155
219	0.161
219	0.16
220	0.164
220	0.164
221	0.164
221	0.164
221	0.172
222	0.175
222	0.178
223	0.18
223	0.178
224	0.185
224	0.194
225	0.2
225	0.211
226	0.221
226	0.233
227	0.242
227	0.251
228	0.264
228	0.28
229	0.297
229	0.316
229	0.336
230	0.363
230	0.392
231	0.422
231	0.46
232	0.498
232	0.542
233	0.585
233	0.633
234	0.685
234	0.739
235	0.795
235	0.847
236	0.899
236	0.955
236	1.006
237	1.057
237	1.106
238	1.154
238	1.2
239	1.245
239	1.284
240	1.323
240	1.36
241	1.396
241	1.427
242	1.457
242	1.494
243	1.522
243	1.549
243	1.574
244	1.597
244	1.616
245	1.631
245	1.654
246	1.671
246	1.692
247	1.703
247	1.713
248	1.729
248	1.741
249	1.751
249	1.757
250	1.766
250	1.774
250	1.775
251	1.779
251	1.779
252	1.785
252	1.784
253	1.783
253	1.781
254	1.779
254	1.778
255	1.776
255	1.776
256	1.775
256	1.773
257	1.773
257	1.771
258	1.771
258	1.771
258	1.77
259	1.771
259	1.772
260	1.772
260	1.773
261	1.774
261	1.776
262	1.779
262	1.781
263	1.784
263	1.786
264	1.788
264	1.79
265	1.79
265	1.791
265	1.792
266	1.792
266	1.793
267	1.789
267	1.79
268	1.788
268	1.789
269	1.79
269	1.787
270	1.788
270	1.788
271	1.785
271	1.785
272	1.782
272	1.782
272	1.777
273	1.77
273	1.763
274	1.756
274	1.751
275	1.742
275	1.735
276	1.727
276	1.72
277	1.712
277	1.7
278	1.688
278	1.675
278	1.659
279	1.641
279	1.619
280	1.592
280	1.557
281	1.518
281	1.475
282	1.43
282	1.385
283	1.34
283	1.298
284	1.257
284	1.217
285	1.18
285	1.146
285	1.117
286	1.092
286	1.069
287	1.05
287	1.033
288	1.019
288	1.007
289	0.997
289	0.989
290	0.981
290	0.975
291	0.97
291	0.964
292	0.96
292	0.956
292	0.952
293	0.948
293	0.945
294	0.942
294	0.939
295	0.936
295	0.933
296	0.93
296	0.927
297	0.924
297	0.921
298	0.919
298	0.916
298	0.913
299	0.911
299	0.908
300	0.905
300	0.903
301	0.9
301	0.898
302	0.896
302	0.894
303	0.892
303	0.89
304	0.887
304	0.885
305	0.883
305	0.881
305	0.879
306	0.877
306	0.874
307	0.872
307	0.87
308	0.867
308	0.865
309	0.862
309	0.859
310	0.857
310	0.854
311	0.851
311	0.848
311	0.845
312	0.842
312	0.839
313	0.835
313	0.831
314	0.827
314	0.824
315	0.82
315	0.816
316	0.811
316	0.807
317	0.802
317	0.797
318	0.793
318	0.787
318	0.782
319	0.777
319	0.772
320	0.766
320	0.76
321	0.754
321	0.748
322	0.742
322	0.736
323	0.729
323	0.723
324	0.717
324	0.71
324	0.703
325	0.697
325	0.69
326	0.683
326	0.676
327	0.669
327	0.663
328	0.656
328	0.649
329	0.642
329	0.635
330	0.628
330	0.621
330	0.614
331	0.607
331	0.6
332	0.593
332	0.586
333	0.579
333	0.572
334	0.565
334	0.559
335	0.552
335	0.545
336	0.538
336	0.532
336	0.525
337	0.519
337	0.513
338	0.507
338	0.501
339	0.495
339	0.489
340	0.483
340	0.477
341	0.472
341	0.466
342	0.46
342	0.455
342	0.449
343	0.444
343	0.439
344	0.434
344	0.429
345	0.424
345	0.42
346	0.415
346	0.411
347	0.407
347	0.403
348	0.398
348	0.395
348	0.391
349	0.387
349	0.383
350	0.38
350	0.376
351	0.373
351	0.37
352	0.366
352	0.363
353	0.361
353	0.358
354	0.355
354	0.352
354	0.349
355	0.346
355	0.343
356	0.341
356	0.338
357	0.335
357	0.332
358	0.33
358	0.327
359	0.325
359	0.323
360	0.321
360	0.319
360	0.317
361	0.315
361	0.314
362	0.312
362	0.31
363	0.309
363	0.307
364	0.305
364	0.303
365	0.302
365	0.3
366	0.298
366	0.297
366	0.295
367	0.294
367	0.292
368	0.291
368	0.289
369	0.288
369	0.287
370	0.285
370	0.284
371	0.283
371	0.281
372	0.28
372	0.279
372	0.278
373	0.277
373	0.276
374	0.275
374	0.274
375	0.273
375	0.272
376	0.272
376	0.271
377	0.27
377	0.269
378	0.268
378	0.268
378	0.267
379	0.266
379	0.265
380	0.265
380	0.264
381	0.263
381	0.263
382	0.262
382	0.262
383	0.261
383	0.261
383	0.261
384	0.26
384	0.259
385	0.259
385	0.259
386	0.258
386	0.258
387	0.257
387	0.257
388	0.257
388	0.256
389	0.256
389	0.256
389	0.256
390	0.256
390	0.255
391	0.255
391	0.255
392	0.254
392	0.254
393	0.254
393	0.253
394	0.253
394	0.253
394	0.252
395	0.252
395	0.252
396	0.251
396	0.251
397	0.251
397	0.25
398	0.25
398	0.25
399	0.25
399	0.249
400	0.249
400	0.249
400	0.249
401	0.249
401	0.248
402	0.248
402	0.248
403	0.247
403	0.247
404	0.247
404	0.247
405	0.247
405	0.247
405	0.246
406	0.246
406	0.246
407	0.245
407	0.245
408	0.245
408	0.244
409	0.244
409	0.244
410	0.244
410	0.243
411	0.243
411	0.243
411	0.243
412	0.243
412	0.242
413	0.242
413	0.242
414	0.242
414	0.241
415	0.241
415	0.241
416	0.24
416	0.24
416	0.24
417	0.239
417	0.239
418	0.239
418	0.238
419	0.238
419	0.237
420	0.237
420	0.237
421	0.237
421	0.236
421	0.236
422	0.235
422	0.235
423	0.235
423	0.235
424	0.234
424	0.234
425	0.234
425	0.233
426	0.233
426	0.233
427	0.232
427	0.232
427	0.231
428	0.231
428	0.23
429	0.23
429	0.23
430	0.23
430	0.229
431	0.229
431	0.229
432	0.229
432	0.229
432	0.229
433	0.229
433	0.229
434	0.229
434	0.228
435	0.228
435	0.228
436	0.228
436	0.228
437	0.227
437	0.227
437	0.227
438	0.226
438	0.226
439	0.226
439	0.226
440	0.225
440	0.225
441	0.225
441	0.225
442	0.224
442	0.224
442	0.224
443	0.224
443	0.224
444	0.223
444	0.223
445	0.223
445	0.223
446	0.222
446	0.222
447	0.222
447	0.222
447	0.221
448	0.221
448	0.221
449	0.22
449	0.22
450	0.22
450	0.22
451	0.219
451	0.219
452	0.219
452	0.219
452	0.219
453	0.219
453	0.219
454	0.219
454	0.219
455	0.218
455	0.218
456	0.218
456	0.218
457	0.217
457	0.217
458	0.217
458	0.216
458	0.216
459	0.216
459	0.216
460	0.215
460	0.215
461	0.215
461	0.215
462	0.214
462	0.214
463	0.214
463	0.213
463	0.213
464	0.213
464	0.213
465	0.212
465	0.212
466	0.212
466	0.212
467	0.212
467	0.212
467	0.212
468	0.212
468	0.212
469	0.212
469	0.212
470	0.212
470	0.212
471	0.212
471	0.212
472	0.212
472	0.212
472	0.212
473	0.212
473	0.212
474	0.212
474	0.211
475	0.211
475	0.211
476	0.211
476	0.211
477	0.211
477	0.211
477	0.211
478	0.21
478	0.21
479	0.21
479	0.21
480	0.21
480	0.21
481	0.209
481	0.209
482	0.209
482	0.209
482	0.209
483	0.209
483	0.21
484	0.21
484	0.209
485	0.209
485	0.209
486	0.209
486	0.209
487	0.209
487	0.209
487	0.209
488	0.209
488	0.209
489	0.21
489	0.211
490	0.211
490	0.211
491	0.212
491	0.212
492	0.212
492	0.212
492	0.213
493	0.213
493	0.213
494	0.213
494	0.213
495	0.213
495	0.214
496	0.214
496	0.214
496	0.215
497	0.215
497	0.215
498	0.215
498	0.216
499	0.216
499	0.216
500	0.217
500	0.217
501	0.217
501	0.218
501	0.218
502	0.218
502	0.219
503	0.219
503	0.22
504	0.22
504	0.22
505	0.221
505	0.221
506	0.221
506	0.221
506	0.222
507	0.222
507	0.222
508	0.222
508	0.223
509	0.223
509	0.223
510	0.224
510	0.224
511	0.225
511	0.225
511	0.225
512	0.226
512	0.226
513	0.227
513	0.227
514	0.227
514	0.228
515	0.228
515	0.228
515	0.228
516	0.229
516	0.229
517	0.23
517	0.23
518	0.23
518	0.23
519	0.231
519	0.231
520	0.232
520	0.232
520	0.232
521	0.233
521	0.233
522	0.233
522	0.233
523	0.233
523	0.233
524	0.234
524	0.234
524	0.234
525	0.234
525	0.234
526	0.234
526	0.235
527	0.235
527	0.235
528	0.235
528	0.235
529	0.235
529	0.235
529	0.235
530	0.235
530	0.235
531	0.235
531	0.235
532	0.235
532	0.235
533	0.235
533	0.235
533	0.235
534	0.235
534	0.235
535	0.235
535	0.235
536	0.235
536	0.235
537	0.235
537	0.235
538	0.235
538	0.235
538	0.235
539	0.235
539	0.235
540	0.234
540	0.234
541	0.234
541	0.234
542	0.234
542	0.234
542	0.234
543	0.234
543	0.234
544	0.233
544	0.233
545	0.233
545	0.233
546	0.233
546	0.233
547	0.232
547	0.232
547	0.232
548	0.232
548	0.232
549	0.231
549	0.231
550	0.231
550	0.231
551	0.231
551	0.231
551	0.231
552	0.23
552	0.23
553	0.23
553	0.229
554	0.229
554	0.228
555	0.228
555	0.227
556	0.227
556	0.227
556	0.227
557	0.227
557	0.227
558	0.227
558	0.227
559	0.227
559	0.227
560	0.227
560	0.227
560	0.227
561	0.227
561	0.227
562	0.227
562	0.226
563	0.225
563	0.224
564	0.224
564	0.224
564	0.223
565	0.223
565	0.223
566	0.222
566	0.222
567	0.222
567	0.222
568	0.222
568	0.222
568	0.222
569	0.222
569	0.221
570	0.221
570	0.22
571	0.219
571	0.219
572	0.218
572	0.218
573	0.218
573	0.218
573	0.217
574	0.217
574	0.217
575	0.217
575	0.217
576	0.217
576	0.216
577	0.216
577	0.215
577	0.215
578	0.214
578	0.214
579	0.214
579	0.215
580	0.214
580	0.213
581	0.213
581	0.212
581	0.213
582	0.213
582	0.213
583	0.213
583	0.213
584	0.213
584	0.212
585	0.212
585	0.212
585	0.211
586	0.211
586	0.21
587	0.21
587	0.209
588	0.208
588	0.208
589	0.207
589	0.207
590	0.207
590	0.207
590	0.208
591	0.208
591	0.207
592	0.207
592	0.207
593	0.207
593	0.206
594	0.206
594	0.205
594	0.205
595	0.205
595	0.204
596	0.204
596	0.204
597	0.205
597	0.205
598	0.205
598	0.205
598	0.205
599	0.205
599	0.204
600	0.204
600	0.204
601	0.203
601	0.203
602	0.202
602	0.202
602	0.202
603	0.201
603	0.201
604	0.201
604	0.201
605	0.201
605	0.201
606	0.201
606	0.2
606	0.2
607	0.2
607	0.2
608	0.2
608	0.199
609	0.199
609	0.199
610	0.199
610	0.198
610	0.198
611	0.198
611	0.198
612	0.199
612	0.199
613	0.199
613	0.199
614	0.198
614	0.198
614	0.198
615	0.198
615	0.198
616	0.198
616	0.198
617	0.198
617	0.198
618	0.198
618	0.198
618	0.198
619	0.199
619	0.199
620	0.199
620	0.199
621	0.199
621	0.198
622	0.198
622	0.197
622	0.197
623	0.196
623	0.196
624	0.195
624	0.194
625	0.194
625	0.193
626	0.193
626	0.193
626	0.193
627	0.193
627	0.192
628	0.192
628	0.192
629	0.192
629	0.192
630	0.191
630	0.191
630	0.192
631	0.192
631	0.191
632	0.191
632	0.191
633	0.191
633	0.191
634	0.191
634	0.191
634	0.191
635	0.191
635	0.191
636	0.191
636	0.191
637	0.191
637	0.191
638	0.19
638	0.19
638	0.19
639	0.189
639	0.189
640	0.19
640	0.19
641	0.189
641	0.189
642	0.189
642	0.189
642	0.189
643	0.19
643	0.19
644	0.19
644	0.19
645	0.19
645	0.19
646	0.19
646	0.19
646	0.19
647	0.189
647	0.189
648	0.188
648	0.187
649	0.187
649	0.187
650	0.187
650	0.187
650	0.187
651	0.187
651	0.187
652	0.187
652	0.187
653	0.188
653	0.19
653	0.195
654	0.154
654	0.123
655	0.123
655	0.124
656	0.124
656	0.124
657	0.125
657	0.125
657	0.125
658	0.124
658	0.114
659	0.144
659	0.185
660	0.19
660	0.19
661	0.19
661	0.19
661	0.189
662	0.189
662	0.189
663	0.188
663	0.188
664	0.188
664	0.187
665	0.187
665	0.187
665	0.187
666	0.187
666	0.187
667	0.187
667	0.188
668	0.188
668	0.188
669	0.188
669	0.189
669	0.189
670	0.19
670	0.19
671	0.19
671	0.19
672	0.19
672	0.189
672	0.189
673	0.188
673	0.188
674	0.188
674	0.187
675	0.186
675	0.186
676	0.186
676	0.186
676	0.186
677	0.187
677	0.187
678	0.187
678	0.186
679	0.186
679	0.186
680	0.187
680	0.187
680	0.186
681	0.187
681	0.187
682	0.187
682	0.187
683	0.188
683	0.188
684	0.188
684	0.188
684	0.188
685	0.188
685	0.188
686	0.188
686	0.188
687	0.188
687	0.188
687	0.188
688	0.188
688	0.188
689	0.188
689	0.189
690	0.189
690	0.188
691	0.188
691	0.188
691	0.189
692	0.189
692	0.189
693	0.189
693	0.189
694	0.189
694	0.189
695	0.19
695	0.191
695	0.191
696	0.191
696	0.191
697	0.191
697	0.191
698	0.19
698	0.19
698	0.19
699	0.19
699	0.189
700	0.189
700	0.189
701	0.189
701	0.189
702	0.189
702	0.19
702	0.19
703	0.19
703	0.19
704	0.19
704	0.191
705	0.191
705	0.191
705	0.191
706	0.191
706	0.191
707	0.191
707	0.191
708	0.191
708	0.191
709	0.191
709	0.191
709	0.191
710	0.191
710	0.191
711	0.192
711	0.192
712	0.193
712	0.193
713	0.193
713	0.193
713	0.193
714	0.193
714	0.192
715	0.192
715	0.191
716	0.191
716	0.191
716	0.19
717	0.189
717	0.189
718	0.189
718	0.188
719	0.189
719	0.189
720	0.189
720	0.189
720	0.19
721	0.19
721	0.191
722	0.191
722	0.192
723	0.192
723	0.193
723	0.193
724	0.193
724	0.193
725	0.193
725	0.192
726	0.192
726	0.192
727	0.191
727	0.191
727	0.191
728	0.19
728	0.19
729	0.19
729	0.19
730	0.19
730	0.191
730	0.192
731	0.192
731	0.193
732	0.194
732	0.195
733	0.195
733	0.195
734	0.196
734	0.196
734	0.197
735	0.197
735	0.196
736	0.196
736	0.196
737	0.196
737	0.196
737	0.195
738	0.195
738	0.194
739	0.194
739	0.193
740	0.193
740	0.193
741	0.193
741	0.193
741	0.193
742	0.193
742	0.194
743	0.195
743	0.196
744	0.197
744	0.198
744	0.198
745	0.198
745	0.198
746	0.199
746	0.199
747	0.199
747	0.199
748	0.198
748	0.198
748	0.198
749	0.197
749	0.198
750	0.198
750	0.197
751	0.197
751	0.197
751	0.198
752	0.197
752	0.197
753	0.197
753	0.196
754	0.196
754	0.195
754	0.196
755	0.196
755	0.195
756	0.195
756	0.194
757	0.194
757	0.194
758	0.194
758	0.194
758	0.195
759	0.195
759	0.195
760	0.195
760	0.195
761	0.196
761	0.196
761	0.197
762	0.197
762	0.197
763	0.197
763	0.197
764	0.197
764	0.197
764	0.197
765	0.197
765	0.197
766	0.197
766	0.197
767	0.197
767	0.196
768	0.196
768	0.196
768	0.196
769	0.196
769	0.196
770	0.197
770	0.197
771	0.198
771	0.198
771	0.199
772	0.2
772	0.201
773	0.202
773	0.202
774	0.202
774	0.203
775	0.203
775	0.203
775	0.203
776	0.204
776	0.204
777	0.204
777	0.204
778	0.205
778	0.204
778	0.205
779	0.205
779	0.205
780	0.204
780	0.204
781	0.203
781	0.203
781	0.203
782	0.203
782	0.203
783	0.203
783	0.204
784	0.204
784	0.204
784	0.205
785	0.205
785	0.206
786	0.206
786	0.206
787	0.206
787	0.206
788	0.205
788	0.204
788	0.204
789	0.203
789	0.203
790	0.203
790	0.202
791	0.202
791	0.202
791	0.202
792	0.203
792	0.203
793	0.204
793	0.204
794	0.204
794	0.204
794	0.204
795	0.205
795	0.206
796	0.206
796	0.206
797	0.206
797	0.206
797	0.207
798	0.207
798	0.207
799	0.207
799	0.206
800	0.206
800	0.205
801	0.205
801	0.205
801	0.205
802	0.205
802	0.206
803	0.206
803	0.206
804	0.207
804	0.207
804	0.207
805	0.207
805	0.207
806	0.207
806	0.207
807	0.207
807	0.206
807	0.206
808	0.206
808	0.206
809	0.206
809	0.206
810	0.206
810	0.206
810	0.206
811	0.207
811	0.208
812	0.208
812	0.209
813	0.209
813	0.21
813	0.211
814	0.212
814	0.212
815	0.213
815	0.213
816	0.213
816	0.213
817	0.212
817	0.212
817	0.212
818	0.211
818	0.211
819	0.211
819	0.21
820	0.209
820	0.209
820	0.209
821	0.209
821	0.21
822	0.21
822	0.211
823	0.211
823	0.211
823	0.212
824	0.213
824	0.214
825	0.215
825	0.215
826	0.216
826	0.215
826	0.215
827	0.216
827	0.216
828	0.216
828	0.216
829	0.216
829	0.217
829	0.217
830	0.217
830	0.218
831	0.219
831	0.219
832	0.219
832	0.219
832	0.219
833	0.219
833	0.219
834	0.218
834	0.218
835	0.217
835	0.217
835	0.216
836	0.216
836	0.216
837	0.216
837	0.215
838	0.215
838	0.215
839	0.214
839	0.214
839	0.213
840	0.212
840	0.211
841	0.21
841	0.209
842	0.208
842	0.207
842	0.207
843	0.206
843	0.206
844	0.206
844	0.205
845	0.205
845	0.205
845	0.205
846	0.205
846	0.205
847	0.206
847	0.206
848	0.207
848	0.207
848	0.208
849	0.209
849	0.209
850	0.21
850	0.21
851	0.211
851	0.211
851	0.211
852	0.211
852	0.21
853	0.21
853	0.21
854	0.21
854	0.21
854	0.211
855	0.211
855	0.212
856	0.212
856	0.213
857	0.214
857	0.215
857	0.215
858	0.216
858	0.216
859	0.215
859	0.215
860	0.214
860	0.214
860	0.213
861	0.212
861	0.211
862	0.21
862	0.209
863	0.208
863	0.208
863	0.208
864	0.207
864	0.207
865	0.208
865	0.208
866	0.208
866	0.208
866	0.209
867	0.209
867	0.21
868	0.211
868	0.211
869	0.212
869	0.212
869	0.211
870	0.211
870	0.211
871	0.211
871	0.212
872	0.211
872	0.211
872	0.211
873	0.211
873	0.21
874	0.21
874	0.209
875	0.209
875	0.209
875	0.208
876	0.208
876	0.208
877	0.208
877	0.207
878	0.207
878	0.208
878	0.208
879	0.208
879	0.209
880	0.209
880	0.209
881	0.21
881	0.21
881	0.21
882	0.21
882	0.21
883	0.211
883	0.211
884	0.211
884	0.211
884	0.211
885	0.211
885	0.211
886	0.21
886	0.21
887	0.209
887	0.208
887	0.208
888	0.207
888	0.206
889	0.205
889	0.205
890	0.205
890	0.204
890	0.204
891	0.204
891	0.203
892	0.203
892	0.203
893	0.203
893	0.203
893	0.203
894	0.203
894	0.203
895	0.203
895	0.203
895	0.203
896	0.203
896	0.204
897	0.204
897	0.204
898	0.203
898	0.203
898	0.202
899	0.202
899	0.201
900	0.2
900	0.199
901	0.199
901	0.198
901	0.198
902	0.197
902	0.197
903	0.196
903	0.196
904	0.196
904	0.196
904	0.195
905	0.195
905	0.195
906	0.195
906	0.195
907	0.196
907	0.196
907	0.196
908	0.196
908	0.196
909	0.196
909	0.196
910	0.196
910	0.196
910	0.196
911	0.195
911	0.195
912	0.195
912	0.194
913	0.194
913	0.194
913	0.194
914	0.194
914	0.194
915	0.194
915	0.194
916	0.194
916	0.194
916	0.194
917	0.193
917	0.193
918	0.192
918	0.192
918	0.191
919	0.19
919	0.189
920	0.189
920	0.188
921	0.187
921	0.187
921	0.187
922	0.186
922	0.186
923	0.186
923	0.187
924	0.187
924	0.188
924	0.188
925	0.189
925	0.189
926	0.19
926	0.19
927	0.191
927	0.191
927	0.191
928	0.191
928	0.191
929	0.191
929	0.191
930	0.191
930	0.191
930	0.19
931	0.19
931	0.189
932	0.189
932	0.188
933	0.188
933	0.187
933	0.187
934	0.186
934	0.185
935	0.185
935	0.185
935	0.184
936	0.184
936	0.183
937	0.183
937	0.183
938	0.182
938	0.182
938	0.181
939	0.181
939	0.18
940	0.18
940	0.18
941	0.18
941	0.181
941	0.181
942	0.181
942	0.181
943	0.181
943	0.181
944	0.181
944	0.181
944	0.181
945	0.181
945	0.181
946	0.18
946	0.18
946	0.18
947	0.18
947	0.179
948	0.179
948	0.179
949	0.178
949	0.177
949	0.177
950	0.176
950	0.176
951	0.175
951	0.174
952	0.174
952	0.173
952	0.173
953	0.172
953	0.172
954	0.172
954	0.171
955	0.171
955	0.171
955	0.171
956	0.171
956	0.172
957	0.172
957	0.172
957	0.172
958	0.172
958	0.171
959	0.171
959	0.171
960	0.171
960	0.17
960	0.17
961	0.17
961	0.17
962	0.17
962	0.17
963	0.17
963	0.17
963	0.17
964	0.171
964	0.171
965	0.171
965	0.171
966	0.171
966	0.171
966	0.17
967	0.17
967	0.169
968	0.169
968	0.168
968	0.167
969	0.167
969	0.165
970	0.165
970	0.164
971	0.163
971	0.162
971	0.162
972	0.161
972	0.161
973	0.161
973	0.16
974	0.16
974	0.161
974	0.161
975	0.161
975	0.161
976	0.162
976	0.163
976	0.163
977	0.163
977	0.163
978	0.163
978	0.162
979	0.162
979	0.162
979	0.162
980	0.162
980	0.161
981	0.161
981	0.16
982	0.16
982	0.16
982	0.16
983	0.16
983	0.159
984	0.159
984	0.159
984	0.159
985	0.159
985	0.159
986	0.159
986	0.158
987	0.158
987	0.158
987	0.158
988	0.158
988	0.157
989	0.157
989	0.157
990	0.156
990	0.156
990	0.155
991	0.155
991	0.154
992	0.154
992	0.153
992	0.152
993	0.151
993	0.15
994	0.148
994	0.147
995	0.146
995	0.146
995	0.145
996	0.145
996	0.145
997	0.145
997	0.146
997	0.146
998	0.146
998	0.147
999	0.148
999	0.149
1000	0.149
1000	0.15
1000	0.15
1001	0.15
1001	0.15
1002	0.15
1002	0.15
1003	0.15
1003	0.149
1003	0.148
1004	0.148
1004	0.147
1005	0.146
1005	0.145
1005	0.144
1006	0.143
1006	0.143
1007	0.142
1007	0.141
1008	0.141
1008	0.141
1008	0.141
1009	0.141
1009	0.142
1010	0.142
1010	0.142
1010	0.142
1011	0.142
1011	0.142
1012	0.142
1012	0.142
1013	0.141
1013	0.141
1013	0.14
1014	0.139
1014	0.139
1015	0.138
1015	0.138
1016	0.138
1016	0.137
1016	0.137
1017	0.136
1017	0.136
1018	0.136
1018	0.135
1018	0.135
1019	0.135
1019	0.134
1020	0.134
1020	0.134
1021	0.134
1021	0.134
1021	0.135
1022	0.135
1022	0.135
1023	0.136
1023	0.136
1023	0.137
1024	0.137
1024	0.137
1025	0.138
1025	0.138
1026	0.138
1026	0.138
1026	0.138
1027	0.138
1027	0.138
1028	0.138
1028	0.138
1028	0.138
1029	0.138
1029	0.138
1030	0.138
1030	0.138
1031	0.138
1031	0.138
1031	0.138
1032	0.138
1032	0.138
1033	0.138
1033	0.138
1033	0.138
1034	0.138
1034	0.137
1035	0.137
1035	0.137
1036	0.136
1036	0.136
1036	0.136
1037	0.136
1037	0.135
1038	0.135
1038	0.134
1039	0.134
1039	0.133
1039	0.133
1040	0.133
1040	0.132
1041	0.132
1041	0.132
1041	0.131
1042	0.131
1042	0.131
1043	0.131
1043	0.13
1044	0.13
1044	0.13
1044	0.13
1045	0.129
1045	0.129
1046	0.129
1046	0.128
1046	0.128
1047	0.128
1047	0.128
1048	0.128
1048	0.128
1049	0.128
1049	0.129
1049	0.129
1050	0.128
1050	0.128
1051	0.128
1051	0.128
1051	0.128
1052	0.127
1052	0.127
1053	0.126
1053	0.125
1053	0.124
1054	0.124
1054	0.123
1055	0.123
1055	0.122
1056	0.121
1056	0.121
1056	0.12
1057	0.119
1057	0.118
1058	0.118
1058	0.117
1058	0.116
1059	0.115
1059	0.114
1060	0.114
1060	0.113
1061	0.112
1061	0.112
1061	0.112
1062	0.111
1062	0.111
1063	0.111
1063	0.11
1063	0.11
1064	0.11
1064	0.109
1065	0.109
1065	0.109
1066	0.109
1066	0.109
1066	0.108
1067	0.108
1067	0.107
1068	0.107
1068	0.107
1068	0.107
1069	0.106
1069	0.106
1070	0.105
1070	0.105
1071	0.104
1071	0.104
1071	0.104
1072	0.103
1072	0.103
1073	0.102
1073	0.102
1073	0.102
1074	0.102
1074	0.103
1075	0.102
1075	0.103
1076	0.103
1076	0.103
1076	0.103
1077	0.104
1077	0.103
1078	0.103
1078	0.103
1078	0.103
1079	0.102
1079	0.102
1080	0.101
1080	0.101
1080	0.1
1081	0.1
1081	0.099
1082	0.1
1082	0.1
1083	0.1
1083	0.099
1083	0.099
1084	0.099
1084	0.1
1085	0.1
1085	0.101
1085	0.101
1086	0.101
1086	0.1
1087	0.099
1087	0.099
1088	0.099
1088	0.099
1088	0.099
1089	0.098
1089	0.097
1090	0.096
1090	0.095
1090	0.094
1091	0.094
1091	0.094
1092	0.093
1092	0.093
1092	0.093
1093	0.092
1093	0.093
1094	0.092
1094	0.092
1095	0.092
1095	0.092
1095	0.091
1096	0.09
1096	0.089
1097	0.089
1097	0.087
1097	0.086
1098	0.085
1098	0.083
1099	0.083
1099	0.081
1100	0.08
1100	0.079
1100	0.077
1101	0.077
1101	0.075
1102	0.075
1102	0.073
1102	0.071
1103	0.071
1103	0.07
1104	0.07
1104	0.069
1104	0.067
1105	0.066
1105	0.064
1106	0.062
1106	0.061
1107	0.061
1107	0.06
1107	0.06
1108	0.059
1108	0.057
1109	0.057
1109	0.057
1109	0.057
1110	0.058
1110	0.056
1111	0.058
1111	0.057
