Data from reversibility-20sec_Absorbance__2119__000000000002119.txt Node

Date: Tue Dec 05 23:59:27 CET 2023
User: Marek
Spectrometer: MAYP115816
Trigger mode: 0
Integration Time (sec): 2.000000E-1
Scans to average: 10
Electric dark correction enabled: true
Nonlinearity correction enabled: true
Boxcar width: 5
XAxis mode: Wavelengths
Number of Pixels in Spectrum: 2068
>>>>>Begin Spectral Data<<<<<
199	-0.213
199	-0.181
200	-0.111
200	-0.06
201	-0.029
201	-0.01
202	0.006
202	0.016
203	0.024
203	0.029
204	0.042
204	0.054
205	0.068
205	0.073
205	0.072
206	0.067
206	0.067
207	0.066
207	0.063
208	0.062
208	0.062
209	0.065
209	0.064
210	0.064
210	0.067
211	0.067
211	0.074
212	0.071
212	0.075
213	0.077
213	0.079
213	0.076
214	0.08
214	0.081
215	0.083
215	0.081
216	0.082
216	0.079
217	0.084
217	0.085
218	0.086
218	0.088
219	0.093
219	0.093
220	0.096
220	0.096
221	0.097
221	0.101
221	0.11
222	0.114
222	0.118
223	0.124
223	0.129
224	0.134
224	0.143
225	0.153
225	0.164
226	0.174
226	0.186
227	0.192
227	0.203
228	0.216
228	0.228
229	0.245
229	0.268
229	0.29
230	0.314
230	0.342
231	0.374
231	0.414
232	0.452
232	0.497
233	0.542
233	0.593
234	0.644
234	0.696
235	0.75
235	0.806
236	0.86
236	0.913
236	0.963
237	1.018
237	1.067
238	1.119
238	1.168
239	1.216
239	1.262
240	1.304
240	1.341
241	1.379
241	1.415
242	1.451
242	1.488
243	1.522
243	1.551
243	1.579
244	1.606
244	1.631
245	1.653
245	1.68
246	1.705
246	1.727
247	1.743
247	1.76
248	1.777
248	1.792
249	1.808
249	1.818
250	1.829
250	1.845
250	1.853
251	1.86
251	1.866
252	1.877
252	1.882
253	1.886
253	1.887
254	1.89
254	1.897
255	1.899
255	1.899
256	1.901
256	1.899
257	1.902
257	1.9
258	1.901
258	1.902
258	1.906
259	1.908
259	1.908
260	1.908
260	1.911
261	1.913
261	1.92
262	1.923
262	1.925
263	1.932
263	1.935
264	1.938
264	1.939
265	1.941
265	1.942
265	1.942
266	1.945
266	1.947
267	1.947
267	1.949
268	1.948
268	1.949
269	1.952
269	1.952
270	1.952
270	1.954
271	1.953
271	1.955
272	1.949
272	1.948
272	1.946
273	1.94
273	1.935
274	1.928
274	1.922
275	1.918
275	1.913
276	1.906
276	1.896
277	1.889
277	1.879
278	1.868
278	1.858
278	1.845
279	1.83
279	1.809
280	1.786
280	1.756
281	1.722
281	1.684
282	1.644
282	1.603
283	1.562
283	1.521
284	1.48
284	1.441
285	1.405
285	1.371
285	1.341
286	1.314
286	1.29
287	1.269
287	1.252
288	1.236
288	1.223
289	1.212
289	1.201
290	1.192
290	1.184
291	1.177
291	1.171
292	1.165
292	1.16
292	1.156
293	1.151
293	1.147
294	1.143
294	1.139
295	1.136
295	1.133
296	1.13
296	1.126
297	1.123
297	1.12
298	1.116
298	1.113
298	1.11
299	1.107
299	1.104
300	1.1
300	1.097
301	1.095
301	1.092
302	1.088
302	1.086
303	1.083
303	1.08
304	1.078
304	1.075
305	1.073
305	1.07
305	1.067
306	1.064
306	1.061
307	1.058
307	1.054
308	1.051
308	1.048
309	1.045
309	1.042
310	1.038
310	1.035
311	1.032
311	1.028
311	1.025
312	1.021
312	1.018
313	1.014
313	1.01
314	1.006
314	1.001
315	0.997
315	0.992
316	0.988
316	0.983
317	0.978
317	0.973
318	0.968
318	0.962
318	0.957
319	0.951
319	0.945
320	0.94
320	0.934
321	0.927
321	0.921
322	0.915
322	0.908
323	0.902
323	0.895
324	0.888
324	0.881
324	0.875
325	0.868
325	0.861
326	0.854
326	0.847
327	0.84
327	0.833
328	0.826
328	0.819
329	0.812
329	0.805
330	0.797
330	0.79
330	0.783
331	0.776
331	0.769
332	0.761
332	0.754
333	0.747
333	0.74
334	0.733
334	0.725
335	0.719
335	0.712
336	0.705
336	0.699
336	0.692
337	0.685
337	0.679
338	0.672
338	0.666
339	0.66
339	0.654
340	0.648
340	0.643
341	0.637
341	0.631
342	0.626
342	0.62
342	0.615
343	0.609
343	0.605
344	0.599
344	0.594
345	0.59
345	0.585
346	0.58
346	0.576
347	0.571
347	0.567
348	0.563
348	0.558
348	0.554
349	0.55
349	0.546
350	0.542
350	0.539
351	0.535
351	0.531
352	0.528
352	0.525
353	0.522
353	0.518
354	0.515
354	0.512
354	0.509
355	0.506
355	0.503
356	0.5
356	0.497
357	0.494
357	0.491
358	0.488
358	0.486
359	0.483
359	0.481
360	0.478
360	0.476
360	0.474
361	0.471
361	0.469
362	0.468
362	0.466
363	0.464
363	0.462
364	0.459
364	0.457
365	0.455
365	0.453
366	0.451
366	0.449
366	0.447
367	0.445
367	0.443
368	0.441
368	0.439
369	0.438
369	0.436
370	0.435
370	0.433
371	0.431
371	0.43
372	0.428
372	0.427
372	0.426
373	0.425
373	0.423
374	0.422
374	0.42
375	0.419
375	0.418
376	0.417
376	0.415
377	0.414
377	0.413
378	0.412
378	0.41
378	0.41
379	0.409
379	0.408
380	0.406
380	0.405
381	0.404
381	0.403
382	0.403
382	0.402
383	0.401
383	0.4
383	0.399
384	0.398
384	0.397
385	0.396
385	0.395
386	0.395
386	0.394
387	0.393
387	0.392
388	0.392
388	0.391
389	0.39
389	0.39
389	0.389
390	0.388
390	0.387
391	0.387
391	0.386
392	0.386
392	0.385
393	0.385
393	0.384
394	0.383
394	0.382
394	0.382
395	0.381
395	0.381
396	0.38
396	0.379
397	0.379
397	0.378
398	0.377
398	0.377
399	0.376
399	0.376
400	0.375
400	0.374
400	0.374
401	0.374
401	0.373
402	0.373
402	0.372
403	0.372
403	0.371
404	0.371
404	0.37
405	0.37
405	0.37
405	0.369
406	0.369
406	0.368
407	0.367
407	0.367
408	0.366
408	0.366
409	0.365
409	0.365
410	0.364
410	0.364
411	0.364
411	0.363
411	0.363
412	0.362
412	0.362
413	0.362
413	0.361
414	0.361
414	0.361
415	0.36
415	0.36
416	0.359
416	0.359
416	0.358
417	0.358
417	0.357
418	0.357
418	0.357
419	0.356
419	0.356
420	0.355
420	0.355
421	0.354
421	0.354
421	0.353
422	0.353
422	0.353
423	0.352
423	0.352
424	0.351
424	0.351
425	0.351
425	0.35
426	0.35
426	0.35
427	0.349
427	0.349
427	0.349
428	0.348
428	0.348
429	0.348
429	0.347
430	0.347
430	0.347
431	0.346
431	0.346
432	0.346
432	0.346
432	0.345
433	0.345
433	0.345
434	0.345
434	0.345
435	0.345
435	0.344
436	0.344
436	0.344
437	0.344
437	0.344
437	0.344
438	0.344
438	0.344
439	0.343
439	0.343
440	0.343
440	0.343
441	0.343
441	0.342
442	0.342
442	0.342
442	0.342
443	0.342
443	0.342
444	0.342
444	0.341
445	0.341
445	0.341
446	0.341
446	0.341
447	0.341
447	0.341
447	0.341
448	0.341
448	0.341
449	0.34
449	0.341
450	0.341
450	0.341
451	0.341
451	0.341
452	0.341
452	0.341
452	0.34
453	0.34
453	0.34
454	0.34
454	0.34
455	0.34
455	0.34
456	0.339
456	0.339
457	0.339
457	0.339
458	0.34
458	0.34
458	0.34
459	0.34
459	0.34
460	0.34
460	0.34
461	0.34
461	0.34
462	0.34
462	0.341
463	0.34
463	0.341
463	0.341
464	0.341
464	0.341
465	0.341
465	0.341
466	0.341
466	0.341
467	0.341
467	0.342
467	0.342
468	0.342
468	0.342
469	0.342
469	0.343
470	0.344
470	0.344
471	0.345
471	0.345
472	0.346
472	0.346
472	0.347
473	0.348
473	0.348
474	0.349
474	0.349
475	0.349
475	0.35
476	0.35
476	0.351
477	0.351
477	0.352
477	0.352
478	0.353
478	0.353
479	0.354
479	0.355
480	0.356
480	0.357
481	0.357
481	0.358
482	0.359
482	0.359
482	0.36
483	0.361
483	0.363
484	0.364
484	0.364
485	0.365
485	0.366
486	0.366
486	0.367
487	0.368
487	0.369
487	0.37
488	0.371
488	0.372
489	0.373
489	0.375
490	0.377
490	0.378
491	0.38
491	0.382
492	0.383
492	0.385
492	0.386
493	0.387
493	0.389
494	0.39
494	0.392
495	0.393
495	0.395
496	0.396
496	0.398
496	0.399
497	0.401
497	0.402
498	0.403
498	0.405
499	0.406
499	0.408
500	0.41
500	0.411
501	0.413
501	0.414
501	0.415
502	0.417
502	0.419
503	0.42
503	0.421
504	0.423
504	0.424
505	0.426
505	0.427
506	0.429
506	0.43
506	0.432
507	0.433
507	0.435
508	0.436
508	0.438
509	0.439
509	0.44
510	0.442
510	0.443
511	0.444
511	0.446
511	0.447
512	0.448
512	0.449
513	0.45
513	0.451
514	0.452
514	0.453
515	0.455
515	0.455
515	0.456
516	0.457
516	0.458
517	0.459
517	0.459
518	0.46
518	0.46
519	0.46
519	0.46
520	0.46
520	0.46
520	0.46
521	0.46
521	0.459
522	0.459
522	0.459
523	0.458
523	0.458
524	0.458
524	0.458
524	0.458
525	0.458
525	0.457
526	0.456
526	0.456
527	0.455
527	0.454
528	0.453
528	0.452
529	0.451
529	0.45
529	0.449
530	0.447
530	0.446
531	0.445
531	0.444
532	0.442
532	0.441
533	0.439
533	0.437
533	0.436
534	0.434
534	0.432
535	0.43
535	0.428
536	0.426
536	0.424
537	0.422
537	0.42
538	0.418
538	0.416
538	0.413
539	0.412
539	0.41
540	0.407
540	0.405
541	0.403
541	0.4
542	0.398
542	0.396
542	0.393
543	0.391
543	0.388
544	0.386
544	0.383
545	0.381
545	0.379
546	0.377
546	0.374
547	0.371
547	0.368
547	0.366
548	0.364
548	0.361
549	0.359
549	0.356
550	0.354
550	0.351
551	0.348
551	0.345
551	0.343
552	0.34
552	0.338
553	0.335
553	0.333
554	0.33
554	0.327
555	0.324
555	0.322
556	0.319
556	0.316
556	0.314
557	0.312
557	0.31
558	0.308
558	0.306
559	0.303
559	0.301
560	0.298
560	0.296
560	0.294
561	0.292
561	0.29
562	0.287
562	0.285
563	0.282
563	0.28
564	0.277
564	0.275
564	0.273
565	0.272
565	0.269
566	0.267
566	0.265
567	0.263
567	0.262
568	0.26
568	0.258
568	0.256
569	0.254
569	0.253
570	0.25
570	0.248
571	0.247
571	0.245
572	0.243
572	0.241
573	0.24
573	0.238
573	0.236
574	0.234
574	0.233
575	0.231
575	0.23
576	0.228
576	0.226
577	0.225
577	0.223
577	0.222
578	0.22
578	0.219
579	0.219
579	0.218
580	0.216
580	0.214
581	0.212
581	0.21
581	0.209
582	0.209
582	0.208
583	0.207
583	0.205
584	0.203
584	0.201
585	0.2
585	0.198
585	0.197
586	0.196
586	0.194
587	0.193
587	0.191
588	0.19
588	0.188
589	0.187
589	0.187
590	0.186
590	0.185
590	0.185
591	0.184
591	0.183
592	0.182
592	0.18
593	0.18
593	0.179
594	0.178
594	0.177
594	0.176
595	0.175
595	0.174
596	0.172
596	0.172
597	0.172
597	0.171
598	0.17
598	0.17
598	0.169
599	0.168
599	0.167
600	0.166
600	0.165
601	0.165
601	0.164
602	0.163
602	0.161
602	0.16
603	0.159
603	0.159
604	0.158
604	0.158
605	0.157
605	0.157
606	0.156
606	0.155
606	0.154
607	0.154
607	0.153
608	0.153
608	0.152
609	0.151
609	0.15
610	0.149
610	0.148
610	0.148
611	0.147
611	0.147
612	0.146
612	0.146
613	0.146
613	0.145
614	0.145
614	0.144
614	0.143
615	0.143
615	0.142
616	0.142
616	0.141
617	0.141
617	0.14
618	0.14
618	0.14
618	0.139
619	0.139
619	0.14
620	0.14
620	0.139
621	0.138
621	0.137
622	0.136
622	0.136
622	0.135
623	0.134
623	0.133
624	0.132
624	0.131
625	0.131
625	0.13
626	0.13
626	0.129
626	0.129
627	0.129
627	0.128
628	0.128
628	0.127
629	0.127
629	0.126
630	0.126
630	0.125
630	0.125
631	0.125
631	0.125
632	0.124
632	0.124
633	0.124
633	0.124
634	0.124
634	0.124
634	0.123
635	0.122
635	0.122
636	0.121
636	0.121
637	0.12
637	0.12
638	0.119
638	0.118
638	0.118
639	0.117
639	0.117
640	0.117
640	0.116
641	0.116
641	0.116
642	0.115
642	0.115
642	0.115
643	0.114
643	0.114
644	0.114
644	0.114
645	0.114
645	0.114
646	0.113
646	0.113
646	0.113
647	0.112
647	0.112
648	0.111
648	0.11
649	0.11
649	0.11
650	0.11
650	0.109
650	0.109
651	0.109
651	0.109
652	0.109
652	0.109
653	0.11
653	0.112
653	0.118
654	0.095
654	0.077
655	0.075
655	0.075
656	0.075
656	0.075
657	0.075
657	0.075
657	0.075
658	0.074
658	0.065
659	0.082
659	0.103
660	0.108
660	0.108
661	0.107
661	0.106
661	0.106
662	0.105
662	0.104
663	0.103
663	0.102
664	0.101
664	0.101
665	0.1
665	0.1
665	0.1
666	0.1
666	0.1
667	0.1
667	0.1
668	0.101
668	0.101
669	0.101
669	0.101
669	0.102
670	0.102
670	0.101
671	0.101
671	0.101
672	0.1
672	0.099
672	0.099
673	0.098
673	0.098
674	0.098
674	0.097
675	0.096
675	0.096
676	0.096
676	0.096
676	0.096
677	0.096
677	0.096
678	0.095
678	0.095
679	0.095
679	0.095
680	0.095
680	0.095
680	0.095
681	0.095
681	0.095
682	0.096
682	0.096
683	0.096
683	0.096
684	0.096
684	0.096
684	0.096
685	0.096
685	0.096
686	0.095
686	0.095
687	0.094
687	0.094
687	0.093
688	0.093
688	0.092
689	0.092
689	0.093
690	0.092
690	0.092
691	0.092
691	0.092
691	0.092
692	0.093
692	0.093
693	0.093
693	0.093
694	0.093
694	0.092
695	0.093
695	0.094
695	0.094
696	0.093
696	0.092
697	0.092
697	0.092
698	0.091
698	0.091
698	0.091
699	0.091
699	0.091
700	0.09
700	0.091
701	0.091
701	0.091
702	0.091
702	0.091
702	0.091
703	0.091
703	0.09
704	0.09
704	0.09
705	0.089
705	0.089
705	0.088
706	0.088
706	0.088
707	0.087
707	0.087
708	0.087
708	0.087
709	0.087
709	0.086
709	0.085
710	0.085
710	0.085
711	0.085
711	0.084
712	0.084
712	0.083
713	0.083
713	0.083
713	0.083
714	0.083
714	0.083
715	0.083
715	0.083
716	0.082
716	0.082
716	0.082
717	0.081
717	0.081
718	0.08
718	0.08
719	0.08
719	0.08
720	0.08
720	0.08
720	0.081
721	0.081
721	0.081
722	0.081
722	0.081
723	0.081
723	0.082
723	0.082
724	0.081
724	0.081
725	0.08
725	0.079
726	0.079
726	0.078
727	0.078
727	0.077
727	0.077
728	0.077
728	0.076
729	0.076
729	0.076
730	0.076
730	0.076
730	0.077
731	0.077
731	0.078
732	0.078
732	0.078
733	0.078
733	0.078
734	0.078
734	0.078
734	0.078
735	0.078
735	0.077
736	0.077
736	0.076
737	0.076
737	0.076
737	0.075
738	0.074
738	0.073
739	0.073
739	0.072
740	0.072
740	0.071
741	0.071
741	0.071
741	0.071
742	0.07
742	0.071
743	0.071
743	0.072
744	0.072
744	0.072
744	0.072
745	0.072
745	0.072
746	0.073
746	0.073
747	0.073
747	0.073
748	0.073
748	0.074
748	0.074
749	0.073
749	0.074
750	0.074
750	0.074
751	0.074
751	0.074
751	0.073
752	0.073
752	0.072
753	0.072
753	0.071
754	0.071
754	0.07
754	0.07
755	0.07
755	0.07
756	0.069
756	0.068
757	0.067
757	0.067
758	0.067
758	0.067
758	0.067
759	0.067
759	0.066
760	0.066
760	0.066
761	0.066
761	0.067
761	0.067
762	0.068
762	0.068
763	0.068
763	0.068
764	0.067
764	0.068
764	0.067
765	0.067
765	0.067
766	0.067
766	0.067
767	0.066
767	0.065
768	0.065
768	0.064
768	0.064
769	0.064
769	0.063
770	0.063
770	0.063
771	0.063
771	0.062
771	0.062
772	0.063
772	0.063
773	0.063
773	0.063
774	0.063
774	0.064
775	0.064
775	0.064
775	0.064
776	0.064
776	0.065
777	0.065
777	0.065
778	0.065
778	0.064
778	0.064
779	0.064
779	0.063
780	0.062
780	0.062
781	0.062
781	0.061
781	0.061
782	0.061
782	0.061
783	0.061
783	0.061
784	0.061
784	0.061
784	0.062
785	0.062
785	0.062
786	0.062
786	0.062
787	0.062
787	0.061
788	0.061
788	0.061
788	0.06
789	0.06
789	0.06
790	0.061
790	0.06
791	0.06
791	0.06
791	0.06
792	0.061
792	0.061
793	0.061
793	0.061
794	0.061
794	0.061
794	0.061
795	0.061
795	0.062
796	0.062
796	0.062
797	0.061
797	0.061
797	0.061
798	0.061
798	0.061
799	0.06
799	0.06
800	0.059
800	0.058
801	0.057
801	0.057
801	0.057
802	0.056
802	0.056
803	0.056
803	0.057
804	0.057
804	0.057
804	0.058
805	0.057
805	0.057
806	0.057
806	0.057
807	0.057
807	0.057
807	0.056
808	0.056
808	0.056
809	0.056
809	0.056
810	0.056
810	0.056
810	0.056
811	0.056
811	0.057
812	0.057
812	0.058
813	0.058
813	0.058
813	0.058
814	0.059
814	0.059
815	0.059
815	0.059
816	0.059
816	0.058
817	0.058
817	0.058
817	0.057
818	0.057
818	0.057
819	0.057
819	0.056
820	0.056
820	0.056
820	0.056
821	0.056
821	0.056
822	0.055
822	0.055
823	0.055
823	0.055
823	0.055
824	0.055
824	0.056
825	0.057
825	0.057
826	0.057
826	0.056
826	0.056
827	0.057
827	0.057
828	0.056
828	0.056
829	0.056
829	0.056
829	0.056
830	0.055
830	0.056
831	0.056
831	0.056
832	0.056
832	0.056
832	0.056
833	0.056
833	0.056
834	0.056
834	0.056
835	0.056
835	0.056
835	0.056
836	0.057
836	0.057
837	0.058
837	0.058
838	0.058
838	0.058
839	0.058
839	0.057
839	0.057
840	0.056
840	0.055
841	0.054
841	0.053
842	0.052
842	0.051
842	0.05
843	0.05
843	0.049
844	0.049
844	0.049
845	0.049
845	0.049
845	0.049
846	0.049
846	0.049
847	0.05
847	0.05
848	0.051
848	0.051
848	0.052
849	0.052
849	0.052
850	0.053
850	0.053
851	0.053
851	0.053
851	0.053
852	0.052
852	0.051
853	0.051
853	0.05
854	0.05
854	0.05
854	0.05
855	0.05
855	0.05
856	0.051
856	0.051
857	0.052
857	0.053
857	0.053
858	0.054
858	0.053
859	0.053
859	0.053
860	0.052
860	0.051
860	0.051
861	0.05
861	0.049
862	0.048
862	0.047
863	0.046
863	0.046
863	0.046
864	0.046
864	0.046
865	0.046
865	0.046
866	0.046
866	0.046
866	0.046
867	0.046
867	0.046
868	0.046
868	0.046
869	0.046
869	0.046
869	0.045
870	0.045
870	0.046
871	0.046
871	0.047
872	0.047
872	0.048
872	0.048
873	0.048
873	0.048
874	0.048
874	0.048
875	0.047
875	0.047
875	0.047
876	0.046
876	0.046
877	0.046
877	0.046
878	0.046
878	0.047
878	0.048
879	0.048
879	0.049
880	0.05
880	0.05
881	0.051
881	0.051
881	0.051
882	0.051
882	0.05
883	0.05
883	0.049
884	0.048
884	0.048
884	0.047
885	0.046
885	0.046
886	0.045
886	0.045
887	0.045
887	0.044
887	0.044
888	0.044
888	0.043
889	0.043
889	0.043
890	0.043
890	0.043
890	0.043
891	0.043
891	0.044
892	0.044
892	0.045
893	0.045
893	0.046
893	0.046
894	0.047
894	0.047
895	0.048
895	0.048
895	0.048
896	0.048
896	0.048
897	0.047
897	0.047
898	0.046
898	0.046
898	0.045
899	0.045
899	0.045
900	0.044
900	0.044
901	0.045
901	0.045
901	0.045
902	0.045
902	0.045
903	0.046
903	0.046
904	0.046
904	0.046
904	0.046
905	0.046
905	0.046
906	0.046
906	0.046
907	0.046
907	0.046
907	0.046
908	0.047
908	0.047
909	0.047
909	0.047
910	0.047
910	0.047
910	0.047
911	0.047
911	0.047
912	0.047
912	0.047
913	0.047
913	0.047
913	0.047
914	0.047
914	0.047
915	0.047
915	0.047
916	0.047
916	0.046
916	0.046
917	0.045
917	0.045
918	0.044
918	0.043
918	0.043
919	0.042
919	0.042
920	0.041
920	0.041
921	0.041
921	0.041
921	0.04
922	0.04
922	0.04
923	0.04
923	0.041
924	0.041
924	0.041
924	0.042
925	0.042
925	0.042
926	0.043
926	0.043
927	0.043
927	0.043
927	0.043
928	0.044
928	0.044
929	0.044
929	0.044
930	0.043
930	0.043
930	0.043
931	0.043
931	0.043
932	0.043
932	0.043
933	0.043
933	0.042
933	0.042
934	0.042
934	0.042
935	0.041
935	0.041
935	0.041
936	0.041
936	0.041
937	0.041
937	0.041
938	0.041
938	0.042
938	0.042
939	0.042
939	0.042
940	0.042
940	0.043
941	0.043
941	0.044
941	0.044
942	0.045
942	0.045
943	0.045
943	0.045
944	0.045
944	0.046
944	0.046
945	0.046
945	0.046
946	0.046
946	0.046
946	0.046
947	0.047
947	0.047
948	0.046
948	0.046
949	0.046
949	0.046
949	0.046
950	0.046
950	0.046
951	0.046
951	0.045
952	0.045
952	0.045
952	0.045
953	0.044
953	0.044
954	0.043
954	0.042
955	0.042
955	0.042
955	0.041
956	0.041
956	0.041
957	0.041
957	0.041
957	0.041
958	0.042
958	0.042
959	0.042
959	0.043
960	0.043
960	0.043
960	0.044
961	0.044
961	0.044
962	0.044
962	0.044
963	0.044
963	0.045
963	0.045
964	0.045
964	0.045
965	0.045
965	0.045
966	0.046
966	0.046
966	0.046
967	0.046
967	0.047
968	0.047
968	0.047
968	0.047
969	0.047
969	0.047
970	0.047
970	0.046
971	0.046
971	0.046
971	0.046
972	0.045
972	0.045
973	0.044
973	0.044
974	0.044
974	0.044
974	0.045
975	0.045
975	0.045
976	0.046
976	0.047
976	0.047
977	0.047
977	0.048
978	0.048
978	0.048
979	0.049
979	0.049
979	0.049
980	0.049
980	0.048
981	0.047
981	0.047
982	0.047
982	0.046
982	0.045
983	0.045
983	0.044
984	0.043
984	0.042
984	0.041
985	0.04
985	0.039
986	0.038
986	0.037
987	0.037
987	0.037
987	0.036
988	0.036
988	0.036
989	0.036
989	0.036
990	0.035
990	0.035
990	0.035
991	0.035
991	0.035
992	0.034
992	0.034
992	0.034
993	0.033
993	0.033
994	0.033
994	0.033
995	0.033
995	0.034
995	0.034
996	0.034
996	0.035
997	0.036
997	0.037
997	0.038
998	0.038
998	0.039
999	0.041
999	0.042
1000	0.043
1000	0.043
1000	0.044
1001	0.045
1001	0.045
1002	0.046
1002	0.046
1003	0.046
1003	0.046
1003	0.045
1004	0.045
1004	0.044
1005	0.044
1005	0.043
1005	0.043
1006	0.042
1006	0.041
1007	0.041
1007	0.041
1008	0.04
1008	0.04
1008	0.04
1009	0.04
1009	0.04
1010	0.04
1010	0.04
1010	0.04
1011	0.04
1011	0.039
1012	0.039
1012	0.039
1013	0.039
1013	0.039
1013	0.039
1014	0.039
1014	0.039
1015	0.039
1015	0.039
1016	0.039
1016	0.039
1016	0.038
1017	0.038
1017	0.038
1018	0.038
1018	0.038
1018	0.038
1019	0.038
1019	0.038
1020	0.038
1020	0.038
1021	0.038
1021	0.038
1021	0.038
1022	0.038
1022	0.038
1023	0.038
1023	0.038
1023	0.038
1024	0.038
1024	0.037
1025	0.037
1025	0.036
1026	0.036
1026	0.035
1026	0.035
1027	0.034
1027	0.034
1028	0.033
1028	0.033
1028	0.032
1029	0.032
1029	0.033
1030	0.033
1030	0.033
1031	0.034
1031	0.034
1031	0.034
1032	0.035
1032	0.035
1033	0.035
1033	0.035
1033	0.035
1034	0.036
1034	0.035
1035	0.035
1035	0.035
1036	0.035
1036	0.035
1036	0.035
1037	0.035
1037	0.035
1038	0.035
1038	0.035
1039	0.035
1039	0.036
1039	0.036
1040	0.036
1040	0.037
1041	0.037
1041	0.037
1041	0.037
1042	0.038
1042	0.038
1043	0.038
1043	0.038
1044	0.038
1044	0.038
1044	0.038
1045	0.038
1045	0.039
1046	0.039
1046	0.039
1046	0.04
1047	0.04
1047	0.041
1048	0.041
1048	0.042
1049	0.042
1049	0.042
1049	0.042
1050	0.042
1050	0.041
1051	0.041
1051	0.04
1051	0.04
1052	0.039
1052	0.039
1053	0.038
1053	0.037
1053	0.037
1054	0.036
1054	0.035
1055	0.035
1055	0.035
1056	0.035
1056	0.034
1056	0.033
1057	0.033
1057	0.032
1058	0.032
1058	0.031
1058	0.031
1059	0.03
1059	0.029
1060	0.029
1060	0.028
1061	0.027
1061	0.027
1061	0.027
1062	0.026
1062	0.026
1063	0.026
1063	0.026
1063	0.026
1064	0.025
1064	0.026
1065	0.026
1065	0.026
1066	0.026
1066	0.026
1066	0.026
1067	0.025
1067	0.026
1068	0.026
1068	0.026
1068	0.026
1069	0.025
1069	0.025
1070	0.024
1070	0.024
1071	0.023
1071	0.023
1071	0.023
1072	0.022
1072	0.022
1073	0.021
1073	0.021
1073	0.02
1074	0.021
1074	0.021
1075	0.021
1075	0.021
1076	0.021
1076	0.021
1076	0.022
1077	0.022
1077	0.022
1078	0.023
1078	0.023
1078	0.023
1079	0.023
1079	0.024
1080	0.024
1080	0.024
1080	0.024
1081	0.025
1081	0.025
1082	0.025
1082	0.026
1083	0.026
1083	0.026
1083	0.026
1084	0.026
1084	0.027
1085	0.026
1085	0.026
1085	0.026
1086	0.026
1086	0.025
1087	0.025
1087	0.024
1088	0.024
1088	0.023
1088	0.023
1089	0.022
1089	0.021
1090	0.021
1090	0.02
1090	0.019
1091	0.018
1091	0.018
1092	0.018
1092	0.018
1092	0.017
1093	0.017
1093	0.017
1094	0.017
1094	0.017
1095	0.017
1095	0.017
1095	0.017
1096	0.016
1096	0.015
1097	0.015
1097	0.015
1097	0.015
1098	0.014
1098	0.013
1099	0.012
1099	0.011
1100	0.01
1100	0.009
1100	0.008
1101	0.008
1101	0.007
1102	0.006
1102	0.004
1102	0.003
1103	0.002
1103	0.002
1104	0.002
1104	0.003
1104	0.002
1105	0.001
1105	-0.001
1106	-0.002
1106	-0.003
1107	-0.004
1107	-0.005
1107	-0.006
1108	-0.007
1108	-0.008
1109	-0.01
1109	-0.012
1109	-0.013
1110	-0.012
1110	-0.014
1111	-0.012
1111	-0.015
