Data from reversibility-20sec_Absorbance__4345__000000000004345.txt Node

Date: Wed Dec 06 12:21:25 CET 2023
User: Marek
Spectrometer: MAYP115816
Trigger mode: 0
Integration Time (sec): 2.000000E-1
Scans to average: 10
Electric dark correction enabled: true
Nonlinearity correction enabled: true
Boxcar width: 5
XAxis mode: Wavelengths
Number of Pixels in Spectrum: 2068
>>>>>Begin Spectral Data<<<<<
199	-0.204
199	-0.165
200	-0.096
200	-0.046
201	-0.016
201	-0
202	0.012
202	0.021
203	0.027
203	0.031
204	0.046
204	0.06
205	0.071
205	0.076
205	0.077
206	0.077
206	0.077
207	0.079
207	0.08
208	0.081
208	0.081
209	0.082
209	0.082
210	0.082
210	0.085
211	0.085
211	0.087
212	0.087
212	0.092
213	0.093
213	0.094
213	0.094
214	0.097
214	0.096
215	0.098
215	0.099
216	0.097
216	0.095
217	0.095
217	0.094
218	0.094
218	0.097
219	0.103
219	0.103
220	0.105
220	0.105
221	0.102
221	0.108
221	0.114
222	0.12
222	0.125
223	0.13
223	0.134
224	0.138
224	0.145
225	0.155
225	0.163
226	0.172
226	0.18
227	0.191
227	0.2
228	0.213
228	0.229
229	0.244
229	0.268
229	0.29
230	0.316
230	0.346
231	0.38
231	0.418
232	0.453
232	0.497
233	0.537
233	0.585
234	0.637
234	0.688
235	0.742
235	0.794
236	0.846
236	0.897
236	0.948
237	1.001
237	1.05
238	1.101
238	1.148
239	1.196
239	1.236
240	1.276
240	1.314
241	1.35
241	1.385
242	1.417
242	1.451
243	1.483
243	1.508
243	1.534
244	1.556
244	1.58
245	1.598
245	1.62
246	1.639
246	1.657
247	1.67
247	1.685
248	1.699
248	1.714
249	1.724
249	1.731
250	1.738
250	1.746
250	1.751
251	1.756
251	1.758
252	1.764
252	1.765
253	1.766
253	1.762
254	1.761
254	1.761
255	1.759
255	1.76
256	1.76
256	1.759
257	1.758
257	1.757
258	1.756
258	1.755
258	1.756
259	1.756
259	1.759
260	1.759
260	1.759
261	1.758
261	1.762
262	1.765
262	1.766
263	1.769
263	1.771
264	1.773
264	1.775
265	1.777
265	1.778
265	1.778
266	1.78
266	1.779
267	1.776
267	1.778
268	1.778
268	1.779
269	1.779
269	1.779
270	1.776
270	1.776
271	1.775
271	1.773
272	1.771
272	1.77
272	1.765
273	1.76
273	1.755
274	1.749
274	1.742
275	1.736
275	1.729
276	1.723
276	1.716
277	1.708
277	1.698
278	1.686
278	1.674
278	1.66
279	1.645
279	1.625
280	1.6
280	1.57
281	1.536
281	1.497
282	1.457
282	1.416
283	1.376
283	1.337
284	1.299
284	1.262
285	1.227
285	1.195
285	1.167
286	1.142
286	1.121
287	1.102
287	1.086
288	1.072
288	1.06
289	1.049
289	1.041
290	1.033
290	1.026
291	1.02
291	1.015
292	1.01
292	1.006
292	1.002
293	0.998
293	0.994
294	0.991
294	0.988
295	0.985
295	0.983
296	0.98
296	0.977
297	0.974
297	0.971
298	0.969
298	0.966
298	0.963
299	0.961
299	0.958
300	0.955
300	0.953
301	0.95
301	0.948
302	0.945
302	0.943
303	0.941
303	0.939
304	0.936
304	0.934
305	0.932
305	0.929
305	0.927
306	0.925
306	0.922
307	0.92
307	0.917
308	0.915
308	0.913
309	0.91
309	0.908
310	0.905
310	0.902
311	0.899
311	0.896
311	0.893
312	0.889
312	0.886
313	0.883
313	0.879
314	0.875
314	0.871
315	0.867
315	0.863
316	0.859
316	0.854
317	0.85
317	0.845
318	0.84
318	0.835
318	0.83
319	0.825
319	0.82
320	0.815
320	0.809
321	0.803
321	0.797
322	0.791
322	0.785
323	0.779
323	0.772
324	0.766
324	0.759
324	0.752
325	0.746
325	0.739
326	0.732
326	0.726
327	0.719
327	0.712
328	0.706
328	0.699
329	0.692
329	0.685
330	0.678
330	0.672
330	0.665
331	0.658
331	0.651
332	0.644
332	0.637
333	0.63
333	0.623
334	0.617
334	0.61
335	0.603
335	0.596
336	0.59
336	0.584
336	0.577
337	0.571
337	0.565
338	0.559
338	0.553
339	0.547
339	0.541
340	0.535
340	0.53
341	0.524
341	0.519
342	0.513
342	0.508
342	0.503
343	0.498
343	0.493
344	0.488
344	0.483
345	0.479
345	0.474
346	0.47
346	0.465
347	0.461
347	0.457
348	0.453
348	0.449
348	0.446
349	0.442
349	0.438
350	0.435
350	0.431
351	0.427
351	0.424
352	0.421
352	0.418
353	0.415
353	0.412
354	0.409
354	0.406
354	0.404
355	0.401
355	0.398
356	0.395
356	0.392
357	0.389
357	0.386
358	0.383
358	0.381
359	0.379
359	0.376
360	0.374
360	0.373
360	0.371
361	0.369
361	0.367
362	0.366
362	0.364
363	0.363
363	0.361
364	0.359
364	0.357
365	0.355
365	0.353
366	0.352
366	0.35
366	0.348
367	0.347
367	0.345
368	0.343
368	0.342
369	0.34
369	0.339
370	0.338
370	0.336
371	0.335
371	0.333
372	0.332
372	0.331
372	0.329
373	0.328
373	0.327
374	0.326
374	0.325
375	0.324
375	0.323
376	0.323
376	0.322
377	0.321
377	0.32
378	0.319
378	0.318
378	0.317
379	0.316
379	0.316
380	0.315
380	0.314
381	0.313
381	0.312
382	0.312
382	0.312
383	0.311
383	0.31
383	0.31
384	0.309
384	0.308
385	0.308
385	0.308
386	0.307
386	0.307
387	0.306
387	0.305
388	0.305
388	0.304
389	0.304
389	0.304
389	0.303
390	0.303
390	0.302
391	0.302
391	0.302
392	0.301
392	0.301
393	0.301
393	0.3
394	0.3
394	0.299
394	0.299
395	0.298
395	0.298
396	0.298
396	0.297
397	0.297
397	0.296
398	0.296
398	0.295
399	0.295
399	0.295
400	0.295
400	0.294
400	0.294
401	0.294
401	0.293
402	0.293
402	0.293
403	0.293
403	0.293
404	0.292
404	0.292
405	0.292
405	0.292
405	0.291
406	0.291
406	0.291
407	0.29
407	0.29
408	0.29
408	0.289
409	0.289
409	0.288
410	0.288
410	0.288
411	0.287
411	0.287
411	0.287
412	0.286
412	0.286
413	0.285
413	0.285
414	0.285
414	0.285
415	0.284
415	0.284
416	0.284
416	0.283
416	0.283
417	0.282
417	0.282
418	0.282
418	0.282
419	0.281
419	0.281
420	0.28
420	0.28
421	0.28
421	0.279
421	0.279
422	0.279
422	0.279
423	0.278
423	0.278
424	0.277
424	0.277
425	0.277
425	0.276
426	0.276
426	0.276
427	0.276
427	0.275
427	0.275
428	0.275
428	0.274
429	0.274
429	0.274
430	0.274
430	0.274
431	0.273
431	0.273
432	0.273
432	0.273
432	0.272
433	0.272
433	0.272
434	0.272
434	0.272
435	0.272
435	0.272
436	0.271
436	0.271
437	0.271
437	0.271
437	0.271
438	0.27
438	0.27
439	0.27
439	0.27
440	0.269
440	0.269
441	0.269
441	0.269
442	0.268
442	0.268
442	0.268
443	0.268
443	0.268
444	0.268
444	0.268
445	0.268
445	0.267
446	0.267
446	0.267
447	0.267
447	0.266
447	0.266
448	0.266
448	0.266
449	0.266
449	0.266
450	0.266
450	0.265
451	0.265
451	0.265
452	0.265
452	0.265
452	0.265
453	0.265
453	0.265
454	0.264
454	0.264
455	0.264
455	0.264
456	0.264
456	0.264
457	0.263
457	0.263
458	0.263
458	0.263
458	0.263
459	0.262
459	0.262
460	0.262
460	0.262
461	0.262
461	0.262
462	0.262
462	0.261
463	0.261
463	0.261
463	0.261
464	0.261
464	0.261
465	0.26
465	0.26
466	0.26
466	0.26
467	0.26
467	0.26
467	0.26
468	0.26
468	0.26
469	0.261
469	0.261
470	0.261
470	0.261
471	0.261
471	0.261
472	0.261
472	0.261
472	0.261
473	0.262
473	0.262
474	0.262
474	0.262
475	0.262
475	0.262
476	0.262
476	0.263
477	0.263
477	0.263
477	0.263
478	0.263
478	0.264
479	0.264
479	0.264
480	0.265
480	0.265
481	0.265
481	0.265
482	0.265
482	0.266
482	0.266
483	0.266
483	0.267
484	0.267
484	0.267
485	0.267
485	0.268
486	0.268
486	0.268
487	0.269
487	0.269
487	0.269
488	0.27
488	0.27
489	0.27
489	0.272
490	0.272
490	0.273
491	0.274
491	0.275
492	0.276
492	0.276
492	0.277
493	0.278
493	0.279
494	0.279
494	0.28
495	0.281
495	0.281
496	0.282
496	0.283
496	0.284
497	0.284
497	0.285
498	0.286
498	0.286
499	0.287
499	0.288
500	0.289
500	0.29
501	0.29
501	0.29
501	0.291
502	0.292
502	0.292
503	0.293
503	0.294
504	0.294
504	0.295
505	0.296
505	0.297
506	0.297
506	0.298
506	0.299
507	0.3
507	0.3
508	0.301
508	0.302
509	0.302
509	0.303
510	0.304
510	0.304
511	0.305
511	0.306
511	0.307
512	0.308
512	0.308
513	0.308
513	0.309
514	0.31
514	0.311
515	0.311
515	0.312
515	0.312
516	0.312
516	0.313
517	0.314
517	0.314
518	0.315
518	0.315
519	0.315
519	0.315
520	0.316
520	0.316
520	0.316
521	0.316
521	0.316
522	0.316
522	0.316
523	0.316
523	0.317
524	0.316
524	0.317
524	0.317
525	0.317
525	0.317
526	0.316
526	0.316
527	0.316
527	0.316
528	0.316
528	0.316
529	0.316
529	0.315
529	0.315
530	0.314
530	0.314
531	0.314
531	0.314
532	0.313
532	0.312
533	0.312
533	0.311
533	0.311
534	0.31
534	0.309
535	0.309
535	0.309
536	0.308
536	0.307
537	0.307
537	0.306
538	0.305
538	0.304
538	0.304
539	0.303
539	0.302
540	0.301
540	0.3
541	0.299
541	0.298
542	0.297
542	0.296
542	0.296
543	0.295
543	0.294
544	0.294
544	0.293
545	0.292
545	0.292
546	0.291
546	0.29
547	0.289
547	0.288
547	0.287
548	0.286
548	0.285
549	0.284
549	0.283
550	0.282
550	0.281
551	0.28
551	0.278
551	0.278
552	0.277
552	0.276
553	0.275
553	0.274
554	0.273
554	0.272
555	0.271
555	0.269
556	0.269
556	0.268
556	0.267
557	0.267
557	0.266
558	0.266
558	0.265
559	0.265
559	0.264
560	0.263
560	0.262
560	0.262
561	0.261
561	0.26
562	0.258
562	0.257
563	0.256
563	0.255
564	0.253
564	0.252
564	0.251
565	0.251
565	0.25
566	0.249
566	0.249
567	0.248
567	0.248
568	0.247
568	0.246
568	0.246
569	0.245
569	0.245
570	0.244
570	0.242
571	0.242
571	0.241
572	0.24
572	0.239
573	0.238
573	0.238
573	0.237
574	0.236
574	0.235
575	0.235
575	0.235
576	0.235
576	0.234
577	0.233
577	0.232
577	0.232
578	0.231
578	0.23
579	0.23
579	0.23
580	0.229
580	0.228
581	0.226
581	0.226
581	0.226
582	0.226
582	0.225
583	0.225
583	0.225
584	0.223
584	0.222
585	0.221
585	0.221
585	0.22
586	0.22
586	0.219
587	0.218
587	0.217
588	0.216
588	0.215
589	0.214
589	0.214
590	0.214
590	0.214
590	0.214
591	0.214
591	0.213
592	0.212
592	0.212
593	0.211
593	0.211
594	0.21
594	0.209
594	0.209
595	0.208
595	0.208
596	0.207
596	0.207
597	0.208
597	0.208
598	0.208
598	0.208
598	0.207
599	0.207
599	0.206
600	0.206
600	0.205
601	0.205
601	0.205
602	0.204
602	0.203
602	0.203
603	0.203
603	0.203
604	0.203
604	0.203
605	0.202
605	0.202
606	0.202
606	0.2
606	0.2
607	0.199
607	0.199
608	0.198
608	0.197
609	0.197
609	0.196
610	0.196
610	0.195
610	0.195
611	0.196
611	0.195
612	0.195
612	0.195
613	0.195
613	0.195
614	0.195
614	0.194
614	0.194
615	0.193
615	0.193
616	0.193
616	0.192
617	0.192
617	0.192
618	0.191
618	0.191
618	0.191
619	0.191
619	0.191
620	0.191
620	0.191
621	0.19
621	0.19
622	0.19
622	0.189
622	0.189
623	0.188
623	0.188
624	0.188
624	0.187
625	0.186
625	0.186
626	0.186
626	0.186
626	0.186
627	0.186
627	0.186
628	0.186
628	0.186
629	0.185
629	0.185
630	0.184
630	0.184
630	0.184
631	0.184
631	0.183
632	0.183
632	0.182
633	0.182
633	0.182
634	0.182
634	0.183
634	0.183
635	0.182
635	0.182
636	0.182
636	0.182
637	0.182
637	0.181
638	0.181
638	0.181
638	0.18
639	0.18
639	0.179
640	0.179
640	0.179
641	0.178
641	0.178
642	0.178
642	0.178
642	0.178
643	0.178
643	0.178
644	0.178
644	0.179
645	0.178
645	0.179
646	0.179
646	0.179
646	0.179
647	0.179
647	0.178
648	0.178
648	0.177
649	0.177
649	0.176
650	0.176
650	0.176
650	0.176
651	0.176
651	0.175
652	0.175
652	0.175
653	0.176
653	0.177
653	0.185
654	0.146
654	0.117
655	0.116
655	0.117
656	0.117
656	0.117
657	0.118
657	0.118
657	0.118
658	0.116
658	0.105
659	0.133
659	0.17
660	0.176
660	0.176
661	0.175
661	0.175
661	0.175
662	0.175
662	0.175
663	0.175
663	0.175
664	0.174
664	0.174
665	0.174
665	0.173
665	0.173
666	0.173
666	0.173
667	0.173
667	0.173
668	0.174
668	0.173
669	0.173
669	0.174
669	0.174
670	0.175
670	0.175
671	0.175
671	0.175
672	0.174
672	0.174
672	0.174
673	0.174
673	0.174
674	0.174
674	0.174
675	0.173
675	0.173
676	0.174
676	0.173
676	0.173
677	0.173
677	0.173
678	0.172
678	0.172
679	0.171
679	0.171
680	0.171
680	0.171
680	0.171
681	0.172
681	0.172
682	0.173
682	0.173
683	0.174
683	0.175
684	0.175
684	0.175
684	0.175
685	0.175
685	0.176
686	0.176
686	0.175
687	0.175
687	0.175
687	0.175
688	0.175
688	0.175
689	0.175
689	0.175
690	0.175
690	0.174
691	0.174
691	0.174
691	0.174
692	0.174
692	0.174
693	0.174
693	0.174
694	0.174
694	0.174
695	0.175
695	0.176
695	0.177
696	0.177
696	0.177
697	0.177
697	0.177
698	0.177
698	0.176
698	0.176
699	0.176
699	0.176
700	0.175
700	0.175
701	0.175
701	0.175
702	0.175
702	0.175
702	0.175
703	0.175
703	0.175
704	0.175
704	0.175
705	0.175
705	0.174
705	0.174
706	0.174
706	0.174
707	0.174
707	0.174
708	0.174
708	0.174
709	0.174
709	0.174
709	0.174
710	0.174
710	0.175
711	0.175
711	0.175
712	0.176
712	0.176
713	0.177
713	0.177
713	0.177
714	0.177
714	0.177
715	0.177
715	0.176
716	0.176
716	0.176
716	0.175
717	0.174
717	0.174
718	0.173
718	0.173
719	0.173
719	0.173
720	0.173
720	0.174
720	0.174
721	0.174
721	0.175
722	0.176
722	0.176
723	0.177
723	0.177
723	0.178
724	0.178
724	0.177
725	0.177
725	0.176
726	0.175
726	0.175
727	0.174
727	0.174
727	0.174
728	0.173
728	0.173
729	0.174
729	0.174
730	0.174
730	0.174
730	0.175
731	0.175
731	0.175
732	0.176
732	0.176
733	0.176
733	0.176
734	0.176
734	0.176
734	0.177
735	0.177
735	0.177
736	0.177
736	0.177
737	0.177
737	0.178
737	0.178
738	0.177
738	0.176
739	0.176
739	0.176
740	0.175
740	0.176
741	0.176
741	0.176
741	0.175
742	0.175
742	0.176
743	0.177
743	0.177
744	0.178
744	0.179
744	0.179
745	0.18
745	0.18
746	0.18
746	0.181
747	0.181
747	0.181
748	0.181
748	0.18
748	0.18
749	0.18
749	0.18
750	0.18
750	0.179
751	0.179
751	0.179
751	0.179
752	0.179
752	0.178
753	0.178
753	0.178
754	0.178
754	0.178
754	0.178
755	0.178
755	0.179
756	0.178
756	0.178
757	0.177
757	0.178
758	0.178
758	0.178
758	0.179
759	0.179
759	0.179
760	0.179
760	0.179
761	0.179
761	0.18
761	0.18
762	0.18
762	0.18
763	0.18
763	0.179
764	0.179
764	0.179
764	0.179
765	0.179
765	0.179
766	0.179
766	0.179
767	0.179
767	0.178
768	0.177
768	0.178
768	0.178
769	0.178
769	0.178
770	0.179
770	0.179
771	0.18
771	0.18
771	0.181
772	0.182
772	0.183
773	0.183
773	0.183
774	0.183
774	0.183
775	0.183
775	0.183
775	0.183
776	0.182
776	0.182
777	0.182
777	0.181
778	0.181
778	0.18
778	0.18
779	0.18
779	0.18
780	0.179
780	0.179
781	0.179
781	0.179
781	0.179
782	0.179
782	0.18
783	0.18
783	0.181
784	0.181
784	0.181
784	0.181
785	0.182
785	0.182
786	0.182
786	0.182
787	0.182
787	0.182
788	0.181
788	0.18
788	0.18
789	0.179
789	0.179
790	0.179
790	0.179
791	0.179
791	0.179
791	0.179
792	0.18
792	0.18
793	0.18
793	0.18
794	0.18
794	0.18
794	0.179
795	0.179
795	0.18
796	0.18
796	0.179
797	0.179
797	0.179
797	0.179
798	0.179
798	0.179
799	0.179
799	0.179
800	0.18
800	0.18
801	0.18
801	0.18
801	0.181
802	0.181
802	0.181
803	0.181
803	0.181
804	0.182
804	0.182
804	0.183
805	0.182
805	0.182
806	0.182
806	0.182
807	0.182
807	0.182
807	0.182
808	0.183
808	0.182
809	0.182
809	0.182
810	0.182
810	0.182
810	0.181
811	0.181
811	0.181
812	0.181
812	0.181
813	0.181
813	0.181
813	0.181
814	0.182
814	0.182
815	0.183
815	0.183
816	0.183
816	0.182
817	0.182
817	0.181
817	0.181
818	0.18
818	0.18
819	0.179
819	0.178
820	0.177
820	0.176
820	0.175
821	0.175
821	0.175
822	0.175
822	0.175
823	0.175
823	0.175
823	0.176
824	0.177
824	0.178
825	0.179
825	0.18
826	0.18
826	0.18
826	0.18
827	0.18
827	0.18
828	0.18
828	0.18
829	0.179
829	0.179
829	0.179
830	0.178
830	0.178
831	0.179
831	0.179
832	0.178
832	0.178
832	0.178
833	0.178
833	0.178
834	0.178
834	0.177
835	0.177
835	0.177
835	0.177
836	0.177
836	0.177
837	0.177
837	0.176
838	0.176
838	0.176
839	0.175
839	0.174
839	0.173
840	0.172
840	0.171
841	0.17
841	0.169
842	0.168
842	0.167
842	0.166
843	0.165
843	0.164
844	0.164
844	0.163
845	0.163
845	0.162
845	0.162
846	0.162
846	0.162
847	0.162
847	0.162
848	0.162
848	0.162
848	0.163
849	0.163
849	0.164
850	0.164
850	0.164
851	0.164
851	0.164
851	0.164
852	0.164
852	0.163
853	0.163
853	0.162
854	0.162
854	0.162
854	0.162
855	0.162
855	0.163
856	0.163
856	0.163
857	0.163
857	0.163
857	0.164
858	0.164
858	0.163
859	0.163
859	0.162
860	0.162
860	0.161
860	0.161
861	0.16
861	0.159
862	0.158
862	0.157
863	0.157
863	0.156
863	0.155
864	0.155
864	0.155
865	0.155
865	0.155
866	0.155
866	0.154
866	0.154
867	0.155
867	0.155
868	0.155
868	0.155
869	0.155
869	0.155
869	0.155
870	0.155
870	0.155
871	0.155
871	0.155
872	0.156
872	0.156
872	0.156
873	0.156
873	0.155
874	0.155
874	0.155
875	0.154
875	0.154
875	0.154
876	0.154
876	0.154
877	0.154
877	0.154
878	0.154
878	0.154
878	0.155
879	0.155
879	0.155
880	0.155
880	0.154
881	0.154
881	0.154
881	0.153
882	0.152
882	0.152
883	0.151
883	0.151
884	0.15
884	0.15
884	0.149
885	0.149
885	0.148
886	0.147
886	0.147
887	0.146
887	0.145
887	0.143
888	0.142
888	0.141
889	0.14
889	0.139
890	0.139
890	0.139
890	0.139
891	0.139
891	0.139
892	0.14
892	0.14
893	0.141
893	0.142
893	0.142
894	0.143
894	0.143
895	0.144
895	0.144
895	0.144
896	0.145
896	0.145
897	0.145
897	0.144
898	0.144
898	0.143
898	0.142
899	0.141
899	0.141
900	0.14
900	0.139
901	0.138
901	0.138
901	0.137
902	0.137
902	0.137
903	0.136
903	0.136
904	0.136
904	0.135
904	0.135
905	0.134
905	0.133
906	0.132
906	0.132
907	0.131
907	0.131
907	0.131
908	0.13
908	0.13
909	0.13
909	0.129
910	0.129
910	0.129
910	0.128
911	0.128
911	0.128
912	0.127
912	0.127
913	0.127
913	0.127
913	0.127
914	0.127
914	0.127
915	0.127
915	0.127
916	0.127
916	0.127
916	0.126
917	0.126
917	0.126
918	0.125
918	0.125
918	0.125
919	0.124
919	0.124
920	0.124
920	0.124
921	0.124
921	0.123
921	0.123
922	0.123
922	0.123
923	0.123
923	0.124
924	0.124
924	0.124
924	0.124
925	0.125
925	0.125
926	0.125
926	0.126
927	0.126
927	0.126
927	0.126
928	0.126
928	0.126
929	0.126
929	0.125
930	0.125
930	0.124
930	0.123
931	0.122
931	0.121
932	0.12
932	0.119
933	0.118
933	0.117
933	0.116
934	0.116
934	0.115
935	0.114
935	0.114
935	0.113
936	0.113
936	0.112
937	0.112
937	0.112
938	0.112
938	0.112
938	0.111
939	0.111
939	0.111
940	0.111
940	0.111
941	0.112
941	0.112
941	0.112
942	0.113
942	0.113
943	0.113
943	0.114
944	0.114
944	0.114
944	0.115
945	0.115
945	0.115
946	0.115
946	0.116
946	0.116
947	0.116
947	0.116
948	0.116
948	0.115
949	0.114
949	0.114
949	0.113
950	0.113
950	0.112
951	0.111
951	0.11
952	0.109
952	0.109
952	0.108
953	0.107
953	0.107
954	0.106
954	0.106
955	0.105
955	0.105
955	0.104
956	0.104
956	0.104
957	0.105
957	0.105
957	0.105
958	0.105
958	0.105
959	0.105
959	0.105
960	0.105
960	0.105
960	0.105
961	0.105
961	0.105
962	0.105
962	0.104
963	0.104
963	0.104
963	0.104
964	0.104
964	0.104
965	0.103
965	0.103
966	0.103
966	0.102
966	0.102
967	0.101
967	0.101
968	0.101
968	0.101
968	0.1
969	0.1
969	0.1
970	0.1
970	0.099
971	0.099
971	0.099
971	0.099
972	0.098
972	0.098
973	0.098
973	0.098
974	0.097
974	0.098
974	0.098
975	0.098
975	0.098
976	0.099
976	0.099
976	0.099
977	0.1
977	0.1
978	0.1
978	0.1
979	0.1
979	0.1
979	0.1
980	0.1
980	0.1
981	0.099
981	0.099
982	0.099
982	0.098
982	0.098
983	0.097
983	0.097
984	0.096
984	0.095
984	0.094
985	0.094
985	0.093
986	0.092
986	0.092
987	0.091
987	0.09
987	0.09
988	0.089
988	0.089
989	0.089
989	0.089
990	0.088
990	0.088
990	0.088
991	0.088
991	0.088
992	0.088
992	0.087
992	0.087
993	0.086
993	0.086
994	0.085
994	0.085
995	0.084
995	0.084
995	0.084
996	0.085
996	0.085
997	0.085
997	0.086
997	0.087
998	0.087
998	0.088
999	0.089
999	0.09
1000	0.091
1000	0.091
1000	0.091
1001	0.092
1001	0.092
1002	0.092
1002	0.091
1003	0.091
1003	0.09
1003	0.089
1004	0.089
1004	0.088
1005	0.087
1005	0.086
1005	0.085
1006	0.084
1006	0.084
1007	0.083
1007	0.083
1008	0.083
1008	0.083
1008	0.083
1009	0.083
1009	0.083
1010	0.083
1010	0.083
1010	0.083
1011	0.083
1011	0.083
1012	0.083
1012	0.082
1013	0.082
1013	0.082
1013	0.082
1014	0.081
1014	0.081
1015	0.081
1015	0.081
1016	0.081
1016	0.08
1016	0.08
1017	0.08
1017	0.08
1018	0.079
1018	0.079
1018	0.078
1019	0.078
1019	0.078
1020	0.078
1020	0.078
1021	0.077
1021	0.078
1021	0.078
1022	0.078
1022	0.078
1023	0.078
1023	0.079
1023	0.08
1024	0.08
1024	0.08
1025	0.08
1025	0.081
1026	0.081
1026	0.081
1026	0.081
1027	0.081
1027	0.081
1028	0.081
1028	0.081
1028	0.081
1029	0.081
1029	0.082
1030	0.082
1030	0.082
1031	0.082
1031	0.083
1031	0.083
1032	0.083
1032	0.083
1033	0.083
1033	0.083
1033	0.084
1034	0.083
1034	0.083
1035	0.083
1035	0.083
1036	0.082
1036	0.082
1036	0.082
1037	0.082
1037	0.081
1038	0.081
1038	0.081
1039	0.08
1039	0.08
1039	0.079
1040	0.079
1040	0.079
1041	0.079
1041	0.078
1041	0.078
1042	0.078
1042	0.077
1043	0.077
1043	0.076
1044	0.076
1044	0.076
1044	0.076
1045	0.076
1045	0.076
1046	0.076
1046	0.076
1046	0.076
1047	0.076
1047	0.076
1048	0.076
1048	0.076
1049	0.076
1049	0.076
1049	0.075
1050	0.075
1050	0.074
1051	0.073
1051	0.072
1051	0.072
1052	0.071
1052	0.07
1053	0.069
1053	0.068
1053	0.068
1054	0.067
1054	0.067
1055	0.066
1055	0.066
1056	0.065
1056	0.065
1056	0.064
1057	0.063
1057	0.063
1058	0.062
1058	0.061
1058	0.06
1059	0.059
1059	0.058
1060	0.058
1060	0.057
1061	0.056
1061	0.056
1061	0.056
1062	0.056
1062	0.056
1063	0.056
1063	0.056
1063	0.056
1064	0.056
1064	0.056
1065	0.056
1065	0.056
1066	0.056
1066	0.056
1066	0.056
1067	0.056
1067	0.056
1068	0.056
1068	0.055
1068	0.055
1069	0.055
1069	0.055
1070	0.055
1070	0.054
1071	0.054
1071	0.054
1071	0.054
1072	0.054
1072	0.053
1073	0.053
1073	0.053
1073	0.053
1074	0.053
1074	0.053
1075	0.053
1075	0.053
1076	0.053
1076	0.054
1076	0.054
1077	0.054
1077	0.054
1078	0.054
1078	0.054
1078	0.053
1079	0.053
1079	0.053
1080	0.054
1080	0.054
1080	0.053
1081	0.053
1081	0.053
1082	0.054
1082	0.054
1083	0.054
1083	0.055
1083	0.055
1084	0.055
1084	0.055
1085	0.055
1085	0.056
1085	0.056
1086	0.056
1086	0.056
1087	0.056
1087	0.056
1088	0.056
1088	0.056
1088	0.057
1089	0.057
1089	0.056
1090	0.056
1090	0.055
1090	0.054
1091	0.053
1091	0.053
1092	0.053
1092	0.053
1092	0.053
1093	0.051
1093	0.051
1094	0.05
1094	0.05
1095	0.05
1095	0.049
1095	0.049
1096	0.048
1096	0.047
1097	0.046
1097	0.045
1097	0.044
1098	0.043
1098	0.042
1099	0.041
1099	0.038
1100	0.036
1100	0.034
1100	0.033
1101	0.031
1101	0.03
1102	0.029
1102	0.027
1102	0.026
1103	0.026
1103	0.026
1104	0.026
1104	0.026
1104	0.026
1105	0.025
1105	0.024
1106	0.022
1106	0.023
1107	0.021
1107	0.02
1107	0.018
1108	0.016
1108	0.015
1109	0.014
1109	0.012
1109	0.011
1110	0.012
1110	0.011
1111	0.006
1111	0.006
