Data from reversibility-20sec_Absorbance__6185__000000000006185.txt Node

Date: Wed Dec 06 22:34:46 CET 2023
User: Marek
Spectrometer: MAYP115816
Trigger mode: 0
Integration Time (sec): 2.000000E-1
Scans to average: 10
Electric dark correction enabled: true
Nonlinearity correction enabled: true
Boxcar width: 5
XAxis mode: Wavelengths
Number of Pixels in Spectrum: 2068
>>>>>Begin Spectral Data<<<<<
199	-0.149
199	-0.116
200	-0.046
200	0.002
201	0.028
201	0.046
202	0.053
202	0.063
203	0.074
203	0.079
204	0.092
204	0.106
205	0.119
205	0.126
205	0.124
206	0.125
206	0.126
207	0.131
207	0.128
208	0.125
208	0.122
209	0.123
209	0.121
210	0.12
210	0.119
211	0.121
211	0.123
212	0.122
212	0.123
213	0.132
213	0.133
213	0.134
214	0.138
214	0.141
215	0.141
215	0.138
216	0.139
216	0.137
217	0.136
217	0.137
218	0.13
218	0.135
219	0.137
219	0.135
220	0.134
220	0.132
221	0.133
221	0.136
221	0.143
222	0.148
222	0.151
223	0.158
223	0.159
224	0.169
224	0.176
225	0.187
225	0.2
226	0.211
226	0.22
227	0.228
227	0.238
228	0.255
228	0.27
229	0.288
229	0.307
229	0.332
230	0.356
230	0.384
231	0.416
231	0.454
232	0.49
232	0.534
233	0.576
233	0.625
234	0.676
234	0.729
235	0.779
235	0.83
236	0.883
236	0.937
236	0.99
237	1.042
237	1.091
238	1.137
238	1.182
239	1.227
239	1.269
240	1.309
240	1.348
241	1.383
241	1.414
242	1.446
242	1.477
243	1.504
243	1.528
243	1.552
244	1.573
244	1.594
245	1.613
245	1.634
246	1.652
246	1.668
247	1.679
247	1.694
248	1.708
248	1.724
249	1.734
249	1.743
250	1.751
250	1.758
250	1.76
251	1.764
251	1.767
252	1.773
252	1.773
253	1.774
253	1.772
254	1.77
254	1.771
255	1.769
255	1.769
256	1.769
256	1.767
257	1.766
257	1.765
258	1.765
258	1.765
258	1.764
259	1.764
259	1.765
260	1.764
260	1.765
261	1.766
261	1.768
262	1.771
262	1.771
263	1.774
263	1.774
264	1.774
264	1.777
265	1.778
265	1.78
265	1.781
266	1.782
266	1.783
267	1.78
267	1.781
268	1.781
268	1.782
269	1.784
269	1.783
270	1.781
270	1.78
271	1.778
271	1.776
272	1.773
272	1.772
272	1.769
273	1.762
273	1.756
274	1.75
274	1.743
275	1.736
275	1.73
276	1.722
276	1.714
277	1.705
277	1.696
278	1.684
278	1.672
278	1.657
279	1.641
279	1.621
280	1.596
280	1.564
281	1.528
281	1.488
282	1.446
282	1.402
283	1.36
283	1.319
284	1.279
284	1.24
285	1.204
285	1.17
285	1.141
286	1.115
286	1.092
287	1.072
287	1.055
288	1.041
288	1.028
289	1.018
289	1.008
290	1.001
290	0.994
291	0.989
291	0.983
292	0.979
292	0.974
292	0.97
293	0.966
293	0.963
294	0.96
294	0.957
295	0.954
295	0.951
296	0.948
296	0.945
297	0.942
297	0.939
298	0.936
298	0.933
298	0.93
299	0.928
299	0.925
300	0.922
300	0.919
301	0.916
301	0.914
302	0.912
302	0.909
303	0.907
303	0.904
304	0.902
304	0.899
305	0.897
305	0.895
305	0.893
306	0.891
306	0.888
307	0.886
307	0.883
308	0.881
308	0.878
309	0.876
309	0.873
310	0.871
310	0.868
311	0.865
311	0.862
311	0.859
312	0.855
312	0.852
313	0.848
313	0.844
314	0.841
314	0.837
315	0.832
315	0.828
316	0.824
316	0.82
317	0.815
317	0.81
318	0.805
318	0.8
318	0.795
319	0.79
319	0.785
320	0.779
320	0.773
321	0.768
321	0.762
322	0.755
322	0.749
323	0.743
323	0.737
324	0.731
324	0.724
324	0.717
325	0.71
325	0.704
326	0.697
326	0.69
327	0.683
327	0.677
328	0.67
328	0.663
329	0.656
329	0.649
330	0.642
330	0.635
330	0.628
331	0.621
331	0.614
332	0.607
332	0.6
333	0.593
333	0.586
334	0.579
334	0.572
335	0.566
335	0.559
336	0.552
336	0.546
336	0.539
337	0.533
337	0.527
338	0.521
338	0.515
339	0.509
339	0.503
340	0.497
340	0.492
341	0.486
341	0.481
342	0.475
342	0.47
342	0.465
343	0.46
343	0.454
344	0.449
344	0.444
345	0.439
345	0.435
346	0.43
346	0.426
347	0.422
347	0.417
348	0.413
348	0.409
348	0.406
349	0.402
349	0.398
350	0.395
350	0.391
351	0.388
351	0.385
352	0.382
352	0.379
353	0.376
353	0.373
354	0.37
354	0.367
354	0.364
355	0.361
355	0.358
356	0.355
356	0.353
357	0.35
357	0.348
358	0.345
358	0.343
359	0.341
359	0.338
360	0.336
360	0.334
360	0.332
361	0.331
361	0.329
362	0.327
362	0.325
363	0.323
363	0.322
364	0.32
364	0.318
365	0.316
365	0.315
366	0.313
366	0.311
366	0.309
367	0.308
367	0.306
368	0.304
368	0.303
369	0.302
369	0.3
370	0.299
370	0.297
371	0.296
371	0.295
372	0.293
372	0.292
372	0.291
373	0.29
373	0.289
374	0.288
374	0.287
375	0.286
375	0.285
376	0.285
376	0.284
377	0.283
377	0.282
378	0.281
378	0.28
378	0.28
379	0.279
379	0.278
380	0.278
380	0.277
381	0.277
381	0.276
382	0.275
382	0.275
383	0.275
383	0.274
383	0.273
384	0.273
384	0.272
385	0.271
385	0.271
386	0.271
386	0.27
387	0.27
387	0.269
388	0.269
388	0.268
389	0.268
389	0.268
389	0.268
390	0.267
390	0.267
391	0.267
391	0.266
392	0.266
392	0.266
393	0.266
393	0.265
394	0.265
394	0.264
394	0.264
395	0.264
395	0.264
396	0.263
396	0.263
397	0.262
397	0.262
398	0.262
398	0.261
399	0.261
399	0.261
400	0.261
400	0.26
400	0.26
401	0.26
401	0.259
402	0.259
402	0.259
403	0.259
403	0.258
404	0.258
404	0.258
405	0.258
405	0.257
405	0.257
406	0.257
406	0.256
407	0.256
407	0.256
408	0.256
408	0.255
409	0.255
409	0.255
410	0.255
410	0.254
411	0.254
411	0.254
411	0.254
412	0.254
412	0.253
413	0.253
413	0.253
414	0.253
414	0.252
415	0.252
415	0.252
416	0.251
416	0.251
416	0.251
417	0.25
417	0.25
418	0.25
418	0.249
419	0.249
419	0.249
420	0.248
420	0.248
421	0.247
421	0.247
421	0.246
422	0.246
422	0.246
423	0.245
423	0.245
424	0.245
424	0.244
425	0.244
425	0.244
426	0.244
426	0.243
427	0.243
427	0.243
427	0.242
428	0.242
428	0.242
429	0.241
429	0.241
430	0.241
430	0.241
431	0.24
431	0.24
432	0.24
432	0.24
432	0.24
433	0.24
433	0.239
434	0.239
434	0.239
435	0.239
435	0.239
436	0.239
436	0.238
437	0.238
437	0.238
437	0.238
438	0.237
438	0.237
439	0.237
439	0.237
440	0.236
440	0.236
441	0.236
441	0.236
442	0.235
442	0.235
442	0.235
443	0.235
443	0.235
444	0.234
444	0.234
445	0.234
445	0.234
446	0.234
446	0.233
447	0.233
447	0.233
447	0.233
448	0.233
448	0.232
449	0.232
449	0.232
450	0.232
450	0.232
451	0.232
451	0.232
452	0.232
452	0.232
452	0.232
453	0.232
453	0.231
454	0.231
454	0.231
455	0.23
455	0.23
456	0.23
456	0.229
457	0.229
457	0.229
458	0.229
458	0.229
458	0.229
459	0.228
459	0.228
460	0.228
460	0.228
461	0.228
461	0.228
462	0.227
462	0.227
463	0.227
463	0.227
463	0.226
464	0.226
464	0.226
465	0.226
465	0.225
466	0.225
466	0.225
467	0.225
467	0.225
467	0.225
468	0.225
468	0.225
469	0.225
469	0.226
470	0.226
470	0.226
471	0.226
471	0.226
472	0.226
472	0.226
472	0.226
473	0.226
473	0.226
474	0.226
474	0.225
475	0.225
475	0.225
476	0.225
476	0.225
477	0.225
477	0.225
477	0.225
478	0.225
478	0.225
479	0.225
479	0.225
480	0.225
480	0.226
481	0.225
481	0.225
482	0.226
482	0.226
482	0.226
483	0.226
483	0.226
484	0.227
484	0.226
485	0.226
485	0.226
486	0.226
486	0.226
487	0.226
487	0.226
487	0.227
488	0.227
488	0.227
489	0.227
489	0.228
490	0.229
490	0.229
491	0.23
491	0.23
492	0.231
492	0.231
492	0.232
493	0.232
493	0.232
494	0.233
494	0.233
495	0.233
495	0.233
496	0.234
496	0.235
496	0.235
497	0.235
497	0.235
498	0.236
498	0.236
499	0.237
499	0.238
500	0.238
500	0.239
501	0.239
501	0.239
501	0.24
502	0.24
502	0.241
503	0.241
503	0.242
504	0.242
504	0.242
505	0.243
505	0.244
506	0.244
506	0.245
506	0.245
507	0.245
507	0.245
508	0.246
508	0.246
509	0.247
509	0.247
510	0.247
510	0.248
511	0.248
511	0.249
511	0.25
512	0.25
512	0.251
513	0.251
513	0.251
514	0.252
514	0.252
515	0.253
515	0.253
515	0.253
516	0.254
516	0.255
517	0.255
517	0.256
518	0.256
518	0.257
519	0.257
519	0.257
520	0.258
520	0.258
520	0.258
521	0.258
521	0.258
522	0.258
522	0.258
523	0.258
523	0.258
524	0.258
524	0.258
524	0.258
525	0.258
525	0.258
526	0.258
526	0.259
527	0.259
527	0.259
528	0.259
528	0.259
529	0.259
529	0.259
529	0.258
530	0.258
530	0.258
531	0.258
531	0.258
532	0.257
532	0.257
533	0.257
533	0.257
533	0.256
534	0.256
534	0.256
535	0.256
535	0.256
536	0.256
536	0.255
537	0.255
537	0.255
538	0.255
538	0.255
538	0.254
539	0.254
539	0.254
540	0.254
540	0.253
541	0.253
541	0.252
542	0.252
542	0.252
542	0.252
543	0.251
543	0.251
544	0.25
544	0.25
545	0.249
545	0.249
546	0.249
546	0.248
547	0.247
547	0.247
547	0.246
548	0.246
548	0.245
549	0.245
549	0.244
550	0.244
550	0.244
551	0.243
551	0.242
551	0.242
552	0.242
552	0.241
553	0.24
553	0.24
554	0.239
554	0.239
555	0.238
555	0.237
556	0.237
556	0.236
556	0.236
557	0.235
557	0.235
558	0.235
558	0.235
559	0.235
559	0.235
560	0.235
560	0.234
560	0.234
561	0.234
561	0.233
562	0.232
562	0.231
563	0.23
563	0.23
564	0.229
564	0.228
564	0.228
565	0.227
565	0.227
566	0.226
566	0.226
567	0.226
567	0.226
568	0.226
568	0.225
568	0.225
569	0.225
569	0.224
570	0.223
570	0.222
571	0.222
571	0.221
572	0.22
572	0.22
573	0.219
573	0.219
573	0.218
574	0.218
574	0.218
575	0.218
575	0.218
576	0.217
576	0.217
577	0.216
577	0.215
577	0.215
578	0.214
578	0.214
579	0.214
579	0.214
580	0.213
580	0.212
581	0.211
581	0.211
581	0.211
582	0.211
582	0.211
583	0.212
583	0.212
584	0.211
584	0.21
585	0.209
585	0.209
585	0.209
586	0.209
586	0.208
587	0.207
587	0.206
588	0.206
588	0.205
589	0.205
589	0.205
590	0.205
590	0.205
590	0.205
591	0.205
591	0.205
592	0.205
592	0.204
593	0.204
593	0.203
594	0.203
594	0.202
594	0.202
595	0.201
595	0.201
596	0.2
596	0.2
597	0.201
597	0.201
598	0.201
598	0.2
598	0.2
599	0.2
599	0.2
600	0.199
600	0.199
601	0.198
601	0.198
602	0.197
602	0.197
602	0.196
603	0.196
603	0.196
604	0.196
604	0.196
605	0.196
605	0.196
606	0.196
606	0.195
606	0.195
607	0.194
607	0.194
608	0.194
608	0.193
609	0.193
609	0.193
610	0.193
610	0.192
610	0.193
611	0.193
611	0.193
612	0.193
612	0.193
613	0.193
613	0.193
614	0.193
614	0.192
614	0.192
615	0.192
615	0.192
616	0.191
616	0.191
617	0.191
617	0.19
618	0.19
618	0.19
618	0.19
619	0.191
619	0.191
620	0.191
620	0.191
621	0.19
621	0.19
622	0.19
622	0.189
622	0.189
623	0.188
623	0.187
624	0.187
624	0.186
625	0.186
625	0.185
626	0.185
626	0.185
626	0.185
627	0.185
627	0.184
628	0.184
628	0.184
629	0.184
629	0.184
630	0.184
630	0.184
630	0.184
631	0.184
631	0.184
632	0.183
632	0.183
633	0.183
633	0.183
634	0.183
634	0.184
634	0.184
635	0.183
635	0.183
636	0.183
636	0.184
637	0.183
637	0.183
638	0.183
638	0.183
638	0.182
639	0.182
639	0.182
640	0.182
640	0.182
641	0.181
641	0.181
642	0.181
642	0.181
642	0.182
643	0.182
643	0.182
644	0.182
644	0.182
645	0.182
645	0.182
646	0.182
646	0.182
646	0.181
647	0.181
647	0.181
648	0.18
648	0.179
649	0.179
649	0.179
650	0.179
650	0.179
650	0.179
651	0.179
651	0.179
652	0.179
652	0.179
653	0.18
653	0.181
653	0.187
654	0.147
654	0.118
655	0.118
655	0.118
656	0.119
656	0.119
657	0.119
657	0.12
657	0.12
658	0.119
658	0.109
659	0.137
659	0.176
660	0.182
660	0.182
661	0.181
661	0.181
661	0.18
662	0.18
662	0.179
663	0.179
663	0.179
664	0.178
664	0.178
665	0.178
665	0.178
665	0.178
666	0.178
666	0.179
667	0.179
667	0.18
668	0.18
668	0.18
669	0.181
669	0.181
669	0.181
670	0.181
670	0.181
671	0.181
671	0.18
672	0.18
672	0.179
672	0.179
673	0.178
673	0.178
674	0.178
674	0.177
675	0.177
675	0.177
676	0.178
676	0.178
676	0.178
677	0.178
677	0.178
678	0.178
678	0.177
679	0.177
679	0.177
680	0.177
680	0.177
680	0.177
681	0.177
681	0.177
682	0.177
682	0.178
683	0.178
683	0.179
684	0.179
684	0.179
684	0.179
685	0.179
685	0.18
686	0.18
686	0.179
687	0.179
687	0.179
687	0.178
688	0.178
688	0.178
689	0.178
689	0.178
690	0.178
690	0.178
691	0.178
691	0.178
691	0.179
692	0.179
692	0.179
693	0.18
693	0.18
694	0.18
694	0.18
695	0.181
695	0.182
695	0.182
696	0.182
696	0.182
697	0.181
697	0.181
698	0.181
698	0.181
698	0.181
699	0.181
699	0.181
700	0.18
700	0.181
701	0.181
701	0.181
702	0.181
702	0.181
702	0.181
703	0.181
703	0.181
704	0.181
704	0.181
705	0.181
705	0.181
705	0.181
706	0.181
706	0.181
707	0.181
707	0.18
708	0.181
708	0.181
709	0.181
709	0.181
709	0.181
710	0.181
710	0.181
711	0.181
711	0.181
712	0.181
712	0.181
713	0.181
713	0.181
713	0.181
714	0.181
714	0.181
715	0.18
715	0.18
716	0.18
716	0.18
716	0.179
717	0.178
717	0.178
718	0.178
718	0.178
719	0.178
719	0.179
720	0.179
720	0.18
720	0.18
721	0.181
721	0.182
722	0.182
722	0.182
723	0.183
723	0.183
723	0.183
724	0.183
724	0.182
725	0.181
725	0.181
726	0.18
726	0.18
727	0.179
727	0.179
727	0.179
728	0.179
728	0.179
729	0.18
729	0.18
730	0.18
730	0.181
730	0.182
731	0.182
731	0.183
732	0.184
732	0.184
733	0.184
733	0.185
734	0.185
734	0.185
734	0.186
735	0.186
735	0.186
736	0.185
736	0.185
737	0.185
737	0.185
737	0.184
738	0.183
738	0.183
739	0.182
739	0.182
740	0.182
740	0.182
741	0.183
741	0.183
741	0.183
742	0.183
742	0.184
743	0.185
743	0.186
744	0.187
744	0.188
744	0.188
745	0.188
745	0.188
746	0.189
746	0.189
747	0.189
747	0.189
748	0.189
748	0.189
748	0.189
749	0.188
749	0.188
750	0.188
750	0.187
751	0.187
751	0.186
751	0.186
752	0.186
752	0.185
753	0.185
753	0.184
754	0.184
754	0.184
754	0.185
755	0.185
755	0.186
756	0.186
756	0.185
757	0.185
757	0.186
758	0.186
758	0.187
758	0.187
759	0.188
759	0.188
760	0.188
760	0.188
761	0.189
761	0.189
761	0.189
762	0.189
762	0.189
763	0.19
763	0.189
764	0.189
764	0.189
764	0.189
765	0.188
765	0.188
766	0.188
766	0.188
767	0.187
767	0.187
768	0.186
768	0.186
768	0.186
769	0.187
769	0.187
770	0.187
770	0.188
771	0.189
771	0.19
771	0.191
772	0.192
772	0.193
773	0.194
773	0.194
774	0.195
774	0.195
775	0.195
775	0.195
775	0.195
776	0.195
776	0.195
777	0.195
777	0.194
778	0.194
778	0.194
778	0.194
779	0.194
779	0.194
780	0.194
780	0.193
781	0.193
781	0.193
781	0.193
782	0.193
782	0.193
783	0.193
783	0.194
784	0.194
784	0.194
784	0.194
785	0.195
785	0.195
786	0.195
786	0.196
787	0.196
787	0.195
788	0.195
788	0.194
788	0.194
789	0.193
789	0.193
790	0.193
790	0.193
791	0.192
791	0.192
791	0.192
792	0.193
792	0.193
793	0.193
793	0.193
794	0.193
794	0.193
794	0.193
795	0.194
795	0.194
796	0.194
796	0.194
797	0.194
797	0.194
797	0.194
798	0.194
798	0.195
799	0.195
799	0.195
800	0.195
800	0.194
801	0.194
801	0.194
801	0.194
802	0.195
802	0.195
803	0.195
803	0.195
804	0.195
804	0.196
804	0.196
805	0.196
805	0.196
806	0.195
806	0.195
807	0.195
807	0.194
807	0.194
808	0.194
808	0.194
809	0.194
809	0.194
810	0.195
810	0.195
810	0.195
811	0.195
811	0.196
812	0.197
812	0.197
813	0.198
813	0.198
813	0.198
814	0.199
814	0.199
815	0.199
815	0.199
816	0.199
816	0.198
817	0.198
817	0.197
817	0.197
818	0.197
818	0.197
819	0.197
819	0.196
820	0.196
820	0.196
820	0.196
821	0.196
821	0.197
822	0.197
822	0.197
823	0.197
823	0.197
823	0.197
824	0.198
824	0.199
825	0.199
825	0.2
826	0.2
826	0.2
826	0.2
827	0.201
827	0.201
828	0.201
828	0.201
829	0.201
829	0.201
829	0.201
830	0.202
830	0.202
831	0.203
831	0.204
832	0.204
832	0.204
832	0.204
833	0.204
833	0.204
834	0.203
834	0.203
835	0.202
835	0.202
835	0.201
836	0.201
836	0.2
837	0.2
837	0.2
838	0.199
838	0.199
839	0.198
839	0.198
839	0.197
840	0.196
840	0.195
841	0.194
841	0.193
842	0.193
842	0.192
842	0.191
843	0.19
843	0.189
844	0.189
844	0.188
845	0.188
845	0.188
845	0.188
846	0.187
846	0.187
847	0.187
847	0.188
848	0.188
848	0.189
848	0.189
849	0.19
849	0.19
850	0.191
850	0.191
851	0.191
851	0.191
851	0.191
852	0.191
852	0.191
853	0.191
853	0.191
854	0.191
854	0.191
854	0.192
855	0.192
855	0.192
856	0.193
856	0.193
857	0.194
857	0.195
857	0.195
858	0.195
858	0.195
859	0.194
859	0.193
860	0.193
860	0.192
860	0.192
861	0.191
861	0.19
862	0.19
862	0.189
863	0.189
863	0.188
863	0.188
864	0.188
864	0.188
865	0.189
865	0.189
866	0.189
866	0.189
866	0.189
867	0.189
867	0.19
868	0.19
868	0.191
869	0.191
869	0.191
869	0.191
870	0.191
870	0.191
871	0.191
871	0.19
872	0.19
872	0.19
872	0.189
873	0.189
873	0.188
874	0.187
874	0.187
875	0.186
875	0.186
875	0.186
876	0.186
876	0.185
877	0.185
877	0.185
878	0.185
878	0.185
878	0.185
879	0.185
879	0.185
880	0.185
880	0.185
881	0.185
881	0.185
881	0.185
882	0.184
882	0.184
883	0.184
883	0.184
884	0.184
884	0.184
884	0.185
885	0.184
885	0.184
886	0.183
886	0.183
887	0.182
887	0.182
887	0.181
888	0.18
888	0.179
889	0.178
889	0.178
890	0.177
890	0.177
890	0.177
891	0.177
891	0.177
892	0.177
892	0.177
893	0.177
893	0.177
893	0.177
894	0.176
894	0.176
895	0.176
895	0.176
895	0.176
896	0.176
896	0.176
897	0.176
897	0.176
898	0.177
898	0.177
898	0.177
899	0.177
899	0.177
900	0.176
900	0.176
901	0.176
901	0.175
901	0.175
902	0.175
902	0.174
903	0.174
903	0.174
904	0.173
904	0.173
904	0.172
905	0.172
905	0.172
906	0.171
906	0.171
907	0.171
907	0.171
907	0.171
908	0.171
908	0.17
909	0.17
909	0.17
910	0.169
910	0.169
910	0.168
911	0.167
911	0.167
912	0.166
912	0.166
913	0.165
913	0.165
913	0.165
914	0.165
914	0.165
915	0.165
915	0.165
916	0.165
916	0.165
916	0.165
917	0.165
917	0.164
918	0.163
918	0.162
918	0.162
919	0.161
919	0.161
920	0.16
920	0.16
921	0.159
921	0.159
921	0.158
922	0.158
922	0.158
923	0.158
923	0.159
924	0.159
924	0.16
924	0.16
925	0.161
925	0.162
926	0.163
926	0.164
927	0.164
927	0.165
927	0.165
928	0.165
928	0.165
929	0.164
929	0.164
930	0.164
930	0.163
930	0.163
931	0.162
931	0.162
932	0.161
932	0.161
933	0.161
933	0.16
933	0.16
934	0.159
934	0.158
935	0.158
935	0.157
935	0.157
936	0.156
936	0.156
937	0.155
937	0.155
938	0.155
938	0.154
938	0.154
939	0.153
939	0.153
940	0.153
940	0.153
941	0.153
941	0.153
941	0.153
942	0.153
942	0.153
943	0.153
943	0.152
944	0.152
944	0.152
944	0.152
945	0.152
945	0.152
946	0.152
946	0.151
946	0.151
947	0.151
947	0.151
948	0.151
948	0.151
949	0.15
949	0.15
949	0.15
950	0.149
950	0.149
951	0.148
951	0.148
952	0.147
952	0.146
952	0.145
953	0.145
953	0.144
954	0.143
954	0.143
955	0.142
955	0.142
955	0.142
956	0.142
956	0.142
957	0.142
957	0.142
957	0.142
958	0.142
958	0.141
959	0.141
959	0.141
960	0.141
960	0.141
960	0.14
961	0.14
961	0.14
962	0.14
962	0.139
963	0.139
963	0.139
963	0.14
964	0.14
964	0.14
965	0.14
965	0.14
966	0.141
966	0.141
966	0.141
967	0.141
967	0.141
968	0.141
968	0.141
968	0.14
969	0.139
969	0.139
970	0.138
970	0.137
971	0.137
971	0.136
971	0.136
972	0.135
972	0.135
973	0.134
973	0.134
974	0.135
974	0.135
974	0.135
975	0.136
975	0.136
976	0.137
976	0.138
976	0.138
977	0.138
977	0.138
978	0.138
978	0.138
979	0.137
979	0.137
979	0.136
980	0.135
980	0.134
981	0.133
981	0.132
982	0.132
982	0.131
982	0.13
983	0.13
983	0.129
984	0.129
984	0.129
984	0.128
985	0.128
985	0.128
986	0.128
986	0.128
987	0.128
987	0.128
987	0.128
988	0.128
988	0.128
989	0.128
989	0.127
990	0.127
990	0.127
990	0.126
991	0.126
991	0.125
992	0.124
992	0.123
992	0.122
993	0.121
993	0.12
994	0.119
994	0.118
995	0.117
995	0.117
995	0.116
996	0.116
996	0.116
997	0.116
997	0.116
997	0.117
998	0.117
998	0.118
999	0.119
999	0.12
1000	0.12
1000	0.121
1000	0.121
1001	0.122
1001	0.122
1002	0.122
1002	0.121
1003	0.121
1003	0.12
1003	0.119
1004	0.118
1004	0.117
1005	0.116
1005	0.115
1005	0.114
1006	0.113
1006	0.113
1007	0.113
1007	0.112
1008	0.112
1008	0.113
1008	0.113
1009	0.113
1009	0.114
1010	0.114
1010	0.115
1010	0.115
1011	0.115
1011	0.115
1012	0.115
1012	0.114
1013	0.114
1013	0.114
1013	0.113
1014	0.112
1014	0.112
1015	0.111
1015	0.111
1016	0.111
1016	0.111
1016	0.11
1017	0.11
1017	0.11
1018	0.11
1018	0.11
1018	0.11
1019	0.111
1019	0.111
1020	0.111
1020	0.112
1021	0.112
1021	0.113
1021	0.113
1022	0.113
1022	0.113
1023	0.114
1023	0.114
1023	0.114
1024	0.114
1024	0.114
1025	0.114
1025	0.114
1026	0.114
1026	0.114
1026	0.113
1027	0.113
1027	0.113
1028	0.112
1028	0.112
1028	0.112
1029	0.112
1029	0.112
1030	0.111
1030	0.111
1031	0.112
1031	0.112
1031	0.112
1032	0.112
1032	0.112
1033	0.112
1033	0.112
1033	0.112
1034	0.112
1034	0.112
1035	0.112
1035	0.111
1036	0.111
1036	0.111
1036	0.111
1037	0.11
1037	0.11
1038	0.109
1038	0.109
1039	0.109
1039	0.109
1039	0.108
1040	0.108
1040	0.108
1041	0.108
1041	0.108
1041	0.107
1042	0.107
1042	0.107
1043	0.107
1043	0.107
1044	0.107
1044	0.107
1044	0.107
1045	0.106
1045	0.106
1046	0.106
1046	0.106
1046	0.106
1047	0.106
1047	0.107
1048	0.106
1048	0.107
1049	0.107
1049	0.107
1049	0.107
1050	0.106
1050	0.106
1051	0.106
1051	0.105
1051	0.104
1052	0.103
1052	0.103
1053	0.102
1053	0.101
1053	0.1
1054	0.1
1054	0.099
1055	0.099
1055	0.098
1056	0.098
1056	0.097
1056	0.097
1057	0.096
1057	0.095
1058	0.095
1058	0.094
1058	0.093
1059	0.092
1059	0.092
1060	0.091
1060	0.09
1061	0.09
1061	0.089
1061	0.089
1062	0.089
1062	0.088
1063	0.088
1063	0.088
1063	0.088
1064	0.087
1064	0.087
1065	0.087
1065	0.087
1066	0.087
1066	0.087
1066	0.087
1067	0.087
1067	0.087
1068	0.086
1068	0.086
1068	0.086
1069	0.086
1069	0.086
1070	0.085
1070	0.085
1071	0.084
1071	0.084
1071	0.083
1072	0.083
1072	0.083
1073	0.082
1073	0.081
1073	0.081
1074	0.082
1074	0.082
1075	0.082
1075	0.082
1076	0.083
1076	0.083
1076	0.084
1077	0.084
1077	0.085
1078	0.085
1078	0.085
1078	0.085
1079	0.085
1079	0.084
1080	0.084
1080	0.084
1080	0.083
1081	0.083
1081	0.083
1082	0.083
1082	0.083
1083	0.082
1083	0.082
1083	0.082
1084	0.081
1084	0.082
1085	0.081
1085	0.081
1085	0.081
1086	0.081
1086	0.081
1087	0.081
1087	0.081
1088	0.081
1088	0.081
1088	0.081
1089	0.08
1089	0.08
1090	0.079
1090	0.079
1090	0.077
1091	0.077
1091	0.077
1092	0.076
1092	0.076
1092	0.076
1093	0.075
1093	0.075
1094	0.075
1094	0.075
1095	0.074
1095	0.075
1095	0.074
1096	0.073
1096	0.073
1097	0.072
1097	0.071
1097	0.071
1098	0.07
1098	0.069
1099	0.068
1099	0.066
1100	0.064
1100	0.063
1100	0.062
1101	0.06
1101	0.059
1102	0.059
1102	0.056
1102	0.055
1103	0.054
1103	0.054
1104	0.054
1104	0.054
1104	0.053
1105	0.051
1105	0.049
1106	0.047
1106	0.045
1107	0.046
1107	0.045
1107	0.044
1108	0.042
1108	0.041
1109	0.04
1109	0.039
1109	0.04
1110	0.042
1110	0.042
1111	0.044
1111	0.041
