Data from reversibility-20sec_Absorbance__1343__000000000001343.txt Node

Date: Tue Dec 05 19:40:46 CET 2023
User: Marek
Spectrometer: MAYP115816
Trigger mode: 0
Integration Time (sec): 2.000000E-1
Scans to average: 10
Electric dark correction enabled: true
Nonlinearity correction enabled: true
Boxcar width: 5
XAxis mode: Wavelengths
Number of Pixels in Spectrum: 2068
>>>>>Begin Spectral Data<<<<<
199	-0.16
199	-0.138
200	-0.07
200	-0.015
201	0.014
201	0.03
202	0.045
202	0.057
203	0.065
203	0.069
204	0.083
204	0.097
205	0.111
205	0.118
205	0.115
206	0.114
206	0.116
207	0.12
207	0.114
208	0.113
208	0.113
209	0.117
209	0.113
210	0.114
210	0.112
211	0.117
211	0.12
212	0.116
212	0.115
213	0.121
213	0.124
213	0.123
214	0.125
214	0.124
215	0.124
215	0.125
216	0.127
216	0.127
217	0.135
217	0.137
218	0.134
218	0.139
219	0.143
219	0.146
220	0.153
220	0.156
221	0.154
221	0.156
221	0.161
222	0.164
222	0.167
223	0.175
223	0.175
224	0.179
224	0.188
225	0.193
225	0.203
226	0.212
226	0.221
227	0.232
227	0.239
228	0.253
228	0.268
229	0.285
229	0.309
229	0.331
230	0.354
230	0.383
231	0.419
231	0.458
232	0.493
232	0.538
233	0.585
233	0.634
234	0.683
234	0.736
235	0.789
235	0.846
236	0.9
236	0.951
236	1.003
237	1.06
237	1.11
238	1.159
238	1.208
239	1.261
239	1.307
240	1.354
240	1.39
241	1.429
241	1.467
242	1.503
242	1.538
243	1.571
243	1.604
243	1.634
244	1.659
244	1.681
245	1.699
245	1.728
246	1.75
246	1.772
247	1.789
247	1.807
248	1.825
248	1.838
249	1.847
249	1.855
250	1.868
250	1.879
250	1.883
251	1.889
251	1.889
252	1.897
252	1.898
253	1.9
253	1.897
254	1.899
254	1.902
255	1.9
255	1.902
256	1.903
256	1.903
257	1.906
257	1.905
258	1.908
258	1.911
258	1.913
259	1.916
259	1.917
260	1.918
260	1.923
261	1.923
261	1.93
262	1.936
262	1.938
263	1.942
263	1.945
264	1.95
264	1.954
265	1.96
265	1.964
265	1.965
266	1.969
266	1.971
267	1.969
267	1.973
268	1.975
268	1.979
269	1.983
269	1.982
270	1.981
270	1.982
271	1.981
271	1.982
272	1.977
272	1.975
272	1.969
273	1.959
273	1.947
274	1.938
274	1.932
275	1.922
275	1.914
276	1.905
276	1.896
277	1.886
277	1.875
278	1.863
278	1.851
278	1.835
279	1.815
279	1.785
280	1.752
280	1.71
281	1.662
281	1.61
282	1.558
282	1.505
283	1.455
283	1.406
284	1.361
284	1.318
285	1.278
285	1.243
285	1.211
286	1.184
286	1.161
287	1.141
287	1.124
288	1.109
288	1.097
289	1.087
289	1.078
290	1.071
290	1.064
291	1.059
291	1.054
292	1.05
292	1.046
292	1.043
293	1.039
293	1.036
294	1.033
294	1.031
295	1.029
295	1.026
296	1.024
296	1.02
297	1.018
297	1.016
298	1.013
298	1.01
298	1.008
299	1.006
299	1.004
300	1.001
300	0.999
301	0.997
301	0.995
302	0.992
302	0.99
303	0.988
303	0.986
304	0.983
304	0.981
305	0.979
305	0.977
305	0.975
306	0.973
306	0.971
307	0.969
307	0.966
308	0.964
308	0.962
309	0.959
309	0.957
310	0.954
310	0.951
311	0.949
311	0.945
311	0.942
312	0.938
312	0.935
313	0.932
313	0.928
314	0.924
314	0.92
315	0.916
315	0.911
316	0.907
316	0.903
317	0.898
317	0.893
318	0.888
318	0.883
318	0.878
319	0.873
319	0.867
320	0.862
320	0.856
321	0.85
321	0.844
322	0.838
322	0.832
323	0.825
323	0.819
324	0.812
324	0.805
324	0.799
325	0.792
325	0.785
326	0.777
326	0.77
327	0.763
327	0.756
328	0.749
328	0.742
329	0.735
329	0.728
330	0.72
330	0.713
330	0.706
331	0.699
331	0.692
332	0.684
332	0.677
333	0.67
333	0.663
334	0.655
334	0.649
335	0.642
335	0.635
336	0.628
336	0.621
336	0.614
337	0.608
337	0.601
338	0.595
338	0.589
339	0.583
339	0.576
340	0.57
340	0.565
341	0.559
341	0.553
342	0.547
342	0.542
342	0.537
343	0.531
343	0.526
344	0.521
344	0.516
345	0.511
345	0.507
346	0.502
346	0.497
347	0.493
347	0.488
348	0.484
348	0.48
348	0.476
349	0.472
349	0.468
350	0.465
350	0.461
351	0.458
351	0.454
352	0.451
352	0.448
353	0.445
353	0.442
354	0.439
354	0.436
354	0.433
355	0.43
355	0.428
356	0.425
356	0.422
357	0.42
357	0.417
358	0.414
358	0.411
359	0.409
359	0.406
360	0.404
360	0.402
360	0.399
361	0.397
361	0.395
362	0.393
362	0.391
363	0.389
363	0.388
364	0.386
364	0.384
365	0.382
365	0.381
366	0.379
366	0.377
366	0.375
367	0.373
367	0.371
368	0.37
368	0.368
369	0.366
369	0.365
370	0.363
370	0.362
371	0.36
371	0.359
372	0.357
372	0.356
372	0.355
373	0.354
373	0.353
374	0.352
374	0.351
375	0.35
375	0.349
376	0.348
376	0.347
377	0.346
377	0.345
378	0.344
378	0.343
378	0.342
379	0.342
379	0.341
380	0.339
380	0.339
381	0.338
381	0.337
382	0.336
382	0.335
383	0.335
383	0.334
383	0.333
384	0.333
384	0.332
385	0.331
385	0.331
386	0.33
386	0.33
387	0.329
387	0.328
388	0.328
388	0.327
389	0.326
389	0.326
389	0.325
390	0.325
390	0.325
391	0.324
391	0.324
392	0.323
392	0.323
393	0.323
393	0.322
394	0.322
394	0.321
394	0.321
395	0.32
395	0.32
396	0.319
396	0.319
397	0.318
397	0.318
398	0.317
398	0.317
399	0.316
399	0.316
400	0.315
400	0.315
400	0.315
401	0.314
401	0.314
402	0.314
402	0.313
403	0.313
403	0.312
404	0.312
404	0.312
405	0.312
405	0.311
405	0.311
406	0.31
406	0.31
407	0.31
407	0.31
408	0.309
408	0.309
409	0.308
409	0.308
410	0.308
410	0.307
411	0.307
411	0.306
411	0.306
412	0.306
412	0.305
413	0.305
413	0.305
414	0.304
414	0.304
415	0.304
415	0.303
416	0.303
416	0.303
416	0.302
417	0.302
417	0.301
418	0.301
418	0.301
419	0.301
419	0.3
420	0.3
420	0.3
421	0.299
421	0.299
421	0.298
422	0.298
422	0.298
423	0.297
423	0.297
424	0.296
424	0.295
425	0.295
425	0.295
426	0.294
426	0.294
427	0.294
427	0.293
427	0.293
428	0.293
428	0.293
429	0.292
429	0.292
430	0.292
430	0.291
431	0.291
431	0.291
432	0.291
432	0.29
432	0.29
433	0.29
433	0.289
434	0.289
434	0.289
435	0.289
435	0.289
436	0.289
436	0.289
437	0.288
437	0.288
437	0.287
438	0.287
438	0.287
439	0.287
439	0.286
440	0.286
440	0.286
441	0.285
441	0.285
442	0.285
442	0.285
442	0.285
443	0.284
443	0.284
444	0.284
444	0.284
445	0.284
445	0.284
446	0.283
446	0.283
447	0.283
447	0.283
447	0.282
448	0.282
448	0.282
449	0.281
449	0.281
450	0.281
450	0.281
451	0.28
451	0.28
452	0.28
452	0.28
452	0.279
453	0.279
453	0.279
454	0.279
454	0.278
455	0.278
455	0.278
456	0.278
456	0.277
457	0.277
457	0.277
458	0.276
458	0.276
458	0.276
459	0.276
459	0.276
460	0.276
460	0.276
461	0.275
461	0.275
462	0.275
462	0.274
463	0.274
463	0.274
463	0.274
464	0.273
464	0.273
465	0.273
465	0.273
466	0.272
466	0.272
467	0.272
467	0.272
467	0.272
468	0.272
468	0.272
469	0.272
469	0.272
470	0.272
470	0.272
471	0.271
471	0.271
472	0.271
472	0.271
472	0.271
473	0.272
473	0.272
474	0.271
474	0.271
475	0.271
475	0.271
476	0.271
476	0.271
477	0.271
477	0.271
477	0.271
478	0.271
478	0.271
479	0.272
479	0.272
480	0.272
480	0.272
481	0.272
481	0.272
482	0.272
482	0.272
482	0.272
483	0.273
483	0.273
484	0.273
484	0.273
485	0.273
485	0.273
486	0.273
486	0.273
487	0.273
487	0.274
487	0.274
488	0.274
488	0.274
489	0.275
489	0.276
490	0.276
490	0.277
491	0.277
491	0.278
492	0.278
492	0.279
492	0.279
493	0.279
493	0.28
494	0.28
494	0.281
495	0.281
495	0.281
496	0.282
496	0.283
496	0.283
497	0.284
497	0.284
498	0.284
498	0.285
499	0.285
499	0.286
500	0.287
500	0.287
501	0.288
501	0.288
501	0.288
502	0.289
502	0.289
503	0.29
503	0.29
504	0.291
504	0.291
505	0.292
505	0.292
506	0.292
506	0.293
506	0.293
507	0.294
507	0.294
508	0.295
508	0.295
509	0.296
509	0.296
510	0.297
510	0.297
511	0.298
511	0.299
511	0.299
512	0.3
512	0.301
513	0.301
513	0.302
514	0.302
514	0.303
515	0.303
515	0.304
515	0.304
516	0.304
516	0.305
517	0.305
517	0.306
518	0.306
518	0.306
519	0.307
519	0.307
520	0.307
520	0.307
520	0.307
521	0.307
521	0.307
522	0.307
522	0.307
523	0.308
523	0.308
524	0.308
524	0.309
524	0.309
525	0.309
525	0.309
526	0.309
526	0.31
527	0.31
527	0.31
528	0.31
528	0.31
529	0.309
529	0.309
529	0.309
530	0.308
530	0.308
531	0.308
531	0.308
532	0.308
532	0.308
533	0.307
533	0.307
533	0.307
534	0.307
534	0.307
535	0.308
535	0.307
536	0.307
536	0.307
537	0.306
537	0.306
538	0.306
538	0.306
538	0.305
539	0.305
539	0.305
540	0.304
540	0.304
541	0.303
541	0.303
542	0.303
542	0.303
542	0.302
543	0.302
543	0.302
544	0.301
544	0.301
545	0.3
545	0.3
546	0.3
546	0.299
547	0.298
547	0.298
547	0.297
548	0.297
548	0.296
549	0.296
549	0.295
550	0.295
550	0.294
551	0.293
551	0.292
551	0.292
552	0.291
552	0.29
553	0.29
553	0.289
554	0.289
554	0.288
555	0.287
555	0.287
556	0.286
556	0.286
556	0.285
557	0.285
557	0.285
558	0.285
558	0.285
559	0.285
559	0.284
560	0.284
560	0.284
560	0.284
561	0.283
561	0.283
562	0.282
562	0.281
563	0.28
563	0.28
564	0.279
564	0.278
564	0.278
565	0.278
565	0.277
566	0.277
566	0.276
567	0.276
567	0.276
568	0.276
568	0.275
568	0.275
569	0.275
569	0.274
570	0.274
570	0.273
571	0.273
571	0.272
572	0.272
572	0.271
573	0.271
573	0.27
573	0.269
574	0.269
574	0.268
575	0.268
575	0.268
576	0.268
576	0.267
577	0.266
577	0.265
577	0.265
578	0.265
578	0.264
579	0.265
579	0.265
580	0.264
580	0.263
581	0.262
581	0.262
581	0.262
582	0.262
582	0.262
583	0.262
583	0.261
584	0.26
584	0.258
585	0.258
585	0.258
585	0.257
586	0.257
586	0.256
587	0.254
587	0.253
588	0.253
588	0.252
589	0.252
589	0.252
590	0.252
590	0.252
590	0.252
591	0.252
591	0.252
592	0.252
592	0.251
593	0.251
593	0.251
594	0.25
594	0.25
594	0.249
595	0.249
595	0.248
596	0.247
596	0.248
597	0.248
597	0.248
598	0.248
598	0.248
598	0.248
599	0.247
599	0.247
600	0.246
600	0.246
601	0.245
601	0.245
602	0.244
602	0.244
602	0.243
603	0.243
603	0.243
604	0.243
604	0.243
605	0.243
605	0.243
606	0.243
606	0.242
606	0.241
607	0.241
607	0.241
608	0.24
608	0.239
609	0.239
609	0.238
610	0.238
610	0.237
610	0.237
611	0.237
611	0.237
612	0.237
612	0.237
613	0.237
613	0.237
614	0.237
614	0.236
614	0.236
615	0.236
615	0.236
616	0.236
616	0.236
617	0.236
617	0.236
618	0.235
618	0.235
618	0.235
619	0.235
619	0.235
620	0.236
620	0.235
621	0.235
621	0.235
622	0.234
622	0.233
622	0.233
623	0.232
623	0.232
624	0.232
624	0.231
625	0.23
625	0.23
626	0.23
626	0.229
626	0.229
627	0.229
627	0.229
628	0.229
628	0.228
629	0.228
629	0.227
630	0.227
630	0.227
630	0.227
631	0.227
631	0.227
632	0.227
632	0.227
633	0.227
633	0.227
634	0.227
634	0.227
634	0.227
635	0.227
635	0.227
636	0.226
636	0.226
637	0.226
637	0.226
638	0.225
638	0.225
638	0.224
639	0.224
639	0.224
640	0.224
640	0.224
641	0.224
641	0.223
642	0.223
642	0.224
642	0.223
643	0.223
643	0.223
644	0.223
644	0.223
645	0.222
645	0.223
646	0.222
646	0.222
646	0.223
647	0.222
647	0.222
648	0.222
648	0.222
649	0.222
649	0.222
650	0.222
650	0.221
650	0.221
651	0.221
651	0.221
652	0.221
652	0.221
653	0.221
653	0.223
653	0.23
654	0.179
654	0.142
655	0.144
655	0.145
656	0.145
656	0.145
657	0.146
657	0.146
657	0.146
658	0.144
658	0.132
659	0.168
659	0.218
660	0.222
660	0.222
661	0.221
661	0.221
661	0.22
662	0.22
662	0.22
663	0.219
663	0.219
664	0.219
664	0.218
665	0.218
665	0.218
665	0.218
666	0.218
666	0.218
667	0.218
667	0.219
668	0.219
668	0.218
669	0.218
669	0.219
669	0.219
670	0.219
670	0.219
671	0.219
671	0.219
672	0.219
672	0.218
672	0.218
673	0.218
673	0.218
674	0.218
674	0.218
675	0.217
675	0.217
676	0.218
676	0.218
676	0.218
677	0.218
677	0.218
678	0.218
678	0.218
679	0.218
679	0.218
680	0.219
680	0.219
680	0.219
681	0.219
681	0.219
682	0.219
682	0.22
683	0.22
683	0.221
684	0.222
684	0.221
684	0.221
685	0.222
685	0.222
686	0.222
686	0.222
687	0.222
687	0.222
687	0.222
688	0.221
688	0.221
689	0.221
689	0.222
690	0.221
690	0.221
691	0.221
691	0.222
691	0.222
692	0.222
692	0.222
693	0.223
693	0.223
694	0.223
694	0.223
695	0.224
695	0.225
695	0.225
696	0.225
696	0.225
697	0.225
697	0.225
698	0.224
698	0.224
698	0.224
699	0.224
699	0.224
700	0.224
700	0.224
701	0.224
701	0.224
702	0.224
702	0.225
702	0.225
703	0.225
703	0.225
704	0.225
704	0.225
705	0.225
705	0.225
705	0.225
706	0.225
706	0.225
707	0.225
707	0.225
708	0.225
708	0.226
709	0.226
709	0.226
709	0.225
710	0.225
710	0.226
711	0.226
711	0.226
712	0.226
712	0.226
713	0.226
713	0.226
713	0.226
714	0.226
714	0.227
715	0.226
715	0.226
716	0.227
716	0.227
716	0.227
717	0.226
717	0.226
718	0.226
718	0.226
719	0.227
719	0.227
720	0.227
720	0.228
720	0.228
721	0.229
721	0.229
722	0.23
722	0.23
723	0.231
723	0.231
723	0.232
724	0.232
724	0.231
725	0.231
725	0.23
726	0.23
726	0.229
727	0.228
727	0.228
727	0.228
728	0.227
728	0.227
729	0.227
729	0.227
730	0.227
730	0.228
730	0.228
731	0.228
731	0.228
732	0.229
732	0.229
733	0.229
733	0.229
734	0.229
734	0.229
734	0.229
735	0.229
735	0.229
736	0.229
736	0.229
737	0.229
737	0.229
737	0.23
738	0.229
738	0.229
739	0.228
739	0.228
740	0.227
740	0.227
741	0.227
741	0.226
741	0.226
742	0.226
742	0.226
743	0.226
743	0.227
744	0.228
744	0.228
744	0.229
745	0.229
745	0.229
746	0.23
746	0.23
747	0.23
747	0.231
748	0.231
748	0.232
748	0.232
749	0.232
749	0.232
750	0.231
750	0.231
751	0.231
751	0.231
751	0.231
752	0.23
752	0.23
753	0.23
753	0.23
754	0.23
754	0.23
754	0.23
755	0.231
755	0.231
756	0.231
756	0.229
757	0.229
757	0.229
758	0.228
758	0.228
758	0.228
759	0.228
759	0.228
760	0.228
760	0.228
761	0.228
761	0.229
761	0.23
762	0.23
762	0.231
763	0.231
763	0.231
764	0.231
764	0.231
764	0.231
765	0.23
765	0.23
766	0.229
766	0.229
767	0.228
767	0.227
768	0.226
768	0.225
768	0.225
769	0.225
769	0.225
770	0.225
770	0.225
771	0.226
771	0.226
771	0.226
772	0.227
772	0.228
773	0.228
773	0.229
774	0.229
774	0.23
775	0.23
775	0.23
775	0.23
776	0.23
776	0.23
777	0.23
777	0.23
778	0.23
778	0.23
778	0.229
779	0.229
779	0.229
780	0.228
780	0.228
781	0.227
781	0.227
781	0.227
782	0.226
782	0.226
783	0.227
783	0.227
784	0.227
784	0.227
784	0.228
785	0.228
785	0.229
786	0.229
786	0.23
787	0.23
787	0.23
788	0.23
788	0.23
788	0.23
789	0.23
789	0.23
790	0.23
790	0.23
791	0.23
791	0.229
791	0.229
792	0.23
792	0.23
793	0.23
793	0.23
794	0.23
794	0.229
794	0.229
795	0.229
795	0.229
796	0.229
796	0.229
797	0.229
797	0.229
797	0.229
798	0.229
798	0.229
799	0.229
799	0.229
800	0.229
800	0.229
801	0.23
801	0.23
801	0.23
802	0.231
802	0.232
803	0.232
803	0.232
804	0.233
804	0.234
804	0.234
805	0.234
805	0.234
806	0.234
806	0.234
807	0.233
807	0.233
807	0.232
808	0.232
808	0.231
809	0.231
809	0.23
810	0.23
810	0.23
810	0.23
811	0.229
811	0.23
812	0.231
812	0.231
813	0.231
813	0.232
813	0.233
814	0.233
814	0.234
815	0.235
815	0.235
816	0.235
816	0.235
817	0.235
817	0.235
817	0.234
818	0.234
818	0.234
819	0.233
819	0.233
820	0.232
820	0.232
820	0.231
821	0.231
821	0.231
822	0.231
822	0.231
823	0.231
823	0.231
823	0.232
824	0.233
824	0.234
825	0.235
825	0.236
826	0.236
826	0.236
826	0.237
827	0.237
827	0.237
828	0.237
828	0.237
829	0.237
829	0.237
829	0.236
830	0.236
830	0.236
831	0.237
831	0.237
832	0.237
832	0.237
832	0.237
833	0.237
833	0.237
834	0.237
834	0.237
835	0.237
835	0.237
835	0.237
836	0.237
836	0.237
837	0.237
837	0.237
838	0.237
838	0.236
839	0.236
839	0.235
839	0.234
840	0.233
840	0.232
841	0.23
841	0.229
842	0.229
842	0.228
842	0.228
843	0.227
843	0.227
844	0.227
844	0.227
845	0.226
845	0.226
845	0.226
846	0.226
846	0.226
847	0.226
847	0.227
848	0.227
848	0.228
848	0.228
849	0.229
849	0.23
850	0.23
850	0.23
851	0.231
851	0.231
851	0.23
852	0.23
852	0.229
853	0.228
853	0.227
854	0.226
854	0.226
854	0.225
855	0.225
855	0.225
856	0.225
856	0.225
857	0.225
857	0.225
857	0.226
858	0.226
858	0.225
859	0.225
859	0.224
860	0.223
860	0.222
860	0.221
861	0.221
861	0.22
862	0.219
862	0.218
863	0.218
863	0.217
863	0.217
864	0.217
864	0.217
865	0.217
865	0.217
866	0.216
866	0.216
866	0.216
867	0.216
867	0.216
868	0.216
868	0.216
869	0.216
869	0.216
869	0.216
870	0.216
870	0.216
871	0.216
871	0.217
872	0.217
872	0.217
872	0.217
873	0.217
873	0.217
874	0.216
874	0.216
875	0.216
875	0.216
875	0.216
876	0.216
876	0.216
877	0.216
877	0.216
878	0.217
878	0.218
878	0.219
879	0.219
879	0.22
880	0.22
880	0.22
881	0.22
881	0.219
881	0.219
882	0.218
882	0.216
883	0.215
883	0.214
884	0.212
884	0.211
884	0.21
885	0.209
885	0.208
886	0.208
886	0.207
887	0.207
887	0.206
887	0.206
888	0.205
888	0.204
889	0.204
889	0.204
890	0.204
890	0.204
890	0.204
891	0.204
891	0.204
892	0.204
892	0.204
893	0.204
893	0.205
893	0.205
894	0.205
894	0.204
895	0.204
895	0.204
895	0.204
896	0.204
896	0.203
897	0.203
897	0.202
898	0.202
898	0.202
898	0.201
899	0.201
899	0.201
900	0.2
900	0.199
901	0.199
901	0.198
901	0.198
902	0.197
902	0.197
903	0.196
903	0.196
904	0.195
904	0.195
904	0.194
905	0.194
905	0.194
906	0.194
906	0.194
907	0.195
907	0.195
907	0.196
908	0.196
908	0.197
909	0.197
909	0.197
910	0.198
910	0.198
910	0.197
911	0.197
911	0.196
912	0.195
912	0.195
913	0.194
913	0.193
913	0.192
914	0.192
914	0.191
915	0.191
915	0.19
916	0.189
916	0.189
916	0.188
917	0.187
917	0.186
918	0.185
918	0.184
918	0.183
919	0.182
919	0.181
920	0.181
920	0.181
921	0.181
921	0.181
921	0.181
922	0.181
922	0.181
923	0.181
923	0.181
924	0.181
924	0.181
924	0.18
925	0.18
925	0.18
926	0.179
926	0.179
927	0.179
927	0.178
927	0.178
928	0.178
928	0.178
929	0.177
929	0.177
930	0.177
930	0.177
930	0.176
931	0.176
931	0.176
932	0.176
932	0.176
933	0.176
933	0.176
933	0.176
934	0.175
934	0.175
935	0.175
935	0.174
935	0.174
936	0.173
936	0.173
937	0.172
937	0.171
938	0.171
938	0.17
938	0.17
939	0.169
939	0.169
940	0.169
940	0.169
941	0.169
941	0.169
941	0.169
942	0.169
942	0.169
943	0.169
943	0.169
944	0.168
944	0.168
944	0.167
945	0.167
945	0.166
946	0.166
946	0.166
946	0.165
947	0.165
947	0.165
948	0.164
948	0.164
949	0.164
949	0.163
949	0.163
950	0.162
950	0.162
951	0.161
951	0.16
952	0.159
952	0.159
952	0.158
953	0.158
953	0.157
954	0.156
954	0.156
955	0.156
955	0.155
955	0.155
956	0.155
956	0.155
957	0.156
957	0.156
957	0.156
958	0.156
958	0.156
959	0.156
959	0.156
960	0.157
960	0.156
960	0.156
961	0.156
961	0.156
962	0.155
962	0.155
963	0.155
963	0.154
963	0.154
964	0.153
964	0.153
965	0.153
965	0.152
966	0.152
966	0.152
966	0.152
967	0.152
967	0.152
968	0.152
968	0.152
968	0.152
969	0.152
969	0.151
970	0.151
970	0.151
971	0.151
971	0.15
971	0.15
972	0.15
972	0.15
973	0.15
973	0.15
974	0.15
974	0.15
974	0.15
975	0.15
975	0.15
976	0.15
976	0.15
976	0.15
977	0.149
977	0.149
978	0.149
978	0.149
979	0.148
979	0.148
979	0.148
980	0.147
980	0.146
981	0.146
981	0.145
982	0.144
982	0.143
982	0.142
983	0.142
983	0.141
984	0.14
984	0.139
984	0.138
985	0.137
985	0.136
986	0.135
986	0.135
987	0.134
987	0.133
987	0.132
988	0.132
988	0.131
989	0.13
989	0.13
990	0.129
990	0.128
990	0.128
991	0.127
991	0.127
992	0.126
992	0.126
992	0.125
993	0.125
993	0.124
994	0.123
994	0.123
995	0.122
995	0.122
995	0.122
996	0.122
996	0.122
997	0.122
997	0.123
997	0.123
998	0.124
998	0.124
999	0.125
999	0.126
1000	0.126
1000	0.127
1000	0.127
1001	0.128
1001	0.128
1002	0.128
1002	0.129
1003	0.129
1003	0.129
1003	0.128
1004	0.128
1004	0.128
1005	0.128
1005	0.128
1005	0.127
1006	0.127
1006	0.127
1007	0.126
1007	0.126
1008	0.126
1008	0.126
1008	0.125
1009	0.125
1009	0.125
1010	0.125
1010	0.124
1010	0.124
1011	0.124
1011	0.123
1012	0.123
1012	0.122
1013	0.122
1013	0.122
1013	0.121
1014	0.12
1014	0.119
1015	0.119
1015	0.118
1016	0.118
1016	0.117
1016	0.116
1017	0.116
1017	0.115
1018	0.114
1018	0.114
1018	0.113
1019	0.113
1019	0.112
1020	0.112
1020	0.111
1021	0.111
1021	0.111
1021	0.111
1022	0.11
1022	0.11
1023	0.11
1023	0.11
1023	0.11
1024	0.11
1024	0.11
1025	0.11
1025	0.11
1026	0.11
1026	0.11
1026	0.11
1027	0.109
1027	0.109
1028	0.109
1028	0.108
1028	0.108
1029	0.108
1029	0.108
1030	0.107
1030	0.107
1031	0.107
1031	0.107
1031	0.107
1032	0.107
1032	0.107
1033	0.107
1033	0.107
1033	0.106
1034	0.106
1034	0.106
1035	0.106
1035	0.106
1036	0.105
1036	0.105
1036	0.105
1037	0.105
1037	0.105
1038	0.105
1038	0.104
1039	0.104
1039	0.104
1039	0.104
1040	0.104
1040	0.105
1041	0.104
1041	0.104
1041	0.104
1042	0.104
1042	0.103
1043	0.103
1043	0.103
1044	0.103
1044	0.103
1044	0.103
1045	0.103
1045	0.103
1046	0.103
1046	0.104
1046	0.104
1047	0.105
1047	0.105
1048	0.106
1048	0.107
1049	0.107
1049	0.107
1049	0.107
1050	0.107
1050	0.107
1051	0.107
1051	0.106
1051	0.106
1052	0.105
1052	0.104
1053	0.103
1053	0.102
1053	0.101
1054	0.1
1054	0.099
1055	0.099
1055	0.098
1056	0.097
1056	0.097
1056	0.096
1057	0.095
1057	0.095
1058	0.094
1058	0.093
1058	0.092
1059	0.091
1059	0.091
1060	0.09
1060	0.09
1061	0.089
1061	0.089
1061	0.089
1062	0.088
1062	0.089
1063	0.089
1063	0.089
1063	0.089
1064	0.089
1064	0.089
1065	0.089
1065	0.089
1066	0.089
1066	0.089
1066	0.089
1067	0.089
1067	0.088
1068	0.088
1068	0.087
1068	0.087
1069	0.086
1069	0.085
1070	0.085
1070	0.084
1071	0.083
1071	0.082
1071	0.082
1072	0.081
1072	0.081
1073	0.08
1073	0.079
1073	0.079
1074	0.08
1074	0.08
1075	0.08
1075	0.08
1076	0.081
1076	0.081
1076	0.081
1077	0.082
1077	0.082
1078	0.082
1078	0.082
1078	0.082
1079	0.081
1079	0.081
1080	0.08
1080	0.08
1080	0.08
1081	0.08
1081	0.08
1082	0.08
1082	0.08
1083	0.08
1083	0.079
1083	0.079
1084	0.079
1084	0.079
1085	0.078
1085	0.078
1085	0.078
1086	0.077
1086	0.077
1087	0.076
1087	0.076
1088	0.076
1088	0.075
1088	0.076
1089	0.075
1089	0.075
1090	0.074
1090	0.073
1090	0.072
1091	0.072
1091	0.072
1092	0.072
1092	0.073
1092	0.072
1093	0.071
1093	0.072
1094	0.072
1094	0.072
1095	0.072
1095	0.072
1095	0.072
1096	0.072
1096	0.071
1097	0.069
1097	0.068
1097	0.068
1098	0.067
1098	0.066
1099	0.065
1099	0.063
1100	0.062
1100	0.06
1100	0.058
1101	0.057
1101	0.057
1102	0.057
1102	0.056
1102	0.054
1103	0.054
1103	0.054
1104	0.054
1104	0.053
1104	0.053
1105	0.051
1105	0.05
1106	0.049
1106	0.048
1107	0.047
1107	0.046
1107	0.045
1108	0.044
1108	0.043
1109	0.041
1109	0.04
1109	0.04
1110	0.041
1110	0.039
1111	0.041
1111	0.039
