Data from reversibility-20sec_Absorbance__2890__000000000002890.txt Node

Date: Wed Dec 06 04:16:25 CET 2023
User: Marek
Spectrometer: MAYP115816
Trigger mode: 0
Integration Time (sec): 2.000000E-1
Scans to average: 10
Electric dark correction enabled: true
Nonlinearity correction enabled: true
Boxcar width: 5
XAxis mode: Wavelengths
Number of Pixels in Spectrum: 2068
>>>>>Begin Spectral Data<<<<<
199	-0.168
199	-0.147
200	-0.078
200	-0.027
201	0.008
201	0.027
202	0.039
202	0.047
203	0.055
203	0.06
204	0.075
204	0.089
205	0.104
205	0.109
205	0.108
206	0.106
206	0.103
207	0.105
207	0.102
208	0.102
208	0.101
209	0.103
209	0.104
210	0.105
210	0.106
211	0.107
211	0.109
212	0.108
212	0.11
213	0.116
213	0.118
213	0.118
214	0.124
214	0.122
215	0.122
215	0.122
216	0.123
216	0.122
217	0.124
217	0.123
218	0.121
218	0.125
219	0.129
219	0.126
220	0.129
220	0.132
221	0.134
221	0.137
221	0.142
222	0.149
222	0.156
223	0.164
223	0.168
224	0.173
224	0.181
225	0.192
225	0.203
226	0.213
226	0.222
227	0.234
227	0.245
228	0.26
228	0.275
229	0.293
229	0.316
229	0.337
230	0.36
230	0.386
231	0.419
231	0.461
232	0.498
232	0.544
233	0.587
233	0.635
234	0.681
234	0.737
235	0.791
235	0.849
236	0.903
236	0.958
236	1.01
237	1.062
237	1.112
238	1.165
238	1.214
239	1.268
239	1.31
240	1.353
240	1.392
241	1.429
241	1.464
242	1.497
242	1.536
243	1.57
243	1.595
243	1.625
244	1.647
244	1.671
245	1.693
245	1.718
246	1.741
246	1.763
247	1.778
247	1.794
248	1.809
248	1.827
249	1.838
249	1.851
250	1.862
250	1.873
250	1.88
251	1.886
251	1.891
252	1.901
252	1.904
253	1.911
253	1.912
254	1.915
254	1.917
255	1.918
255	1.921
256	1.923
256	1.925
257	1.926
257	1.924
258	1.925
258	1.924
258	1.926
259	1.928
259	1.931
260	1.931
260	1.933
261	1.935
261	1.939
262	1.944
262	1.948
263	1.952
263	1.955
264	1.955
264	1.958
265	1.958
265	1.962
265	1.964
266	1.965
266	1.965
267	1.963
267	1.966
268	1.966
268	1.969
269	1.972
269	1.971
270	1.971
270	1.971
271	1.97
271	1.971
272	1.967
272	1.968
272	1.965
273	1.958
273	1.951
274	1.945
274	1.938
275	1.932
275	1.927
276	1.918
276	1.909
277	1.901
277	1.89
278	1.879
278	1.869
278	1.855
279	1.84
279	1.82
280	1.797
280	1.765
281	1.73
281	1.69
282	1.649
282	1.607
283	1.565
283	1.523
284	1.482
284	1.443
285	1.405
285	1.371
285	1.34
286	1.313
286	1.289
287	1.268
287	1.25
288	1.233
288	1.22
289	1.208
289	1.197
290	1.188
290	1.18
291	1.173
291	1.166
292	1.16
292	1.155
292	1.15
293	1.145
293	1.14
294	1.136
294	1.132
295	1.128
295	1.125
296	1.121
296	1.117
297	1.114
297	1.111
298	1.107
298	1.103
298	1.1
299	1.097
299	1.093
300	1.09
300	1.087
301	1.084
301	1.081
302	1.078
302	1.074
303	1.072
303	1.069
304	1.067
304	1.064
305	1.061
305	1.057
305	1.055
306	1.052
306	1.049
307	1.046
307	1.043
308	1.04
308	1.037
309	1.033
309	1.03
310	1.027
310	1.024
311	1.02
311	1.017
311	1.013
312	1.01
312	1.006
313	1.002
313	0.998
314	0.994
314	0.99
315	0.985
315	0.981
316	0.976
316	0.971
317	0.966
317	0.961
318	0.956
318	0.95
318	0.945
319	0.939
319	0.934
320	0.928
320	0.921
321	0.915
321	0.909
322	0.903
322	0.896
323	0.889
323	0.883
324	0.876
324	0.869
324	0.862
325	0.856
325	0.849
326	0.842
326	0.835
327	0.828
327	0.821
328	0.814
328	0.808
329	0.8
329	0.793
330	0.786
330	0.779
330	0.772
331	0.765
331	0.758
332	0.75
332	0.743
333	0.736
333	0.729
334	0.722
334	0.715
335	0.708
335	0.701
336	0.695
336	0.688
336	0.681
337	0.675
337	0.668
338	0.662
338	0.656
339	0.65
339	0.644
340	0.638
340	0.632
341	0.626
341	0.62
342	0.615
342	0.609
342	0.604
343	0.599
343	0.593
344	0.588
344	0.583
345	0.579
345	0.574
346	0.57
346	0.565
347	0.561
347	0.557
348	0.552
348	0.549
348	0.544
349	0.54
349	0.537
350	0.533
350	0.529
351	0.525
351	0.522
352	0.518
352	0.515
353	0.512
353	0.509
354	0.506
354	0.503
354	0.5
355	0.497
355	0.494
356	0.491
356	0.488
357	0.485
357	0.482
358	0.479
358	0.477
359	0.474
359	0.472
360	0.469
360	0.467
360	0.465
361	0.463
361	0.46
362	0.458
362	0.456
363	0.454
363	0.452
364	0.45
364	0.448
365	0.446
365	0.444
366	0.442
366	0.44
366	0.439
367	0.437
367	0.435
368	0.433
368	0.431
369	0.429
369	0.427
370	0.426
370	0.424
371	0.422
371	0.421
372	0.419
372	0.418
372	0.416
373	0.415
373	0.414
374	0.412
374	0.411
375	0.41
375	0.409
376	0.408
376	0.407
377	0.405
377	0.404
378	0.403
378	0.402
378	0.401
379	0.4
379	0.398
380	0.397
380	0.396
381	0.395
381	0.394
382	0.394
382	0.393
383	0.392
383	0.391
383	0.39
384	0.389
384	0.388
385	0.388
385	0.387
386	0.386
386	0.385
387	0.385
387	0.384
388	0.383
388	0.383
389	0.382
389	0.382
389	0.381
390	0.38
390	0.379
391	0.379
391	0.378
392	0.377
392	0.377
393	0.376
393	0.376
394	0.375
394	0.374
394	0.374
395	0.373
395	0.373
396	0.372
396	0.372
397	0.371
397	0.37
398	0.37
398	0.369
399	0.369
399	0.368
400	0.368
400	0.367
400	0.367
401	0.366
401	0.366
402	0.365
402	0.365
403	0.364
403	0.363
404	0.363
404	0.362
405	0.362
405	0.362
405	0.361
406	0.361
406	0.36
407	0.36
407	0.359
408	0.359
408	0.358
409	0.358
409	0.357
410	0.357
410	0.356
411	0.356
411	0.355
411	0.355
412	0.355
412	0.354
413	0.354
413	0.353
414	0.353
414	0.353
415	0.352
415	0.352
416	0.351
416	0.351
416	0.351
417	0.35
417	0.35
418	0.35
418	0.349
419	0.349
419	0.348
420	0.348
420	0.347
421	0.346
421	0.346
421	0.346
422	0.345
422	0.345
423	0.345
423	0.344
424	0.344
424	0.344
425	0.344
425	0.343
426	0.343
426	0.343
427	0.342
427	0.342
427	0.341
428	0.341
428	0.341
429	0.34
429	0.34
430	0.34
430	0.34
431	0.339
431	0.339
432	0.339
432	0.339
432	0.339
433	0.339
433	0.338
434	0.338
434	0.338
435	0.338
435	0.338
436	0.338
436	0.338
437	0.337
437	0.337
437	0.337
438	0.336
438	0.336
439	0.336
439	0.336
440	0.336
440	0.335
441	0.335
441	0.335
442	0.335
442	0.335
442	0.335
443	0.334
443	0.334
444	0.334
444	0.334
445	0.334
445	0.334
446	0.334
446	0.333
447	0.333
447	0.333
447	0.333
448	0.333
448	0.333
449	0.333
449	0.333
450	0.333
450	0.333
451	0.333
451	0.333
452	0.333
452	0.333
452	0.333
453	0.333
453	0.333
454	0.333
454	0.333
455	0.332
455	0.332
456	0.332
456	0.332
457	0.332
457	0.332
458	0.333
458	0.332
458	0.333
459	0.333
459	0.333
460	0.333
460	0.333
461	0.333
461	0.333
462	0.334
462	0.334
463	0.334
463	0.334
463	0.334
464	0.334
464	0.334
465	0.334
465	0.334
466	0.334
466	0.335
467	0.335
467	0.335
467	0.335
468	0.336
468	0.336
469	0.337
469	0.337
470	0.338
470	0.338
471	0.339
471	0.339
472	0.339
472	0.34
472	0.34
473	0.341
473	0.341
474	0.342
474	0.342
475	0.342
475	0.343
476	0.343
476	0.344
477	0.344
477	0.345
477	0.346
478	0.346
478	0.347
479	0.348
479	0.349
480	0.349
480	0.35
481	0.351
481	0.351
482	0.352
482	0.353
482	0.354
483	0.355
483	0.356
484	0.357
484	0.357
485	0.358
485	0.359
486	0.36
486	0.361
487	0.361
487	0.363
487	0.364
488	0.365
488	0.365
489	0.366
489	0.368
490	0.37
490	0.371
491	0.373
491	0.374
492	0.375
492	0.377
492	0.378
493	0.38
493	0.382
494	0.383
494	0.385
495	0.387
495	0.388
496	0.389
496	0.391
496	0.393
497	0.394
497	0.395
498	0.396
498	0.398
499	0.399
499	0.401
500	0.402
500	0.404
501	0.406
501	0.407
501	0.408
502	0.41
502	0.412
503	0.413
503	0.415
504	0.416
504	0.418
505	0.419
505	0.421
506	0.422
506	0.423
506	0.425
507	0.426
507	0.428
508	0.429
508	0.43
509	0.431
509	0.433
510	0.434
510	0.435
511	0.437
511	0.438
511	0.439
512	0.441
512	0.442
513	0.443
513	0.444
514	0.445
514	0.446
515	0.447
515	0.448
515	0.448
516	0.449
516	0.45
517	0.45
517	0.451
518	0.451
518	0.452
519	0.452
519	0.452
520	0.453
520	0.453
520	0.453
521	0.453
521	0.453
522	0.453
522	0.453
523	0.453
523	0.453
524	0.452
524	0.452
524	0.452
525	0.451
525	0.451
526	0.45
526	0.449
527	0.448
527	0.447
528	0.446
528	0.446
529	0.445
529	0.443
529	0.442
530	0.441
530	0.439
531	0.438
531	0.436
532	0.435
532	0.433
533	0.431
533	0.429
533	0.428
534	0.426
534	0.424
535	0.423
535	0.421
536	0.419
536	0.417
537	0.415
537	0.413
538	0.411
538	0.409
538	0.407
539	0.405
539	0.403
540	0.4
540	0.398
541	0.396
541	0.394
542	0.391
542	0.389
542	0.386
543	0.384
543	0.381
544	0.378
544	0.376
545	0.374
545	0.371
546	0.369
546	0.366
547	0.364
547	0.361
547	0.359
548	0.356
548	0.354
549	0.351
549	0.349
550	0.346
550	0.343
551	0.34
551	0.338
551	0.335
552	0.333
552	0.33
553	0.328
553	0.326
554	0.323
554	0.321
555	0.318
555	0.315
556	0.313
556	0.311
556	0.309
557	0.306
557	0.304
558	0.302
558	0.3
559	0.297
559	0.295
560	0.292
560	0.29
560	0.288
561	0.286
561	0.284
562	0.282
562	0.279
563	0.276
563	0.274
564	0.271
564	0.269
564	0.267
565	0.265
565	0.263
566	0.26
566	0.258
567	0.256
567	0.254
568	0.252
568	0.25
568	0.248
569	0.246
569	0.244
570	0.242
570	0.24
571	0.238
571	0.237
572	0.235
572	0.233
573	0.232
573	0.23
573	0.228
574	0.227
574	0.225
575	0.224
575	0.223
576	0.221
576	0.219
577	0.217
577	0.215
577	0.214
578	0.213
578	0.211
579	0.21
579	0.209
580	0.207
580	0.205
581	0.204
581	0.202
581	0.201
582	0.2
582	0.199
583	0.198
583	0.197
584	0.195
584	0.193
585	0.192
585	0.191
585	0.189
586	0.188
586	0.187
587	0.186
587	0.184
588	0.183
588	0.182
589	0.181
589	0.181
590	0.18
590	0.179
590	0.178
591	0.178
591	0.176
592	0.175
592	0.173
593	0.172
593	0.171
594	0.17
594	0.168
594	0.167
595	0.166
595	0.165
596	0.163
596	0.163
597	0.163
597	0.163
598	0.162
598	0.161
598	0.161
599	0.16
599	0.16
600	0.159
600	0.158
601	0.157
601	0.157
602	0.155
602	0.154
602	0.154
603	0.153
603	0.153
604	0.152
604	0.151
605	0.151
605	0.15
606	0.149
606	0.148
606	0.147
607	0.146
607	0.146
608	0.145
608	0.144
609	0.143
609	0.142
610	0.141
610	0.14
610	0.139
611	0.139
611	0.139
612	0.138
612	0.138
613	0.138
613	0.137
614	0.137
614	0.136
614	0.136
615	0.135
615	0.135
616	0.134
616	0.134
617	0.133
617	0.133
618	0.132
618	0.132
618	0.131
619	0.131
619	0.131
620	0.131
620	0.13
621	0.13
621	0.129
622	0.129
622	0.128
622	0.127
623	0.127
623	0.126
624	0.126
624	0.125
625	0.124
625	0.124
626	0.123
626	0.122
626	0.122
627	0.122
627	0.121
628	0.121
628	0.121
629	0.12
629	0.12
630	0.119
630	0.119
630	0.119
631	0.118
631	0.118
632	0.117
632	0.116
633	0.116
633	0.115
634	0.115
634	0.116
634	0.115
635	0.115
635	0.114
636	0.114
636	0.114
637	0.113
637	0.113
638	0.112
638	0.112
638	0.111
639	0.11
639	0.11
640	0.11
640	0.109
641	0.109
641	0.109
642	0.109
642	0.109
642	0.109
643	0.109
643	0.109
644	0.109
644	0.109
645	0.109
645	0.109
646	0.109
646	0.108
646	0.108
647	0.108
647	0.107
648	0.106
648	0.106
649	0.105
649	0.105
650	0.104
650	0.104
650	0.104
651	0.104
651	0.103
652	0.103
652	0.103
653	0.103
653	0.105
653	0.11
654	0.089
654	0.072
655	0.07
655	0.07
656	0.07
656	0.07
657	0.07
657	0.07
657	0.07
658	0.069
658	0.061
659	0.076
659	0.096
660	0.101
660	0.101
661	0.1
661	0.099
661	0.099
662	0.098
662	0.098
663	0.097
663	0.097
664	0.097
664	0.096
665	0.096
665	0.096
665	0.095
666	0.096
666	0.096
667	0.096
667	0.096
668	0.096
668	0.096
669	0.096
669	0.096
669	0.097
670	0.097
670	0.097
671	0.097
671	0.096
672	0.096
672	0.095
672	0.094
673	0.094
673	0.094
674	0.093
674	0.092
675	0.092
675	0.092
676	0.092
676	0.092
676	0.092
677	0.092
677	0.092
678	0.092
678	0.092
679	0.092
679	0.091
680	0.091
680	0.091
680	0.09
681	0.089
681	0.089
682	0.089
682	0.089
683	0.089
683	0.09
684	0.09
684	0.09
684	0.089
685	0.089
685	0.09
686	0.09
686	0.089
687	0.089
687	0.089
687	0.089
688	0.089
688	0.089
689	0.089
689	0.089
690	0.089
690	0.088
691	0.088
691	0.088
691	0.088
692	0.088
692	0.088
693	0.087
693	0.088
694	0.087
694	0.086
695	0.087
695	0.087
695	0.087
696	0.087
696	0.087
697	0.087
697	0.086
698	0.086
698	0.086
698	0.086
699	0.086
699	0.085
700	0.085
700	0.085
701	0.084
701	0.083
702	0.083
702	0.082
702	0.082
703	0.081
703	0.081
704	0.08
704	0.08
705	0.08
705	0.08
705	0.079
706	0.08
706	0.08
707	0.08
707	0.08
708	0.08
708	0.08
709	0.08
709	0.08
709	0.079
710	0.079
710	0.079
711	0.079
711	0.078
712	0.078
712	0.078
713	0.078
713	0.078
713	0.078
714	0.077
714	0.077
715	0.077
715	0.077
716	0.076
716	0.076
716	0.075
717	0.075
717	0.074
718	0.073
718	0.073
719	0.073
719	0.073
720	0.073
720	0.073
720	0.073
721	0.073
721	0.073
722	0.074
722	0.074
723	0.074
723	0.074
723	0.074
724	0.074
724	0.074
725	0.073
725	0.073
726	0.072
726	0.072
727	0.071
727	0.071
727	0.071
728	0.071
728	0.071
729	0.071
729	0.071
730	0.071
730	0.072
730	0.072
731	0.072
731	0.073
732	0.073
732	0.073
733	0.073
733	0.073
734	0.072
734	0.072
734	0.072
735	0.071
735	0.071
736	0.07
736	0.07
737	0.069
737	0.069
737	0.068
738	0.067
738	0.067
739	0.066
739	0.066
740	0.066
740	0.066
741	0.066
741	0.066
741	0.066
742	0.066
742	0.067
743	0.068
743	0.068
744	0.069
744	0.069
744	0.069
745	0.069
745	0.069
746	0.069
746	0.069
747	0.068
747	0.068
748	0.068
748	0.068
748	0.068
749	0.068
749	0.069
750	0.069
750	0.069
751	0.069
751	0.069
751	0.069
752	0.069
752	0.068
753	0.068
753	0.067
754	0.067
754	0.066
754	0.066
755	0.065
755	0.065
756	0.064
756	0.063
757	0.062
757	0.062
758	0.062
758	0.062
758	0.062
759	0.063
759	0.062
760	0.062
760	0.062
761	0.063
761	0.064
761	0.064
762	0.064
762	0.064
763	0.063
763	0.063
764	0.062
764	0.062
764	0.062
765	0.062
765	0.061
766	0.061
766	0.062
767	0.062
767	0.061
768	0.061
768	0.062
768	0.062
769	0.063
769	0.063
770	0.063
770	0.064
771	0.064
771	0.064
771	0.064
772	0.064
772	0.064
773	0.063
773	0.063
774	0.063
774	0.063
775	0.063
775	0.063
775	0.062
776	0.062
776	0.062
777	0.062
777	0.062
778	0.062
778	0.061
778	0.061
779	0.06
779	0.06
780	0.059
780	0.058
781	0.058
781	0.058
781	0.058
782	0.057
782	0.057
783	0.058
783	0.058
784	0.058
784	0.058
784	0.059
785	0.059
785	0.059
786	0.059
786	0.059
787	0.059
787	0.059
788	0.058
788	0.058
788	0.057
789	0.056
789	0.056
790	0.056
790	0.056
791	0.055
791	0.055
791	0.055
792	0.055
792	0.055
793	0.055
793	0.055
794	0.054
794	0.054
794	0.054
795	0.054
795	0.054
796	0.054
796	0.054
797	0.054
797	0.054
797	0.055
798	0.055
798	0.055
799	0.055
799	0.055
800	0.055
800	0.055
801	0.054
801	0.054
801	0.054
802	0.054
802	0.054
803	0.054
803	0.054
804	0.054
804	0.054
804	0.054
805	0.054
805	0.055
806	0.055
806	0.055
807	0.055
807	0.055
807	0.055
808	0.055
808	0.055
809	0.055
809	0.055
810	0.055
810	0.055
810	0.055
811	0.055
811	0.055
812	0.055
812	0.055
813	0.055
813	0.055
813	0.055
814	0.056
814	0.056
815	0.057
815	0.057
816	0.057
816	0.057
817	0.056
817	0.056
817	0.056
818	0.056
818	0.056
819	0.055
819	0.054
820	0.053
820	0.053
820	0.052
821	0.052
821	0.052
822	0.052
822	0.052
823	0.053
823	0.053
823	0.054
824	0.055
824	0.056
825	0.057
825	0.058
826	0.058
826	0.058
826	0.059
827	0.059
827	0.059
828	0.059
828	0.059
829	0.059
829	0.058
829	0.058
830	0.058
830	0.058
831	0.059
831	0.059
832	0.059
832	0.059
832	0.059
833	0.059
833	0.059
834	0.059
834	0.059
835	0.059
835	0.058
835	0.058
836	0.058
836	0.057
837	0.057
837	0.056
838	0.056
838	0.056
839	0.055
839	0.054
839	0.054
840	0.053
840	0.052
841	0.051
841	0.051
842	0.051
842	0.05
842	0.05
843	0.05
843	0.05
844	0.051
844	0.051
845	0.052
845	0.052
845	0.053
846	0.054
846	0.054
847	0.055
847	0.055
848	0.055
848	0.055
848	0.055
849	0.055
849	0.055
850	0.055
850	0.054
851	0.054
851	0.054
851	0.053
852	0.052
852	0.052
853	0.051
853	0.051
854	0.051
854	0.051
854	0.052
855	0.053
855	0.053
856	0.054
856	0.055
857	0.056
857	0.057
857	0.057
858	0.058
858	0.058
859	0.057
859	0.057
860	0.056
860	0.055
860	0.055
861	0.054
861	0.053
862	0.052
862	0.051
863	0.05
863	0.049
863	0.049
864	0.049
864	0.049
865	0.049
865	0.049
866	0.049
866	0.049
866	0.049
867	0.05
867	0.05
868	0.05
868	0.05
869	0.05
869	0.05
869	0.049
870	0.048
870	0.048
871	0.048
871	0.048
872	0.048
872	0.048
872	0.048
873	0.048
873	0.048
874	0.048
874	0.048
875	0.048
875	0.048
875	0.048
876	0.048
876	0.048
877	0.047
877	0.047
878	0.047
878	0.048
878	0.048
879	0.049
879	0.049
880	0.05
880	0.05
881	0.05
881	0.051
881	0.051
882	0.051
882	0.051
883	0.05
883	0.05
884	0.05
884	0.049
884	0.049
885	0.048
885	0.048
886	0.047
886	0.047
887	0.047
887	0.047
887	0.046
888	0.046
888	0.046
889	0.046
889	0.047
890	0.047
890	0.047
890	0.047
891	0.047
891	0.047
892	0.047
892	0.047
893	0.047
893	0.047
893	0.047
894	0.047
894	0.046
895	0.046
895	0.046
895	0.046
896	0.046
896	0.046
897	0.045
897	0.045
898	0.044
898	0.044
898	0.044
899	0.043
899	0.043
900	0.043
900	0.043
901	0.044
901	0.044
901	0.044
902	0.045
902	0.045
903	0.045
903	0.046
904	0.046
904	0.046
904	0.046
905	0.046
905	0.046
906	0.046
906	0.046
907	0.047
907	0.047
907	0.048
908	0.048
908	0.049
909	0.049
909	0.05
910	0.05
910	0.05
910	0.05
911	0.05
911	0.05
912	0.05
912	0.05
913	0.05
913	0.05
913	0.05
914	0.05
914	0.05
915	0.05
915	0.05
916	0.05
916	0.05
916	0.05
917	0.049
917	0.049
918	0.048
918	0.048
918	0.047
919	0.046
919	0.046
920	0.045
920	0.045
921	0.044
921	0.044
921	0.044
922	0.044
922	0.044
923	0.044
923	0.044
924	0.044
924	0.045
924	0.045
925	0.046
925	0.046
926	0.047
926	0.047
927	0.047
927	0.047
927	0.047
928	0.047
928	0.047
929	0.047
929	0.047
930	0.048
930	0.048
930	0.048
931	0.049
931	0.049
932	0.049
932	0.05
933	0.05
933	0.051
933	0.051
934	0.051
934	0.051
935	0.051
935	0.051
935	0.051
936	0.051
936	0.051
937	0.051
937	0.051
938	0.05
938	0.05
938	0.049
939	0.049
939	0.048
940	0.047
940	0.047
941	0.047
941	0.046
941	0.047
942	0.047
942	0.047
943	0.047
943	0.047
944	0.047
944	0.047
944	0.047
945	0.047
945	0.046
946	0.047
946	0.047
946	0.047
947	0.047
947	0.047
948	0.048
948	0.048
949	0.048
949	0.049
949	0.049
950	0.049
950	0.049
951	0.049
951	0.048
952	0.048
952	0.047
952	0.046
953	0.046
953	0.045
954	0.044
954	0.044
955	0.043
955	0.043
955	0.042
956	0.043
956	0.043
957	0.043
957	0.043
957	0.044
958	0.044
958	0.045
959	0.045
959	0.046
960	0.046
960	0.047
960	0.047
961	0.047
961	0.047
962	0.047
962	0.047
963	0.047
963	0.047
963	0.048
964	0.048
964	0.048
965	0.049
965	0.049
966	0.05
966	0.051
966	0.051
967	0.052
967	0.052
968	0.053
968	0.053
968	0.052
969	0.052
969	0.052
970	0.051
970	0.051
971	0.05
971	0.05
971	0.05
972	0.049
972	0.049
973	0.049
973	0.049
974	0.049
974	0.049
974	0.049
975	0.049
975	0.05
976	0.05
976	0.05
976	0.05
977	0.05
977	0.05
978	0.05
978	0.049
979	0.049
979	0.049
979	0.049
980	0.048
980	0.048
981	0.048
981	0.048
982	0.048
982	0.048
982	0.048
983	0.048
983	0.048
984	0.048
984	0.047
984	0.047
985	0.047
985	0.047
986	0.046
986	0.046
987	0.046
987	0.045
987	0.045
988	0.045
988	0.045
989	0.044
989	0.044
990	0.043
990	0.043
990	0.043
991	0.043
991	0.043
992	0.042
992	0.042
992	0.041
993	0.041
993	0.04
994	0.04
994	0.04
995	0.039
995	0.039
995	0.038
996	0.038
996	0.038
997	0.038
997	0.038
997	0.039
998	0.039
998	0.04
999	0.04
999	0.041
1000	0.042
1000	0.042
1000	0.042
1001	0.043
1001	0.043
1002	0.042
1002	0.042
1003	0.042
1003	0.041
1003	0.04
1004	0.04
1004	0.039
1005	0.038
1005	0.038
1005	0.037
1006	0.036
1006	0.036
1007	0.036
1007	0.036
1008	0.036
1008	0.036
1008	0.035
1009	0.035
1009	0.035
1010	0.035
1010	0.035
1010	0.036
1011	0.036
1011	0.036
1012	0.036
1012	0.036
1013	0.036
1013	0.036
1013	0.036
1014	0.036
1014	0.036
1015	0.036
1015	0.035
1016	0.035
1016	0.035
1016	0.034
1017	0.034
1017	0.034
1018	0.034
1018	0.033
1018	0.033
1019	0.033
1019	0.034
1020	0.034
1020	0.034
1021	0.034
1021	0.035
1021	0.035
1022	0.036
1022	0.036
1023	0.036
1023	0.037
1023	0.037
1024	0.037
1024	0.037
1025	0.037
1025	0.037
1026	0.037
1026	0.037
1026	0.037
1027	0.037
1027	0.037
1028	0.037
1028	0.037
1028	0.036
1029	0.036
1029	0.036
1030	0.037
1030	0.037
1031	0.037
1031	0.037
1031	0.037
1032	0.037
1032	0.037
1033	0.037
1033	0.037
1033	0.037
1034	0.038
1034	0.038
1035	0.038
1035	0.038
1036	0.038
1036	0.038
1036	0.039
1037	0.039
1037	0.039
1038	0.039
1038	0.039
1039	0.039
1039	0.039
1039	0.039
1040	0.039
1040	0.039
1041	0.04
1041	0.04
1041	0.04
1042	0.04
1042	0.04
1043	0.041
1043	0.041
1044	0.041
1044	0.041
1044	0.041
1045	0.042
1045	0.042
1046	0.042
1046	0.043
1046	0.043
1047	0.044
1047	0.044
1048	0.044
1048	0.045
1049	0.046
1049	0.046
1049	0.047
1050	0.047
1050	0.047
1051	0.047
1051	0.048
1051	0.048
1052	0.048
1052	0.048
1053	0.047
1053	0.047
1053	0.046
1054	0.046
1054	0.046
1055	0.045
1055	0.045
1056	0.044
1056	0.044
1056	0.043
1057	0.042
1057	0.042
1058	0.041
1058	0.04
1058	0.039
1059	0.038
1059	0.038
1060	0.037
1060	0.037
1061	0.037
1061	0.037
1061	0.037
1062	0.037
1062	0.037
1063	0.037
1063	0.036
1063	0.036
1064	0.036
1064	0.036
1065	0.036
1065	0.036
1066	0.036
1066	0.036
1066	0.035
1067	0.035
1067	0.036
1068	0.035
1068	0.035
1068	0.035
1069	0.035
1069	0.035
1070	0.034
1070	0.034
1071	0.033
1071	0.033
1071	0.032
1072	0.031
1072	0.031
1073	0.03
1073	0.029
1073	0.028
1074	0.028
1074	0.028
1075	0.028
1075	0.028
1076	0.028
1076	0.028
1076	0.029
1077	0.029
1077	0.029
1078	0.029
1078	0.03
1078	0.03
1079	0.03
1079	0.03
1080	0.03
1080	0.03
1080	0.03
1081	0.03
1081	0.031
1082	0.031
1082	0.032
1083	0.032
1083	0.032
1083	0.032
1084	0.032
1084	0.033
1085	0.033
1085	0.033
1085	0.033
1086	0.034
1086	0.033
1087	0.032
1087	0.032
1088	0.032
1088	0.032
1088	0.032
1089	0.031
1089	0.03
1090	0.029
1090	0.029
1090	0.028
1091	0.027
1091	0.027
1092	0.027
1092	0.027
1092	0.026
1093	0.026
1093	0.026
1094	0.026
1094	0.026
1095	0.026
1095	0.026
1095	0.026
1096	0.026
1096	0.026
1097	0.025
1097	0.026
1097	0.025
1098	0.025
1098	0.024
1099	0.024
1099	0.023
1100	0.023
1100	0.021
1100	0.021
1101	0.02
1101	0.019
1102	0.018
1102	0.018
1102	0.016
1103	0.016
1103	0.016
1104	0.016
1104	0.015
1104	0.015
1105	0.014
1105	0.013
1106	0.012
1106	0.011
1107	0.011
1107	0.011
1107	0.01
1108	0.009
1108	0.008
1109	0.007
1109	0.007
1109	0.007
1110	0.008
1110	0.011
1111	0.009
1111	0.009
