Data from reversibility-20sec_Absorbance__6847__000000000006847.txt Node

Date: Thu Dec 07 02:15:25 CET 2023
User: Marek
Spectrometer: MAYP115816
Trigger mode: 0
Integration Time (sec): 2.000000E-1
Scans to average: 10
Electric dark correction enabled: true
Nonlinearity correction enabled: true
Boxcar width: 5
XAxis mode: Wavelengths
Number of Pixels in Spectrum: 2068
>>>>>Begin Spectral Data<<<<<
199	-0.109
199	-0.101
200	-0.044
200	0.016
201	0.044
201	0.064
202	0.075
202	0.085
203	0.094
203	0.097
204	0.111
204	0.121
205	0.136
205	0.145
205	0.138
206	0.141
206	0.141
207	0.144
207	0.143
208	0.142
208	0.143
209	0.145
209	0.146
210	0.146
210	0.144
211	0.149
211	0.15
212	0.147
212	0.147
213	0.151
213	0.152
213	0.15
214	0.152
214	0.153
215	0.154
215	0.155
216	0.155
216	0.152
217	0.157
217	0.16
218	0.157
218	0.161
219	0.167
219	0.169
220	0.174
220	0.173
221	0.175
221	0.179
221	0.187
222	0.192
222	0.199
223	0.206
223	0.209
224	0.213
224	0.222
225	0.228
225	0.242
226	0.249
226	0.257
227	0.264
227	0.274
228	0.288
228	0.303
229	0.321
229	0.341
229	0.363
230	0.388
230	0.414
231	0.446
231	0.484
232	0.523
232	0.564
233	0.606
233	0.653
234	0.703
234	0.757
235	0.81
235	0.863
236	0.918
236	0.969
236	1.024
237	1.076
237	1.127
238	1.169
238	1.214
239	1.26
239	1.301
240	1.338
240	1.373
241	1.407
241	1.441
242	1.473
242	1.508
243	1.535
243	1.563
243	1.588
244	1.609
244	1.63
245	1.649
245	1.67
246	1.688
246	1.706
247	1.716
247	1.726
248	1.74
248	1.754
249	1.765
249	1.77
250	1.776
250	1.782
250	1.784
251	1.788
251	1.79
252	1.794
252	1.792
253	1.792
253	1.789
254	1.786
254	1.787
255	1.787
255	1.786
256	1.787
256	1.786
257	1.786
257	1.785
258	1.785
258	1.784
258	1.782
259	1.784
259	1.784
260	1.783
260	1.784
261	1.783
261	1.786
262	1.788
262	1.788
263	1.792
263	1.794
264	1.796
264	1.796
265	1.797
265	1.799
265	1.8
266	1.799
266	1.798
267	1.797
267	1.797
268	1.797
268	1.798
269	1.798
269	1.799
270	1.798
270	1.797
271	1.795
271	1.796
272	1.792
272	1.79
272	1.787
273	1.781
273	1.774
274	1.768
274	1.762
275	1.755
275	1.748
276	1.74
276	1.731
277	1.723
277	1.713
278	1.701
278	1.689
278	1.674
279	1.656
279	1.633
280	1.605
280	1.571
281	1.532
281	1.49
282	1.445
282	1.399
283	1.354
283	1.311
284	1.27
284	1.229
285	1.192
285	1.159
285	1.129
286	1.102
286	1.079
287	1.059
287	1.042
288	1.028
288	1.016
289	1.005
289	0.997
290	0.989
290	0.982
291	0.976
291	0.971
292	0.966
292	0.962
292	0.958
293	0.954
293	0.95
294	0.947
294	0.944
295	0.941
295	0.938
296	0.935
296	0.933
297	0.93
297	0.927
298	0.924
298	0.921
298	0.919
299	0.916
299	0.914
300	0.911
300	0.908
301	0.905
301	0.903
302	0.9
302	0.898
303	0.895
303	0.893
304	0.891
304	0.889
305	0.887
305	0.884
305	0.882
306	0.88
306	0.878
307	0.875
307	0.873
308	0.871
308	0.868
309	0.866
309	0.863
310	0.86
310	0.857
311	0.854
311	0.851
311	0.848
312	0.845
312	0.841
313	0.837
313	0.833
314	0.83
314	0.826
315	0.822
315	0.818
316	0.813
316	0.809
317	0.804
317	0.8
318	0.795
318	0.79
318	0.785
319	0.779
319	0.774
320	0.768
320	0.762
321	0.756
321	0.75
322	0.744
322	0.737
323	0.731
323	0.724
324	0.718
324	0.711
324	0.705
325	0.698
325	0.691
326	0.684
326	0.678
327	0.671
327	0.664
328	0.657
328	0.65
329	0.643
329	0.636
330	0.629
330	0.621
330	0.615
331	0.607
331	0.601
332	0.593
332	0.586
333	0.579
333	0.572
334	0.565
334	0.558
335	0.552
335	0.545
336	0.538
336	0.531
336	0.525
337	0.518
337	0.512
338	0.505
338	0.499
339	0.493
339	0.487
340	0.482
340	0.476
341	0.47
341	0.464
342	0.459
342	0.454
342	0.448
343	0.443
343	0.438
344	0.433
344	0.428
345	0.423
345	0.419
346	0.414
346	0.41
347	0.405
347	0.401
348	0.397
348	0.393
348	0.389
349	0.385
349	0.382
350	0.378
350	0.375
351	0.371
351	0.368
352	0.365
352	0.362
353	0.359
353	0.356
354	0.353
354	0.351
354	0.348
355	0.345
355	0.342
356	0.339
356	0.337
357	0.333
357	0.331
358	0.328
358	0.326
359	0.323
359	0.321
360	0.319
360	0.317
360	0.315
361	0.313
361	0.311
362	0.31
362	0.308
363	0.307
363	0.305
364	0.303
364	0.301
365	0.3
365	0.298
366	0.296
366	0.295
366	0.293
367	0.291
367	0.29
368	0.288
368	0.287
369	0.285
369	0.284
370	0.283
370	0.281
371	0.28
371	0.279
372	0.277
372	0.276
372	0.275
373	0.274
373	0.273
374	0.273
374	0.272
375	0.271
375	0.27
376	0.269
376	0.268
377	0.267
377	0.266
378	0.265
378	0.265
378	0.264
379	0.263
379	0.262
380	0.262
380	0.261
381	0.26
381	0.26
382	0.26
382	0.259
383	0.259
383	0.258
383	0.258
384	0.257
384	0.257
385	0.257
385	0.256
386	0.256
386	0.255
387	0.255
387	0.254
388	0.254
388	0.254
389	0.254
389	0.253
389	0.253
390	0.252
390	0.252
391	0.252
391	0.252
392	0.251
392	0.251
393	0.251
393	0.251
394	0.25
394	0.25
394	0.249
395	0.249
395	0.249
396	0.248
396	0.248
397	0.248
397	0.247
398	0.247
398	0.247
399	0.247
399	0.246
400	0.246
400	0.246
400	0.246
401	0.246
401	0.245
402	0.245
402	0.245
403	0.244
403	0.244
404	0.244
404	0.244
405	0.244
405	0.243
405	0.243
406	0.243
406	0.243
407	0.242
407	0.242
408	0.242
408	0.242
409	0.241
409	0.241
410	0.241
410	0.241
411	0.24
411	0.24
411	0.24
412	0.24
412	0.239
413	0.239
413	0.238
414	0.238
414	0.238
415	0.237
415	0.237
416	0.237
416	0.237
416	0.236
417	0.236
417	0.236
418	0.236
418	0.235
419	0.235
419	0.234
420	0.234
420	0.234
421	0.233
421	0.233
421	0.233
422	0.232
422	0.232
423	0.232
423	0.231
424	0.231
424	0.231
425	0.23
425	0.23
426	0.23
426	0.229
427	0.229
427	0.229
427	0.228
428	0.228
428	0.228
429	0.227
429	0.227
430	0.226
430	0.226
431	0.226
431	0.226
432	0.226
432	0.226
432	0.225
433	0.225
433	0.225
434	0.225
434	0.225
435	0.225
435	0.225
436	0.224
436	0.224
437	0.224
437	0.224
437	0.223
438	0.223
438	0.223
439	0.223
439	0.223
440	0.222
440	0.222
441	0.221
441	0.221
442	0.221
442	0.221
442	0.221
443	0.22
443	0.22
444	0.22
444	0.22
445	0.22
445	0.22
446	0.219
446	0.219
447	0.219
447	0.219
447	0.218
448	0.218
448	0.218
449	0.217
449	0.217
450	0.217
450	0.217
451	0.216
451	0.216
452	0.216
452	0.216
452	0.216
453	0.215
453	0.215
454	0.215
454	0.215
455	0.214
455	0.214
456	0.214
456	0.214
457	0.214
457	0.213
458	0.213
458	0.213
458	0.213
459	0.213
459	0.213
460	0.212
460	0.212
461	0.212
461	0.212
462	0.212
462	0.211
463	0.211
463	0.211
463	0.21
464	0.21
464	0.21
465	0.209
465	0.209
466	0.209
466	0.209
467	0.209
467	0.209
467	0.209
468	0.209
468	0.209
469	0.209
469	0.209
470	0.209
470	0.209
471	0.209
471	0.209
472	0.209
472	0.209
472	0.209
473	0.209
473	0.208
474	0.208
474	0.208
475	0.208
475	0.208
476	0.208
476	0.208
477	0.208
477	0.207
477	0.207
478	0.207
478	0.207
479	0.207
479	0.207
480	0.207
480	0.207
481	0.207
481	0.207
482	0.207
482	0.207
482	0.207
483	0.207
483	0.207
484	0.207
484	0.207
485	0.207
485	0.207
486	0.206
486	0.206
487	0.206
487	0.206
487	0.207
488	0.207
488	0.207
489	0.207
489	0.208
490	0.208
490	0.208
491	0.209
491	0.209
492	0.21
492	0.21
492	0.21
493	0.211
493	0.211
494	0.211
494	0.212
495	0.212
495	0.212
496	0.212
496	0.212
496	0.212
497	0.212
497	0.213
498	0.213
498	0.213
499	0.213
499	0.214
500	0.214
500	0.215
501	0.215
501	0.215
501	0.215
502	0.216
502	0.216
503	0.216
503	0.217
504	0.217
504	0.218
505	0.218
505	0.218
506	0.218
506	0.219
506	0.219
507	0.219
507	0.22
508	0.22
508	0.22
509	0.22
509	0.22
510	0.221
510	0.221
511	0.222
511	0.222
511	0.223
512	0.223
512	0.223
513	0.224
513	0.224
514	0.225
514	0.225
515	0.226
515	0.226
515	0.226
516	0.226
516	0.227
517	0.227
517	0.227
518	0.228
518	0.228
519	0.228
519	0.228
520	0.229
520	0.229
520	0.229
521	0.23
521	0.23
522	0.23
522	0.23
523	0.231
523	0.231
524	0.231
524	0.231
524	0.231
525	0.231
525	0.231
526	0.231
526	0.232
527	0.232
527	0.232
528	0.232
528	0.232
529	0.233
529	0.232
529	0.232
530	0.232
530	0.232
531	0.232
531	0.232
532	0.232
532	0.232
533	0.231
533	0.231
533	0.231
534	0.231
534	0.231
535	0.231
535	0.231
536	0.231
536	0.231
537	0.231
537	0.231
538	0.231
538	0.231
538	0.231
539	0.231
539	0.231
540	0.231
540	0.23
541	0.23
541	0.23
542	0.23
542	0.23
542	0.23
543	0.23
543	0.23
544	0.23
544	0.23
545	0.23
545	0.23
546	0.23
546	0.229
547	0.229
547	0.228
547	0.228
548	0.228
548	0.227
549	0.227
549	0.227
550	0.226
550	0.226
551	0.226
551	0.226
551	0.226
552	0.225
552	0.225
553	0.225
553	0.225
554	0.225
554	0.224
555	0.223
555	0.223
556	0.222
556	0.222
556	0.222
557	0.222
557	0.222
558	0.222
558	0.222
559	0.222
559	0.222
560	0.222
560	0.222
560	0.223
561	0.223
561	0.222
562	0.222
562	0.221
563	0.22
563	0.219
564	0.219
564	0.218
564	0.218
565	0.218
565	0.217
566	0.217
566	0.217
567	0.217
567	0.217
568	0.217
568	0.216
568	0.216
569	0.216
569	0.215
570	0.214
570	0.213
571	0.213
571	0.212
572	0.212
572	0.211
573	0.211
573	0.211
573	0.211
574	0.21
574	0.21
575	0.21
575	0.211
576	0.211
576	0.21
577	0.21
577	0.209
577	0.209
578	0.208
578	0.208
579	0.208
579	0.208
580	0.208
580	0.207
581	0.206
581	0.206
581	0.206
582	0.207
582	0.207
583	0.207
583	0.206
584	0.206
584	0.205
585	0.204
585	0.204
585	0.204
586	0.204
586	0.204
587	0.203
587	0.202
588	0.202
588	0.201
589	0.201
589	0.201
590	0.201
590	0.201
590	0.201
591	0.202
591	0.201
592	0.201
592	0.2
593	0.2
593	0.199
594	0.199
594	0.198
594	0.198
595	0.197
595	0.197
596	0.196
596	0.197
597	0.197
597	0.198
598	0.198
598	0.198
598	0.198
599	0.198
599	0.197
600	0.197
600	0.197
601	0.197
601	0.196
602	0.196
602	0.195
602	0.195
603	0.194
603	0.195
604	0.195
604	0.195
605	0.195
605	0.195
606	0.194
606	0.194
606	0.193
607	0.193
607	0.193
608	0.193
608	0.193
609	0.192
609	0.192
610	0.192
610	0.192
610	0.192
611	0.192
611	0.192
612	0.192
612	0.192
613	0.192
613	0.192
614	0.191
614	0.191
614	0.191
615	0.191
615	0.191
616	0.191
616	0.191
617	0.191
617	0.19
618	0.19
618	0.191
618	0.191
619	0.191
619	0.191
620	0.191
620	0.191
621	0.19
621	0.19
622	0.189
622	0.189
622	0.189
623	0.188
623	0.188
624	0.188
624	0.187
625	0.187
625	0.187
626	0.187
626	0.187
626	0.187
627	0.187
627	0.187
628	0.187
628	0.186
629	0.186
629	0.186
630	0.186
630	0.185
630	0.185
631	0.186
631	0.185
632	0.185
632	0.185
633	0.185
633	0.185
634	0.185
634	0.185
634	0.185
635	0.185
635	0.184
636	0.184
636	0.184
637	0.184
637	0.184
638	0.183
638	0.183
638	0.182
639	0.182
639	0.182
640	0.182
640	0.182
641	0.182
641	0.182
642	0.182
642	0.182
642	0.182
643	0.182
643	0.183
644	0.183
644	0.183
645	0.183
645	0.183
646	0.183
646	0.183
646	0.183
647	0.183
647	0.183
648	0.182
648	0.182
649	0.181
649	0.181
650	0.181
650	0.181
650	0.181
651	0.181
651	0.181
652	0.181
652	0.182
653	0.182
653	0.184
653	0.189
654	0.149
654	0.119
655	0.119
655	0.12
656	0.12
656	0.12
657	0.121
657	0.121
657	0.121
658	0.12
658	0.11
659	0.139
659	0.178
660	0.183
660	0.183
661	0.182
661	0.182
661	0.182
662	0.182
662	0.181
663	0.181
663	0.181
664	0.181
664	0.181
665	0.18
665	0.18
665	0.18
666	0.18
666	0.18
667	0.181
667	0.181
668	0.181
668	0.181
669	0.181
669	0.181
669	0.182
670	0.182
670	0.182
671	0.182
671	0.182
672	0.181
672	0.181
672	0.18
673	0.18
673	0.18
674	0.179
674	0.179
675	0.179
675	0.179
676	0.179
676	0.179
676	0.179
677	0.18
677	0.18
678	0.18
678	0.18
679	0.179
679	0.179
680	0.179
680	0.179
680	0.179
681	0.179
681	0.179
682	0.179
682	0.179
683	0.179
683	0.18
684	0.18
684	0.179
684	0.179
685	0.179
685	0.179
686	0.179
686	0.179
687	0.179
687	0.179
687	0.18
688	0.18
688	0.18
689	0.181
689	0.181
690	0.181
690	0.181
691	0.181
691	0.181
691	0.181
692	0.181
692	0.182
693	0.182
693	0.182
694	0.182
694	0.182
695	0.183
695	0.184
695	0.184
696	0.184
696	0.184
697	0.185
697	0.184
698	0.184
698	0.184
698	0.184
699	0.184
699	0.184
700	0.183
700	0.183
701	0.183
701	0.183
702	0.183
702	0.183
702	0.183
703	0.183
703	0.182
704	0.182
704	0.182
705	0.182
705	0.182
705	0.182
706	0.182
706	0.182
707	0.182
707	0.181
708	0.182
708	0.182
709	0.182
709	0.182
709	0.182
710	0.182
710	0.183
711	0.183
711	0.183
712	0.184
712	0.184
713	0.185
713	0.185
713	0.185
714	0.185
714	0.185
715	0.185
715	0.184
716	0.184
716	0.183
716	0.182
717	0.181
717	0.181
718	0.18
718	0.18
719	0.18
719	0.18
720	0.181
720	0.181
720	0.182
721	0.183
721	0.184
722	0.185
722	0.185
723	0.185
723	0.186
723	0.186
724	0.186
724	0.185
725	0.185
725	0.184
726	0.184
726	0.183
727	0.182
727	0.182
727	0.182
728	0.181
728	0.181
729	0.182
729	0.182
730	0.182
730	0.182
730	0.183
731	0.184
731	0.184
732	0.185
732	0.186
733	0.186
733	0.187
734	0.187
734	0.188
734	0.188
735	0.189
735	0.188
736	0.188
736	0.188
737	0.188
737	0.188
737	0.188
738	0.187
738	0.186
739	0.186
739	0.186
740	0.186
740	0.186
741	0.186
741	0.186
741	0.186
742	0.186
742	0.187
743	0.188
743	0.188
744	0.189
744	0.19
744	0.19
745	0.191
745	0.191
746	0.191
746	0.191
747	0.19
747	0.19
748	0.189
748	0.189
748	0.189
749	0.188
749	0.188
750	0.188
750	0.188
751	0.188
751	0.189
751	0.189
752	0.189
752	0.189
753	0.189
753	0.189
754	0.188
754	0.188
754	0.188
755	0.188
755	0.188
756	0.187
756	0.186
757	0.186
757	0.186
758	0.187
758	0.187
758	0.187
759	0.187
759	0.187
760	0.187
760	0.188
761	0.188
761	0.188
761	0.189
762	0.189
762	0.189
763	0.189
763	0.189
764	0.189
764	0.189
764	0.189
765	0.189
765	0.189
766	0.189
766	0.189
767	0.189
767	0.188
768	0.188
768	0.188
768	0.188
769	0.188
769	0.189
770	0.189
770	0.19
771	0.19
771	0.191
771	0.191
772	0.192
772	0.193
773	0.193
773	0.194
774	0.194
774	0.194
775	0.194
775	0.195
775	0.195
776	0.195
776	0.195
777	0.196
777	0.196
778	0.197
778	0.197
778	0.197
779	0.197
779	0.197
780	0.196
780	0.196
781	0.195
781	0.195
781	0.194
782	0.194
782	0.194
783	0.195
783	0.195
784	0.195
784	0.196
784	0.196
785	0.197
785	0.197
786	0.197
786	0.197
787	0.197
787	0.196
788	0.196
788	0.195
788	0.194
789	0.193
789	0.193
790	0.193
790	0.193
791	0.193
791	0.192
791	0.192
792	0.193
792	0.194
793	0.194
793	0.194
794	0.195
794	0.195
794	0.195
795	0.195
795	0.196
796	0.196
796	0.197
797	0.196
797	0.196
797	0.197
798	0.197
798	0.197
799	0.197
799	0.197
800	0.196
800	0.196
801	0.196
801	0.196
801	0.196
802	0.196
802	0.196
803	0.197
803	0.197
804	0.198
804	0.198
804	0.199
805	0.199
805	0.199
806	0.199
806	0.199
807	0.199
807	0.199
807	0.199
808	0.199
808	0.199
809	0.198
809	0.198
810	0.198
810	0.198
810	0.198
811	0.198
811	0.199
812	0.199
812	0.2
813	0.2
813	0.201
813	0.201
814	0.202
814	0.203
815	0.204
815	0.204
816	0.204
816	0.203
817	0.203
817	0.203
817	0.202
818	0.202
818	0.202
819	0.201
819	0.2
820	0.2
820	0.199
820	0.199
821	0.199
821	0.2
822	0.2
822	0.201
823	0.201
823	0.201
823	0.202
824	0.203
824	0.205
825	0.206
825	0.207
826	0.207
826	0.207
826	0.207
827	0.208
827	0.208
828	0.208
828	0.208
829	0.208
829	0.208
829	0.208
830	0.209
830	0.209
831	0.21
831	0.21
832	0.21
832	0.21
832	0.21
833	0.21
833	0.21
834	0.209
834	0.209
835	0.209
835	0.208
835	0.208
836	0.208
836	0.207
837	0.207
837	0.206
838	0.206
838	0.205
839	0.204
839	0.204
839	0.203
840	0.202
840	0.201
841	0.2
841	0.199
842	0.199
842	0.198
842	0.198
843	0.198
843	0.197
844	0.197
844	0.197
845	0.196
845	0.196
845	0.196
846	0.196
846	0.196
847	0.197
847	0.197
848	0.197
848	0.198
848	0.198
849	0.199
849	0.199
850	0.199
850	0.199
851	0.199
851	0.199
851	0.199
852	0.199
852	0.199
853	0.198
853	0.198
854	0.199
854	0.199
854	0.2
855	0.201
855	0.202
856	0.202
856	0.203
857	0.204
857	0.205
857	0.206
858	0.206
858	0.206
859	0.206
859	0.205
860	0.205
860	0.204
860	0.204
861	0.204
861	0.203
862	0.202
862	0.201
863	0.2
863	0.199
863	0.199
864	0.199
864	0.199
865	0.199
865	0.199
866	0.199
866	0.199
866	0.199
867	0.2
867	0.201
868	0.201
868	0.202
869	0.202
869	0.202
869	0.201
870	0.201
870	0.201
871	0.201
871	0.201
872	0.2
872	0.2
872	0.2
873	0.2
873	0.199
874	0.199
874	0.199
875	0.198
875	0.198
875	0.198
876	0.198
876	0.197
877	0.197
877	0.197
878	0.196
878	0.197
878	0.197
879	0.197
879	0.197
880	0.198
880	0.198
881	0.198
881	0.199
881	0.199
882	0.199
882	0.2
883	0.2
883	0.2
884	0.2
884	0.2
884	0.2
885	0.2
885	0.199
886	0.199
886	0.199
887	0.198
887	0.198
887	0.197
888	0.196
888	0.195
889	0.194
889	0.194
890	0.194
890	0.194
890	0.193
891	0.193
891	0.193
892	0.193
892	0.193
893	0.192
893	0.192
893	0.192
894	0.192
894	0.192
895	0.192
895	0.192
895	0.192
896	0.192
896	0.192
897	0.192
897	0.192
898	0.191
898	0.191
898	0.191
899	0.19
899	0.189
900	0.189
900	0.188
901	0.188
901	0.187
901	0.187
902	0.187
902	0.186
903	0.186
903	0.186
904	0.186
904	0.186
904	0.186
905	0.186
905	0.186
906	0.186
906	0.186
907	0.186
907	0.187
907	0.187
908	0.187
908	0.187
909	0.187
909	0.187
910	0.187
910	0.186
910	0.186
911	0.186
911	0.185
912	0.185
912	0.184
913	0.184
913	0.183
913	0.183
914	0.183
914	0.183
915	0.182
915	0.182
916	0.182
916	0.182
916	0.182
917	0.181
917	0.181
918	0.181
918	0.18
918	0.18
919	0.179
919	0.179
920	0.178
920	0.178
921	0.177
921	0.177
921	0.177
922	0.177
922	0.177
923	0.177
923	0.177
924	0.178
924	0.178
924	0.178
925	0.178
925	0.179
926	0.179
926	0.179
927	0.18
927	0.18
927	0.18
928	0.18
928	0.18
929	0.18
929	0.18
930	0.18
930	0.179
930	0.179
931	0.179
931	0.179
932	0.178
932	0.178
933	0.178
933	0.177
933	0.177
934	0.176
934	0.176
935	0.175
935	0.175
935	0.174
936	0.174
936	0.173
937	0.173
937	0.172
938	0.172
938	0.172
938	0.171
939	0.17
939	0.17
940	0.17
940	0.17
941	0.17
941	0.17
941	0.17
942	0.17
942	0.17
943	0.17
943	0.171
944	0.17
944	0.17
944	0.17
945	0.17
945	0.17
946	0.169
946	0.169
946	0.168
947	0.168
947	0.167
948	0.167
948	0.167
949	0.166
949	0.165
949	0.165
950	0.164
950	0.164
951	0.163
951	0.162
952	0.162
952	0.161
952	0.16
953	0.16
953	0.159
954	0.159
954	0.159
955	0.159
955	0.159
955	0.159
956	0.16
956	0.16
957	0.161
957	0.162
957	0.162
958	0.162
958	0.162
959	0.163
959	0.163
960	0.163
960	0.163
960	0.163
961	0.163
961	0.163
962	0.162
962	0.162
963	0.162
963	0.162
963	0.162
964	0.162
964	0.162
965	0.162
965	0.162
966	0.162
966	0.162
966	0.161
967	0.161
967	0.161
968	0.16
968	0.16
968	0.159
969	0.158
969	0.157
970	0.156
970	0.155
971	0.154
971	0.154
971	0.153
972	0.152
972	0.151
973	0.151
973	0.151
974	0.151
974	0.151
974	0.151
975	0.152
975	0.152
976	0.152
976	0.153
976	0.153
977	0.154
977	0.154
978	0.153
978	0.153
979	0.153
979	0.153
979	0.153
980	0.153
980	0.153
981	0.152
981	0.152
982	0.152
982	0.152
982	0.152
983	0.152
983	0.152
984	0.152
984	0.151
984	0.151
985	0.151
985	0.151
986	0.151
986	0.15
987	0.15
987	0.15
987	0.15
988	0.15
988	0.15
989	0.149
989	0.149
990	0.149
990	0.149
990	0.148
991	0.148
991	0.148
992	0.147
992	0.146
992	0.145
993	0.145
993	0.144
994	0.143
994	0.142
995	0.141
995	0.14
995	0.14
996	0.14
996	0.139
997	0.139
997	0.14
997	0.14
998	0.141
998	0.141
999	0.142
999	0.142
1000	0.143
1000	0.144
1000	0.144
1001	0.145
1001	0.145
1002	0.145
1002	0.145
1003	0.145
1003	0.144
1003	0.144
1004	0.143
1004	0.142
1005	0.141
1005	0.141
1005	0.14
1006	0.139
1006	0.139
1007	0.138
1007	0.137
1008	0.137
1008	0.137
1008	0.137
1009	0.137
1009	0.136
1010	0.136
1010	0.136
1010	0.136
1011	0.135
1011	0.135
1012	0.135
1012	0.134
1013	0.134
1013	0.133
1013	0.132
1014	0.132
1014	0.131
1015	0.131
1015	0.131
1016	0.13
1016	0.13
1016	0.13
1017	0.129
1017	0.129
1018	0.129
1018	0.129
1018	0.128
1019	0.128
1019	0.128
1020	0.128
1020	0.128
1021	0.128
1021	0.128
1021	0.129
1022	0.129
1022	0.129
1023	0.129
1023	0.13
1023	0.13
1024	0.131
1024	0.131
1025	0.131
1025	0.131
1026	0.131
1026	0.131
1026	0.131
1027	0.131
1027	0.131
1028	0.131
1028	0.131
1028	0.131
1029	0.131
1029	0.131
1030	0.131
1030	0.131
1031	0.131
1031	0.131
1031	0.131
1032	0.131
1032	0.131
1033	0.131
1033	0.131
1033	0.131
1034	0.131
1034	0.13
1035	0.13
1035	0.13
1036	0.13
1036	0.129
1036	0.129
1037	0.129
1037	0.128
1038	0.128
1038	0.128
1039	0.127
1039	0.127
1039	0.127
1040	0.126
1040	0.126
1041	0.126
1041	0.125
1041	0.125
1042	0.125
1042	0.124
1043	0.124
1043	0.124
1044	0.124
1044	0.123
1044	0.123
1045	0.122
1045	0.122
1046	0.122
1046	0.121
1046	0.121
1047	0.121
1047	0.12
1048	0.12
1048	0.12
1049	0.12
1049	0.12
1049	0.12
1050	0.12
1050	0.12
1051	0.12
1051	0.119
1051	0.119
1052	0.119
1052	0.119
1053	0.118
1053	0.118
1053	0.117
1054	0.117
1054	0.116
1055	0.116
1055	0.115
1056	0.115
1056	0.114
1056	0.114
1057	0.113
1057	0.112
1058	0.111
1058	0.11
1058	0.109
1059	0.108
1059	0.108
1060	0.107
1060	0.107
1061	0.106
1061	0.106
1061	0.106
1062	0.105
1062	0.105
1063	0.105
1063	0.105
1063	0.104
1064	0.104
1064	0.104
1065	0.104
1065	0.104
1066	0.104
1066	0.103
1066	0.103
1067	0.103
1067	0.103
1068	0.102
1068	0.102
1068	0.102
1069	0.102
1069	0.102
1070	0.101
1070	0.101
1071	0.101
1071	0.101
1071	0.1
1072	0.1
1072	0.1
1073	0.099
1073	0.099
1073	0.099
1074	0.099
1074	0.1
1075	0.1
1075	0.1
1076	0.1
1076	0.101
1076	0.101
1077	0.101
1077	0.1
1078	0.1
1078	0.101
1078	0.1
1079	0.099
1079	0.099
1080	0.098
1080	0.098
1080	0.097
1081	0.097
1081	0.097
1082	0.097
1082	0.098
1083	0.097
1083	0.097
1083	0.097
1084	0.097
1084	0.097
1085	0.097
1085	0.097
1085	0.097
1086	0.098
1086	0.097
1087	0.097
1087	0.097
1088	0.097
1088	0.098
1088	0.098
1089	0.098
1089	0.097
1090	0.096
1090	0.096
1090	0.095
1091	0.094
1091	0.094
1092	0.094
1092	0.094
1092	0.093
1093	0.093
1093	0.093
1094	0.094
1094	0.093
1095	0.092
1095	0.092
1095	0.092
1096	0.092
1096	0.09
1097	0.089
1097	0.089
1097	0.088
1098	0.087
1098	0.086
1099	0.085
1099	0.085
1100	0.084
1100	0.081
1100	0.08
1101	0.079
1101	0.079
1102	0.078
1102	0.076
1102	0.075
1103	0.075
1103	0.075
1104	0.074
1104	0.074
1104	0.074
1105	0.073
1105	0.071
1106	0.069
1106	0.068
1107	0.068
1107	0.067
1107	0.066
1108	0.064
1108	0.063
1109	0.061
1109	0.061
1109	0.06
1110	0.062
1110	0.062
1111	0.061
1111	0.056
