Data from reversibility-20sec_Absorbance__335__000000000000335.txt Node

Date: Tue Dec 05 14:04:45 CET 2023
User: Marek
Spectrometer: MAYP115816
Trigger mode: 0
Integration Time (sec): 2.000000E-1
Scans to average: 10
Electric dark correction enabled: true
Nonlinearity correction enabled: true
Boxcar width: 5
XAxis mode: Wavelengths
Number of Pixels in Spectrum: 2068
>>>>>Begin Spectral Data<<<<<
199	-0.241
199	-0.205
200	-0.138
200	-0.09
201	-0.06
201	-0.044
202	-0.031
202	-0.021
203	-0.014
203	-0.011
204	0.004
204	0.019
205	0.03
205	0.035
205	0.036
206	0.034
206	0.036
207	0.04
207	0.038
208	0.038
208	0.039
209	0.04
209	0.037
210	0.039
210	0.038
211	0.039
211	0.042
212	0.039
212	0.039
213	0.044
213	0.045
213	0.045
214	0.048
214	0.051
215	0.051
215	0.053
216	0.058
216	0.057
217	0.063
217	0.064
218	0.063
218	0.068
219	0.071
219	0.072
220	0.075
220	0.076
221	0.076
221	0.075
221	0.079
222	0.083
222	0.086
223	0.092
223	0.096
224	0.104
224	0.112
225	0.117
225	0.127
226	0.138
226	0.151
227	0.163
227	0.174
228	0.189
228	0.204
229	0.221
229	0.241
229	0.264
230	0.292
230	0.32
231	0.352
231	0.39
232	0.425
232	0.469
233	0.515
233	0.563
234	0.608
234	0.661
235	0.711
235	0.763
236	0.814
236	0.865
236	0.916
237	0.967
237	1.014
238	1.057
238	1.104
239	1.154
239	1.193
240	1.236
240	1.271
241	1.307
241	1.343
242	1.374
242	1.409
243	1.44
243	1.468
243	1.493
244	1.513
244	1.536
245	1.552
245	1.573
246	1.591
246	1.607
247	1.619
247	1.632
248	1.644
248	1.655
249	1.665
249	1.673
250	1.683
250	1.693
250	1.699
251	1.703
251	1.706
252	1.713
252	1.713
253	1.715
253	1.717
254	1.717
254	1.72
255	1.717
255	1.717
256	1.717
256	1.715
257	1.715
257	1.715
258	1.715
258	1.714
258	1.712
259	1.712
259	1.71
260	1.709
260	1.709
261	1.708
261	1.712
262	1.712
262	1.713
263	1.715
263	1.716
264	1.716
264	1.716
265	1.717
265	1.717
265	1.717
266	1.718
266	1.717
267	1.717
267	1.716
268	1.715
268	1.715
269	1.717
269	1.715
270	1.716
270	1.715
271	1.712
271	1.711
272	1.709
272	1.706
272	1.702
273	1.697
273	1.692
274	1.688
274	1.683
275	1.677
275	1.672
276	1.666
276	1.659
277	1.652
277	1.643
278	1.634
278	1.623
278	1.611
279	1.597
279	1.581
280	1.56
280	1.535
281	1.507
281	1.475
282	1.441
282	1.406
283	1.37
283	1.335
284	1.301
284	1.267
285	1.234
285	1.205
285	1.178
286	1.154
286	1.133
287	1.114
287	1.098
288	1.085
288	1.073
289	1.062
289	1.053
290	1.046
290	1.039
291	1.033
291	1.028
292	1.023
292	1.019
292	1.015
293	1.011
293	1.008
294	1.005
294	1.002
295	1
295	0.997
296	0.995
296	0.992
297	0.989
297	0.987
298	0.984
298	0.981
298	0.979
299	0.976
299	0.974
300	0.971
300	0.968
301	0.966
301	0.963
302	0.961
302	0.959
303	0.957
303	0.954
304	0.952
304	0.95
305	0.947
305	0.945
305	0.942
306	0.94
306	0.937
307	0.935
307	0.932
308	0.93
308	0.927
309	0.925
309	0.922
310	0.919
310	0.916
311	0.913
311	0.91
311	0.907
312	0.903
312	0.9
313	0.896
313	0.892
314	0.889
314	0.885
315	0.881
315	0.877
316	0.872
316	0.868
317	0.864
317	0.859
318	0.854
318	0.849
318	0.844
319	0.839
319	0.833
320	0.828
320	0.822
321	0.817
321	0.811
322	0.805
322	0.799
323	0.793
323	0.787
324	0.78
324	0.774
324	0.768
325	0.761
325	0.755
326	0.748
326	0.742
327	0.735
327	0.729
328	0.722
328	0.715
329	0.708
329	0.702
330	0.695
330	0.688
330	0.681
331	0.674
331	0.668
332	0.661
332	0.654
333	0.648
333	0.641
334	0.635
334	0.628
335	0.621
335	0.615
336	0.608
336	0.602
336	0.596
337	0.59
337	0.584
338	0.577
338	0.571
339	0.565
339	0.56
340	0.554
340	0.549
341	0.543
341	0.538
342	0.533
342	0.527
342	0.522
343	0.517
343	0.513
344	0.508
344	0.503
345	0.498
345	0.494
346	0.49
346	0.485
347	0.481
347	0.477
348	0.473
348	0.469
348	0.465
349	0.461
349	0.458
350	0.454
350	0.451
351	0.447
351	0.444
352	0.441
352	0.438
353	0.435
353	0.433
354	0.43
354	0.427
354	0.424
355	0.421
355	0.418
356	0.415
356	0.412
357	0.409
357	0.406
358	0.404
358	0.401
359	0.398
359	0.396
360	0.394
360	0.392
360	0.39
361	0.388
361	0.387
362	0.385
362	0.383
363	0.381
363	0.379
364	0.377
364	0.376
365	0.373
365	0.371
366	0.37
366	0.368
366	0.366
367	0.364
367	0.362
368	0.36
368	0.359
369	0.357
369	0.356
370	0.354
370	0.353
371	0.351
371	0.35
372	0.348
372	0.347
372	0.346
373	0.344
373	0.343
374	0.342
374	0.341
375	0.34
375	0.339
376	0.338
376	0.336
377	0.335
377	0.334
378	0.333
378	0.332
378	0.331
379	0.33
379	0.329
380	0.328
380	0.327
381	0.326
381	0.325
382	0.324
382	0.324
383	0.323
383	0.322
383	0.321
384	0.32
384	0.319
385	0.318
385	0.318
386	0.317
386	0.316
387	0.316
387	0.315
388	0.314
388	0.313
389	0.313
389	0.312
389	0.311
390	0.311
390	0.31
391	0.309
391	0.309
392	0.309
392	0.308
393	0.308
393	0.307
394	0.307
394	0.306
394	0.305
395	0.305
395	0.304
396	0.303
396	0.303
397	0.302
397	0.301
398	0.301
398	0.3
399	0.3
399	0.299
400	0.299
400	0.298
400	0.298
401	0.297
401	0.297
402	0.296
402	0.296
403	0.295
403	0.295
404	0.295
404	0.294
405	0.294
405	0.294
405	0.293
406	0.293
406	0.292
407	0.292
407	0.291
408	0.291
408	0.29
409	0.29
409	0.289
410	0.289
410	0.289
411	0.288
411	0.288
411	0.288
412	0.287
412	0.287
413	0.286
413	0.286
414	0.286
414	0.286
415	0.285
415	0.285
416	0.284
416	0.284
416	0.284
417	0.283
417	0.283
418	0.283
418	0.283
419	0.282
419	0.282
420	0.281
420	0.281
421	0.281
421	0.281
421	0.28
422	0.28
422	0.28
423	0.28
423	0.279
424	0.279
424	0.279
425	0.279
425	0.278
426	0.278
426	0.278
427	0.278
427	0.277
427	0.277
428	0.277
428	0.276
429	0.276
429	0.276
430	0.276
430	0.276
431	0.275
431	0.275
432	0.275
432	0.275
432	0.275
433	0.275
433	0.274
434	0.274
434	0.275
435	0.274
435	0.274
436	0.274
436	0.274
437	0.274
437	0.274
437	0.274
438	0.274
438	0.274
439	0.274
439	0.273
440	0.273
440	0.273
441	0.273
441	0.273
442	0.273
442	0.273
442	0.273
443	0.273
443	0.273
444	0.273
444	0.273
445	0.273
445	0.273
446	0.272
446	0.272
447	0.272
447	0.272
447	0.272
448	0.272
448	0.272
449	0.272
449	0.272
450	0.272
450	0.272
451	0.272
451	0.272
452	0.272
452	0.272
452	0.272
453	0.272
453	0.272
454	0.272
454	0.272
455	0.272
455	0.272
456	0.272
456	0.273
457	0.273
457	0.273
458	0.273
458	0.273
458	0.273
459	0.273
459	0.273
460	0.273
460	0.274
461	0.274
461	0.274
462	0.274
462	0.274
463	0.274
463	0.274
463	0.274
464	0.275
464	0.275
465	0.275
465	0.275
466	0.276
466	0.276
467	0.277
467	0.277
467	0.278
468	0.278
468	0.279
469	0.279
469	0.279
470	0.279
470	0.28
471	0.28
471	0.281
472	0.281
472	0.281
472	0.282
473	0.282
473	0.283
474	0.284
474	0.284
475	0.285
475	0.286
476	0.286
476	0.287
477	0.288
477	0.288
477	0.29
478	0.29
478	0.291
479	0.292
479	0.293
480	0.293
480	0.294
481	0.295
481	0.296
482	0.297
482	0.298
482	0.299
483	0.3
483	0.301
484	0.302
484	0.303
485	0.304
485	0.305
486	0.306
486	0.308
487	0.309
487	0.31
487	0.311
488	0.312
488	0.313
489	0.315
489	0.316
490	0.318
490	0.319
491	0.321
491	0.322
492	0.324
492	0.325
492	0.327
493	0.328
493	0.33
494	0.332
494	0.333
495	0.335
495	0.337
496	0.338
496	0.34
496	0.341
497	0.343
497	0.344
498	0.346
498	0.347
499	0.349
499	0.351
500	0.353
500	0.355
501	0.357
501	0.358
501	0.36
502	0.362
502	0.363
503	0.365
503	0.367
504	0.369
504	0.37
505	0.371
505	0.373
506	0.374
506	0.376
506	0.377
507	0.379
507	0.38
508	0.381
508	0.383
509	0.384
509	0.385
510	0.387
510	0.388
511	0.39
511	0.392
511	0.393
512	0.394
512	0.395
513	0.397
513	0.398
514	0.399
514	0.4
515	0.401
515	0.401
515	0.402
516	0.403
516	0.404
517	0.404
517	0.405
518	0.405
518	0.406
519	0.406
519	0.406
520	0.407
520	0.407
520	0.407
521	0.407
521	0.407
522	0.407
522	0.408
523	0.408
523	0.408
524	0.407
524	0.407
524	0.407
525	0.407
525	0.406
526	0.405
526	0.404
527	0.403
527	0.403
528	0.401
528	0.4
529	0.399
529	0.398
529	0.397
530	0.396
530	0.394
531	0.393
531	0.392
532	0.39
532	0.388
533	0.387
533	0.385
533	0.383
534	0.381
534	0.38
535	0.378
535	0.376
536	0.374
536	0.372
537	0.37
537	0.368
538	0.366
538	0.363
538	0.361
539	0.359
539	0.356
540	0.354
540	0.351
541	0.349
541	0.346
542	0.343
542	0.341
542	0.338
543	0.336
543	0.333
544	0.331
544	0.329
545	0.326
545	0.324
546	0.321
546	0.318
547	0.316
547	0.313
547	0.311
548	0.308
548	0.305
549	0.303
549	0.3
550	0.297
550	0.294
551	0.291
551	0.288
551	0.285
552	0.282
552	0.28
553	0.277
553	0.274
554	0.272
554	0.269
555	0.267
555	0.264
556	0.261
556	0.259
556	0.257
557	0.254
557	0.252
558	0.25
558	0.247
559	0.245
559	0.242
560	0.24
560	0.237
560	0.235
561	0.233
561	0.231
562	0.229
562	0.226
563	0.223
563	0.221
564	0.219
564	0.216
564	0.214
565	0.212
565	0.209
566	0.207
566	0.205
567	0.203
567	0.201
568	0.199
568	0.197
568	0.195
569	0.194
569	0.192
570	0.19
570	0.188
571	0.186
571	0.185
572	0.183
572	0.181
573	0.179
573	0.178
573	0.176
574	0.174
574	0.173
575	0.172
575	0.17
576	0.169
576	0.167
577	0.165
577	0.164
577	0.162
578	0.161
578	0.159
579	0.158
579	0.157
580	0.154
580	0.153
581	0.151
581	0.149
581	0.148
582	0.148
582	0.147
583	0.146
583	0.145
584	0.143
584	0.141
585	0.14
585	0.138
585	0.137
586	0.135
586	0.134
587	0.132
587	0.131
588	0.129
588	0.128
589	0.127
589	0.126
590	0.125
590	0.124
590	0.123
591	0.123
591	0.121
592	0.12
592	0.119
593	0.118
593	0.117
594	0.116
594	0.115
594	0.114
595	0.113
595	0.112
596	0.111
596	0.11
597	0.11
597	0.109
598	0.108
598	0.108
598	0.107
599	0.106
599	0.105
600	0.105
600	0.104
601	0.103
601	0.102
602	0.101
602	0.1
602	0.099
603	0.098
603	0.098
604	0.097
604	0.097
605	0.096
605	0.095
606	0.095
606	0.094
606	0.093
607	0.092
607	0.091
608	0.091
608	0.09
609	0.089
609	0.088
610	0.087
610	0.086
610	0.086
611	0.086
611	0.085
612	0.085
612	0.084
613	0.084
613	0.083
614	0.082
614	0.082
614	0.081
615	0.081
615	0.08
616	0.079
616	0.079
617	0.078
617	0.078
618	0.077
618	0.077
618	0.077
619	0.077
619	0.076
620	0.076
620	0.076
621	0.075
621	0.074
622	0.074
622	0.073
622	0.072
623	0.072
623	0.071
624	0.071
624	0.07
625	0.069
625	0.069
626	0.068
626	0.068
626	0.067
627	0.067
627	0.066
628	0.065
628	0.064
629	0.064
629	0.063
630	0.062
630	0.062
630	0.061
631	0.061
631	0.061
632	0.061
632	0.061
633	0.061
633	0.061
634	0.061
634	0.061
634	0.061
635	0.061
635	0.06
636	0.06
636	0.06
637	0.059
637	0.059
638	0.058
638	0.058
638	0.057
639	0.056
639	0.056
640	0.055
640	0.055
641	0.054
641	0.054
642	0.053
642	0.053
642	0.053
643	0.052
643	0.052
644	0.052
644	0.052
645	0.051
645	0.051
646	0.051
646	0.051
646	0.051
647	0.051
647	0.05
648	0.05
648	0.049
649	0.049
649	0.049
650	0.048
650	0.048
650	0.048
651	0.047
651	0.047
652	0.047
652	0.046
653	0.046
653	0.048
653	0.053
654	0.043
654	0.036
655	0.034
655	0.034
656	0.035
656	0.035
657	0.035
657	0.035
657	0.035
658	0.034
658	0.029
659	0.035
659	0.044
660	0.046
660	0.046
661	0.045
661	0.045
661	0.044
662	0.044
662	0.043
663	0.043
663	0.042
664	0.042
664	0.041
665	0.041
665	0.041
665	0.041
666	0.04
666	0.04
667	0.04
667	0.04
668	0.04
668	0.04
669	0.039
669	0.039
669	0.039
670	0.039
670	0.039
671	0.038
671	0.038
672	0.037
672	0.037
672	0.036
673	0.036
673	0.036
674	0.035
674	0.035
675	0.035
675	0.035
676	0.035
676	0.035
676	0.035
677	0.036
677	0.035
678	0.035
678	0.035
679	0.035
679	0.035
680	0.035
680	0.034
680	0.034
681	0.034
681	0.034
682	0.035
682	0.034
683	0.035
683	0.035
684	0.035
684	0.035
684	0.035
685	0.035
685	0.035
686	0.035
686	0.034
687	0.034
687	0.034
687	0.034
688	0.033
688	0.033
689	0.033
689	0.033
690	0.033
690	0.032
691	0.032
691	0.032
691	0.032
692	0.032
692	0.032
693	0.032
693	0.032
694	0.032
694	0.032
695	0.032
695	0.033
695	0.033
696	0.033
696	0.033
697	0.033
697	0.033
698	0.032
698	0.032
698	0.032
699	0.032
699	0.032
700	0.031
700	0.031
701	0.031
701	0.031
702	0.031
702	0.031
702	0.03
703	0.03
703	0.029
704	0.029
704	0.028
705	0.028
705	0.028
705	0.027
706	0.027
706	0.027
707	0.027
707	0.027
708	0.027
708	0.027
709	0.027
709	0.027
709	0.027
710	0.027
710	0.027
711	0.027
711	0.027
712	0.027
712	0.027
713	0.027
713	0.027
713	0.027
714	0.026
714	0.026
715	0.026
715	0.025
716	0.025
716	0.025
716	0.024
717	0.024
717	0.023
718	0.023
718	0.023
719	0.023
719	0.023
720	0.023
720	0.024
720	0.024
721	0.024
721	0.025
722	0.025
722	0.025
723	0.026
723	0.026
723	0.026
724	0.026
724	0.026
725	0.025
725	0.024
726	0.024
726	0.023
727	0.023
727	0.022
727	0.022
728	0.022
728	0.022
729	0.022
729	0.022
730	0.022
730	0.022
730	0.022
731	0.022
731	0.022
732	0.022
732	0.021
733	0.021
733	0.02
734	0.02
734	0.02
734	0.02
735	0.02
735	0.02
736	0.019
736	0.019
737	0.019
737	0.019
737	0.019
738	0.018
738	0.017
739	0.017
739	0.017
740	0.016
740	0.016
741	0.016
741	0.016
741	0.016
742	0.016
742	0.016
743	0.017
743	0.018
744	0.018
744	0.019
744	0.019
745	0.019
745	0.019
746	0.02
746	0.02
747	0.02
747	0.02
748	0.02
748	0.02
748	0.019
749	0.019
749	0.019
750	0.018
750	0.018
751	0.017
751	0.017
751	0.017
752	0.016
752	0.016
753	0.015
753	0.015
754	0.016
754	0.016
754	0.016
755	0.017
755	0.017
756	0.016
756	0.015
757	0.015
757	0.015
758	0.014
758	0.014
758	0.014
759	0.014
759	0.014
760	0.014
760	0.014
761	0.014
761	0.015
761	0.016
762	0.016
762	0.016
763	0.016
763	0.016
764	0.015
764	0.015
764	0.015
765	0.014
765	0.014
766	0.013
766	0.012
767	0.012
767	0.011
768	0.01
768	0.01
768	0.01
769	0.01
769	0.01
770	0.01
770	0.01
771	0.01
771	0.01
771	0.011
772	0.012
772	0.012
773	0.012
773	0.013
774	0.013
774	0.013
775	0.013
775	0.014
775	0.014
776	0.014
776	0.013
777	0.013
777	0.013
778	0.013
778	0.012
778	0.012
779	0.012
779	0.011
780	0.01
780	0.01
781	0.01
781	0.009
781	0.009
782	0.009
782	0.009
783	0.009
783	0.009
784	0.009
784	0.01
784	0.01
785	0.01
785	0.01
786	0.011
786	0.011
787	0.011
787	0.011
788	0.01
788	0.01
788	0.009
789	0.009
789	0.009
790	0.009
790	0.009
791	0.008
791	0.008
791	0.008
792	0.008
792	0.008
793	0.008
793	0.007
794	0.007
794	0.006
794	0.006
795	0.006
795	0.006
796	0.005
796	0.005
797	0.005
797	0.004
797	0.004
798	0.004
798	0.005
799	0.005
799	0.005
800	0.004
800	0.004
801	0.004
801	0.004
801	0.004
802	0.005
802	0.005
803	0.005
803	0.006
804	0.006
804	0.007
804	0.007
805	0.007
805	0.008
806	0.008
806	0.008
807	0.008
807	0.008
807	0.008
808	0.008
808	0.008
809	0.008
809	0.008
810	0.008
810	0.008
810	0.008
811	0.008
811	0.008
812	0.009
812	0.009
813	0.009
813	0.009
813	0.008
814	0.009
814	0.009
815	0.009
815	0.009
816	0.009
816	0.009
817	0.009
817	0.009
817	0.009
818	0.008
818	0.008
819	0.008
819	0.007
820	0.006
820	0.005
820	0.005
821	0.004
821	0.004
822	0.003
822	0.003
823	0.003
823	0.003
823	0.004
824	0.005
824	0.006
825	0.007
825	0.007
826	0.008
826	0.008
826	0.009
827	0.01
827	0.01
828	0.01
828	0.01
829	0.01
829	0.01
829	0.01
830	0.01
830	0.01
831	0.01
831	0.01
832	0.01
832	0.01
832	0.01
833	0.01
833	0.009
834	0.009
834	0.009
835	0.009
835	0.009
835	0.009
836	0.01
836	0.01
837	0.01
837	0.01
838	0.009
838	0.009
839	0.009
839	0.008
839	0.007
840	0.006
840	0.004
841	0.003
841	0.002
842	0.002
842	0.001
842	0.001
843	0
843	-0
844	-0
844	-0
845	0
845	0
845	0
846	0
846	0.001
847	0.001
847	0.002
848	0.002
848	0.003
848	0.004
849	0.004
849	0.005
850	0.005
850	0.006
851	0.006
851	0.006
851	0.006
852	0.005
852	0.004
853	0.004
853	0.003
854	0.003
854	0.003
854	0.003
855	0.004
855	0.004
856	0.004
856	0.005
857	0.006
857	0.006
857	0.007
858	0.007
858	0.007
859	0.006
859	0.006
860	0.005
860	0.005
860	0.004
861	0.004
861	0.004
862	0.003
862	0.003
863	0.003
863	0.003
863	0.003
864	0.003
864	0.003
865	0.003
865	0.003
866	0.003
866	0.002
866	0.002
867	0.002
867	0.002
868	0.002
868	0.002
869	0.002
869	0.002
869	0.002
870	0.002
870	0.003
871	0.003
871	0.004
872	0.004
872	0.004
872	0.005
873	0.005
873	0.005
874	0.005
874	0.005
875	0.004
875	0.004
875	0.004
876	0.004
876	0.004
877	0.004
877	0.004
878	0.004
878	0.005
878	0.005
879	0.006
879	0.006
880	0.007
880	0.007
881	0.007
881	0.007
881	0.007
882	0.007
882	0.006
883	0.005
883	0.005
884	0.004
884	0.003
884	0.001
885	0
885	-0.001
886	-0.002
886	-0.003
887	-0.003
887	-0.004
887	-0.005
888	-0.005
888	-0.006
889	-0.005
889	-0.005
890	-0.005
890	-0.004
890	-0.004
891	-0.004
891	-0.003
892	-0.002
892	-0.001
893	-0
893	0.001
893	0.001
894	0.001
894	0.002
895	0.002
895	0.002
895	0.002
896	0.002
896	0.001
897	0.001
897	0
898	-0
898	-0
898	-0.001
899	-0.001
899	-0.001
900	-0.001
900	-0.001
901	-0.001
901	-0.001
901	-0.001
902	-0.001
902	-0.001
903	-0.001
903	-0.001
904	-0.001
904	-0.001
904	-0.001
905	-0.001
905	-0.001
906	-0.001
906	-0.001
907	-0.001
907	-0
907	0
908	0.001
908	0.001
909	0.001
909	0.002
910	0.002
910	0.002
910	0.002
911	0.002
911	0.002
912	0.002
912	0.002
913	0.002
913	0.002
913	0.002
914	0.002
914	0.001
915	0.001
915	0.001
916	0
916	0
916	-0
917	-0.001
917	-0.001
918	-0.002
918	-0.003
918	-0.003
919	-0.004
919	-0.004
920	-0.004
920	-0.004
921	-0.004
921	-0.004
921	-0.003
922	-0.003
922	-0.003
923	-0.002
923	-0.002
924	-0.001
924	-0
924	-0
925	0
925	0.001
926	0.001
926	0.001
927	0.001
927	0.001
927	0.001
928	0.001
928	0.001
929	0.001
929	0.001
930	0.001
930	0.001
930	0.001
931	0.001
931	0.001
932	0.002
932	0.002
933	0.002
933	0.002
933	0.002
934	0.002
934	0.003
935	0.003
935	0.003
935	0.003
936	0.003
936	0.003
937	0.003
937	0.003
938	0.003
938	0.002
938	0.002
939	0.002
939	0.002
940	0.002
940	0.002
941	0.003
941	0.003
941	0.004
942	0.004
942	0.004
943	0.005
943	0.005
944	0.005
944	0.005
944	0.005
945	0.005
945	0.004
946	0.004
946	0.003
946	0.003
947	0.003
947	0.002
948	0.002
948	0.001
949	0.001
949	0
949	0
950	-0
950	-0
951	-0
951	-0.001
952	-0.001
952	-0.001
952	-0.001
953	-0.002
953	-0.002
954	-0.002
954	-0.002
955	-0.002
955	-0.002
955	-0.002
956	-0.002
956	-0.001
957	-0.001
957	-0.001
957	-0
958	0
958	0.001
959	0.001
959	0.001
960	0.001
960	0.001
960	0.001
961	0.001
961	0.001
962	0
962	0
963	0
963	0
963	0.001
964	0.001
964	0.001
965	0.002
965	0.003
966	0.003
966	0.004
966	0.005
967	0.006
967	0.006
968	0.007
968	0.007
968	0.007
969	0.007
969	0.007
970	0.007
970	0.006
971	0.006
971	0.006
971	0.005
972	0.005
972	0.004
973	0.004
973	0.004
974	0.004
974	0.003
974	0.003
975	0.004
975	0.003
976	0.003
976	0.004
976	0.004
977	0.003
977	0.003
978	0.003
978	0.003
979	0.003
979	0.002
979	0.002
980	0.002
980	0.001
981	0
981	-0
982	-0
982	-0.001
982	-0.001
983	-0.001
983	-0.001
984	-0.001
984	-0.001
984	-0.001
985	-0.001
985	-0
986	0
986	0
987	0
987	-0
987	-0
988	-0
988	-0.001
989	-0.001
989	-0.002
990	-0.002
990	-0.003
990	-0.003
991	-0.003
991	-0.003
992	-0.004
992	-0.004
992	-0.004
993	-0.005
993	-0.005
994	-0.005
994	-0.005
995	-0.006
995	-0.006
995	-0.006
996	-0.005
996	-0.005
997	-0.004
997	-0.003
997	-0.002
998	-0.002
998	-0.001
999	0.001
999	0.002
1000	0.002
1000	0.003
1000	0.004
1001	0.004
1001	0.004
1002	0.004
1002	0.004
1003	0.004
1003	0.004
1003	0.003
1004	0.003
1004	0.003
1005	0.002
1005	0.002
1005	0.002
1006	0.001
1006	0.001
1007	0
1007	0
1008	-0
1008	-0
1008	-0
1009	-0
1009	-0
1010	-0
1010	-0
1010	-0
1011	-0
1011	-0.001
1012	-0.001
1012	-0.001
1013	-0.001
1013	-0.002
1013	-0.002
1014	-0.002
1014	-0.003
1015	-0.003
1015	-0.004
1016	-0.004
1016	-0.004
1016	-0.004
1017	-0.005
1017	-0.005
1018	-0.005
1018	-0.005
1018	-0.004
1019	-0.004
1019	-0.004
1020	-0.004
1020	-0.004
1021	-0.004
1021	-0.004
1021	-0.003
1022	-0.003
1022	-0.004
1023	-0.004
1023	-0.004
1023	-0.004
1024	-0.005
1024	-0.005
1025	-0.005
1025	-0.006
1026	-0.006
1026	-0.007
1026	-0.007
1027	-0.007
1027	-0.008
1028	-0.008
1028	-0.008
1028	-0.009
1029	-0.009
1029	-0.009
1030	-0.009
1030	-0.009
1031	-0.009
1031	-0.009
1031	-0.009
1032	-0.009
1032	-0.009
1033	-0.008
1033	-0.008
1033	-0.008
1034	-0.008
1034	-0.007
1035	-0.007
1035	-0.007
1036	-0.007
1036	-0.006
1036	-0.006
1037	-0.006
1037	-0.006
1038	-0.005
1038	-0.005
1039	-0.005
1039	-0.005
1039	-0.005
1040	-0.004
1040	-0.004
1041	-0.004
1041	-0.004
1041	-0.004
1042	-0.004
1042	-0.004
1043	-0.004
1043	-0.004
1044	-0.004
1044	-0.004
1044	-0.004
1045	-0.004
1045	-0.004
1046	-0.003
1046	-0.003
1046	-0.002
1047	-0.002
1047	-0.001
1048	-0.001
1048	0
1049	0.001
1049	0.001
1049	0.001
1050	0.001
1050	0.001
1051	0.001
1051	0
1051	-0.001
1052	-0.001
1052	-0.002
1053	-0.003
1053	-0.004
1053	-0.005
1054	-0.005
1054	-0.005
1055	-0.006
1055	-0.006
1056	-0.006
1056	-0.007
1056	-0.007
1057	-0.007
1057	-0.008
1058	-0.008
1058	-0.009
1058	-0.009
1059	-0.01
1059	-0.01
1060	-0.011
1060	-0.011
1061	-0.012
1061	-0.012
1061	-0.012
1062	-0.012
1062	-0.012
1063	-0.012
1063	-0.012
1063	-0.012
1064	-0.013
1064	-0.013
1065	-0.013
1065	-0.012
1066	-0.012
1066	-0.012
1066	-0.012
1067	-0.012
1067	-0.013
1068	-0.013
1068	-0.013
1068	-0.013
1069	-0.013
1069	-0.014
1070	-0.014
1070	-0.015
1071	-0.016
1071	-0.016
1071	-0.017
1072	-0.018
1072	-0.018
1073	-0.019
1073	-0.019
1073	-0.019
1074	-0.018
1074	-0.018
1075	-0.018
1075	-0.017
1076	-0.016
1076	-0.016
1076	-0.015
1077	-0.015
1077	-0.014
1078	-0.014
1078	-0.013
1078	-0.013
1079	-0.013
1079	-0.013
1080	-0.013
1080	-0.013
1080	-0.013
1081	-0.013
1081	-0.013
1082	-0.013
1082	-0.012
1083	-0.013
1083	-0.013
1083	-0.013
1084	-0.014
1084	-0.014
1085	-0.015
1085	-0.015
1085	-0.015
1086	-0.015
1086	-0.016
1087	-0.016
1087	-0.016
1088	-0.017
1088	-0.017
1088	-0.017
1089	-0.017
1089	-0.018
1090	-0.019
1090	-0.019
1090	-0.02
1091	-0.02
1091	-0.02
1092	-0.019
1092	-0.018
1092	-0.019
1093	-0.019
1093	-0.018
1094	-0.018
1094	-0.018
1095	-0.018
1095	-0.018
1095	-0.018
1096	-0.019
1096	-0.02
1097	-0.021
1097	-0.021
1097	-0.021
1098	-0.022
1098	-0.023
1099	-0.024
1099	-0.025
1100	-0.026
1100	-0.027
1100	-0.027
1101	-0.028
1101	-0.029
1102	-0.029
1102	-0.031
1102	-0.031
1103	-0.032
1103	-0.032
1104	-0.032
1104	-0.033
1104	-0.033
1105	-0.034
1105	-0.036
1106	-0.037
1106	-0.039
1107	-0.039
1107	-0.04
1107	-0.04
1108	-0.041
1108	-0.043
1109	-0.044
1109	-0.045
1109	-0.044
1110	-0.043
1110	-0.042
1111	-0.042
1111	-0.044
