Data from reversibility-20sec_Absorbance__6166__000000000006166.txt Node

Date: Wed Dec 06 22:28:26 CET 2023
User: Marek
Spectrometer: MAYP115816
Trigger mode: 0
Integration Time (sec): 2.000000E-1
Scans to average: 10
Electric dark correction enabled: true
Nonlinearity correction enabled: true
Boxcar width: 5
XAxis mode: Wavelengths
Number of Pixels in Spectrum: 2068
>>>>>Begin Spectral Data<<<<<
199	-0.145
199	-0.108
200	-0.04
200	0.01
201	0.033
201	0.054
202	0.063
202	0.071
203	0.078
203	0.082
204	0.097
204	0.111
205	0.123
205	0.128
205	0.127
206	0.129
206	0.13
207	0.131
207	0.13
208	0.13
208	0.129
209	0.133
209	0.132
210	0.129
210	0.13
211	0.131
211	0.131
212	0.128
212	0.131
213	0.138
213	0.14
213	0.141
214	0.141
214	0.14
215	0.142
215	0.142
216	0.143
216	0.143
217	0.146
217	0.148
218	0.143
218	0.147
219	0.151
219	0.15
220	0.153
220	0.152
221	0.153
221	0.156
221	0.16
222	0.165
222	0.169
223	0.176
223	0.179
224	0.184
224	0.194
225	0.203
225	0.212
226	0.223
226	0.236
227	0.246
227	0.256
228	0.269
228	0.284
229	0.297
229	0.319
229	0.34
230	0.366
230	0.398
231	0.431
231	0.466
232	0.502
232	0.544
233	0.587
233	0.634
234	0.687
234	0.74
235	0.794
235	0.846
236	0.895
236	0.944
236	0.998
237	1.053
237	1.106
238	1.155
238	1.203
239	1.25
239	1.29
240	1.328
240	1.363
241	1.4
241	1.433
242	1.462
242	1.492
243	1.519
243	1.54
243	1.563
244	1.584
244	1.606
245	1.623
245	1.647
246	1.665
246	1.683
247	1.698
247	1.71
248	1.727
248	1.742
249	1.752
249	1.758
250	1.766
250	1.774
250	1.776
251	1.779
251	1.78
252	1.783
252	1.782
253	1.779
253	1.775
254	1.773
254	1.774
255	1.772
255	1.771
256	1.771
256	1.769
257	1.768
257	1.765
258	1.764
258	1.765
258	1.766
259	1.768
259	1.768
260	1.767
260	1.769
261	1.769
261	1.773
262	1.775
262	1.777
263	1.782
263	1.782
264	1.784
264	1.786
265	1.787
265	1.788
265	1.788
266	1.788
266	1.789
267	1.788
267	1.789
268	1.789
268	1.789
269	1.79
269	1.789
270	1.788
270	1.787
271	1.786
271	1.785
272	1.781
272	1.779
272	1.775
273	1.769
273	1.762
274	1.756
274	1.748
275	1.74
275	1.734
276	1.726
276	1.719
277	1.712
277	1.701
278	1.689
278	1.676
278	1.661
279	1.644
279	1.622
280	1.595
280	1.562
281	1.523
281	1.479
282	1.434
282	1.39
283	1.346
283	1.303
284	1.262
284	1.223
285	1.186
285	1.153
285	1.123
286	1.098
286	1.076
287	1.056
287	1.039
288	1.025
288	1.013
289	1.002
289	0.994
290	0.986
290	0.98
291	0.974
291	0.969
292	0.964
292	0.96
292	0.957
293	0.953
293	0.95
294	0.947
294	0.943
295	0.94
295	0.938
296	0.935
296	0.932
297	0.929
297	0.926
298	0.923
298	0.92
298	0.917
299	0.915
299	0.913
300	0.91
300	0.907
301	0.905
301	0.902
302	0.9
302	0.898
303	0.896
303	0.894
304	0.892
304	0.889
305	0.887
305	0.885
305	0.883
306	0.881
306	0.879
307	0.876
307	0.874
308	0.871
308	0.869
309	0.866
309	0.863
310	0.86
310	0.857
311	0.854
311	0.851
311	0.848
312	0.845
312	0.842
313	0.838
313	0.834
314	0.831
314	0.827
315	0.823
315	0.819
316	0.815
316	0.81
317	0.806
317	0.801
318	0.796
318	0.791
318	0.786
319	0.781
319	0.776
320	0.77
320	0.764
321	0.758
321	0.752
322	0.746
322	0.74
323	0.734
323	0.727
324	0.721
324	0.714
324	0.708
325	0.701
325	0.694
326	0.687
326	0.68
327	0.673
327	0.667
328	0.66
328	0.653
329	0.646
329	0.639
330	0.632
330	0.625
330	0.618
331	0.611
331	0.604
332	0.597
332	0.59
333	0.583
333	0.576
334	0.569
334	0.562
335	0.556
335	0.549
336	0.542
336	0.536
336	0.529
337	0.523
337	0.517
338	0.51
338	0.504
339	0.498
339	0.492
340	0.487
340	0.481
341	0.476
341	0.47
342	0.465
342	0.459
342	0.454
343	0.449
343	0.443
344	0.438
344	0.434
345	0.429
345	0.424
346	0.42
346	0.415
347	0.411
347	0.407
348	0.403
348	0.399
348	0.395
349	0.392
349	0.388
350	0.384
350	0.381
351	0.377
351	0.374
352	0.371
352	0.368
353	0.365
353	0.362
354	0.359
354	0.356
354	0.354
355	0.351
355	0.348
356	0.345
356	0.343
357	0.34
357	0.337
358	0.334
358	0.332
359	0.329
359	0.327
360	0.326
360	0.323
360	0.322
361	0.32
361	0.318
362	0.317
362	0.315
363	0.313
363	0.312
364	0.31
364	0.308
365	0.306
365	0.304
366	0.303
366	0.301
366	0.299
367	0.298
367	0.296
368	0.295
368	0.293
369	0.292
369	0.29
370	0.289
370	0.288
371	0.286
371	0.285
372	0.284
372	0.283
372	0.282
373	0.281
373	0.28
374	0.279
374	0.278
375	0.277
375	0.276
376	0.276
376	0.275
377	0.274
377	0.273
378	0.272
378	0.272
378	0.271
379	0.27
379	0.269
380	0.269
380	0.268
381	0.267
381	0.267
382	0.266
382	0.266
383	0.265
383	0.265
383	0.264
384	0.264
384	0.263
385	0.263
385	0.263
386	0.262
386	0.262
387	0.261
387	0.261
388	0.261
388	0.26
389	0.26
389	0.26
389	0.259
390	0.259
390	0.258
391	0.258
391	0.258
392	0.258
392	0.257
393	0.257
393	0.257
394	0.256
394	0.256
394	0.256
395	0.255
395	0.255
396	0.255
396	0.254
397	0.254
397	0.253
398	0.253
398	0.253
399	0.253
399	0.252
400	0.252
400	0.252
400	0.252
401	0.252
401	0.251
402	0.251
402	0.251
403	0.251
403	0.25
404	0.25
404	0.25
405	0.25
405	0.25
405	0.249
406	0.249
406	0.249
407	0.248
407	0.248
408	0.248
408	0.247
409	0.247
409	0.247
410	0.246
410	0.246
411	0.246
411	0.246
411	0.245
412	0.245
412	0.245
413	0.245
413	0.245
414	0.245
414	0.244
415	0.244
415	0.244
416	0.243
416	0.243
416	0.243
417	0.242
417	0.242
418	0.242
418	0.241
419	0.241
419	0.241
420	0.24
420	0.24
421	0.24
421	0.239
421	0.239
422	0.238
422	0.238
423	0.238
423	0.237
424	0.237
424	0.237
425	0.236
425	0.236
426	0.236
426	0.235
427	0.235
427	0.235
427	0.234
428	0.234
428	0.234
429	0.234
429	0.233
430	0.233
430	0.233
431	0.233
431	0.233
432	0.232
432	0.232
432	0.232
433	0.232
433	0.232
434	0.232
434	0.231
435	0.231
435	0.231
436	0.231
436	0.231
437	0.231
437	0.23
437	0.23
438	0.23
438	0.229
439	0.229
439	0.229
440	0.229
440	0.228
441	0.228
441	0.228
442	0.228
442	0.228
442	0.227
443	0.227
443	0.227
444	0.227
444	0.227
445	0.226
445	0.226
446	0.226
446	0.226
447	0.225
447	0.225
447	0.225
448	0.225
448	0.224
449	0.224
449	0.224
450	0.224
450	0.223
451	0.223
451	0.223
452	0.223
452	0.223
452	0.223
453	0.222
453	0.222
454	0.222
454	0.222
455	0.222
455	0.221
456	0.221
456	0.221
457	0.221
457	0.221
458	0.22
458	0.22
458	0.22
459	0.22
459	0.22
460	0.219
460	0.219
461	0.219
461	0.219
462	0.219
462	0.218
463	0.218
463	0.218
463	0.217
464	0.217
464	0.216
465	0.216
465	0.216
466	0.216
466	0.216
467	0.216
467	0.215
467	0.216
468	0.215
468	0.215
469	0.215
469	0.216
470	0.216
470	0.216
471	0.216
471	0.216
472	0.216
472	0.216
472	0.216
473	0.216
473	0.216
474	0.215
474	0.215
475	0.215
475	0.214
476	0.214
476	0.214
477	0.214
477	0.214
477	0.215
478	0.214
478	0.215
479	0.215
479	0.215
480	0.215
480	0.215
481	0.215
481	0.215
482	0.214
482	0.215
482	0.214
483	0.215
483	0.215
484	0.215
484	0.215
485	0.215
485	0.215
486	0.215
486	0.215
487	0.215
487	0.215
487	0.215
488	0.215
488	0.215
489	0.215
489	0.216
490	0.217
490	0.217
491	0.217
491	0.218
492	0.218
492	0.218
492	0.219
493	0.219
493	0.219
494	0.22
494	0.22
495	0.22
495	0.22
496	0.22
496	0.221
496	0.221
497	0.221
497	0.221
498	0.221
498	0.222
499	0.222
499	0.222
500	0.223
500	0.223
501	0.224
501	0.224
501	0.224
502	0.225
502	0.225
503	0.226
503	0.226
504	0.226
504	0.227
505	0.227
505	0.228
506	0.228
506	0.229
506	0.229
507	0.229
507	0.229
508	0.23
508	0.23
509	0.231
509	0.231
510	0.231
510	0.232
511	0.232
511	0.233
511	0.233
512	0.234
512	0.234
513	0.234
513	0.235
514	0.235
514	0.236
515	0.236
515	0.236
515	0.236
516	0.237
516	0.237
517	0.238
517	0.238
518	0.239
518	0.239
519	0.239
519	0.239
520	0.239
520	0.24
520	0.24
521	0.24
521	0.24
522	0.24
522	0.24
523	0.241
523	0.241
524	0.241
524	0.241
524	0.242
525	0.242
525	0.242
526	0.242
526	0.242
527	0.242
527	0.242
528	0.242
528	0.242
529	0.242
529	0.243
529	0.243
530	0.242
530	0.243
531	0.243
531	0.243
532	0.242
532	0.242
533	0.242
533	0.242
533	0.242
534	0.242
534	0.242
535	0.242
535	0.242
536	0.242
536	0.242
537	0.242
537	0.242
538	0.242
538	0.242
538	0.241
539	0.241
539	0.241
540	0.241
540	0.241
541	0.24
541	0.24
542	0.24
542	0.24
542	0.24
543	0.24
543	0.239
544	0.239
544	0.239
545	0.239
545	0.239
546	0.239
546	0.239
547	0.238
547	0.238
547	0.237
548	0.237
548	0.237
549	0.237
549	0.236
550	0.236
550	0.236
551	0.235
551	0.235
551	0.235
552	0.234
552	0.234
553	0.234
553	0.233
554	0.233
554	0.232
555	0.231
555	0.231
556	0.23
556	0.23
556	0.23
557	0.23
557	0.23
558	0.23
558	0.23
559	0.23
559	0.23
560	0.23
560	0.23
560	0.23
561	0.23
561	0.23
562	0.229
562	0.228
563	0.227
563	0.227
564	0.226
564	0.226
564	0.226
565	0.225
565	0.225
566	0.225
566	0.224
567	0.225
567	0.224
568	0.224
568	0.224
568	0.224
569	0.224
569	0.223
570	0.222
570	0.221
571	0.221
571	0.22
572	0.22
572	0.219
573	0.219
573	0.218
573	0.218
574	0.217
574	0.217
575	0.217
575	0.218
576	0.218
576	0.217
577	0.216
577	0.216
577	0.216
578	0.215
578	0.215
579	0.215
579	0.215
580	0.214
580	0.213
581	0.213
581	0.212
581	0.213
582	0.213
582	0.213
583	0.213
583	0.213
584	0.212
584	0.211
585	0.211
585	0.211
585	0.211
586	0.21
586	0.21
587	0.209
587	0.208
588	0.208
588	0.207
589	0.207
589	0.207
590	0.207
590	0.207
590	0.207
591	0.208
591	0.207
592	0.207
592	0.206
593	0.206
593	0.206
594	0.206
594	0.205
594	0.204
595	0.204
595	0.204
596	0.203
596	0.203
597	0.204
597	0.205
598	0.204
598	0.204
598	0.204
599	0.204
599	0.203
600	0.203
600	0.202
601	0.202
601	0.202
602	0.201
602	0.2
602	0.2
603	0.2
603	0.2
604	0.2
604	0.2
605	0.2
605	0.2
606	0.2
606	0.2
606	0.2
607	0.199
607	0.199
608	0.199
608	0.199
609	0.198
609	0.198
610	0.198
610	0.197
610	0.197
611	0.197
611	0.197
612	0.197
612	0.197
613	0.197
613	0.196
614	0.196
614	0.196
614	0.196
615	0.196
615	0.196
616	0.196
616	0.196
617	0.196
617	0.196
618	0.195
618	0.196
618	0.196
619	0.196
619	0.196
620	0.197
620	0.197
621	0.196
621	0.196
622	0.195
622	0.195
622	0.194
623	0.193
623	0.193
624	0.193
624	0.192
625	0.191
625	0.191
626	0.19
626	0.19
626	0.19
627	0.19
627	0.19
628	0.19
628	0.19
629	0.19
629	0.189
630	0.189
630	0.189
630	0.189
631	0.189
631	0.189
632	0.189
632	0.189
633	0.189
633	0.189
634	0.189
634	0.189
634	0.189
635	0.189
635	0.189
636	0.189
636	0.189
637	0.189
637	0.189
638	0.188
638	0.188
638	0.188
639	0.187
639	0.187
640	0.187
640	0.187
641	0.187
641	0.187
642	0.186
642	0.186
642	0.187
643	0.187
643	0.187
644	0.187
644	0.187
645	0.187
645	0.187
646	0.187
646	0.187
646	0.187
647	0.187
647	0.186
648	0.185
648	0.185
649	0.185
649	0.184
650	0.184
650	0.184
650	0.184
651	0.184
651	0.185
652	0.185
652	0.185
653	0.186
653	0.188
653	0.194
654	0.152
654	0.122
655	0.122
655	0.123
656	0.123
656	0.123
657	0.123
657	0.124
657	0.124
658	0.123
658	0.113
659	0.142
659	0.183
660	0.188
660	0.188
661	0.187
661	0.187
661	0.187
662	0.186
662	0.186
663	0.185
663	0.185
664	0.185
664	0.184
665	0.184
665	0.184
665	0.184
666	0.184
666	0.184
667	0.184
667	0.185
668	0.185
668	0.185
669	0.186
669	0.186
669	0.187
670	0.187
670	0.187
671	0.188
671	0.188
672	0.188
672	0.187
672	0.186
673	0.186
673	0.186
674	0.186
674	0.185
675	0.184
675	0.184
676	0.184
676	0.184
676	0.184
677	0.184
677	0.184
678	0.184
678	0.183
679	0.183
679	0.184
680	0.184
680	0.184
680	0.184
681	0.184
681	0.185
682	0.185
682	0.185
683	0.186
683	0.186
684	0.186
684	0.186
684	0.186
685	0.186
685	0.186
686	0.186
686	0.185
687	0.185
687	0.185
687	0.185
688	0.185
688	0.185
689	0.185
689	0.186
690	0.186
690	0.185
691	0.185
691	0.186
691	0.186
692	0.186
692	0.186
693	0.186
693	0.187
694	0.186
694	0.186
695	0.187
695	0.188
695	0.188
696	0.188
696	0.188
697	0.188
697	0.187
698	0.187
698	0.186
698	0.187
699	0.187
699	0.186
700	0.186
700	0.186
701	0.186
701	0.186
702	0.187
702	0.187
702	0.187
703	0.188
703	0.188
704	0.188
704	0.188
705	0.189
705	0.188
705	0.188
706	0.188
706	0.188
707	0.188
707	0.188
708	0.188
708	0.188
709	0.188
709	0.188
709	0.188
710	0.188
710	0.189
711	0.189
711	0.189
712	0.189
712	0.189
713	0.19
713	0.19
713	0.19
714	0.19
714	0.19
715	0.189
715	0.189
716	0.189
716	0.189
716	0.188
717	0.187
717	0.187
718	0.186
718	0.186
719	0.187
719	0.187
720	0.187
720	0.188
720	0.188
721	0.188
721	0.189
722	0.19
722	0.19
723	0.191
723	0.192
723	0.192
724	0.192
724	0.192
725	0.191
725	0.19
726	0.19
726	0.19
727	0.189
727	0.189
727	0.189
728	0.188
728	0.188
729	0.188
729	0.188
730	0.189
730	0.189
730	0.19
731	0.19
731	0.191
732	0.192
732	0.192
733	0.192
733	0.193
734	0.193
734	0.194
734	0.194
735	0.194
735	0.194
736	0.194
736	0.194
737	0.193
737	0.194
737	0.193
738	0.193
738	0.192
739	0.192
739	0.191
740	0.191
740	0.191
741	0.191
741	0.191
741	0.19
742	0.19
742	0.191
743	0.192
743	0.193
744	0.193
744	0.194
744	0.195
745	0.195
745	0.196
746	0.196
746	0.196
747	0.197
747	0.197
748	0.196
748	0.196
748	0.196
749	0.196
749	0.196
750	0.196
750	0.195
751	0.195
751	0.195
751	0.195
752	0.195
752	0.194
753	0.194
753	0.194
754	0.193
754	0.193
754	0.193
755	0.193
755	0.193
756	0.193
756	0.192
757	0.191
757	0.192
758	0.192
758	0.192
758	0.192
759	0.193
759	0.193
760	0.193
760	0.193
761	0.194
761	0.194
761	0.195
762	0.195
762	0.195
763	0.195
763	0.195
764	0.194
764	0.194
764	0.194
765	0.194
765	0.194
766	0.194
766	0.194
767	0.193
767	0.192
768	0.192
768	0.192
768	0.192
769	0.193
769	0.193
770	0.193
770	0.194
771	0.195
771	0.195
771	0.196
772	0.197
772	0.198
773	0.199
773	0.199
774	0.2
774	0.2
775	0.2
775	0.2
775	0.201
776	0.201
776	0.201
777	0.202
777	0.202
778	0.202
778	0.201
778	0.202
779	0.202
779	0.202
780	0.201
780	0.2
781	0.2
781	0.2
781	0.2
782	0.2
782	0.2
783	0.2
783	0.2
784	0.2
784	0.201
784	0.202
785	0.202
785	0.203
786	0.203
786	0.203
787	0.203
787	0.203
788	0.203
788	0.202
788	0.201
789	0.2
789	0.2
790	0.2
790	0.2
791	0.199
791	0.199
791	0.199
792	0.2
792	0.2
793	0.2
793	0.201
794	0.201
794	0.201
794	0.201
795	0.201
795	0.202
796	0.202
796	0.202
797	0.202
797	0.202
797	0.203
798	0.203
798	0.203
799	0.203
799	0.203
800	0.203
800	0.202
801	0.202
801	0.202
801	0.202
802	0.202
802	0.203
803	0.203
803	0.203
804	0.203
804	0.204
804	0.204
805	0.204
805	0.204
806	0.204
806	0.204
807	0.204
807	0.203
807	0.203
808	0.203
808	0.203
809	0.203
809	0.203
810	0.203
810	0.204
810	0.204
811	0.204
811	0.205
812	0.206
812	0.206
813	0.207
813	0.207
813	0.208
814	0.208
814	0.209
815	0.209
815	0.21
816	0.21
816	0.209
817	0.209
817	0.209
817	0.208
818	0.208
818	0.208
819	0.207
819	0.207
820	0.206
820	0.205
820	0.205
821	0.205
821	0.205
822	0.206
822	0.206
823	0.207
823	0.207
823	0.208
824	0.209
824	0.21
825	0.211
825	0.211
826	0.212
826	0.212
826	0.212
827	0.212
827	0.212
828	0.213
828	0.213
829	0.213
829	0.213
829	0.213
830	0.213
830	0.214
831	0.215
831	0.216
832	0.216
832	0.216
832	0.216
833	0.216
833	0.215
834	0.215
834	0.214
835	0.214
835	0.213
835	0.213
836	0.213
836	0.212
837	0.212
837	0.212
838	0.212
838	0.211
839	0.211
839	0.21
839	0.209
840	0.209
840	0.208
841	0.207
841	0.206
842	0.205
842	0.204
842	0.203
843	0.203
843	0.202
844	0.202
844	0.201
845	0.201
845	0.201
845	0.201
846	0.201
846	0.201
847	0.201
847	0.202
848	0.202
848	0.203
848	0.204
849	0.204
849	0.205
850	0.206
850	0.206
851	0.207
851	0.207
851	0.207
852	0.206
852	0.206
853	0.206
853	0.205
854	0.205
854	0.205
854	0.206
855	0.206
855	0.206
856	0.207
856	0.208
857	0.209
857	0.21
857	0.21
858	0.211
858	0.211
859	0.21
859	0.21
860	0.21
860	0.209
860	0.208
861	0.207
861	0.206
862	0.205
862	0.204
863	0.203
863	0.203
863	0.202
864	0.202
864	0.202
865	0.202
865	0.203
866	0.203
866	0.203
866	0.203
867	0.204
867	0.205
868	0.205
868	0.206
869	0.206
869	0.206
869	0.205
870	0.205
870	0.205
871	0.205
871	0.205
872	0.205
872	0.205
872	0.205
873	0.204
873	0.204
874	0.203
874	0.203
875	0.203
875	0.202
875	0.202
876	0.202
876	0.201
877	0.201
877	0.201
878	0.201
878	0.201
878	0.202
879	0.202
879	0.202
880	0.203
880	0.203
881	0.203
881	0.203
881	0.204
882	0.204
882	0.204
883	0.204
883	0.204
884	0.204
884	0.204
884	0.204
885	0.204
885	0.203
886	0.203
886	0.202
887	0.201
887	0.201
887	0.2
888	0.199
888	0.198
889	0.198
889	0.197
890	0.197
890	0.197
890	0.197
891	0.196
891	0.196
892	0.196
892	0.196
893	0.196
893	0.196
893	0.196
894	0.196
894	0.196
895	0.196
895	0.196
895	0.196
896	0.196
896	0.197
897	0.196
897	0.196
898	0.196
898	0.195
898	0.195
899	0.194
899	0.194
900	0.193
900	0.192
901	0.191
901	0.191
901	0.19
902	0.19
902	0.189
903	0.189
903	0.188
904	0.188
904	0.188
904	0.188
905	0.187
905	0.187
906	0.187
906	0.187
907	0.188
907	0.188
907	0.188
908	0.188
908	0.188
909	0.188
909	0.188
910	0.188
910	0.188
910	0.187
911	0.187
911	0.187
912	0.187
912	0.186
913	0.186
913	0.186
913	0.186
914	0.186
914	0.186
915	0.186
915	0.186
916	0.186
916	0.186
916	0.186
917	0.186
917	0.185
918	0.184
918	0.184
918	0.183
919	0.182
919	0.182
920	0.181
920	0.18
921	0.18
921	0.179
921	0.179
922	0.179
922	0.179
923	0.179
923	0.179
924	0.18
924	0.18
924	0.18
925	0.181
925	0.182
926	0.182
926	0.183
927	0.183
927	0.184
927	0.184
928	0.184
928	0.184
929	0.184
929	0.184
930	0.184
930	0.183
930	0.183
931	0.182
931	0.181
932	0.18
932	0.18
933	0.179
933	0.178
933	0.178
934	0.177
934	0.177
935	0.176
935	0.176
935	0.176
936	0.175
936	0.175
937	0.175
937	0.174
938	0.174
938	0.174
938	0.173
939	0.173
939	0.172
940	0.172
940	0.172
941	0.172
941	0.171
941	0.172
942	0.172
942	0.171
943	0.171
943	0.171
944	0.171
944	0.171
944	0.171
945	0.171
945	0.172
946	0.172
946	0.171
946	0.172
947	0.172
947	0.172
948	0.172
948	0.171
949	0.171
949	0.17
949	0.17
950	0.169
950	0.169
951	0.168
951	0.168
952	0.167
952	0.167
952	0.166
953	0.166
953	0.165
954	0.165
954	0.165
955	0.165
955	0.164
955	0.164
956	0.164
956	0.165
957	0.165
957	0.164
957	0.164
958	0.164
958	0.163
959	0.163
959	0.163
960	0.162
960	0.162
960	0.161
961	0.161
961	0.161
962	0.161
962	0.161
963	0.161
963	0.161
963	0.161
964	0.161
964	0.162
965	0.162
965	0.162
966	0.162
966	0.161
966	0.161
967	0.161
967	0.16
968	0.16
968	0.159
968	0.158
969	0.158
969	0.157
970	0.156
970	0.155
971	0.155
971	0.154
971	0.154
972	0.153
972	0.153
973	0.152
973	0.152
974	0.152
974	0.152
974	0.152
975	0.152
975	0.153
976	0.153
976	0.154
976	0.154
977	0.154
977	0.154
978	0.154
978	0.154
979	0.154
979	0.154
979	0.153
980	0.153
980	0.152
981	0.152
981	0.151
982	0.151
982	0.151
982	0.151
983	0.151
983	0.15
984	0.15
984	0.15
984	0.15
985	0.15
985	0.15
986	0.15
986	0.15
987	0.15
987	0.149
987	0.149
988	0.149
988	0.148
989	0.148
989	0.148
990	0.147
990	0.147
990	0.146
991	0.146
991	0.145
992	0.144
992	0.143
992	0.142
993	0.141
993	0.14
994	0.139
994	0.137
995	0.136
995	0.136
995	0.135
996	0.135
996	0.135
997	0.135
997	0.136
997	0.136
998	0.137
998	0.137
999	0.138
999	0.139
1000	0.14
1000	0.14
1000	0.141
1001	0.141
1001	0.141
1002	0.141
1002	0.141
1003	0.14
1003	0.14
1003	0.139
1004	0.138
1004	0.137
1005	0.136
1005	0.136
1005	0.135
1006	0.134
1006	0.133
1007	0.133
1007	0.132
1008	0.132
1008	0.132
1008	0.132
1009	0.132
1009	0.133
1010	0.133
1010	0.133
1010	0.133
1011	0.133
1011	0.133
1012	0.133
1012	0.133
1013	0.133
1013	0.133
1013	0.132
1014	0.131
1014	0.131
1015	0.131
1015	0.13
1016	0.13
1016	0.129
1016	0.129
1017	0.129
1017	0.128
1018	0.128
1018	0.127
1018	0.127
1019	0.127
1019	0.126
1020	0.126
1020	0.126
1021	0.126
1021	0.126
1021	0.126
1022	0.126
1022	0.127
1023	0.127
1023	0.127
1023	0.128
1024	0.128
1024	0.129
1025	0.129
1025	0.129
1026	0.129
1026	0.129
1026	0.129
1027	0.129
1027	0.129
1028	0.129
1028	0.129
1028	0.129
1029	0.129
1029	0.13
1030	0.13
1030	0.13
1031	0.13
1031	0.13
1031	0.13
1032	0.13
1032	0.131
1033	0.13
1033	0.13
1033	0.13
1034	0.13
1034	0.13
1035	0.13
1035	0.129
1036	0.129
1036	0.129
1036	0.129
1037	0.129
1037	0.128
1038	0.128
1038	0.127
1039	0.127
1039	0.127
1039	0.126
1040	0.126
1040	0.126
1041	0.125
1041	0.125
1041	0.125
1042	0.125
1042	0.124
1043	0.124
1043	0.124
1044	0.124
1044	0.123
1044	0.123
1045	0.123
1045	0.122
1046	0.122
1046	0.122
1046	0.122
1047	0.122
1047	0.122
1048	0.122
1048	0.122
1049	0.122
1049	0.122
1049	0.122
1050	0.122
1050	0.122
1051	0.121
1051	0.121
1051	0.12
1052	0.12
1052	0.119
1053	0.118
1053	0.117
1053	0.117
1054	0.116
1054	0.115
1055	0.115
1055	0.114
1056	0.114
1056	0.113
1056	0.112
1057	0.111
1057	0.111
1058	0.11
1058	0.109
1058	0.108
1059	0.108
1059	0.107
1060	0.106
1060	0.106
1061	0.105
1061	0.105
1061	0.105
1062	0.104
1062	0.104
1063	0.104
1063	0.103
1063	0.103
1064	0.102
1064	0.102
1065	0.102
1065	0.102
1066	0.102
1066	0.102
1066	0.102
1067	0.101
1067	0.101
1068	0.101
1068	0.101
1068	0.1
1069	0.1
1069	0.099
1070	0.098
1070	0.098
1071	0.097
1071	0.097
1071	0.097
1072	0.096
1072	0.096
1073	0.095
1073	0.095
1073	0.094
1074	0.095
1074	0.095
1075	0.095
1075	0.096
1076	0.096
1076	0.097
1076	0.097
1077	0.097
1077	0.097
1078	0.096
1078	0.096
1078	0.096
1079	0.096
1079	0.096
1080	0.095
1080	0.094
1080	0.094
1081	0.094
1081	0.093
1082	0.093
1082	0.094
1083	0.093
1083	0.093
1083	0.093
1084	0.093
1084	0.093
1085	0.093
1085	0.093
1085	0.093
1086	0.094
1086	0.093
1087	0.093
1087	0.093
1088	0.092
1088	0.092
1088	0.092
1089	0.091
1089	0.09
1090	0.089
1090	0.088
1090	0.087
1091	0.087
1091	0.086
1092	0.087
1092	0.087
1092	0.087
1093	0.086
1093	0.087
1094	0.087
1094	0.086
1095	0.086
1095	0.086
1095	0.085
1096	0.085
1096	0.083
1097	0.083
1097	0.082
1097	0.081
1098	0.08
1098	0.079
1099	0.078
1099	0.075
1100	0.074
1100	0.072
1100	0.07
1101	0.069
1101	0.068
1102	0.067
1102	0.066
1102	0.065
1103	0.064
1103	0.064
1104	0.064
1104	0.063
1104	0.063
1105	0.062
1105	0.061
1106	0.058
1106	0.057
1107	0.057
1107	0.056
1107	0.054
1108	0.054
1108	0.052
1109	0.051
1109	0.049
1109	0.05
1110	0.052
1110	0.052
1111	0.051
1111	0.048
