Data from reversibility-20sec_Absorbance__6994__000000000006994.txt Node

Date: Thu Dec 07 03:04:25 CET 2023
User: Marek
Spectrometer: MAYP115816
Trigger mode: 0
Integration Time (sec): 2.000000E-1
Scans to average: 10
Electric dark correction enabled: true
Nonlinearity correction enabled: true
Boxcar width: 5
XAxis mode: Wavelengths
Number of Pixels in Spectrum: 2068
>>>>>Begin Spectral Data<<<<<
199	-0.108
199	-0.082
200	-0.021
200	0.029
201	0.063
201	0.079
202	0.088
202	0.098
203	0.103
203	0.107
204	0.119
204	0.131
205	0.142
205	0.149
205	0.147
206	0.145
206	0.144
207	0.146
207	0.145
208	0.145
208	0.143
209	0.144
209	0.144
210	0.145
210	0.145
211	0.145
211	0.149
212	0.147
212	0.147
213	0.151
213	0.155
213	0.154
214	0.159
214	0.159
215	0.162
215	0.161
216	0.166
216	0.161
217	0.166
217	0.17
218	0.166
218	0.167
219	0.172
219	0.173
220	0.175
220	0.174
221	0.174
221	0.175
221	0.182
222	0.184
222	0.188
223	0.196
223	0.2
224	0.205
224	0.211
225	0.222
225	0.232
226	0.243
226	0.253
227	0.261
227	0.275
228	0.289
228	0.305
229	0.32
229	0.341
229	0.363
230	0.387
230	0.418
231	0.447
231	0.485
232	0.522
232	0.563
233	0.605
233	0.655
234	0.705
234	0.758
235	0.81
235	0.863
236	0.912
236	0.966
236	1.017
237	1.069
237	1.118
238	1.165
238	1.208
239	1.258
239	1.299
240	1.342
240	1.377
241	1.41
241	1.447
242	1.479
242	1.513
243	1.543
243	1.568
243	1.595
244	1.614
244	1.635
245	1.652
245	1.673
246	1.692
246	1.705
247	1.716
247	1.727
248	1.738
248	1.753
249	1.761
249	1.768
250	1.774
250	1.782
250	1.784
251	1.788
251	1.79
252	1.793
252	1.792
253	1.793
253	1.79
254	1.788
254	1.789
255	1.789
255	1.787
256	1.788
256	1.787
257	1.785
257	1.783
258	1.785
258	1.784
258	1.784
259	1.784
259	1.784
260	1.782
260	1.784
261	1.783
261	1.785
262	1.789
262	1.792
263	1.794
263	1.795
264	1.795
264	1.797
265	1.798
265	1.798
265	1.798
266	1.799
266	1.798
267	1.796
267	1.797
268	1.797
268	1.798
269	1.8
269	1.799
270	1.799
270	1.799
271	1.797
271	1.797
272	1.794
272	1.792
272	1.789
273	1.783
273	1.776
274	1.77
274	1.762
275	1.755
275	1.748
276	1.74
276	1.732
277	1.724
277	1.714
278	1.702
278	1.689
278	1.674
279	1.656
279	1.634
280	1.607
280	1.574
281	1.536
281	1.494
282	1.449
282	1.404
283	1.36
283	1.317
284	1.276
284	1.237
285	1.2
285	1.166
285	1.136
286	1.109
286	1.086
287	1.066
287	1.05
288	1.036
288	1.023
289	1.012
289	1.003
290	0.996
290	0.989
291	0.983
291	0.978
292	0.973
292	0.969
292	0.965
293	0.961
293	0.957
294	0.954
294	0.95
295	0.947
295	0.944
296	0.941
296	0.938
297	0.935
297	0.932
298	0.929
298	0.926
298	0.924
299	0.921
299	0.918
300	0.916
300	0.913
301	0.91
301	0.908
302	0.905
302	0.903
303	0.901
303	0.898
304	0.896
304	0.894
305	0.892
305	0.889
305	0.887
306	0.885
306	0.882
307	0.88
307	0.878
308	0.875
308	0.872
309	0.87
309	0.867
310	0.864
310	0.862
311	0.859
311	0.856
311	0.853
312	0.849
312	0.846
313	0.842
313	0.839
314	0.835
314	0.831
315	0.826
315	0.822
316	0.818
316	0.813
317	0.809
317	0.804
318	0.799
318	0.794
318	0.789
319	0.784
319	0.778
320	0.772
320	0.767
321	0.761
321	0.754
322	0.748
322	0.742
323	0.735
323	0.729
324	0.722
324	0.715
324	0.708
325	0.702
325	0.695
326	0.688
326	0.681
327	0.675
327	0.668
328	0.661
328	0.654
329	0.647
329	0.64
330	0.632
330	0.625
330	0.618
331	0.611
331	0.604
332	0.597
332	0.59
333	0.583
333	0.576
334	0.568
334	0.561
335	0.555
335	0.548
336	0.541
336	0.534
336	0.528
337	0.522
337	0.515
338	0.509
338	0.503
339	0.497
339	0.491
340	0.485
340	0.479
341	0.473
341	0.468
342	0.462
342	0.457
342	0.452
343	0.446
343	0.441
344	0.436
344	0.432
345	0.427
345	0.422
346	0.417
346	0.413
347	0.408
347	0.404
348	0.4
348	0.396
348	0.392
349	0.388
349	0.385
350	0.381
350	0.378
351	0.374
351	0.371
352	0.368
352	0.365
353	0.362
353	0.359
354	0.356
354	0.353
354	0.35
355	0.347
355	0.344
356	0.342
356	0.339
357	0.336
357	0.333
358	0.331
358	0.328
359	0.326
359	0.323
360	0.321
360	0.319
360	0.318
361	0.316
361	0.314
362	0.313
362	0.311
363	0.31
363	0.308
364	0.306
364	0.304
365	0.302
365	0.3
366	0.299
366	0.297
366	0.295
367	0.294
367	0.292
368	0.29
368	0.289
369	0.287
369	0.286
370	0.285
370	0.284
371	0.282
371	0.281
372	0.28
372	0.279
372	0.278
373	0.277
373	0.276
374	0.275
374	0.274
375	0.273
375	0.272
376	0.271
376	0.271
377	0.27
377	0.269
378	0.268
378	0.267
378	0.266
379	0.265
379	0.264
380	0.264
380	0.263
381	0.262
381	0.262
382	0.261
382	0.261
383	0.26
383	0.26
383	0.259
384	0.259
384	0.259
385	0.258
385	0.258
386	0.258
386	0.257
387	0.257
387	0.256
388	0.256
388	0.256
389	0.256
389	0.255
389	0.255
390	0.255
390	0.254
391	0.254
391	0.254
392	0.253
392	0.253
393	0.253
393	0.252
394	0.252
394	0.251
394	0.251
395	0.251
395	0.25
396	0.25
396	0.25
397	0.25
397	0.249
398	0.249
398	0.249
399	0.248
399	0.248
400	0.248
400	0.247
400	0.247
401	0.247
401	0.247
402	0.246
402	0.246
403	0.246
403	0.246
404	0.245
404	0.245
405	0.245
405	0.245
405	0.245
406	0.244
406	0.244
407	0.244
407	0.244
408	0.243
408	0.243
409	0.243
409	0.243
410	0.242
410	0.242
411	0.242
411	0.241
411	0.241
412	0.241
412	0.24
413	0.24
413	0.24
414	0.239
414	0.239
415	0.239
415	0.238
416	0.238
416	0.238
416	0.238
417	0.237
417	0.237
418	0.237
418	0.237
419	0.237
419	0.236
420	0.236
420	0.235
421	0.235
421	0.235
421	0.234
422	0.234
422	0.234
423	0.233
423	0.233
424	0.233
424	0.232
425	0.232
425	0.232
426	0.232
426	0.231
427	0.231
427	0.231
427	0.23
428	0.23
428	0.23
429	0.229
429	0.229
430	0.228
430	0.228
431	0.228
431	0.228
432	0.228
432	0.227
432	0.227
433	0.227
433	0.227
434	0.227
434	0.227
435	0.227
435	0.227
436	0.226
436	0.226
437	0.226
437	0.225
437	0.225
438	0.225
438	0.225
439	0.224
439	0.224
440	0.223
440	0.223
441	0.223
441	0.223
442	0.222
442	0.222
442	0.222
443	0.222
443	0.222
444	0.221
444	0.221
445	0.221
445	0.221
446	0.221
446	0.22
447	0.22
447	0.22
447	0.219
448	0.219
448	0.219
449	0.219
449	0.219
450	0.219
450	0.218
451	0.218
451	0.218
452	0.218
452	0.218
452	0.218
453	0.218
453	0.217
454	0.217
454	0.217
455	0.217
455	0.216
456	0.216
456	0.216
457	0.216
457	0.215
458	0.215
458	0.215
458	0.215
459	0.214
459	0.214
460	0.214
460	0.214
461	0.214
461	0.214
462	0.213
462	0.213
463	0.213
463	0.213
463	0.213
464	0.212
464	0.212
465	0.212
465	0.211
466	0.211
466	0.211
467	0.211
467	0.211
467	0.211
468	0.211
468	0.211
469	0.211
469	0.211
470	0.211
470	0.211
471	0.211
471	0.211
472	0.211
472	0.211
472	0.211
473	0.21
473	0.21
474	0.21
474	0.21
475	0.21
475	0.21
476	0.21
476	0.21
477	0.21
477	0.21
477	0.21
478	0.21
478	0.21
479	0.21
479	0.21
480	0.21
480	0.21
481	0.209
481	0.209
482	0.209
482	0.21
482	0.21
483	0.21
483	0.21
484	0.21
484	0.21
485	0.21
485	0.21
486	0.21
486	0.21
487	0.21
487	0.21
487	0.21
488	0.21
488	0.21
489	0.21
489	0.211
490	0.211
490	0.211
491	0.212
491	0.212
492	0.212
492	0.213
492	0.213
493	0.213
493	0.214
494	0.214
494	0.214
495	0.214
495	0.215
496	0.215
496	0.215
496	0.216
497	0.216
497	0.216
498	0.217
498	0.217
499	0.217
499	0.217
500	0.218
500	0.219
501	0.219
501	0.219
501	0.219
502	0.22
502	0.22
503	0.22
503	0.221
504	0.221
504	0.221
505	0.221
505	0.222
506	0.222
506	0.222
506	0.223
507	0.223
507	0.224
508	0.224
508	0.224
509	0.225
509	0.225
510	0.225
510	0.226
511	0.226
511	0.226
511	0.227
512	0.227
512	0.227
513	0.228
513	0.228
514	0.229
514	0.229
515	0.23
515	0.23
515	0.231
516	0.231
516	0.232
517	0.232
517	0.232
518	0.233
518	0.233
519	0.233
519	0.233
520	0.233
520	0.233
520	0.233
521	0.234
521	0.234
522	0.234
522	0.234
523	0.235
523	0.235
524	0.235
524	0.236
524	0.236
525	0.236
525	0.236
526	0.236
526	0.236
527	0.236
527	0.236
528	0.236
528	0.236
529	0.236
529	0.236
529	0.236
530	0.236
530	0.236
531	0.236
531	0.236
532	0.236
532	0.235
533	0.235
533	0.235
533	0.235
534	0.235
534	0.235
535	0.235
535	0.235
536	0.234
536	0.234
537	0.234
537	0.234
538	0.234
538	0.234
538	0.234
539	0.234
539	0.234
540	0.234
540	0.234
541	0.233
541	0.233
542	0.233
542	0.233
542	0.233
543	0.233
543	0.233
544	0.233
544	0.232
545	0.233
545	0.232
546	0.232
546	0.231
547	0.231
547	0.23
547	0.23
548	0.23
548	0.229
549	0.229
549	0.228
550	0.228
550	0.227
551	0.227
551	0.227
551	0.227
552	0.227
552	0.227
553	0.226
553	0.226
554	0.226
554	0.225
555	0.224
555	0.224
556	0.223
556	0.223
556	0.222
557	0.222
557	0.222
558	0.223
558	0.222
559	0.223
559	0.223
560	0.223
560	0.222
560	0.222
561	0.222
561	0.222
562	0.221
562	0.221
563	0.22
563	0.219
564	0.218
564	0.218
564	0.217
565	0.217
565	0.217
566	0.216
566	0.216
567	0.215
567	0.215
568	0.215
568	0.215
568	0.215
569	0.214
569	0.214
570	0.213
570	0.212
571	0.212
571	0.211
572	0.211
572	0.21
573	0.21
573	0.21
573	0.21
574	0.209
574	0.209
575	0.209
575	0.209
576	0.209
576	0.208
577	0.208
577	0.207
577	0.207
578	0.206
578	0.206
579	0.206
579	0.206
580	0.206
580	0.205
581	0.204
581	0.204
581	0.204
582	0.205
582	0.204
583	0.205
583	0.204
584	0.203
584	0.202
585	0.202
585	0.202
585	0.202
586	0.201
586	0.201
587	0.2
587	0.2
588	0.199
588	0.199
589	0.199
589	0.199
590	0.199
590	0.199
590	0.199
591	0.199
591	0.199
592	0.198
592	0.197
593	0.197
593	0.197
594	0.196
594	0.195
594	0.195
595	0.194
595	0.194
596	0.193
596	0.194
597	0.194
597	0.195
598	0.195
598	0.195
598	0.195
599	0.195
599	0.195
600	0.194
600	0.194
601	0.194
601	0.194
602	0.193
602	0.192
602	0.192
603	0.192
603	0.192
604	0.192
604	0.192
605	0.192
605	0.191
606	0.191
606	0.19
606	0.19
607	0.19
607	0.19
608	0.189
608	0.189
609	0.188
609	0.188
610	0.188
610	0.187
610	0.187
611	0.188
611	0.188
612	0.188
612	0.188
613	0.188
613	0.188
614	0.187
614	0.187
614	0.187
615	0.187
615	0.187
616	0.187
616	0.187
617	0.187
617	0.187
618	0.187
618	0.187
618	0.187
619	0.187
619	0.188
620	0.188
620	0.187
621	0.187
621	0.186
622	0.186
622	0.185
622	0.185
623	0.184
623	0.184
624	0.184
624	0.183
625	0.183
625	0.183
626	0.183
626	0.183
626	0.183
627	0.183
627	0.183
628	0.183
628	0.183
629	0.183
629	0.183
630	0.182
630	0.182
630	0.182
631	0.182
631	0.182
632	0.182
632	0.181
633	0.181
633	0.181
634	0.181
634	0.181
634	0.181
635	0.181
635	0.181
636	0.18
636	0.181
637	0.18
637	0.18
638	0.18
638	0.18
638	0.179
639	0.179
639	0.178
640	0.179
640	0.179
641	0.178
641	0.178
642	0.178
642	0.178
642	0.178
643	0.179
643	0.179
644	0.179
644	0.179
645	0.179
645	0.18
646	0.18
646	0.179
646	0.18
647	0.179
647	0.179
648	0.178
648	0.178
649	0.177
649	0.177
650	0.177
650	0.177
650	0.177
651	0.177
651	0.177
652	0.177
652	0.177
653	0.178
653	0.18
653	0.185
654	0.146
654	0.117
655	0.117
655	0.117
656	0.118
656	0.118
657	0.118
657	0.119
657	0.119
658	0.117
658	0.108
659	0.136
659	0.174
660	0.179
660	0.179
661	0.178
661	0.178
661	0.178
662	0.177
662	0.177
663	0.177
663	0.177
664	0.177
664	0.177
665	0.177
665	0.177
665	0.177
666	0.177
666	0.177
667	0.177
667	0.177
668	0.177
668	0.177
669	0.177
669	0.177
669	0.178
670	0.178
670	0.178
671	0.178
671	0.178
672	0.177
672	0.177
672	0.176
673	0.176
673	0.176
674	0.175
674	0.175
675	0.175
675	0.175
676	0.175
676	0.175
676	0.175
677	0.175
677	0.176
678	0.176
678	0.175
679	0.175
679	0.175
680	0.175
680	0.175
680	0.174
681	0.174
681	0.175
682	0.175
682	0.175
683	0.175
683	0.175
684	0.176
684	0.175
684	0.175
685	0.176
685	0.176
686	0.176
686	0.176
687	0.176
687	0.176
687	0.177
688	0.177
688	0.177
689	0.177
689	0.178
690	0.178
690	0.177
691	0.177
691	0.177
691	0.177
692	0.177
692	0.177
693	0.178
693	0.178
694	0.178
694	0.178
695	0.179
695	0.18
695	0.18
696	0.18
696	0.181
697	0.181
697	0.181
698	0.18
698	0.18
698	0.18
699	0.18
699	0.18
700	0.179
700	0.179
701	0.179
701	0.178
702	0.178
702	0.178
702	0.177
703	0.177
703	0.177
704	0.176
704	0.176
705	0.176
705	0.176
705	0.175
706	0.175
706	0.175
707	0.175
707	0.175
708	0.175
708	0.176
709	0.176
709	0.176
709	0.176
710	0.176
710	0.177
711	0.177
711	0.178
712	0.178
712	0.179
713	0.179
713	0.18
713	0.18
714	0.18
714	0.181
715	0.181
715	0.18
716	0.179
716	0.179
716	0.178
717	0.177
717	0.177
718	0.176
718	0.176
719	0.176
719	0.176
720	0.176
720	0.177
720	0.178
721	0.178
721	0.18
722	0.181
722	0.181
723	0.182
723	0.182
723	0.182
724	0.181
724	0.181
725	0.18
725	0.179
726	0.179
726	0.178
727	0.177
727	0.177
727	0.176
728	0.176
728	0.176
729	0.177
729	0.177
730	0.177
730	0.177
730	0.178
731	0.178
731	0.179
732	0.179
732	0.18
733	0.18
733	0.181
734	0.181
734	0.182
734	0.182
735	0.183
735	0.183
736	0.183
736	0.183
737	0.183
737	0.183
737	0.183
738	0.182
738	0.181
739	0.181
739	0.181
740	0.18
740	0.18
741	0.18
741	0.18
741	0.181
742	0.181
742	0.182
743	0.183
743	0.183
744	0.184
744	0.185
744	0.185
745	0.185
745	0.185
746	0.185
746	0.185
747	0.185
747	0.185
748	0.185
748	0.185
748	0.185
749	0.185
749	0.185
750	0.185
750	0.185
751	0.186
751	0.186
751	0.186
752	0.186
752	0.186
753	0.186
753	0.186
754	0.186
754	0.185
754	0.185
755	0.185
755	0.185
756	0.184
756	0.183
757	0.182
757	0.183
758	0.182
758	0.182
758	0.183
759	0.183
759	0.182
760	0.182
760	0.182
761	0.183
761	0.183
761	0.184
762	0.184
762	0.184
763	0.185
763	0.184
764	0.184
764	0.184
764	0.185
765	0.184
765	0.184
766	0.184
766	0.184
767	0.183
767	0.183
768	0.182
768	0.182
768	0.182
769	0.183
769	0.183
770	0.183
770	0.184
771	0.184
771	0.185
771	0.185
772	0.186
772	0.186
773	0.186
773	0.187
774	0.187
774	0.187
775	0.187
775	0.187
775	0.187
776	0.188
776	0.188
777	0.189
777	0.189
778	0.189
778	0.19
778	0.19
779	0.19
779	0.19
780	0.189
780	0.189
781	0.189
781	0.188
781	0.188
782	0.188
782	0.188
783	0.189
783	0.189
784	0.189
784	0.189
784	0.19
785	0.19
785	0.19
786	0.191
786	0.191
787	0.191
787	0.19
788	0.189
788	0.189
788	0.188
789	0.188
789	0.188
790	0.188
790	0.188
791	0.188
791	0.188
791	0.188
792	0.189
792	0.189
793	0.189
793	0.189
794	0.189
794	0.189
794	0.189
795	0.19
795	0.19
796	0.19
796	0.19
797	0.19
797	0.19
797	0.191
798	0.191
798	0.191
799	0.191
799	0.191
800	0.19
800	0.19
801	0.19
801	0.19
801	0.19
802	0.191
802	0.191
803	0.192
803	0.192
804	0.193
804	0.193
804	0.194
805	0.194
805	0.194
806	0.194
806	0.194
807	0.194
807	0.193
807	0.193
808	0.193
808	0.193
809	0.193
809	0.192
810	0.192
810	0.192
810	0.192
811	0.193
811	0.193
812	0.194
812	0.194
813	0.195
813	0.195
813	0.196
814	0.197
814	0.198
815	0.198
815	0.198
816	0.198
816	0.198
817	0.197
817	0.197
817	0.196
818	0.196
818	0.195
819	0.195
819	0.194
820	0.193
820	0.193
820	0.193
821	0.193
821	0.193
822	0.194
822	0.194
823	0.194
823	0.195
823	0.196
824	0.197
824	0.198
825	0.2
825	0.201
826	0.201
826	0.201
826	0.202
827	0.203
827	0.203
828	0.203
828	0.203
829	0.204
829	0.204
829	0.204
830	0.204
830	0.204
831	0.205
831	0.205
832	0.204
832	0.204
832	0.204
833	0.204
833	0.204
834	0.203
834	0.203
835	0.202
835	0.202
835	0.201
836	0.201
836	0.201
837	0.2
837	0.2
838	0.199
838	0.198
839	0.198
839	0.197
839	0.196
840	0.195
840	0.194
841	0.193
841	0.193
842	0.192
842	0.191
842	0.191
843	0.19
843	0.19
844	0.19
844	0.19
845	0.189
845	0.19
845	0.19
846	0.19
846	0.19
847	0.19
847	0.191
848	0.191
848	0.192
848	0.192
849	0.192
849	0.192
850	0.192
850	0.192
851	0.192
851	0.191
851	0.191
852	0.19
852	0.19
853	0.19
853	0.189
854	0.19
854	0.19
854	0.191
855	0.192
855	0.192
856	0.193
856	0.194
857	0.195
857	0.196
857	0.197
858	0.198
858	0.198
859	0.198
859	0.198
860	0.198
860	0.198
860	0.198
861	0.197
861	0.196
862	0.195
862	0.194
863	0.194
863	0.193
863	0.192
864	0.192
864	0.192
865	0.192
865	0.191
866	0.191
866	0.191
866	0.191
867	0.192
867	0.192
868	0.192
868	0.192
869	0.192
869	0.192
869	0.192
870	0.191
870	0.191
871	0.191
871	0.191
872	0.191
872	0.191
872	0.19
873	0.19
873	0.19
874	0.189
874	0.189
875	0.188
875	0.188
875	0.188
876	0.188
876	0.187
877	0.187
877	0.187
878	0.186
878	0.187
878	0.187
879	0.187
879	0.187
880	0.187
880	0.188
881	0.188
881	0.188
881	0.189
882	0.189
882	0.189
883	0.189
883	0.19
884	0.19
884	0.19
884	0.19
885	0.19
885	0.189
886	0.189
886	0.189
887	0.188
887	0.188
887	0.187
888	0.186
888	0.186
889	0.185
889	0.185
890	0.185
890	0.185
890	0.185
891	0.185
891	0.185
892	0.185
892	0.185
893	0.185
893	0.185
893	0.185
894	0.185
894	0.184
895	0.184
895	0.183
895	0.183
896	0.183
896	0.183
897	0.183
897	0.182
898	0.182
898	0.181
898	0.181
899	0.18
899	0.18
900	0.179
900	0.179
901	0.178
901	0.178
901	0.177
902	0.177
902	0.177
903	0.177
903	0.177
904	0.177
904	0.177
904	0.177
905	0.176
905	0.176
906	0.176
906	0.176
907	0.176
907	0.176
907	0.176
908	0.176
908	0.176
909	0.176
909	0.176
910	0.176
910	0.175
910	0.175
911	0.174
911	0.174
912	0.173
912	0.173
913	0.173
913	0.172
913	0.172
914	0.172
914	0.171
915	0.171
915	0.171
916	0.171
916	0.171
916	0.171
917	0.171
917	0.171
918	0.171
918	0.17
918	0.17
919	0.169
919	0.169
920	0.168
920	0.168
921	0.167
921	0.167
921	0.167
922	0.167
922	0.167
923	0.167
923	0.167
924	0.167
924	0.167
924	0.168
925	0.168
925	0.168
926	0.169
926	0.169
927	0.169
927	0.17
927	0.17
928	0.17
928	0.17
929	0.171
929	0.171
930	0.171
930	0.171
930	0.17
931	0.17
931	0.169
932	0.169
932	0.168
933	0.168
933	0.167
933	0.167
934	0.166
934	0.166
935	0.165
935	0.165
935	0.164
936	0.164
936	0.163
937	0.163
937	0.162
938	0.162
938	0.161
938	0.16
939	0.16
939	0.159
940	0.159
940	0.158
941	0.158
941	0.159
941	0.159
942	0.159
942	0.159
943	0.16
943	0.16
944	0.16
944	0.16
944	0.161
945	0.161
945	0.16
946	0.16
946	0.16
946	0.159
947	0.159
947	0.159
948	0.158
948	0.158
949	0.157
949	0.157
949	0.156
950	0.156
950	0.155
951	0.155
951	0.154
952	0.153
952	0.153
952	0.152
953	0.152
953	0.151
954	0.151
954	0.151
955	0.151
955	0.151
955	0.151
956	0.152
956	0.153
957	0.153
957	0.154
957	0.154
958	0.155
958	0.155
959	0.155
959	0.155
960	0.156
960	0.155
960	0.155
961	0.155
961	0.155
962	0.154
962	0.154
963	0.153
963	0.153
963	0.153
964	0.153
964	0.153
965	0.153
965	0.152
966	0.152
966	0.152
966	0.152
967	0.152
967	0.151
968	0.151
968	0.151
968	0.15
969	0.149
969	0.149
970	0.148
970	0.146
971	0.146
971	0.145
971	0.144
972	0.143
972	0.142
973	0.142
973	0.142
974	0.142
974	0.142
974	0.142
975	0.143
975	0.143
976	0.144
976	0.145
976	0.145
977	0.146
977	0.146
978	0.146
978	0.146
979	0.146
979	0.146
979	0.146
980	0.146
980	0.145
981	0.145
981	0.145
982	0.145
982	0.145
982	0.145
983	0.145
983	0.144
984	0.144
984	0.144
984	0.144
985	0.144
985	0.143
986	0.143
986	0.142
987	0.142
987	0.141
987	0.141
988	0.141
988	0.14
989	0.14
989	0.14
990	0.14
990	0.139
990	0.139
991	0.139
991	0.139
992	0.138
992	0.138
992	0.137
993	0.136
993	0.135
994	0.134
994	0.133
995	0.132
995	0.132
995	0.131
996	0.131
996	0.131
997	0.131
997	0.131
997	0.131
998	0.132
998	0.132
999	0.133
999	0.134
1000	0.135
1000	0.135
1000	0.136
1001	0.136
1001	0.136
1002	0.136
1002	0.136
1003	0.136
1003	0.136
1003	0.135
1004	0.135
1004	0.134
1005	0.133
1005	0.132
1005	0.132
1006	0.131
1006	0.131
1007	0.13
1007	0.13
1008	0.129
1008	0.129
1008	0.129
1009	0.129
1009	0.129
1010	0.129
1010	0.129
1010	0.129
1011	0.129
1011	0.128
1012	0.128
1012	0.127
1013	0.126
1013	0.126
1013	0.125
1014	0.124
1014	0.124
1015	0.123
1015	0.123
1016	0.122
1016	0.122
1016	0.121
1017	0.121
1017	0.121
1018	0.121
1018	0.121
1018	0.121
1019	0.12
1019	0.12
1020	0.12
1020	0.121
1021	0.121
1021	0.121
1021	0.122
1022	0.122
1022	0.122
1023	0.122
1023	0.123
1023	0.123
1024	0.123
1024	0.123
1025	0.124
1025	0.124
1026	0.124
1026	0.124
1026	0.124
1027	0.124
1027	0.124
1028	0.124
1028	0.124
1028	0.124
1029	0.124
1029	0.124
1030	0.124
1030	0.124
1031	0.124
1031	0.124
1031	0.124
1032	0.125
1032	0.125
1033	0.125
1033	0.125
1033	0.124
1034	0.124
1034	0.124
1035	0.124
1035	0.124
1036	0.123
1036	0.123
1036	0.123
1037	0.122
1037	0.122
1038	0.122
1038	0.121
1039	0.121
1039	0.121
1039	0.12
1040	0.12
1040	0.12
1041	0.12
1041	0.119
1041	0.119
1042	0.119
1042	0.119
1043	0.119
1043	0.118
1044	0.118
1044	0.118
1044	0.118
1045	0.117
1045	0.117
1046	0.116
1046	0.116
1046	0.115
1047	0.115
1047	0.115
1048	0.114
1048	0.114
1049	0.114
1049	0.114
1049	0.113
1050	0.113
1050	0.113
1051	0.113
1051	0.113
1051	0.112
1052	0.112
1052	0.111
1053	0.111
1053	0.11
1053	0.109
1054	0.109
1054	0.108
1055	0.108
1055	0.107
1056	0.107
1056	0.106
1056	0.105
1057	0.105
1057	0.104
1058	0.103
1058	0.102
1058	0.102
1059	0.101
1059	0.1
1060	0.099
1060	0.099
1061	0.099
1061	0.098
1061	0.098
1062	0.098
1062	0.098
1063	0.098
1063	0.098
1063	0.098
1064	0.097
1064	0.097
1065	0.097
1065	0.097
1066	0.097
1066	0.097
1066	0.096
1067	0.096
1067	0.096
1068	0.096
1068	0.096
1068	0.096
1069	0.096
1069	0.096
1070	0.095
1070	0.095
1071	0.095
1071	0.096
1071	0.095
1072	0.095
1072	0.095
1073	0.095
1073	0.094
1073	0.094
1074	0.094
1074	0.095
1075	0.094
1075	0.095
1076	0.095
1076	0.095
1076	0.096
1077	0.096
1077	0.096
1078	0.096
1078	0.096
1078	0.096
1079	0.095
1079	0.095
1080	0.094
1080	0.094
1080	0.094
1081	0.093
1081	0.093
1082	0.094
1082	0.094
1083	0.094
1083	0.094
1083	0.094
1084	0.094
1084	0.094
1085	0.094
1085	0.094
1085	0.095
1086	0.095
1086	0.095
1087	0.094
1087	0.094
1088	0.093
1088	0.094
1088	0.094
1089	0.093
1089	0.093
1090	0.092
1090	0.091
1090	0.09
1091	0.09
1091	0.09
1092	0.09
1092	0.091
1092	0.09
1093	0.089
1093	0.09
1094	0.09
1094	0.089
1095	0.089
1095	0.088
1095	0.088
1096	0.087
1096	0.086
1097	0.085
1097	0.084
1097	0.084
1098	0.082
1098	0.081
1099	0.081
1099	0.079
1100	0.078
1100	0.077
1100	0.075
1101	0.074
1101	0.074
1102	0.072
1102	0.071
1102	0.07
1103	0.07
1103	0.07
1104	0.069
1104	0.069
1104	0.068
1105	0.067
1105	0.065
1106	0.064
1106	0.063
1107	0.062
1107	0.062
1107	0.061
1108	0.059
1108	0.059
1109	0.057
1109	0.057
1109	0.057
1110	0.058
1110	0.059
1111	0.059
1111	0.06
