Data from reversibility-20sec_Absorbance__3243__000000000003243.txt Node

Date: Wed Dec 06 06:14:05 CET 2023
User: Marek
Spectrometer: MAYP115816
Trigger mode: 0
Integration Time (sec): 2.000000E-1
Scans to average: 10
Electric dark correction enabled: true
Nonlinearity correction enabled: true
Boxcar width: 5
XAxis mode: Wavelengths
Number of Pixels in Spectrum: 2068
>>>>>Begin Spectral Data<<<<<
199	-0.14
199	-0.105
200	-0.041
200	0.005
201	0.035
201	0.05
202	0.062
202	0.067
203	0.074
203	0.074
204	0.091
204	0.103
205	0.112
205	0.119
205	0.117
206	0.115
206	0.116
207	0.116
207	0.118
208	0.117
208	0.118
209	0.117
209	0.116
210	0.117
210	0.115
211	0.117
211	0.121
212	0.119
212	0.122
213	0.125
213	0.129
213	0.13
214	0.134
214	0.137
215	0.137
215	0.138
216	0.14
216	0.139
217	0.144
217	0.146
218	0.144
218	0.146
219	0.148
219	0.147
220	0.15
220	0.149
221	0.151
221	0.154
221	0.16
222	0.164
222	0.169
223	0.176
223	0.179
224	0.187
224	0.198
225	0.205
225	0.218
226	0.229
226	0.237
227	0.246
227	0.258
228	0.271
228	0.284
229	0.302
229	0.326
229	0.347
230	0.372
230	0.4
231	0.435
231	0.475
232	0.511
232	0.556
233	0.598
233	0.646
234	0.701
234	0.753
235	0.806
235	0.861
236	0.914
236	0.966
236	1.016
237	1.07
237	1.119
238	1.17
238	1.216
239	1.261
239	1.3
240	1.34
240	1.377
241	1.412
241	1.443
242	1.474
242	1.507
243	1.534
243	1.559
243	1.585
244	1.605
244	1.628
245	1.648
245	1.669
246	1.688
246	1.706
247	1.72
247	1.733
248	1.745
248	1.759
249	1.768
249	1.778
250	1.785
250	1.792
250	1.795
251	1.798
251	1.8
252	1.805
252	1.806
253	1.81
253	1.806
254	1.805
254	1.805
255	1.805
255	1.805
256	1.804
256	1.804
257	1.803
257	1.801
258	1.801
258	1.799
258	1.8
259	1.799
259	1.799
260	1.797
260	1.796
261	1.798
261	1.8
262	1.802
262	1.803
263	1.806
263	1.807
264	1.808
264	1.809
265	1.811
265	1.812
265	1.812
266	1.812
266	1.811
267	1.811
267	1.812
268	1.81
268	1.81
269	1.81
269	1.81
270	1.808
270	1.807
271	1.806
271	1.806
272	1.802
272	1.798
272	1.795
273	1.789
273	1.784
274	1.78
274	1.773
275	1.768
275	1.762
276	1.755
276	1.746
277	1.739
277	1.729
278	1.718
278	1.708
278	1.694
279	1.678
279	1.66
280	1.636
280	1.61
281	1.578
281	1.542
282	1.505
282	1.466
283	1.428
283	1.391
284	1.354
284	1.318
285	1.284
285	1.252
285	1.224
286	1.2
286	1.178
287	1.159
287	1.142
288	1.128
288	1.116
289	1.105
289	1.096
290	1.088
290	1.081
291	1.075
291	1.07
292	1.064
292	1.06
292	1.056
293	1.052
293	1.048
294	1.044
294	1.041
295	1.038
295	1.035
296	1.031
296	1.028
297	1.026
297	1.023
298	1.02
298	1.017
298	1.014
299	1.011
299	1.008
300	1.006
300	1.003
301	1.001
301	0.998
302	0.996
302	0.993
303	0.991
303	0.988
304	0.986
304	0.983
305	0.981
305	0.979
305	0.976
306	0.974
306	0.971
307	0.969
307	0.966
308	0.964
308	0.961
309	0.958
309	0.956
310	0.953
310	0.95
311	0.947
311	0.943
311	0.94
312	0.936
312	0.933
313	0.929
313	0.925
314	0.921
314	0.918
315	0.913
315	0.909
316	0.905
316	0.9
317	0.896
317	0.891
318	0.886
318	0.881
318	0.876
319	0.871
319	0.866
320	0.86
320	0.854
321	0.848
321	0.842
322	0.836
322	0.83
323	0.824
323	0.817
324	0.811
324	0.804
324	0.798
325	0.791
325	0.785
326	0.778
326	0.771
327	0.765
327	0.758
328	0.751
328	0.745
329	0.738
329	0.731
330	0.724
330	0.717
330	0.71
331	0.703
331	0.696
332	0.689
332	0.682
333	0.675
333	0.669
334	0.662
334	0.655
335	0.649
335	0.642
336	0.635
336	0.629
336	0.623
337	0.616
337	0.61
338	0.604
338	0.598
339	0.592
339	0.586
340	0.58
340	0.575
341	0.569
341	0.564
342	0.558
342	0.553
342	0.547
343	0.542
343	0.537
344	0.532
344	0.527
345	0.523
345	0.518
346	0.513
346	0.509
347	0.505
347	0.501
348	0.497
348	0.493
348	0.489
349	0.485
349	0.481
350	0.478
350	0.474
351	0.471
351	0.468
352	0.465
352	0.462
353	0.459
353	0.456
354	0.453
354	0.45
354	0.447
355	0.444
355	0.441
356	0.438
356	0.435
357	0.432
357	0.429
358	0.426
358	0.423
359	0.421
359	0.419
360	0.417
360	0.415
360	0.413
361	0.411
361	0.409
362	0.407
362	0.406
363	0.404
363	0.402
364	0.4
364	0.398
365	0.396
365	0.394
366	0.392
366	0.39
366	0.388
367	0.387
367	0.385
368	0.384
368	0.382
369	0.38
369	0.379
370	0.377
370	0.376
371	0.374
371	0.373
372	0.372
372	0.37
372	0.369
373	0.368
373	0.366
374	0.365
374	0.364
375	0.363
375	0.362
376	0.361
376	0.36
377	0.359
377	0.358
378	0.356
378	0.356
378	0.355
379	0.354
379	0.353
380	0.352
380	0.351
381	0.35
381	0.35
382	0.349
382	0.349
383	0.348
383	0.347
383	0.346
384	0.345
384	0.345
385	0.344
385	0.344
386	0.343
386	0.343
387	0.342
387	0.341
388	0.34
388	0.34
389	0.339
389	0.339
389	0.338
390	0.337
390	0.337
391	0.336
391	0.336
392	0.335
392	0.335
393	0.334
393	0.334
394	0.334
394	0.333
394	0.333
395	0.332
395	0.332
396	0.331
396	0.331
397	0.33
397	0.33
398	0.329
398	0.329
399	0.328
399	0.328
400	0.327
400	0.327
400	0.326
401	0.326
401	0.326
402	0.325
402	0.325
403	0.324
403	0.324
404	0.323
404	0.323
405	0.323
405	0.323
405	0.322
406	0.322
406	0.321
407	0.321
407	0.321
408	0.32
408	0.32
409	0.319
409	0.319
410	0.319
410	0.318
411	0.318
411	0.318
411	0.318
412	0.317
412	0.317
413	0.317
413	0.316
414	0.316
414	0.316
415	0.315
415	0.315
416	0.314
416	0.314
416	0.313
417	0.313
417	0.312
418	0.312
418	0.312
419	0.311
419	0.311
420	0.311
420	0.31
421	0.31
421	0.31
421	0.309
422	0.309
422	0.309
423	0.308
423	0.308
424	0.307
424	0.307
425	0.307
425	0.306
426	0.306
426	0.305
427	0.305
427	0.305
427	0.305
428	0.304
428	0.304
429	0.304
429	0.304
430	0.303
430	0.303
431	0.303
431	0.303
432	0.303
432	0.302
432	0.302
433	0.302
433	0.301
434	0.301
434	0.301
435	0.301
435	0.301
436	0.301
436	0.301
437	0.3
437	0.3
437	0.3
438	0.3
438	0.299
439	0.299
439	0.299
440	0.299
440	0.299
441	0.298
441	0.298
442	0.298
442	0.297
442	0.297
443	0.297
443	0.297
444	0.297
444	0.297
445	0.297
445	0.297
446	0.296
446	0.296
447	0.296
447	0.296
447	0.296
448	0.296
448	0.296
449	0.296
449	0.296
450	0.296
450	0.295
451	0.295
451	0.295
452	0.295
452	0.295
452	0.295
453	0.295
453	0.295
454	0.295
454	0.295
455	0.295
455	0.295
456	0.295
456	0.294
457	0.294
457	0.294
458	0.294
458	0.294
458	0.294
459	0.294
459	0.294
460	0.294
460	0.294
461	0.294
461	0.294
462	0.294
462	0.294
463	0.294
463	0.294
463	0.294
464	0.294
464	0.294
465	0.294
465	0.294
466	0.294
466	0.293
467	0.294
467	0.294
467	0.294
468	0.294
468	0.294
469	0.295
469	0.295
470	0.295
470	0.296
471	0.296
471	0.296
472	0.297
472	0.297
472	0.297
473	0.298
473	0.298
474	0.298
474	0.298
475	0.299
475	0.299
476	0.299
476	0.3
477	0.3
477	0.301
477	0.301
478	0.302
478	0.302
479	0.302
479	0.303
480	0.303
480	0.304
481	0.304
481	0.305
482	0.305
482	0.306
482	0.306
483	0.307
483	0.308
484	0.309
484	0.309
485	0.31
485	0.31
486	0.311
486	0.311
487	0.312
487	0.313
487	0.314
488	0.314
488	0.315
489	0.316
489	0.317
490	0.319
490	0.319
491	0.321
491	0.322
492	0.323
492	0.324
492	0.325
493	0.327
493	0.328
494	0.329
494	0.33
495	0.331
495	0.332
496	0.333
496	0.335
496	0.336
497	0.337
497	0.338
498	0.339
498	0.34
499	0.341
499	0.342
500	0.344
500	0.345
501	0.346
501	0.347
501	0.348
502	0.349
502	0.35
503	0.352
503	0.353
504	0.354
504	0.355
505	0.356
505	0.357
506	0.358
506	0.359
506	0.36
507	0.361
507	0.363
508	0.364
508	0.365
509	0.366
509	0.367
510	0.368
510	0.369
511	0.37
511	0.371
511	0.372
512	0.373
512	0.374
513	0.374
513	0.375
514	0.376
514	0.377
515	0.377
515	0.378
515	0.379
516	0.379
516	0.38
517	0.381
517	0.381
518	0.382
518	0.382
519	0.383
519	0.383
520	0.383
520	0.383
520	0.384
521	0.384
521	0.384
522	0.384
522	0.384
523	0.384
523	0.384
524	0.384
524	0.384
524	0.384
525	0.384
525	0.383
526	0.383
526	0.382
527	0.382
527	0.381
528	0.381
528	0.38
529	0.379
529	0.378
529	0.377
530	0.377
530	0.376
531	0.375
531	0.374
532	0.373
532	0.372
533	0.371
533	0.37
533	0.369
534	0.367
534	0.366
535	0.365
535	0.364
536	0.362
536	0.361
537	0.36
537	0.358
538	0.357
538	0.355
538	0.354
539	0.352
539	0.351
540	0.35
540	0.348
541	0.347
541	0.345
542	0.343
542	0.342
542	0.34
543	0.339
543	0.337
544	0.335
544	0.334
545	0.332
545	0.331
546	0.329
546	0.327
547	0.326
547	0.324
547	0.322
548	0.32
548	0.319
549	0.317
549	0.315
550	0.314
550	0.312
551	0.31
551	0.308
551	0.306
552	0.305
552	0.303
553	0.302
553	0.3
554	0.298
554	0.296
555	0.295
555	0.293
556	0.291
556	0.29
556	0.288
557	0.287
557	0.286
558	0.284
558	0.283
559	0.281
559	0.279
560	0.278
560	0.277
560	0.275
561	0.274
561	0.272
562	0.27
562	0.268
563	0.266
563	0.265
564	0.263
564	0.261
564	0.26
565	0.259
565	0.257
566	0.255
566	0.254
567	0.253
567	0.251
568	0.25
568	0.249
568	0.248
569	0.247
569	0.245
570	0.244
570	0.242
571	0.241
571	0.24
572	0.238
572	0.237
573	0.236
573	0.235
573	0.234
574	0.232
574	0.232
575	0.231
575	0.23
576	0.229
576	0.228
577	0.227
577	0.226
577	0.225
578	0.224
578	0.223
579	0.222
579	0.222
580	0.22
580	0.219
581	0.218
581	0.217
581	0.216
582	0.215
582	0.215
583	0.214
583	0.213
584	0.212
584	0.21
585	0.209
585	0.208
585	0.207
586	0.206
586	0.205
587	0.204
587	0.203
588	0.202
588	0.202
589	0.201
589	0.2
590	0.2
590	0.199
590	0.199
591	0.198
591	0.197
592	0.196
592	0.195
593	0.194
593	0.193
594	0.192
594	0.191
594	0.19
595	0.189
595	0.188
596	0.187
596	0.187
597	0.187
597	0.187
598	0.186
598	0.186
598	0.186
599	0.186
599	0.185
600	0.185
600	0.184
601	0.184
601	0.184
602	0.183
602	0.182
602	0.181
603	0.18
603	0.18
604	0.179
604	0.179
605	0.178
605	0.178
606	0.177
606	0.176
606	0.176
607	0.175
607	0.175
608	0.174
608	0.173
609	0.172
609	0.172
610	0.171
610	0.17
610	0.17
611	0.17
611	0.169
612	0.169
612	0.169
613	0.169
613	0.169
614	0.168
614	0.168
614	0.168
615	0.168
615	0.167
616	0.167
616	0.167
617	0.166
617	0.166
618	0.165
618	0.165
618	0.165
619	0.165
619	0.165
620	0.165
620	0.165
621	0.164
621	0.164
622	0.163
622	0.163
622	0.162
623	0.161
623	0.161
624	0.16
624	0.159
625	0.159
625	0.158
626	0.158
626	0.157
626	0.157
627	0.157
627	0.157
628	0.157
628	0.156
629	0.156
629	0.156
630	0.155
630	0.155
630	0.155
631	0.155
631	0.155
632	0.155
632	0.154
633	0.154
633	0.154
634	0.154
634	0.154
634	0.154
635	0.154
635	0.153
636	0.153
636	0.153
637	0.152
637	0.152
638	0.151
638	0.151
638	0.15
639	0.15
639	0.149
640	0.149
640	0.149
641	0.149
641	0.148
642	0.148
642	0.148
642	0.148
643	0.148
643	0.148
644	0.148
644	0.148
645	0.148
645	0.148
646	0.148
646	0.148
646	0.148
647	0.148
647	0.148
648	0.147
648	0.147
649	0.147
649	0.147
650	0.147
650	0.147
650	0.147
651	0.146
651	0.146
652	0.146
652	0.146
653	0.146
653	0.147
653	0.153
654	0.121
654	0.098
655	0.097
655	0.097
656	0.098
656	0.098
657	0.098
657	0.099
657	0.099
658	0.098
658	0.089
659	0.112
659	0.142
660	0.146
660	0.146
661	0.145
661	0.145
661	0.144
662	0.143
662	0.143
663	0.142
663	0.142
664	0.141
664	0.141
665	0.14
665	0.14
665	0.14
666	0.14
666	0.14
667	0.141
667	0.141
668	0.141
668	0.141
669	0.141
669	0.142
669	0.142
670	0.142
670	0.142
671	0.142
671	0.142
672	0.142
672	0.141
672	0.141
673	0.141
673	0.14
674	0.14
674	0.139
675	0.139
675	0.139
676	0.14
676	0.14
676	0.14
677	0.14
677	0.14
678	0.14
678	0.14
679	0.14
679	0.139
680	0.139
680	0.139
680	0.138
681	0.138
681	0.138
682	0.138
682	0.138
683	0.139
683	0.139
684	0.139
684	0.139
684	0.139
685	0.14
685	0.14
686	0.14
686	0.14
687	0.14
687	0.14
687	0.14
688	0.14
688	0.14
689	0.141
689	0.141
690	0.141
690	0.141
691	0.141
691	0.141
691	0.141
692	0.141
692	0.141
693	0.141
693	0.141
694	0.141
694	0.14
695	0.141
695	0.141
695	0.141
696	0.141
696	0.141
697	0.141
697	0.141
698	0.141
698	0.14
698	0.141
699	0.141
699	0.14
700	0.14
700	0.14
701	0.14
701	0.139
702	0.138
702	0.138
702	0.138
703	0.137
703	0.137
704	0.137
704	0.137
705	0.137
705	0.137
705	0.137
706	0.137
706	0.137
707	0.137
707	0.137
708	0.138
708	0.138
709	0.138
709	0.138
709	0.137
710	0.137
710	0.137
711	0.137
711	0.137
712	0.137
712	0.136
713	0.136
713	0.137
713	0.137
714	0.137
714	0.137
715	0.137
715	0.137
716	0.136
716	0.136
716	0.136
717	0.136
717	0.135
718	0.135
718	0.135
719	0.135
719	0.136
720	0.136
720	0.136
720	0.137
721	0.137
721	0.137
722	0.138
722	0.137
723	0.137
723	0.137
723	0.137
724	0.137
724	0.136
725	0.135
725	0.135
726	0.134
726	0.133
727	0.133
727	0.133
727	0.133
728	0.133
728	0.133
729	0.133
729	0.134
730	0.134
730	0.135
730	0.136
731	0.136
731	0.137
732	0.137
732	0.137
733	0.137
733	0.137
734	0.137
734	0.137
734	0.137
735	0.137
735	0.136
736	0.136
736	0.135
737	0.135
737	0.135
737	0.135
738	0.134
738	0.134
739	0.133
739	0.133
740	0.133
740	0.133
741	0.133
741	0.134
741	0.133
742	0.133
742	0.134
743	0.134
743	0.134
744	0.134
744	0.135
744	0.134
745	0.134
745	0.134
746	0.134
746	0.134
747	0.134
747	0.134
748	0.134
748	0.134
748	0.135
749	0.135
749	0.135
750	0.135
750	0.135
751	0.135
751	0.135
751	0.135
752	0.135
752	0.134
753	0.134
753	0.133
754	0.133
754	0.132
754	0.132
755	0.132
755	0.131
756	0.131
756	0.129
757	0.129
757	0.129
758	0.129
758	0.129
758	0.129
759	0.129
759	0.129
760	0.128
760	0.128
761	0.128
761	0.129
761	0.13
762	0.13
762	0.13
763	0.13
763	0.13
764	0.129
764	0.129
764	0.129
765	0.129
765	0.128
766	0.128
766	0.128
767	0.128
767	0.127
768	0.126
768	0.127
768	0.127
769	0.127
769	0.127
770	0.127
770	0.128
771	0.128
771	0.127
771	0.128
772	0.128
772	0.128
773	0.127
773	0.127
774	0.127
774	0.127
775	0.127
775	0.127
775	0.127
776	0.127
776	0.126
777	0.126
777	0.126
778	0.126
778	0.125
778	0.125
779	0.124
779	0.123
780	0.122
780	0.122
781	0.121
781	0.121
781	0.12
782	0.12
782	0.12
783	0.12
783	0.12
784	0.12
784	0.12
784	0.121
785	0.121
785	0.121
786	0.121
786	0.121
787	0.121
787	0.121
788	0.121
788	0.121
788	0.12
789	0.119
789	0.119
790	0.119
790	0.118
791	0.118
791	0.117
791	0.117
792	0.117
792	0.117
793	0.116
793	0.116
794	0.116
794	0.115
794	0.115
795	0.115
795	0.115
796	0.115
796	0.115
797	0.114
797	0.114
797	0.114
798	0.114
798	0.114
799	0.114
799	0.114
800	0.114
800	0.113
801	0.113
801	0.113
801	0.112
802	0.112
802	0.112
803	0.112
803	0.112
804	0.112
804	0.112
804	0.112
805	0.112
805	0.112
806	0.112
806	0.112
807	0.112
807	0.112
807	0.112
808	0.112
808	0.112
809	0.112
809	0.112
810	0.111
810	0.111
810	0.111
811	0.11
811	0.11
812	0.111
812	0.111
813	0.111
813	0.111
813	0.111
814	0.111
814	0.111
815	0.111
815	0.111
816	0.111
816	0.11
817	0.109
817	0.108
817	0.108
818	0.107
818	0.107
819	0.107
819	0.106
820	0.105
820	0.104
820	0.104
821	0.104
821	0.104
822	0.104
822	0.104
823	0.104
823	0.104
823	0.105
824	0.106
824	0.107
825	0.108
825	0.108
826	0.109
826	0.108
826	0.108
827	0.108
827	0.108
828	0.107
828	0.107
829	0.106
829	0.106
829	0.105
830	0.105
830	0.105
831	0.106
831	0.107
832	0.107
832	0.107
832	0.107
833	0.107
833	0.107
834	0.107
834	0.106
835	0.106
835	0.105
835	0.104
836	0.103
836	0.102
837	0.102
837	0.101
838	0.1
838	0.1
839	0.099
839	0.099
839	0.098
840	0.097
840	0.096
841	0.095
841	0.094
842	0.093
842	0.093
842	0.093
843	0.092
843	0.092
844	0.092
844	0.093
845	0.093
845	0.093
845	0.094
846	0.095
846	0.095
847	0.095
847	0.096
848	0.096
848	0.095
848	0.095
849	0.095
849	0.094
850	0.093
850	0.092
851	0.092
851	0.091
851	0.09
852	0.089
852	0.088
853	0.088
853	0.087
854	0.087
854	0.088
854	0.088
855	0.089
855	0.089
856	0.09
856	0.091
857	0.092
857	0.092
857	0.093
858	0.093
858	0.093
859	0.092
859	0.092
860	0.091
860	0.09
860	0.089
861	0.088
861	0.087
862	0.086
862	0.085
863	0.084
863	0.084
863	0.084
864	0.084
864	0.084
865	0.084
865	0.084
866	0.084
866	0.084
866	0.084
867	0.084
867	0.084
868	0.084
868	0.084
869	0.083
869	0.082
869	0.081
870	0.08
870	0.08
871	0.079
871	0.079
872	0.079
872	0.078
872	0.078
873	0.078
873	0.077
874	0.077
874	0.077
875	0.077
875	0.077
875	0.077
876	0.077
876	0.077
877	0.077
877	0.078
878	0.078
878	0.078
878	0.078
879	0.079
879	0.079
880	0.079
880	0.079
881	0.079
881	0.079
881	0.079
882	0.078
882	0.078
883	0.078
883	0.078
884	0.078
884	0.078
884	0.078
885	0.078
885	0.078
886	0.077
886	0.077
887	0.076
887	0.075
887	0.075
888	0.074
888	0.073
889	0.073
889	0.072
890	0.072
890	0.072
890	0.072
891	0.071
891	0.072
892	0.072
892	0.072
893	0.072
893	0.072
893	0.072
894	0.072
894	0.072
895	0.071
895	0.071
895	0.071
896	0.071
896	0.071
897	0.071
897	0.07
898	0.07
898	0.07
898	0.069
899	0.069
899	0.069
900	0.069
900	0.068
901	0.068
901	0.068
901	0.068
902	0.067
902	0.067
903	0.067
903	0.066
904	0.066
904	0.066
904	0.066
905	0.066
905	0.066
906	0.067
906	0.067
907	0.068
907	0.069
907	0.07
908	0.07
908	0.071
909	0.072
909	0.072
910	0.073
910	0.073
910	0.073
911	0.073
911	0.073
912	0.072
912	0.072
913	0.072
913	0.071
913	0.071
914	0.071
914	0.07
915	0.07
915	0.07
916	0.069
916	0.069
916	0.068
917	0.068
917	0.068
918	0.067
918	0.067
918	0.067
919	0.067
919	0.066
920	0.066
920	0.066
921	0.066
921	0.066
921	0.066
922	0.066
922	0.066
923	0.067
923	0.067
924	0.067
924	0.067
924	0.067
925	0.067
925	0.067
926	0.067
926	0.066
927	0.066
927	0.066
927	0.066
928	0.066
928	0.065
929	0.066
929	0.066
930	0.066
930	0.066
930	0.066
931	0.067
931	0.067
932	0.067
932	0.067
933	0.067
933	0.067
933	0.067
934	0.067
934	0.067
935	0.066
935	0.066
935	0.066
936	0.065
936	0.065
937	0.065
937	0.064
938	0.064
938	0.063
938	0.063
939	0.062
939	0.062
940	0.061
940	0.061
941	0.06
941	0.06
941	0.06
942	0.06
942	0.06
943	0.06
943	0.06
944	0.061
944	0.061
944	0.061
945	0.062
945	0.063
946	0.063
946	0.063
946	0.064
947	0.064
947	0.064
948	0.065
948	0.065
949	0.065
949	0.065
949	0.065
950	0.065
950	0.065
951	0.064
951	0.064
952	0.063
952	0.062
952	0.061
953	0.061
953	0.06
954	0.059
954	0.058
955	0.058
955	0.057
955	0.057
956	0.056
956	0.057
957	0.057
957	0.056
957	0.057
958	0.057
958	0.057
959	0.057
959	0.057
960	0.057
960	0.057
960	0.057
961	0.057
961	0.057
962	0.056
962	0.056
963	0.056
963	0.056
963	0.055
964	0.055
964	0.056
965	0.056
965	0.056
966	0.056
966	0.057
966	0.057
967	0.058
967	0.058
968	0.059
968	0.059
968	0.059
969	0.059
969	0.059
970	0.059
970	0.059
971	0.059
971	0.059
971	0.059
972	0.058
972	0.058
973	0.058
973	0.057
974	0.057
974	0.057
974	0.057
975	0.057
975	0.057
976	0.057
976	0.057
976	0.057
977	0.057
977	0.057
978	0.057
978	0.057
979	0.057
979	0.057
979	0.057
980	0.058
980	0.057
981	0.057
981	0.058
982	0.058
982	0.058
982	0.058
983	0.058
983	0.058
984	0.058
984	0.058
984	0.058
985	0.058
985	0.058
986	0.058
986	0.057
987	0.057
987	0.057
987	0.056
988	0.056
988	0.056
989	0.055
989	0.055
990	0.054
990	0.054
990	0.054
991	0.054
991	0.053
992	0.053
992	0.053
992	0.052
993	0.052
993	0.051
994	0.051
994	0.05
995	0.05
995	0.05
995	0.05
996	0.05
996	0.051
997	0.051
997	0.052
997	0.053
998	0.054
998	0.054
999	0.055
999	0.056
1000	0.057
1000	0.057
1000	0.057
1001	0.057
1001	0.057
1002	0.057
1002	0.056
1003	0.056
1003	0.055
1003	0.054
1004	0.053
1004	0.052
1005	0.051
1005	0.05
1005	0.049
1006	0.048
1006	0.048
1007	0.047
1007	0.047
1008	0.047
1008	0.047
1008	0.047
1009	0.048
1009	0.048
1010	0.048
1010	0.049
1010	0.049
1011	0.049
1011	0.049
1012	0.049
1012	0.049
1013	0.05
1013	0.049
1013	0.049
1014	0.049
1014	0.049
1015	0.049
1015	0.049
1016	0.048
1016	0.048
1016	0.047
1017	0.047
1017	0.046
1018	0.046
1018	0.046
1018	0.045
1019	0.045
1019	0.045
1020	0.045
1020	0.045
1021	0.045
1021	0.045
1021	0.046
1022	0.046
1022	0.046
1023	0.046
1023	0.046
1023	0.046
1024	0.046
1024	0.046
1025	0.046
1025	0.046
1026	0.046
1026	0.045
1026	0.045
1027	0.045
1027	0.045
1028	0.045
1028	0.045
1028	0.045
1029	0.045
1029	0.045
1030	0.045
1030	0.045
1031	0.046
1031	0.046
1031	0.046
1032	0.047
1032	0.047
1033	0.048
1033	0.048
1033	0.048
1034	0.048
1034	0.048
1035	0.048
1035	0.048
1036	0.047
1036	0.047
1036	0.047
1037	0.047
1037	0.046
1038	0.046
1038	0.046
1039	0.045
1039	0.045
1039	0.045
1040	0.045
1040	0.046
1041	0.046
1041	0.046
1041	0.046
1042	0.047
1042	0.047
1043	0.047
1043	0.048
1044	0.048
1044	0.049
1044	0.05
1045	0.05
1045	0.05
1046	0.051
1046	0.051
1046	0.052
1047	0.052
1047	0.053
1048	0.053
1048	0.053
1049	0.054
1049	0.054
1049	0.054
1050	0.054
1050	0.054
1051	0.053
1051	0.053
1051	0.053
1052	0.053
1052	0.052
1053	0.052
1053	0.051
1053	0.05
1054	0.05
1054	0.049
1055	0.049
1055	0.048
1056	0.047
1056	0.047
1056	0.046
1057	0.045
1057	0.044
1058	0.044
1058	0.043
1058	0.042
1059	0.042
1059	0.042
1060	0.041
1060	0.041
1061	0.04
1061	0.04
1061	0.041
1062	0.04
1062	0.04
1063	0.04
1063	0.04
1063	0.039
1064	0.039
1064	0.039
1065	0.039
1065	0.039
1066	0.039
1066	0.038
1066	0.038
1067	0.038
1067	0.038
1068	0.038
1068	0.038
1068	0.038
1069	0.037
1069	0.037
1070	0.036
1070	0.036
1071	0.035
1071	0.035
1071	0.035
1072	0.035
1072	0.035
1073	0.034
1073	0.034
1073	0.034
1074	0.035
1074	0.035
1075	0.035
1075	0.035
1076	0.035
1076	0.036
1076	0.036
1077	0.036
1077	0.036
1078	0.037
1078	0.037
1078	0.036
1079	0.036
1079	0.036
1080	0.036
1080	0.036
1080	0.036
1081	0.035
1081	0.036
1082	0.036
1082	0.036
1083	0.036
1083	0.036
1083	0.036
1084	0.036
1084	0.037
1085	0.036
1085	0.036
1085	0.037
1086	0.037
1086	0.036
1087	0.036
1087	0.035
1088	0.034
1088	0.034
1088	0.034
1089	0.033
1089	0.032
1090	0.031
1090	0.03
1090	0.029
1091	0.029
1091	0.028
1092	0.029
1092	0.029
1092	0.028
1093	0.028
1093	0.029
1094	0.028
1094	0.029
1095	0.029
1095	0.029
1095	0.029
1096	0.029
1096	0.029
1097	0.028
1097	0.027
1097	0.027
1098	0.026
1098	0.025
1099	0.024
1099	0.023
1100	0.022
1100	0.021
1100	0.021
1101	0.02
1101	0.02
1102	0.02
1102	0.019
1102	0.018
1103	0.018
1103	0.019
1104	0.018
1104	0.018
1104	0.017
1105	0.016
1105	0.014
1106	0.012
1106	0.011
1107	0.01
1107	0.009
1107	0.008
1108	0.007
1108	0.007
1109	0.006
1109	0.005
1109	0.005
1110	0.007
1110	0.008
1111	0.007
1111	0.007
