Data from reversibility-20sec_Absorbance__3313__000000000003313.txt Node

Date: Wed Dec 06 06:37:25 CET 2023
User: Marek
Spectrometer: MAYP115816
Trigger mode: 0
Integration Time (sec): 2.000000E-1
Scans to average: 10
Electric dark correction enabled: true
Nonlinearity correction enabled: true
Boxcar width: 5
XAxis mode: Wavelengths
Number of Pixels in Spectrum: 2068
>>>>>Begin Spectral Data<<<<<
199	-0.117
199	-0.078
200	-0.017
200	0.036
201	0.067
201	0.086
202	0.097
202	0.103
203	0.113
203	0.118
204	0.134
204	0.149
205	0.161
205	0.168
205	0.164
206	0.162
206	0.16
207	0.161
207	0.161
208	0.157
208	0.153
209	0.154
209	0.152
210	0.153
210	0.153
211	0.155
211	0.159
212	0.156
212	0.158
213	0.163
213	0.164
213	0.165
214	0.166
214	0.168
215	0.169
215	0.17
216	0.168
216	0.168
217	0.173
217	0.173
218	0.171
218	0.177
219	0.185
219	0.185
220	0.188
220	0.189
221	0.189
221	0.194
221	0.198
222	0.205
222	0.21
223	0.214
223	0.218
224	0.219
224	0.229
225	0.238
225	0.245
226	0.256
226	0.266
227	0.277
227	0.284
228	0.302
228	0.317
229	0.334
229	0.359
229	0.381
230	0.406
230	0.439
231	0.471
231	0.509
232	0.545
232	0.589
233	0.628
233	0.677
234	0.728
234	0.777
235	0.827
235	0.88
236	0.93
236	0.982
236	1.034
237	1.088
237	1.138
238	1.186
238	1.234
239	1.278
239	1.321
240	1.362
240	1.398
241	1.433
241	1.467
242	1.499
242	1.529
243	1.557
243	1.581
243	1.605
244	1.628
244	1.65
245	1.667
245	1.69
246	1.707
246	1.725
247	1.737
247	1.751
248	1.763
248	1.776
249	1.783
249	1.789
250	1.796
250	1.803
250	1.804
251	1.808
251	1.806
252	1.812
252	1.814
253	1.815
253	1.813
254	1.812
254	1.812
255	1.808
255	1.807
256	1.805
256	1.805
257	1.805
257	1.802
258	1.801
258	1.801
258	1.8
259	1.799
259	1.8
260	1.799
260	1.8
261	1.802
261	1.803
262	1.806
262	1.807
263	1.809
263	1.808
264	1.809
264	1.812
265	1.811
265	1.814
265	1.814
266	1.814
266	1.813
267	1.81
267	1.811
268	1.809
268	1.81
269	1.812
269	1.811
270	1.81
270	1.808
271	1.805
271	1.804
272	1.802
272	1.801
272	1.797
273	1.791
273	1.784
274	1.777
274	1.77
275	1.763
275	1.755
276	1.749
276	1.741
277	1.732
277	1.721
278	1.709
278	1.698
278	1.683
279	1.667
279	1.645
280	1.619
280	1.587
281	1.551
281	1.511
282	1.468
282	1.425
283	1.383
283	1.342
284	1.302
284	1.264
285	1.229
285	1.197
285	1.169
286	1.143
286	1.121
287	1.102
287	1.086
288	1.072
288	1.061
289	1.051
289	1.042
290	1.035
290	1.028
291	1.023
291	1.017
292	1.012
292	1.008
292	1.004
293	1.001
293	0.998
294	0.994
294	0.991
295	0.988
295	0.986
296	0.983
296	0.98
297	0.977
297	0.974
298	0.972
298	0.969
298	0.967
299	0.964
299	0.962
300	0.959
300	0.957
301	0.954
301	0.953
302	0.95
302	0.948
303	0.946
303	0.943
304	0.941
304	0.939
305	0.937
305	0.935
305	0.933
306	0.931
306	0.928
307	0.927
307	0.924
308	0.922
308	0.919
309	0.917
309	0.914
310	0.911
310	0.908
311	0.905
311	0.902
311	0.899
312	0.896
312	0.893
313	0.889
313	0.886
314	0.882
314	0.878
315	0.874
315	0.87
316	0.866
316	0.862
317	0.857
317	0.853
318	0.848
318	0.843
318	0.838
319	0.833
319	0.827
320	0.822
320	0.816
321	0.811
321	0.805
322	0.799
322	0.793
323	0.787
323	0.78
324	0.774
324	0.767
324	0.761
325	0.754
325	0.748
326	0.741
326	0.734
327	0.728
327	0.721
328	0.714
328	0.708
329	0.701
329	0.694
330	0.687
330	0.68
330	0.673
331	0.666
331	0.659
332	0.653
332	0.646
333	0.639
333	0.632
334	0.625
334	0.618
335	0.612
335	0.605
336	0.599
336	0.592
336	0.586
337	0.58
337	0.574
338	0.568
338	0.562
339	0.556
339	0.55
340	0.545
340	0.539
341	0.534
341	0.528
342	0.523
342	0.517
342	0.512
343	0.507
343	0.502
344	0.497
344	0.492
345	0.488
345	0.483
346	0.479
346	0.474
347	0.47
347	0.466
348	0.462
348	0.458
348	0.454
349	0.45
349	0.447
350	0.443
350	0.44
351	0.437
351	0.434
352	0.431
352	0.428
353	0.425
353	0.422
354	0.419
354	0.416
354	0.413
355	0.411
355	0.407
356	0.405
356	0.402
357	0.399
357	0.396
358	0.393
358	0.391
359	0.388
359	0.386
360	0.384
360	0.382
360	0.381
361	0.379
361	0.377
362	0.375
362	0.374
363	0.372
363	0.37
364	0.368
364	0.367
365	0.365
365	0.363
366	0.361
366	0.36
366	0.358
367	0.356
367	0.355
368	0.353
368	0.351
369	0.35
369	0.349
370	0.347
370	0.346
371	0.344
371	0.343
372	0.342
372	0.34
372	0.339
373	0.338
373	0.337
374	0.336
374	0.335
375	0.334
375	0.333
376	0.333
376	0.332
377	0.331
377	0.33
378	0.329
378	0.328
378	0.327
379	0.326
379	0.325
380	0.325
380	0.324
381	0.323
381	0.322
382	0.322
382	0.321
383	0.321
383	0.32
383	0.319
384	0.319
384	0.318
385	0.318
385	0.317
386	0.317
386	0.316
387	0.316
387	0.315
388	0.315
388	0.315
389	0.314
389	0.313
389	0.313
390	0.313
390	0.312
391	0.312
391	0.312
392	0.311
392	0.311
393	0.311
393	0.31
394	0.31
394	0.31
394	0.309
395	0.309
395	0.309
396	0.308
396	0.308
397	0.307
397	0.307
398	0.307
398	0.306
399	0.306
399	0.306
400	0.305
400	0.305
400	0.304
401	0.304
401	0.303
402	0.303
402	0.303
403	0.302
403	0.302
404	0.302
404	0.301
405	0.301
405	0.301
405	0.301
406	0.301
406	0.3
407	0.3
407	0.3
408	0.299
408	0.299
409	0.299
409	0.298
410	0.298
410	0.298
411	0.298
411	0.297
411	0.297
412	0.297
412	0.297
413	0.296
413	0.296
414	0.296
414	0.295
415	0.295
415	0.294
416	0.294
416	0.294
416	0.293
417	0.293
417	0.293
418	0.293
418	0.292
419	0.292
419	0.292
420	0.291
420	0.291
421	0.29
421	0.29
421	0.29
422	0.289
422	0.289
423	0.288
423	0.288
424	0.288
424	0.287
425	0.287
425	0.287
426	0.286
426	0.286
427	0.286
427	0.285
427	0.285
428	0.285
428	0.284
429	0.284
429	0.284
430	0.283
430	0.283
431	0.283
431	0.283
432	0.283
432	0.283
432	0.282
433	0.282
433	0.282
434	0.282
434	0.282
435	0.282
435	0.282
436	0.281
436	0.281
437	0.281
437	0.281
437	0.28
438	0.28
438	0.28
439	0.28
439	0.28
440	0.279
440	0.279
441	0.279
441	0.279
442	0.278
442	0.278
442	0.278
443	0.278
443	0.278
444	0.278
444	0.277
445	0.277
445	0.277
446	0.277
446	0.277
447	0.276
447	0.276
447	0.276
448	0.276
448	0.276
449	0.276
449	0.276
450	0.275
450	0.275
451	0.275
451	0.275
452	0.275
452	0.275
452	0.275
453	0.275
453	0.275
454	0.274
454	0.274
455	0.274
455	0.274
456	0.273
456	0.273
457	0.273
457	0.272
458	0.272
458	0.272
458	0.272
459	0.272
459	0.272
460	0.272
460	0.272
461	0.272
461	0.272
462	0.272
462	0.272
463	0.271
463	0.271
463	0.271
464	0.271
464	0.27
465	0.27
465	0.27
466	0.27
466	0.27
467	0.27
467	0.27
467	0.27
468	0.27
468	0.27
469	0.27
469	0.271
470	0.271
470	0.271
471	0.271
471	0.271
472	0.271
472	0.271
472	0.271
473	0.271
473	0.271
474	0.271
474	0.271
475	0.27
475	0.27
476	0.271
476	0.271
477	0.271
477	0.271
477	0.271
478	0.271
478	0.272
479	0.272
479	0.272
480	0.272
480	0.273
481	0.273
481	0.273
482	0.273
482	0.274
482	0.274
483	0.274
483	0.274
484	0.275
484	0.275
485	0.275
485	0.275
486	0.275
486	0.275
487	0.275
487	0.276
487	0.276
488	0.276
488	0.277
489	0.277
489	0.278
490	0.279
490	0.28
491	0.281
491	0.281
492	0.282
492	0.283
492	0.283
493	0.284
493	0.285
494	0.285
494	0.286
495	0.286
495	0.287
496	0.287
496	0.288
496	0.289
497	0.289
497	0.29
498	0.291
498	0.291
499	0.292
499	0.292
500	0.293
500	0.294
501	0.295
501	0.295
501	0.296
502	0.296
502	0.297
503	0.297
503	0.298
504	0.299
504	0.3
505	0.3
505	0.301
506	0.302
506	0.303
506	0.303
507	0.304
507	0.305
508	0.305
508	0.306
509	0.306
509	0.307
510	0.308
510	0.308
511	0.309
511	0.309
511	0.31
512	0.311
512	0.311
513	0.312
513	0.312
514	0.313
514	0.314
515	0.314
515	0.314
515	0.315
516	0.315
516	0.316
517	0.316
517	0.317
518	0.317
518	0.318
519	0.318
519	0.318
520	0.319
520	0.319
520	0.319
521	0.319
521	0.319
522	0.319
522	0.32
523	0.32
523	0.321
524	0.321
524	0.321
524	0.321
525	0.322
525	0.321
526	0.321
526	0.321
527	0.321
527	0.321
528	0.321
528	0.32
529	0.32
529	0.32
529	0.32
530	0.319
530	0.319
531	0.319
531	0.319
532	0.318
532	0.318
533	0.317
533	0.317
533	0.316
534	0.316
534	0.315
535	0.315
535	0.314
536	0.313
536	0.313
537	0.312
537	0.312
538	0.311
538	0.31
538	0.31
539	0.309
539	0.309
540	0.308
540	0.308
541	0.307
541	0.307
542	0.306
542	0.306
542	0.305
543	0.305
543	0.304
544	0.304
544	0.303
545	0.302
545	0.302
546	0.301
546	0.3
547	0.299
547	0.298
547	0.297
548	0.297
548	0.296
549	0.295
549	0.294
550	0.293
550	0.293
551	0.292
551	0.291
551	0.29
552	0.289
552	0.288
553	0.288
553	0.287
554	0.286
554	0.286
555	0.285
555	0.284
556	0.283
556	0.282
556	0.282
557	0.281
557	0.281
558	0.28
558	0.28
559	0.279
559	0.278
560	0.278
560	0.277
560	0.277
561	0.276
561	0.275
562	0.274
562	0.273
563	0.272
563	0.271
564	0.27
564	0.269
564	0.269
565	0.268
565	0.267
566	0.266
566	0.266
567	0.265
567	0.265
568	0.264
568	0.263
568	0.263
569	0.263
569	0.262
570	0.261
570	0.26
571	0.259
571	0.259
572	0.258
572	0.257
573	0.256
573	0.256
573	0.255
574	0.254
574	0.254
575	0.254
575	0.254
576	0.253
576	0.252
577	0.252
577	0.251
577	0.251
578	0.25
578	0.249
579	0.249
579	0.249
580	0.248
580	0.247
581	0.246
581	0.246
581	0.245
582	0.245
582	0.245
583	0.245
583	0.244
584	0.243
584	0.242
585	0.242
585	0.241
585	0.241
586	0.24
586	0.24
587	0.239
587	0.239
588	0.238
588	0.238
589	0.237
589	0.237
590	0.237
590	0.236
590	0.236
591	0.236
591	0.235
592	0.234
592	0.234
593	0.233
593	0.233
594	0.232
594	0.231
594	0.23
595	0.23
595	0.229
596	0.228
596	0.228
597	0.228
597	0.228
598	0.228
598	0.228
598	0.228
599	0.228
599	0.228
600	0.228
600	0.228
601	0.227
601	0.227
602	0.227
602	0.226
602	0.226
603	0.225
603	0.225
604	0.225
604	0.224
605	0.224
605	0.224
606	0.223
606	0.222
606	0.222
607	0.221
607	0.221
608	0.22
608	0.219
609	0.218
609	0.218
610	0.218
610	0.217
610	0.217
611	0.217
611	0.217
612	0.217
612	0.217
613	0.217
613	0.217
614	0.217
614	0.217
614	0.216
615	0.216
615	0.216
616	0.216
616	0.216
617	0.216
617	0.216
618	0.215
618	0.215
618	0.215
619	0.215
619	0.216
620	0.216
620	0.215
621	0.215
621	0.215
622	0.214
622	0.214
622	0.213
623	0.212
623	0.212
624	0.212
624	0.211
625	0.21
625	0.21
626	0.21
626	0.21
626	0.209
627	0.209
627	0.209
628	0.209
628	0.209
629	0.208
629	0.208
630	0.208
630	0.208
630	0.208
631	0.208
631	0.208
632	0.208
632	0.208
633	0.207
633	0.207
634	0.208
634	0.208
634	0.208
635	0.207
635	0.207
636	0.207
636	0.207
637	0.206
637	0.206
638	0.206
638	0.205
638	0.205
639	0.204
639	0.204
640	0.204
640	0.203
641	0.203
641	0.203
642	0.203
642	0.203
642	0.203
643	0.204
643	0.204
644	0.204
644	0.205
645	0.205
645	0.205
646	0.205
646	0.205
646	0.205
647	0.205
647	0.205
648	0.205
648	0.204
649	0.204
649	0.204
650	0.203
650	0.203
650	0.203
651	0.203
651	0.202
652	0.202
652	0.202
653	0.203
653	0.204
653	0.21
654	0.164
654	0.131
655	0.133
655	0.133
656	0.134
656	0.134
657	0.134
657	0.135
657	0.135
658	0.133
658	0.123
659	0.156
659	0.201
660	0.204
660	0.204
661	0.204
661	0.203
661	0.202
662	0.202
662	0.201
663	0.201
663	0.201
664	0.2
664	0.2
665	0.2
665	0.199
665	0.2
666	0.2
666	0.2
667	0.2
667	0.201
668	0.201
668	0.201
669	0.201
669	0.202
669	0.202
670	0.203
670	0.203
671	0.203
671	0.202
672	0.202
672	0.202
672	0.201
673	0.201
673	0.2
674	0.2
674	0.199
675	0.199
675	0.199
676	0.199
676	0.2
676	0.2
677	0.2
677	0.201
678	0.201
678	0.201
679	0.201
679	0.201
680	0.201
680	0.2
680	0.2
681	0.2
681	0.201
682	0.201
682	0.201
683	0.201
683	0.202
684	0.202
684	0.202
684	0.202
685	0.202
685	0.202
686	0.202
686	0.202
687	0.202
687	0.203
687	0.203
688	0.203
688	0.203
689	0.204
689	0.205
690	0.205
690	0.205
691	0.205
691	0.205
691	0.205
692	0.205
692	0.205
693	0.205
693	0.205
694	0.205
694	0.204
695	0.205
695	0.205
695	0.205
696	0.205
696	0.205
697	0.205
697	0.205
698	0.205
698	0.205
698	0.205
699	0.205
699	0.205
700	0.204
700	0.204
701	0.204
701	0.203
702	0.203
702	0.203
702	0.203
703	0.202
703	0.202
704	0.202
704	0.202
705	0.203
705	0.203
705	0.203
706	0.203
706	0.204
707	0.204
707	0.204
708	0.204
708	0.204
709	0.204
709	0.204
709	0.203
710	0.203
710	0.203
711	0.203
711	0.203
712	0.203
712	0.203
713	0.203
713	0.204
713	0.204
714	0.204
714	0.204
715	0.204
715	0.204
716	0.203
716	0.203
716	0.203
717	0.203
717	0.202
718	0.202
718	0.202
719	0.202
719	0.202
720	0.202
720	0.203
720	0.203
721	0.203
721	0.204
722	0.204
722	0.205
723	0.205
723	0.205
723	0.205
724	0.205
724	0.204
725	0.203
725	0.203
726	0.202
726	0.202
727	0.201
727	0.201
727	0.201
728	0.201
728	0.201
729	0.202
729	0.202
730	0.203
730	0.203
730	0.204
731	0.205
731	0.206
732	0.206
732	0.207
733	0.207
733	0.207
734	0.207
734	0.207
734	0.207
735	0.207
735	0.206
736	0.206
736	0.205
737	0.205
737	0.205
737	0.204
738	0.204
738	0.203
739	0.203
739	0.203
740	0.203
740	0.203
741	0.203
741	0.203
741	0.203
742	0.203
742	0.204
743	0.205
743	0.205
744	0.205
744	0.206
744	0.206
745	0.206
745	0.206
746	0.206
746	0.206
747	0.206
747	0.206
748	0.207
748	0.207
748	0.207
749	0.207
749	0.208
750	0.208
750	0.208
751	0.209
751	0.209
751	0.209
752	0.209
752	0.208
753	0.208
753	0.208
754	0.207
754	0.207
754	0.207
755	0.207
755	0.206
756	0.206
756	0.205
757	0.205
757	0.205
758	0.205
758	0.205
758	0.205
759	0.205
759	0.205
760	0.205
760	0.205
761	0.205
761	0.206
761	0.206
762	0.206
762	0.207
763	0.207
763	0.207
764	0.207
764	0.208
764	0.208
765	0.208
765	0.208
766	0.208
766	0.208
767	0.208
767	0.207
768	0.206
768	0.206
768	0.207
769	0.207
769	0.207
770	0.207
770	0.208
771	0.208
771	0.208
771	0.208
772	0.209
772	0.209
773	0.21
773	0.21
774	0.21
774	0.21
775	0.211
775	0.211
775	0.211
776	0.211
776	0.212
777	0.212
777	0.212
778	0.212
778	0.212
778	0.212
779	0.211
779	0.211
780	0.21
780	0.21
781	0.209
781	0.209
781	0.209
782	0.209
782	0.208
783	0.209
783	0.209
784	0.209
784	0.21
784	0.21
785	0.211
785	0.211
786	0.211
786	0.211
787	0.211
787	0.211
788	0.211
788	0.211
788	0.211
789	0.21
789	0.21
790	0.21
790	0.21
791	0.21
791	0.21
791	0.209
792	0.21
792	0.21
793	0.21
793	0.21
794	0.209
794	0.209
794	0.209
795	0.209
795	0.209
796	0.21
796	0.21
797	0.209
797	0.209
797	0.21
798	0.21
798	0.21
799	0.21
799	0.21
800	0.21
800	0.209
801	0.209
801	0.209
801	0.209
802	0.21
802	0.21
803	0.21
803	0.21
804	0.211
804	0.211
804	0.211
805	0.212
805	0.212
806	0.212
806	0.212
807	0.212
807	0.212
807	0.212
808	0.212
808	0.212
809	0.212
809	0.212
810	0.212
810	0.212
810	0.212
811	0.211
811	0.211
812	0.212
812	0.212
813	0.212
813	0.213
813	0.213
814	0.213
814	0.213
815	0.214
815	0.214
816	0.214
816	0.213
817	0.212
817	0.212
817	0.211
818	0.211
818	0.211
819	0.211
819	0.21
820	0.21
820	0.209
820	0.209
821	0.209
821	0.21
822	0.21
822	0.21
823	0.211
823	0.211
823	0.212
824	0.213
824	0.215
825	0.216
825	0.217
826	0.217
826	0.217
826	0.218
827	0.218
827	0.218
828	0.217
828	0.217
829	0.217
829	0.216
829	0.216
830	0.216
830	0.216
831	0.216
831	0.217
832	0.216
832	0.217
832	0.217
833	0.217
833	0.216
834	0.216
834	0.216
835	0.215
835	0.214
835	0.213
836	0.213
836	0.212
837	0.211
837	0.211
838	0.21
838	0.21
839	0.209
839	0.209
839	0.209
840	0.208
840	0.207
841	0.207
841	0.206
842	0.206
842	0.205
842	0.205
843	0.205
843	0.205
844	0.205
844	0.205
845	0.205
845	0.205
845	0.206
846	0.206
846	0.206
847	0.206
847	0.206
848	0.206
848	0.205
848	0.205
849	0.204
849	0.204
850	0.203
850	0.202
851	0.202
851	0.201
851	0.201
852	0.2
852	0.2
853	0.199
853	0.199
854	0.199
854	0.2
854	0.201
855	0.201
855	0.202
856	0.203
856	0.203
857	0.204
857	0.205
857	0.205
858	0.205
858	0.205
859	0.204
859	0.203
860	0.203
860	0.202
860	0.2
861	0.199
861	0.199
862	0.197
862	0.197
863	0.196
863	0.196
863	0.195
864	0.195
864	0.195
865	0.195
865	0.195
866	0.195
866	0.195
866	0.194
867	0.194
867	0.194
868	0.193
868	0.193
869	0.192
869	0.192
869	0.19
870	0.19
870	0.189
871	0.189
871	0.188
872	0.188
872	0.188
872	0.188
873	0.188
873	0.188
874	0.187
874	0.187
875	0.187
875	0.187
875	0.187
876	0.187
876	0.186
877	0.186
877	0.186
878	0.186
878	0.186
878	0.187
879	0.187
879	0.187
880	0.187
880	0.187
881	0.187
881	0.187
881	0.187
882	0.186
882	0.186
883	0.185
883	0.185
884	0.185
884	0.185
884	0.185
885	0.185
885	0.185
886	0.184
886	0.184
887	0.183
887	0.183
887	0.182
888	0.181
888	0.18
889	0.18
889	0.179
890	0.179
890	0.178
890	0.178
891	0.177
891	0.177
892	0.176
892	0.176
893	0.176
893	0.175
893	0.175
894	0.174
894	0.173
895	0.173
895	0.172
895	0.172
896	0.171
896	0.171
897	0.171
897	0.17
898	0.169
898	0.169
898	0.169
899	0.168
899	0.168
900	0.168
900	0.168
901	0.168
901	0.168
901	0.168
902	0.168
902	0.168
903	0.168
903	0.168
904	0.168
904	0.167
904	0.167
905	0.167
905	0.167
906	0.167
906	0.168
907	0.168
907	0.169
907	0.17
908	0.17
908	0.171
909	0.171
909	0.171
910	0.171
910	0.171
910	0.171
911	0.17
911	0.17
912	0.169
912	0.169
913	0.168
913	0.168
913	0.167
914	0.167
914	0.166
915	0.166
915	0.166
916	0.166
916	0.166
916	0.165
917	0.165
917	0.164
918	0.164
918	0.163
918	0.163
919	0.162
919	0.161
920	0.16
920	0.16
921	0.159
921	0.159
921	0.158
922	0.158
922	0.158
923	0.158
923	0.158
924	0.158
924	0.158
924	0.158
925	0.159
925	0.159
926	0.158
926	0.158
927	0.158
927	0.158
927	0.157
928	0.157
928	0.157
929	0.157
929	0.156
930	0.156
930	0.156
930	0.156
931	0.156
931	0.156
932	0.156
932	0.156
933	0.156
933	0.156
933	0.155
934	0.155
934	0.154
935	0.154
935	0.154
935	0.153
936	0.153
936	0.152
937	0.152
937	0.151
938	0.15
938	0.149
938	0.149
939	0.148
939	0.147
940	0.146
940	0.145
941	0.145
941	0.144
941	0.144
942	0.144
942	0.144
943	0.144
943	0.143
944	0.143
944	0.143
944	0.143
945	0.143
945	0.144
946	0.144
946	0.143
946	0.143
947	0.144
947	0.144
948	0.144
948	0.144
949	0.144
949	0.144
949	0.144
950	0.144
950	0.144
951	0.143
951	0.143
952	0.142
952	0.141
952	0.14
953	0.139
953	0.138
954	0.137
954	0.136
955	0.136
955	0.135
955	0.134
956	0.134
956	0.134
957	0.134
957	0.134
957	0.134
958	0.133
958	0.133
959	0.133
959	0.133
960	0.133
960	0.133
960	0.133
961	0.133
961	0.132
962	0.132
962	0.131
963	0.131
963	0.131
963	0.131
964	0.131
964	0.13
965	0.13
965	0.13
966	0.131
966	0.131
966	0.132
967	0.132
967	0.133
968	0.133
968	0.133
968	0.134
969	0.134
969	0.134
970	0.134
970	0.133
971	0.133
971	0.132
971	0.132
972	0.131
972	0.13
973	0.13
973	0.129
974	0.129
974	0.128
974	0.128
975	0.128
975	0.128
976	0.128
976	0.128
976	0.128
977	0.128
977	0.128
978	0.128
978	0.128
979	0.128
979	0.128
979	0.128
980	0.128
980	0.128
981	0.128
981	0.127
982	0.127
982	0.127
982	0.126
983	0.126
983	0.126
984	0.125
984	0.125
984	0.124
985	0.124
985	0.124
986	0.123
986	0.123
987	0.122
987	0.122
987	0.121
988	0.121
988	0.121
989	0.12
989	0.119
990	0.119
990	0.118
990	0.118
991	0.117
991	0.117
992	0.116
992	0.116
992	0.115
993	0.115
993	0.114
994	0.114
994	0.114
995	0.114
995	0.114
995	0.114
996	0.114
996	0.114
997	0.115
997	0.115
997	0.116
998	0.116
998	0.117
999	0.118
999	0.118
1000	0.119
1000	0.119
1000	0.12
1001	0.12
1001	0.119
1002	0.119
1002	0.118
1003	0.118
1003	0.117
1003	0.116
1004	0.115
1004	0.114
1005	0.113
1005	0.112
1005	0.111
1006	0.11
1006	0.109
1007	0.109
1007	0.108
1008	0.108
1008	0.108
1008	0.108
1009	0.108
1009	0.108
1010	0.108
1010	0.109
1010	0.109
1011	0.109
1011	0.109
1012	0.109
1012	0.109
1013	0.109
1013	0.109
1013	0.109
1014	0.108
1014	0.108
1015	0.108
1015	0.108
1016	0.108
1016	0.108
1016	0.107
1017	0.107
1017	0.106
1018	0.106
1018	0.105
1018	0.105
1019	0.104
1019	0.104
1020	0.104
1020	0.104
1021	0.104
1021	0.104
1021	0.104
1022	0.104
1022	0.104
1023	0.104
1023	0.104
1023	0.104
1024	0.104
1024	0.104
1025	0.104
1025	0.104
1026	0.104
1026	0.103
1026	0.103
1027	0.103
1027	0.103
1028	0.103
1028	0.103
1028	0.102
1029	0.103
1029	0.103
1030	0.103
1030	0.103
1031	0.103
1031	0.103
1031	0.104
1032	0.104
1032	0.104
1033	0.104
1033	0.104
1033	0.103
1034	0.103
1034	0.103
1035	0.102
1035	0.102
1036	0.101
1036	0.101
1036	0.1
1037	0.1
1037	0.099
1038	0.099
1038	0.099
1039	0.098
1039	0.098
1039	0.099
1040	0.099
1040	0.099
1041	0.099
1041	0.099
1041	0.099
1042	0.099
1042	0.099
1043	0.1
1043	0.1
1044	0.1
1044	0.1
1044	0.1
1045	0.101
1045	0.101
1046	0.101
1046	0.101
1046	0.102
1047	0.102
1047	0.102
1048	0.103
1048	0.104
1049	0.104
1049	0.104
1049	0.104
1050	0.104
1050	0.104
1051	0.104
1051	0.104
1051	0.104
1052	0.104
1052	0.103
1053	0.102
1053	0.102
1053	0.101
1054	0.101
1054	0.1
1055	0.1
1055	0.099
1056	0.098
1056	0.097
1056	0.096
1057	0.095
1057	0.094
1058	0.094
1058	0.093
1058	0.092
1059	0.091
1059	0.091
1060	0.09
1060	0.09
1061	0.089
1061	0.089
1061	0.089
1062	0.089
1062	0.089
1063	0.089
1063	0.089
1063	0.089
1064	0.088
1064	0.088
1065	0.088
1065	0.087
1066	0.087
1066	0.087
1066	0.086
1067	0.086
1067	0.086
1068	0.085
1068	0.085
1068	0.085
1069	0.085
1069	0.084
1070	0.084
1070	0.084
1071	0.083
1071	0.083
1071	0.082
1072	0.082
1072	0.081
1073	0.081
1073	0.081
1073	0.081
1074	0.081
1074	0.081
1075	0.081
1075	0.081
1076	0.081
1076	0.082
1076	0.082
1077	0.083
1077	0.083
1078	0.083
1078	0.083
1078	0.083
1079	0.082
1079	0.082
1080	0.082
1080	0.082
1080	0.082
1081	0.081
1081	0.081
1082	0.082
1082	0.082
1083	0.082
1083	0.081
1083	0.082
1084	0.082
1084	0.082
1085	0.082
1085	0.082
1085	0.082
1086	0.082
1086	0.081
1087	0.08
1087	0.08
1088	0.08
1088	0.079
1088	0.079
1089	0.078
1089	0.077
1090	0.076
1090	0.075
1090	0.074
1091	0.073
1091	0.072
1092	0.072
1092	0.071
1092	0.071
1093	0.071
1093	0.071
1094	0.071
1094	0.071
1095	0.071
1095	0.071
1095	0.07
1096	0.07
1096	0.069
1097	0.069
1097	0.069
1097	0.069
1098	0.068
1098	0.067
1099	0.066
1099	0.065
1100	0.065
1100	0.064
1100	0.063
1101	0.063
1101	0.063
1102	0.062
1102	0.061
1102	0.06
1103	0.06
1103	0.06
1104	0.06
1104	0.06
1104	0.06
1105	0.059
1105	0.057
1106	0.055
1106	0.054
1107	0.054
1107	0.054
1107	0.053
1108	0.052
1108	0.05
1109	0.049
1109	0.048
1109	0.047
1110	0.049
1110	0.048
1111	0.048
1111	0.048
