Data from reversibility-20sec_Absorbance__5259__000000000005259.txt Node

Date: Wed Dec 06 17:26:06 CET 2023
User: Marek
Spectrometer: MAYP115816
Trigger mode: 0
Integration Time (sec): 2.000000E-1
Scans to average: 10
Electric dark correction enabled: true
Nonlinearity correction enabled: true
Boxcar width: 5
XAxis mode: Wavelengths
Number of Pixels in Spectrum: 2068
>>>>>Begin Spectral Data<<<<<
199	-0.169
199	-0.134
200	-0.066
200	-0.012
201	0.018
201	0.034
202	0.049
202	0.058
203	0.064
203	0.066
204	0.079
204	0.091
205	0.103
205	0.108
205	0.104
206	0.102
206	0.101
207	0.101
207	0.1
208	0.101
208	0.102
209	0.103
209	0.101
210	0.1
210	0.099
211	0.101
211	0.104
212	0.1
212	0.102
213	0.105
213	0.106
213	0.105
214	0.108
214	0.111
215	0.111
215	0.112
216	0.111
216	0.108
217	0.116
217	0.117
218	0.113
218	0.116
219	0.118
219	0.117
220	0.119
220	0.119
221	0.119
221	0.122
221	0.128
222	0.131
222	0.135
223	0.142
223	0.145
224	0.15
224	0.159
225	0.17
225	0.178
226	0.189
226	0.2
227	0.211
227	0.22
228	0.234
228	0.25
229	0.268
229	0.293
229	0.314
230	0.338
230	0.371
231	0.402
231	0.437
232	0.474
232	0.519
233	0.562
233	0.61
234	0.659
234	0.71
235	0.76
235	0.812
236	0.862
236	0.915
236	0.97
237	1.021
237	1.07
238	1.118
238	1.167
239	1.216
239	1.26
240	1.302
240	1.34
241	1.377
241	1.41
242	1.438
242	1.473
243	1.499
243	1.525
243	1.548
244	1.567
244	1.586
245	1.605
245	1.628
246	1.647
246	1.664
247	1.679
247	1.69
248	1.705
248	1.718
249	1.729
249	1.736
250	1.743
250	1.753
250	1.755
251	1.759
251	1.762
252	1.765
252	1.767
253	1.77
253	1.767
254	1.765
254	1.767
255	1.764
255	1.762
256	1.761
256	1.759
257	1.758
257	1.756
258	1.756
258	1.754
258	1.754
259	1.753
259	1.753
260	1.754
260	1.755
261	1.757
261	1.761
262	1.765
262	1.769
263	1.771
263	1.773
264	1.776
264	1.778
265	1.78
265	1.78
265	1.781
266	1.781
266	1.78
267	1.779
267	1.779
268	1.778
268	1.778
269	1.779
269	1.779
270	1.778
270	1.778
271	1.776
271	1.776
272	1.773
272	1.77
272	1.766
273	1.759
273	1.753
274	1.746
274	1.739
275	1.732
275	1.725
276	1.717
276	1.709
277	1.7
277	1.691
278	1.68
278	1.667
278	1.653
279	1.637
279	1.615
280	1.588
280	1.555
281	1.517
281	1.474
282	1.43
282	1.385
283	1.342
283	1.299
284	1.26
284	1.22
285	1.184
285	1.151
285	1.122
286	1.097
286	1.075
287	1.056
287	1.04
288	1.026
288	1.014
289	1.004
289	0.995
290	0.988
290	0.982
291	0.976
291	0.971
292	0.966
292	0.962
292	0.959
293	0.955
293	0.952
294	0.949
294	0.946
295	0.943
295	0.941
296	0.938
296	0.935
297	0.933
297	0.93
298	0.927
298	0.924
298	0.922
299	0.919
299	0.917
300	0.914
300	0.911
301	0.909
301	0.906
302	0.904
302	0.902
303	0.9
303	0.897
304	0.895
304	0.893
305	0.891
305	0.889
305	0.887
306	0.885
306	0.883
307	0.88
307	0.878
308	0.876
308	0.873
309	0.87
309	0.868
310	0.865
310	0.862
311	0.859
311	0.856
311	0.853
312	0.849
312	0.846
313	0.843
313	0.839
314	0.835
314	0.832
315	0.827
315	0.824
316	0.819
316	0.815
317	0.811
317	0.806
318	0.801
318	0.796
318	0.791
319	0.786
319	0.781
320	0.775
320	0.769
321	0.763
321	0.758
322	0.751
322	0.745
323	0.739
323	0.733
324	0.727
324	0.72
324	0.714
325	0.707
325	0.701
326	0.694
326	0.687
327	0.68
327	0.674
328	0.667
328	0.66
329	0.654
329	0.646
330	0.64
330	0.633
330	0.626
331	0.619
331	0.612
332	0.605
332	0.599
333	0.592
333	0.585
334	0.578
334	0.571
335	0.564
335	0.558
336	0.551
336	0.545
336	0.538
337	0.532
337	0.526
338	0.519
338	0.513
339	0.508
339	0.502
340	0.496
340	0.49
341	0.485
341	0.479
342	0.474
342	0.469
342	0.463
343	0.458
343	0.453
344	0.448
344	0.443
345	0.439
345	0.434
346	0.43
346	0.425
347	0.421
347	0.417
348	0.413
348	0.409
348	0.406
349	0.402
349	0.398
350	0.395
350	0.391
351	0.388
351	0.385
352	0.381
352	0.378
353	0.376
353	0.373
354	0.37
354	0.367
354	0.364
355	0.361
355	0.359
356	0.356
356	0.353
357	0.35
357	0.347
358	0.344
358	0.342
359	0.34
359	0.338
360	0.336
360	0.334
360	0.332
361	0.33
361	0.328
362	0.327
362	0.326
363	0.324
363	0.322
364	0.32
364	0.319
365	0.317
365	0.315
366	0.313
366	0.311
366	0.31
367	0.308
367	0.307
368	0.305
368	0.304
369	0.302
369	0.301
370	0.3
370	0.298
371	0.297
371	0.296
372	0.295
372	0.294
372	0.292
373	0.292
373	0.291
374	0.29
374	0.289
375	0.288
375	0.287
376	0.286
376	0.286
377	0.285
377	0.284
378	0.283
378	0.282
378	0.281
379	0.281
379	0.28
380	0.279
380	0.279
381	0.278
381	0.277
382	0.277
382	0.276
383	0.276
383	0.275
383	0.275
384	0.274
384	0.274
385	0.273
385	0.273
386	0.272
386	0.272
387	0.272
387	0.271
388	0.271
388	0.27
389	0.27
389	0.27
389	0.269
390	0.269
390	0.269
391	0.268
391	0.268
392	0.268
392	0.267
393	0.267
393	0.267
394	0.266
394	0.266
394	0.266
395	0.265
395	0.265
396	0.265
396	0.264
397	0.264
397	0.263
398	0.263
398	0.263
399	0.263
399	0.262
400	0.262
400	0.262
400	0.261
401	0.261
401	0.261
402	0.261
402	0.261
403	0.26
403	0.26
404	0.26
404	0.26
405	0.26
405	0.26
405	0.259
406	0.259
406	0.259
407	0.258
407	0.258
408	0.258
408	0.258
409	0.257
409	0.257
410	0.257
410	0.256
411	0.256
411	0.256
411	0.255
412	0.255
412	0.255
413	0.255
413	0.254
414	0.254
414	0.254
415	0.253
415	0.253
416	0.253
416	0.253
416	0.252
417	0.252
417	0.252
418	0.251
418	0.251
419	0.251
419	0.251
420	0.25
420	0.25
421	0.25
421	0.249
421	0.249
422	0.249
422	0.248
423	0.248
423	0.248
424	0.247
424	0.247
425	0.246
425	0.246
426	0.246
426	0.246
427	0.245
427	0.245
427	0.245
428	0.244
428	0.244
429	0.244
429	0.244
430	0.244
430	0.243
431	0.243
431	0.243
432	0.243
432	0.243
432	0.242
433	0.242
433	0.242
434	0.242
434	0.242
435	0.242
435	0.241
436	0.241
436	0.24
437	0.24
437	0.24
437	0.24
438	0.24
438	0.239
439	0.239
439	0.239
440	0.239
440	0.239
441	0.239
441	0.239
442	0.238
442	0.238
442	0.238
443	0.238
443	0.238
444	0.237
444	0.237
445	0.237
445	0.237
446	0.237
446	0.236
447	0.236
447	0.236
447	0.236
448	0.236
448	0.235
449	0.235
449	0.235
450	0.235
450	0.234
451	0.234
451	0.234
452	0.234
452	0.234
452	0.234
453	0.234
453	0.233
454	0.233
454	0.233
455	0.232
455	0.232
456	0.232
456	0.232
457	0.232
457	0.231
458	0.231
458	0.231
458	0.23
459	0.23
459	0.23
460	0.23
460	0.229
461	0.229
461	0.229
462	0.229
462	0.229
463	0.228
463	0.228
463	0.228
464	0.228
464	0.227
465	0.227
465	0.227
466	0.227
466	0.227
467	0.227
467	0.226
467	0.226
468	0.226
468	0.226
469	0.226
469	0.226
470	0.226
470	0.226
471	0.226
471	0.226
472	0.226
472	0.226
472	0.226
473	0.226
473	0.226
474	0.226
474	0.225
475	0.225
475	0.225
476	0.225
476	0.226
477	0.226
477	0.226
477	0.226
478	0.225
478	0.225
479	0.226
479	0.226
480	0.226
480	0.226
481	0.226
481	0.225
482	0.226
482	0.226
482	0.226
483	0.226
483	0.226
484	0.227
484	0.226
485	0.226
485	0.227
486	0.226
486	0.227
487	0.227
487	0.227
487	0.227
488	0.227
488	0.227
489	0.227
489	0.228
490	0.228
490	0.229
491	0.229
491	0.23
492	0.23
492	0.23
492	0.231
493	0.231
493	0.231
494	0.231
494	0.232
495	0.232
495	0.233
496	0.233
496	0.233
496	0.234
497	0.234
497	0.234
498	0.235
498	0.235
499	0.236
499	0.236
500	0.236
500	0.237
501	0.237
501	0.237
501	0.238
502	0.238
502	0.238
503	0.239
503	0.239
504	0.239
504	0.24
505	0.24
505	0.241
506	0.241
506	0.242
506	0.242
507	0.242
507	0.243
508	0.243
508	0.244
509	0.244
509	0.245
510	0.245
510	0.245
511	0.246
511	0.247
511	0.247
512	0.248
512	0.249
513	0.249
513	0.25
514	0.25
514	0.251
515	0.251
515	0.251
515	0.252
516	0.252
516	0.253
517	0.253
517	0.253
518	0.254
518	0.253
519	0.254
519	0.254
520	0.254
520	0.254
520	0.255
521	0.254
521	0.254
522	0.255
522	0.254
523	0.255
523	0.255
524	0.255
524	0.255
524	0.256
525	0.256
525	0.256
526	0.256
526	0.256
527	0.256
527	0.257
528	0.257
528	0.257
529	0.257
529	0.257
529	0.257
530	0.257
530	0.257
531	0.257
531	0.257
532	0.256
532	0.256
533	0.256
533	0.256
533	0.256
534	0.256
534	0.256
535	0.256
535	0.256
536	0.256
536	0.256
537	0.256
537	0.256
538	0.255
538	0.255
538	0.255
539	0.255
539	0.255
540	0.255
540	0.254
541	0.254
541	0.254
542	0.253
542	0.253
542	0.253
543	0.252
543	0.252
544	0.252
544	0.251
545	0.251
545	0.251
546	0.251
546	0.251
547	0.25
547	0.25
547	0.25
548	0.25
548	0.249
549	0.249
549	0.248
550	0.248
550	0.248
551	0.247
551	0.247
551	0.247
552	0.246
552	0.246
553	0.245
553	0.245
554	0.244
554	0.244
555	0.243
555	0.242
556	0.242
556	0.241
556	0.241
557	0.241
557	0.241
558	0.241
558	0.241
559	0.241
559	0.241
560	0.241
560	0.241
560	0.241
561	0.241
561	0.241
562	0.24
562	0.239
563	0.238
563	0.237
564	0.236
564	0.235
564	0.235
565	0.235
565	0.234
566	0.234
566	0.233
567	0.233
567	0.233
568	0.233
568	0.233
568	0.233
569	0.233
569	0.232
570	0.232
570	0.231
571	0.23
571	0.23
572	0.229
572	0.229
573	0.229
573	0.228
573	0.228
574	0.227
574	0.227
575	0.227
575	0.227
576	0.228
576	0.227
577	0.226
577	0.226
577	0.226
578	0.225
578	0.225
579	0.225
579	0.225
580	0.225
580	0.224
581	0.223
581	0.223
581	0.223
582	0.223
582	0.222
583	0.223
583	0.222
584	0.221
584	0.22
585	0.22
585	0.22
585	0.22
586	0.219
586	0.219
587	0.218
587	0.217
588	0.217
588	0.216
589	0.216
589	0.216
590	0.216
590	0.216
590	0.217
591	0.217
591	0.216
592	0.216
592	0.215
593	0.215
593	0.215
594	0.215
594	0.214
594	0.213
595	0.213
595	0.212
596	0.212
596	0.212
597	0.213
597	0.213
598	0.213
598	0.213
598	0.212
599	0.212
599	0.212
600	0.211
600	0.211
601	0.211
601	0.21
602	0.21
602	0.209
602	0.209
603	0.209
603	0.209
604	0.209
604	0.21
605	0.209
605	0.209
606	0.209
606	0.208
606	0.208
607	0.208
607	0.208
608	0.207
608	0.207
609	0.206
609	0.206
610	0.206
610	0.206
610	0.206
611	0.206
611	0.206
612	0.206
612	0.206
613	0.206
613	0.205
614	0.205
614	0.204
614	0.204
615	0.204
615	0.204
616	0.203
616	0.203
617	0.203
617	0.202
618	0.202
618	0.202
618	0.202
619	0.202
619	0.202
620	0.202
620	0.202
621	0.202
621	0.202
622	0.201
622	0.201
622	0.201
623	0.2
623	0.2
624	0.2
624	0.199
625	0.199
625	0.198
626	0.198
626	0.198
626	0.198
627	0.198
627	0.198
628	0.198
628	0.198
629	0.197
629	0.197
630	0.197
630	0.197
630	0.197
631	0.197
631	0.197
632	0.197
632	0.197
633	0.197
633	0.197
634	0.198
634	0.198
634	0.198
635	0.197
635	0.197
636	0.196
636	0.196
637	0.196
637	0.195
638	0.195
638	0.194
638	0.194
639	0.193
639	0.193
640	0.193
640	0.193
641	0.193
641	0.194
642	0.194
642	0.194
642	0.194
643	0.194
643	0.195
644	0.195
644	0.195
645	0.195
645	0.195
646	0.194
646	0.194
646	0.194
647	0.194
647	0.193
648	0.193
648	0.192
649	0.192
649	0.192
650	0.192
650	0.191
650	0.192
651	0.191
651	0.191
652	0.191
652	0.191
653	0.191
653	0.193
653	0.2
654	0.157
654	0.125
655	0.126
655	0.126
656	0.127
656	0.127
657	0.127
657	0.128
657	0.128
658	0.127
658	0.116
659	0.147
659	0.189
660	0.195
660	0.195
661	0.195
661	0.194
661	0.194
662	0.194
662	0.194
663	0.193
663	0.193
664	0.193
664	0.192
665	0.192
665	0.192
665	0.193
666	0.193
666	0.193
667	0.193
667	0.193
668	0.193
668	0.193
669	0.193
669	0.194
669	0.194
670	0.194
670	0.194
671	0.193
671	0.193
672	0.193
672	0.192
672	0.192
673	0.191
673	0.191
674	0.191
674	0.191
675	0.19
675	0.19
676	0.191
676	0.191
676	0.191
677	0.191
677	0.191
678	0.191
678	0.191
679	0.19
679	0.19
680	0.19
680	0.19
680	0.19
681	0.19
681	0.19
682	0.191
682	0.191
683	0.191
683	0.192
684	0.192
684	0.192
684	0.191
685	0.192
685	0.192
686	0.192
686	0.191
687	0.191
687	0.191
687	0.191
688	0.191
688	0.191
689	0.192
689	0.192
690	0.192
690	0.192
691	0.192
691	0.192
691	0.192
692	0.192
692	0.192
693	0.192
693	0.193
694	0.192
694	0.192
695	0.193
695	0.194
695	0.195
696	0.195
696	0.195
697	0.195
697	0.195
698	0.195
698	0.195
698	0.195
699	0.196
699	0.195
700	0.194
700	0.194
701	0.194
701	0.193
702	0.193
702	0.193
702	0.192
703	0.192
703	0.192
704	0.191
704	0.192
705	0.192
705	0.192
705	0.193
706	0.193
706	0.194
707	0.195
707	0.195
708	0.196
708	0.197
709	0.197
709	0.198
709	0.198
710	0.198
710	0.198
711	0.199
711	0.199
712	0.199
712	0.199
713	0.198
713	0.198
713	0.198
714	0.197
714	0.197
715	0.196
715	0.196
716	0.195
716	0.194
716	0.193
717	0.193
717	0.192
718	0.192
718	0.192
719	0.193
719	0.193
720	0.194
720	0.195
720	0.195
721	0.196
721	0.197
722	0.197
722	0.198
723	0.198
723	0.198
723	0.198
724	0.198
724	0.198
725	0.197
725	0.197
726	0.196
726	0.196
727	0.196
727	0.196
727	0.196
728	0.196
728	0.196
729	0.196
729	0.196
730	0.196
730	0.197
730	0.197
731	0.198
731	0.198
732	0.199
732	0.2
733	0.2
733	0.2
734	0.201
734	0.201
734	0.202
735	0.202
735	0.202
736	0.202
736	0.202
737	0.202
737	0.203
737	0.203
738	0.202
738	0.201
739	0.201
739	0.201
740	0.2
740	0.2
741	0.2
741	0.199
741	0.199
742	0.199
742	0.2
743	0.201
743	0.202
744	0.203
744	0.203
744	0.204
745	0.204
745	0.204
746	0.205
746	0.205
747	0.205
747	0.205
748	0.205
748	0.204
748	0.204
749	0.204
749	0.204
750	0.203
750	0.203
751	0.203
751	0.203
751	0.203
752	0.202
752	0.202
753	0.201
753	0.201
754	0.2
754	0.2
754	0.2
755	0.2
755	0.2
756	0.2
756	0.199
757	0.198
757	0.198
758	0.199
758	0.199
758	0.199
759	0.2
759	0.199
760	0.199
760	0.199
761	0.199
761	0.2
761	0.2
762	0.201
762	0.201
763	0.201
763	0.201
764	0.201
764	0.201
764	0.201
765	0.201
765	0.201
766	0.202
766	0.202
767	0.202
767	0.201
768	0.201
768	0.201
768	0.202
769	0.202
769	0.203
770	0.203
770	0.204
771	0.204
771	0.205
771	0.205
772	0.206
772	0.206
773	0.206
773	0.206
774	0.206
774	0.206
775	0.206
775	0.206
775	0.206
776	0.206
776	0.206
777	0.206
777	0.206
778	0.206
778	0.206
778	0.206
779	0.207
779	0.207
780	0.207
780	0.207
781	0.207
781	0.207
781	0.207
782	0.208
782	0.208
783	0.209
783	0.209
784	0.209
784	0.21
784	0.21
785	0.21
785	0.21
786	0.21
786	0.21
787	0.211
787	0.21
788	0.21
788	0.209
788	0.208
789	0.207
789	0.207
790	0.207
790	0.206
791	0.205
791	0.205
791	0.204
792	0.204
792	0.204
793	0.204
793	0.204
794	0.204
794	0.204
794	0.204
795	0.204
795	0.205
796	0.205
796	0.206
797	0.206
797	0.206
797	0.207
798	0.207
798	0.208
799	0.208
799	0.209
800	0.209
800	0.208
801	0.208
801	0.208
801	0.208
802	0.208
802	0.209
803	0.208
803	0.208
804	0.209
804	0.209
804	0.209
805	0.209
805	0.209
806	0.209
806	0.209
807	0.209
807	0.21
807	0.21
808	0.211
808	0.211
809	0.211
809	0.211
810	0.211
810	0.211
810	0.211
811	0.211
811	0.212
812	0.212
812	0.212
813	0.212
813	0.212
813	0.213
814	0.213
814	0.214
815	0.215
815	0.215
816	0.215
816	0.215
817	0.214
817	0.215
817	0.214
818	0.214
818	0.215
819	0.214
819	0.214
820	0.213
820	0.213
820	0.213
821	0.213
821	0.213
822	0.213
822	0.214
823	0.214
823	0.214
823	0.214
824	0.215
824	0.216
825	0.217
825	0.217
826	0.218
826	0.217
826	0.217
827	0.218
827	0.217
828	0.217
828	0.217
829	0.217
829	0.217
829	0.217
830	0.217
830	0.218
831	0.219
831	0.219
832	0.219
832	0.219
832	0.219
833	0.219
833	0.219
834	0.219
834	0.219
835	0.218
835	0.218
835	0.217
836	0.217
836	0.217
837	0.216
837	0.216
838	0.215
838	0.215
839	0.214
839	0.214
839	0.213
840	0.212
840	0.211
841	0.21
841	0.21
842	0.209
842	0.208
842	0.208
843	0.208
843	0.207
844	0.207
844	0.207
845	0.207
845	0.206
845	0.207
846	0.207
846	0.206
847	0.206
847	0.206
848	0.207
848	0.207
848	0.207
849	0.207
849	0.207
850	0.208
850	0.208
851	0.209
851	0.209
851	0.21
852	0.21
852	0.21
853	0.21
853	0.21
854	0.211
854	0.211
854	0.212
855	0.212
855	0.213
856	0.213
856	0.214
857	0.215
857	0.215
857	0.215
858	0.215
858	0.215
859	0.215
859	0.214
860	0.214
860	0.213
860	0.213
861	0.212
861	0.212
862	0.211
862	0.21
863	0.21
863	0.209
863	0.209
864	0.209
864	0.209
865	0.209
865	0.209
866	0.209
866	0.209
866	0.209
867	0.21
867	0.21
868	0.21
868	0.211
869	0.211
869	0.211
869	0.21
870	0.21
870	0.209
871	0.209
871	0.209
872	0.209
872	0.208
872	0.208
873	0.207
873	0.207
874	0.206
874	0.206
875	0.206
875	0.206
875	0.206
876	0.206
876	0.206
877	0.206
877	0.206
878	0.207
878	0.207
878	0.207
879	0.207
879	0.207
880	0.207
880	0.207
881	0.206
881	0.206
881	0.206
882	0.205
882	0.205
883	0.205
883	0.205
884	0.205
884	0.205
884	0.205
885	0.205
885	0.205
886	0.205
886	0.204
887	0.204
887	0.203
887	0.202
888	0.201
888	0.2
889	0.199
889	0.198
890	0.197
890	0.197
890	0.197
891	0.196
891	0.196
892	0.196
892	0.196
893	0.196
893	0.196
893	0.196
894	0.196
894	0.196
895	0.196
895	0.196
895	0.197
896	0.198
896	0.198
897	0.198
897	0.199
898	0.199
898	0.199
898	0.199
899	0.199
899	0.199
900	0.199
900	0.198
901	0.197
901	0.197
901	0.196
902	0.196
902	0.195
903	0.194
903	0.193
904	0.193
904	0.192
904	0.191
905	0.19
905	0.19
906	0.189
906	0.189
907	0.19
907	0.19
907	0.19
908	0.19
908	0.19
909	0.19
909	0.19
910	0.19
910	0.19
910	0.189
911	0.189
911	0.189
912	0.189
912	0.188
913	0.188
913	0.188
913	0.187
914	0.187
914	0.187
915	0.187
915	0.187
916	0.187
916	0.187
916	0.186
917	0.186
917	0.186
918	0.186
918	0.186
918	0.185
919	0.185
919	0.185
920	0.184
920	0.184
921	0.184
921	0.184
921	0.184
922	0.184
922	0.184
923	0.184
923	0.184
924	0.184
924	0.185
924	0.185
925	0.186
925	0.186
926	0.186
926	0.187
927	0.187
927	0.187
927	0.187
928	0.186
928	0.185
929	0.185
929	0.184
930	0.183
930	0.182
930	0.181
931	0.18
931	0.179
932	0.178
932	0.177
933	0.177
933	0.176
933	0.176
934	0.175
934	0.175
935	0.175
935	0.174
935	0.174
936	0.173
936	0.173
937	0.172
937	0.172
938	0.172
938	0.171
938	0.171
939	0.171
939	0.171
940	0.171
940	0.171
941	0.171
941	0.171
941	0.172
942	0.172
942	0.171
943	0.171
943	0.171
944	0.171
944	0.171
944	0.171
945	0.171
945	0.171
946	0.171
946	0.171
946	0.171
947	0.171
947	0.17
948	0.17
948	0.17
949	0.169
949	0.169
949	0.168
950	0.167
950	0.167
951	0.166
951	0.165
952	0.165
952	0.164
952	0.164
953	0.163
953	0.163
954	0.163
954	0.162
955	0.162
955	0.162
955	0.162
956	0.162
956	0.162
957	0.162
957	0.162
957	0.162
958	0.162
958	0.162
959	0.161
959	0.161
960	0.161
960	0.16
960	0.16
961	0.159
961	0.159
962	0.158
962	0.158
963	0.157
963	0.157
963	0.157
964	0.157
964	0.157
965	0.157
965	0.157
966	0.157
966	0.157
966	0.156
967	0.156
967	0.156
968	0.156
968	0.156
968	0.156
969	0.155
969	0.154
970	0.154
970	0.153
971	0.152
971	0.152
971	0.151
972	0.15
972	0.149
973	0.149
973	0.148
974	0.147
974	0.147
974	0.147
975	0.146
975	0.146
976	0.146
976	0.146
976	0.146
977	0.146
977	0.146
978	0.145
978	0.145
979	0.145
979	0.145
979	0.144
980	0.144
980	0.143
981	0.143
981	0.142
982	0.142
982	0.142
982	0.142
983	0.142
983	0.142
984	0.142
984	0.142
984	0.142
985	0.142
985	0.142
986	0.142
986	0.142
987	0.142
987	0.142
987	0.142
988	0.142
988	0.142
989	0.142
989	0.142
990	0.142
990	0.141
990	0.141
991	0.141
991	0.141
992	0.14
992	0.139
992	0.139
993	0.138
993	0.137
994	0.136
994	0.135
995	0.134
995	0.134
995	0.134
996	0.133
996	0.133
997	0.133
997	0.134
997	0.134
998	0.135
998	0.135
999	0.136
999	0.137
1000	0.138
1000	0.138
1000	0.138
1001	0.138
1001	0.138
1002	0.138
1002	0.137
1003	0.137
1003	0.136
1003	0.135
1004	0.135
1004	0.134
1005	0.133
1005	0.133
1005	0.133
1006	0.132
1006	0.132
1007	0.132
1007	0.131
1008	0.131
1008	0.131
1008	0.131
1009	0.131
1009	0.13
1010	0.13
1010	0.13
1010	0.13
1011	0.129
1011	0.129
1012	0.128
1012	0.128
1013	0.128
1013	0.127
1013	0.127
1014	0.126
1014	0.126
1015	0.126
1015	0.126
1016	0.125
1016	0.125
1016	0.124
1017	0.124
1017	0.124
1018	0.124
1018	0.123
1018	0.123
1019	0.123
1019	0.123
1020	0.123
1020	0.122
1021	0.123
1021	0.123
1021	0.123
1022	0.123
1022	0.123
1023	0.123
1023	0.123
1023	0.124
1024	0.124
1024	0.124
1025	0.124
1025	0.124
1026	0.124
1026	0.124
1026	0.124
1027	0.124
1027	0.123
1028	0.123
1028	0.123
1028	0.123
1029	0.123
1029	0.123
1030	0.122
1030	0.122
1031	0.122
1031	0.122
1031	0.122
1032	0.122
1032	0.121
1033	0.121
1033	0.121
1033	0.121
1034	0.121
1034	0.12
1035	0.12
1035	0.12
1036	0.119
1036	0.119
1036	0.119
1037	0.119
1037	0.118
1038	0.118
1038	0.118
1039	0.118
1039	0.118
1039	0.118
1040	0.118
1040	0.118
1041	0.118
1041	0.118
1041	0.117
1042	0.117
1042	0.117
1043	0.117
1043	0.117
1044	0.116
1044	0.116
1044	0.116
1045	0.116
1045	0.115
1046	0.115
1046	0.115
1046	0.115
1047	0.115
1047	0.115
1048	0.115
1048	0.115
1049	0.115
1049	0.115
1049	0.114
1050	0.114
1050	0.113
1051	0.113
1051	0.112
1051	0.111
1052	0.11
1052	0.11
1053	0.109
1053	0.108
1053	0.108
1054	0.108
1054	0.107
1055	0.107
1055	0.107
1056	0.106
1056	0.106
1056	0.105
1057	0.104
1057	0.104
1058	0.103
1058	0.102
1058	0.101
1059	0.1
1059	0.099
1060	0.098
1060	0.097
1061	0.097
1061	0.097
1061	0.096
1062	0.096
1062	0.096
1063	0.096
1063	0.095
1063	0.095
1064	0.095
1064	0.095
1065	0.095
1065	0.095
1066	0.095
1066	0.095
1066	0.095
1067	0.095
1067	0.095
1068	0.094
1068	0.094
1068	0.094
1069	0.094
1069	0.094
1070	0.093
1070	0.093
1071	0.092
1071	0.092
1071	0.092
1072	0.091
1072	0.091
1073	0.09
1073	0.09
1073	0.089
1074	0.089
1074	0.089
1075	0.089
1075	0.089
1076	0.088
1076	0.089
1076	0.088
1077	0.088
1077	0.088
1078	0.088
1078	0.088
1078	0.088
1079	0.087
1079	0.087
1080	0.086
1080	0.086
1080	0.086
1081	0.085
1081	0.085
1082	0.085
1082	0.085
1083	0.084
1083	0.084
1083	0.084
1084	0.084
1084	0.084
1085	0.084
1085	0.084
1085	0.085
1086	0.085
1086	0.084
1087	0.084
1087	0.085
1088	0.085
1088	0.085
1088	0.085
1089	0.084
1089	0.084
1090	0.083
1090	0.083
1090	0.082
1091	0.082
1091	0.082
1092	0.082
1092	0.081
1092	0.081
1093	0.08
1093	0.081
1094	0.081
1094	0.08
1095	0.079
1095	0.079
1095	0.078
1096	0.076
1096	0.075
1097	0.075
1097	0.074
1097	0.073
1098	0.072
1098	0.07
1099	0.069
1099	0.068
1100	0.066
1100	0.065
1100	0.064
1101	0.063
1101	0.061
1102	0.059
1102	0.058
1102	0.057
1103	0.057
1103	0.056
1104	0.055
1104	0.055
1104	0.055
1105	0.054
1105	0.053
1106	0.051
1106	0.049
1107	0.048
1107	0.047
1107	0.047
1108	0.047
1108	0.045
1109	0.044
1109	0.042
1109	0.044
1110	0.046
1110	0.043
1111	0.047
1111	0.049
