Data from reversibility-20sec_Absorbance__1632__000000000001632.txt Node

Date: Tue Dec 05 21:17:05 CET 2023
User: Marek
Spectrometer: MAYP115816
Trigger mode: 0
Integration Time (sec): 2.000000E-1
Scans to average: 10
Electric dark correction enabled: true
Nonlinearity correction enabled: true
Boxcar width: 5
XAxis mode: Wavelengths
Number of Pixels in Spectrum: 2068
>>>>>Begin Spectral Data<<<<<
199	-0.213
199	-0.19
200	-0.112
200	-0.055
201	-0.023
201	-0.002
202	0.015
202	0.023
203	0.031
203	0.033
204	0.049
204	0.065
205	0.08
205	0.088
205	0.087
206	0.088
206	0.088
207	0.089
207	0.087
208	0.089
208	0.089
209	0.091
209	0.087
210	0.087
210	0.085
211	0.083
211	0.085
212	0.081
212	0.084
213	0.085
213	0.085
213	0.085
214	0.087
214	0.09
215	0.092
215	0.09
216	0.094
216	0.091
217	0.096
217	0.096
218	0.099
218	0.102
219	0.107
219	0.108
220	0.11
220	0.11
221	0.112
221	0.115
221	0.12
222	0.125
222	0.127
223	0.133
223	0.135
224	0.138
224	0.147
225	0.157
225	0.166
226	0.174
226	0.185
227	0.193
227	0.204
228	0.219
228	0.232
229	0.249
229	0.275
229	0.296
230	0.32
230	0.352
231	0.385
231	0.421
232	0.459
232	0.502
233	0.548
233	0.601
234	0.651
234	0.703
235	0.757
235	0.81
236	0.862
236	0.916
236	0.973
237	1.027
237	1.078
238	1.126
238	1.172
239	1.224
239	1.267
240	1.309
240	1.35
241	1.39
241	1.427
242	1.461
242	1.498
243	1.533
243	1.564
243	1.593
244	1.618
244	1.644
245	1.669
245	1.696
246	1.717
246	1.739
247	1.757
247	1.777
248	1.793
248	1.811
249	1.824
249	1.833
250	1.845
250	1.854
250	1.859
251	1.865
251	1.869
252	1.876
252	1.878
253	1.883
253	1.881
254	1.882
254	1.884
255	1.882
255	1.886
256	1.888
256	1.889
257	1.892
257	1.891
258	1.891
258	1.892
258	1.892
259	1.895
259	1.897
260	1.9
260	1.904
261	1.907
261	1.914
262	1.919
262	1.923
263	1.928
263	1.932
264	1.937
264	1.94
265	1.944
265	1.945
265	1.944
266	1.945
266	1.945
267	1.944
267	1.947
268	1.948
268	1.95
269	1.954
269	1.955
270	1.956
270	1.957
271	1.956
271	1.958
272	1.955
272	1.954
272	1.949
273	1.942
273	1.933
274	1.924
274	1.915
275	1.907
275	1.899
276	1.892
276	1.882
277	1.875
277	1.864
278	1.853
278	1.84
278	1.826
279	1.808
279	1.785
280	1.754
280	1.717
281	1.674
281	1.628
282	1.579
282	1.531
283	1.484
283	1.438
284	1.395
284	1.353
285	1.315
285	1.28
285	1.25
286	1.223
286	1.2
287	1.179
287	1.162
288	1.147
288	1.135
289	1.125
289	1.116
290	1.109
290	1.102
291	1.096
291	1.091
292	1.086
292	1.082
292	1.078
293	1.075
293	1.071
294	1.068
294	1.065
295	1.062
295	1.06
296	1.058
296	1.055
297	1.052
297	1.05
298	1.047
298	1.044
298	1.041
299	1.039
299	1.037
300	1.034
300	1.031
301	1.029
301	1.026
302	1.024
302	1.022
303	1.02
303	1.018
304	1.016
304	1.013
305	1.011
305	1.009
305	1.006
306	1.004
306	1.002
307	1
307	0.997
308	0.995
308	0.992
309	0.989
309	0.986
310	0.984
310	0.981
311	0.978
311	0.975
311	0.971
312	0.968
312	0.964
313	0.961
313	0.957
314	0.953
314	0.949
315	0.945
315	0.941
316	0.937
316	0.932
317	0.927
317	0.922
318	0.917
318	0.912
318	0.906
319	0.901
319	0.895
320	0.889
320	0.883
321	0.877
321	0.871
322	0.865
322	0.858
323	0.852
323	0.845
324	0.839
324	0.832
324	0.825
325	0.819
325	0.812
326	0.805
326	0.797
327	0.79
327	0.783
328	0.777
328	0.77
329	0.762
329	0.755
330	0.748
330	0.741
330	0.733
331	0.726
331	0.719
332	0.712
332	0.705
333	0.698
333	0.691
334	0.684
334	0.677
335	0.67
335	0.663
336	0.656
336	0.649
336	0.643
337	0.637
337	0.63
338	0.624
338	0.618
339	0.611
339	0.605
340	0.599
340	0.593
341	0.588
341	0.582
342	0.576
342	0.571
342	0.565
343	0.56
343	0.555
344	0.55
344	0.545
345	0.54
345	0.535
346	0.531
346	0.526
347	0.522
347	0.517
348	0.513
348	0.509
348	0.505
349	0.501
349	0.498
350	0.494
350	0.49
351	0.486
351	0.483
352	0.48
352	0.476
353	0.473
353	0.47
354	0.467
354	0.464
354	0.462
355	0.459
355	0.456
356	0.453
356	0.45
357	0.447
357	0.444
358	0.441
358	0.438
359	0.436
359	0.434
360	0.431
360	0.429
360	0.427
361	0.425
361	0.423
362	0.422
362	0.42
363	0.418
363	0.416
364	0.414
364	0.412
365	0.41
365	0.408
366	0.406
366	0.404
366	0.403
367	0.401
367	0.399
368	0.397
368	0.396
369	0.394
369	0.393
370	0.391
370	0.39
371	0.388
371	0.387
372	0.385
372	0.384
372	0.382
373	0.381
373	0.38
374	0.379
374	0.378
375	0.377
375	0.376
376	0.375
376	0.374
377	0.373
377	0.372
378	0.371
378	0.37
378	0.369
379	0.368
379	0.367
380	0.366
380	0.365
381	0.365
381	0.364
382	0.363
382	0.362
383	0.362
383	0.361
383	0.36
384	0.359
384	0.358
385	0.357
385	0.357
386	0.356
386	0.355
387	0.354
387	0.354
388	0.353
388	0.352
389	0.352
389	0.352
389	0.351
390	0.351
390	0.35
391	0.35
391	0.35
392	0.349
392	0.349
393	0.348
393	0.348
394	0.347
394	0.347
394	0.346
395	0.345
395	0.345
396	0.344
396	0.343
397	0.343
397	0.342
398	0.342
398	0.341
399	0.341
399	0.34
400	0.34
400	0.339
400	0.339
401	0.339
401	0.339
402	0.338
402	0.338
403	0.338
403	0.337
404	0.337
404	0.337
405	0.336
405	0.336
405	0.336
406	0.335
406	0.335
407	0.334
407	0.334
408	0.333
408	0.333
409	0.332
409	0.332
410	0.332
410	0.331
411	0.331
411	0.33
411	0.33
412	0.33
412	0.329
413	0.329
413	0.329
414	0.329
414	0.328
415	0.328
415	0.327
416	0.327
416	0.327
416	0.326
417	0.326
417	0.326
418	0.325
418	0.325
419	0.324
419	0.323
420	0.323
420	0.322
421	0.322
421	0.322
421	0.321
422	0.321
422	0.321
423	0.32
423	0.32
424	0.319
424	0.319
425	0.319
425	0.318
426	0.318
426	0.318
427	0.317
427	0.317
427	0.317
428	0.316
428	0.316
429	0.316
429	0.315
430	0.315
430	0.315
431	0.315
431	0.315
432	0.314
432	0.314
432	0.313
433	0.313
433	0.313
434	0.313
434	0.313
435	0.313
435	0.313
436	0.312
436	0.312
437	0.312
437	0.312
437	0.312
438	0.311
438	0.311
439	0.311
439	0.311
440	0.311
440	0.31
441	0.31
441	0.31
442	0.31
442	0.31
442	0.309
443	0.309
443	0.308
444	0.308
444	0.308
445	0.308
445	0.308
446	0.307
446	0.307
447	0.307
447	0.307
447	0.307
448	0.306
448	0.306
449	0.306
449	0.306
450	0.306
450	0.306
451	0.305
451	0.305
452	0.305
452	0.305
452	0.305
453	0.305
453	0.304
454	0.304
454	0.304
455	0.304
455	0.303
456	0.303
456	0.303
457	0.303
457	0.302
458	0.302
458	0.302
458	0.302
459	0.302
459	0.302
460	0.302
460	0.302
461	0.301
461	0.301
462	0.301
462	0.302
463	0.301
463	0.301
463	0.301
464	0.301
464	0.301
465	0.301
465	0.3
466	0.3
466	0.3
467	0.3
467	0.3
467	0.3
468	0.3
468	0.3
469	0.3
469	0.3
470	0.3
470	0.3
471	0.3
471	0.3
472	0.3
472	0.3
472	0.3
473	0.3
473	0.3
474	0.3
474	0.3
475	0.3
475	0.3
476	0.301
476	0.301
477	0.301
477	0.302
477	0.302
478	0.302
478	0.303
479	0.303
479	0.303
480	0.304
480	0.304
481	0.304
481	0.304
482	0.305
482	0.305
482	0.305
483	0.305
483	0.306
484	0.307
484	0.307
485	0.307
485	0.307
486	0.307
486	0.307
487	0.308
487	0.309
487	0.309
488	0.31
488	0.31
489	0.31
489	0.312
490	0.312
490	0.313
491	0.314
491	0.315
492	0.316
492	0.316
492	0.317
493	0.318
493	0.318
494	0.319
494	0.32
495	0.32
495	0.321
496	0.322
496	0.323
496	0.324
497	0.325
497	0.325
498	0.326
498	0.327
499	0.328
499	0.328
500	0.33
500	0.331
501	0.332
501	0.332
501	0.333
502	0.334
502	0.334
503	0.335
503	0.336
504	0.337
504	0.337
505	0.338
505	0.339
506	0.34
506	0.34
506	0.341
507	0.342
507	0.343
508	0.343
508	0.344
509	0.345
509	0.345
510	0.346
510	0.347
511	0.348
511	0.348
511	0.349
512	0.35
512	0.35
513	0.351
513	0.352
514	0.352
514	0.353
515	0.353
515	0.354
515	0.354
516	0.355
516	0.356
517	0.356
517	0.357
518	0.357
518	0.357
519	0.358
519	0.358
520	0.358
520	0.359
520	0.359
521	0.359
521	0.359
522	0.359
522	0.359
523	0.359
523	0.36
524	0.36
524	0.36
524	0.36
525	0.36
525	0.359
526	0.359
526	0.359
527	0.359
527	0.359
528	0.358
528	0.358
529	0.358
529	0.358
529	0.357
530	0.357
530	0.356
531	0.356
531	0.355
532	0.355
532	0.354
533	0.354
533	0.353
533	0.352
534	0.352
534	0.351
535	0.351
535	0.35
536	0.35
536	0.349
537	0.348
537	0.347
538	0.347
538	0.346
538	0.345
539	0.344
539	0.343
540	0.342
540	0.341
541	0.34
541	0.339
542	0.339
542	0.338
542	0.337
543	0.336
543	0.335
544	0.334
544	0.333
545	0.333
545	0.332
546	0.331
546	0.33
547	0.329
547	0.327
547	0.326
548	0.326
548	0.324
549	0.323
549	0.323
550	0.321
550	0.32
551	0.319
551	0.318
551	0.317
552	0.316
552	0.315
553	0.313
553	0.313
554	0.311
554	0.31
555	0.309
555	0.308
556	0.307
556	0.306
556	0.305
557	0.304
557	0.303
558	0.303
558	0.302
559	0.301
559	0.3
560	0.299
560	0.298
560	0.298
561	0.297
561	0.296
562	0.295
562	0.293
563	0.292
563	0.291
564	0.29
564	0.288
564	0.288
565	0.287
565	0.287
566	0.286
566	0.285
567	0.284
567	0.284
568	0.283
568	0.283
568	0.282
569	0.281
569	0.28
570	0.279
570	0.278
571	0.277
571	0.276
572	0.275
572	0.274
573	0.273
573	0.272
573	0.271
574	0.27
574	0.269
575	0.269
575	0.268
576	0.268
576	0.267
577	0.266
577	0.265
577	0.264
578	0.264
578	0.263
579	0.263
579	0.263
580	0.262
580	0.26
581	0.259
581	0.259
581	0.259
582	0.258
582	0.258
583	0.258
583	0.258
584	0.256
584	0.255
585	0.255
585	0.254
585	0.254
586	0.253
586	0.252
587	0.251
587	0.25
588	0.249
588	0.248
589	0.248
589	0.247
590	0.247
590	0.247
590	0.247
591	0.247
591	0.246
592	0.245
592	0.245
593	0.244
593	0.244
594	0.243
594	0.242
594	0.242
595	0.241
595	0.24
596	0.239
596	0.239
597	0.24
597	0.239
598	0.239
598	0.238
598	0.238
599	0.237
599	0.237
600	0.236
600	0.235
601	0.235
601	0.234
602	0.233
602	0.233
602	0.232
603	0.232
603	0.232
604	0.232
604	0.232
605	0.232
605	0.232
606	0.231
606	0.23
606	0.23
607	0.23
607	0.229
608	0.229
608	0.227
609	0.227
609	0.226
610	0.226
610	0.225
610	0.225
611	0.225
611	0.225
612	0.224
612	0.224
613	0.225
613	0.224
614	0.224
614	0.223
614	0.223
615	0.223
615	0.222
616	0.222
616	0.222
617	0.221
617	0.221
618	0.22
618	0.22
618	0.22
619	0.22
619	0.22
620	0.22
620	0.22
621	0.219
621	0.219
622	0.218
622	0.218
622	0.217
623	0.216
623	0.216
624	0.216
624	0.215
625	0.215
625	0.215
626	0.214
626	0.214
626	0.214
627	0.214
627	0.214
628	0.213
628	0.213
629	0.213
629	0.212
630	0.211
630	0.211
630	0.211
631	0.211
631	0.21
632	0.21
632	0.21
633	0.21
633	0.21
634	0.211
634	0.211
634	0.211
635	0.211
635	0.211
636	0.211
636	0.211
637	0.211
637	0.21
638	0.21
638	0.209
638	0.209
639	0.208
639	0.208
640	0.208
640	0.207
641	0.207
641	0.207
642	0.207
642	0.207
642	0.207
643	0.207
643	0.206
644	0.206
644	0.206
645	0.206
645	0.206
646	0.206
646	0.206
646	0.206
647	0.206
647	0.206
648	0.205
648	0.205
649	0.205
649	0.205
650	0.205
650	0.205
650	0.205
651	0.205
651	0.204
652	0.204
652	0.204
653	0.204
653	0.206
653	0.213
654	0.166
654	0.133
655	0.134
655	0.134
656	0.134
656	0.134
657	0.134
657	0.135
657	0.134
658	0.133
658	0.121
659	0.153
659	0.197
660	0.202
660	0.202
661	0.202
661	0.201
661	0.201
662	0.201
662	0.201
663	0.201
663	0.201
664	0.201
664	0.2
665	0.2
665	0.2
665	0.2
666	0.2
666	0.2
667	0.2
667	0.2
668	0.2
668	0.2
669	0.2
669	0.2
669	0.2
670	0.201
670	0.2
671	0.2
671	0.2
672	0.199
672	0.199
672	0.199
673	0.199
673	0.198
674	0.198
674	0.198
675	0.198
675	0.198
676	0.198
676	0.198
676	0.198
677	0.198
677	0.198
678	0.198
678	0.198
679	0.198
679	0.198
680	0.198
680	0.198
680	0.198
681	0.198
681	0.198
682	0.199
682	0.2
683	0.2
683	0.201
684	0.202
684	0.202
684	0.202
685	0.202
685	0.203
686	0.203
686	0.202
687	0.202
687	0.202
687	0.201
688	0.201
688	0.2
689	0.201
689	0.201
690	0.201
690	0.2
691	0.2
691	0.2
691	0.2
692	0.2
692	0.201
693	0.201
693	0.201
694	0.201
694	0.201
695	0.201
695	0.202
695	0.203
696	0.202
696	0.202
697	0.202
697	0.202
698	0.202
698	0.201
698	0.202
699	0.202
699	0.202
700	0.201
700	0.201
701	0.202
701	0.202
702	0.201
702	0.201
702	0.201
703	0.201
703	0.201
704	0.2
704	0.2
705	0.2
705	0.199
705	0.199
706	0.199
706	0.199
707	0.199
707	0.199
708	0.199
708	0.199
709	0.199
709	0.199
709	0.198
710	0.198
710	0.199
711	0.199
711	0.2
712	0.2
712	0.2
713	0.2
713	0.201
713	0.201
714	0.201
714	0.201
715	0.201
715	0.201
716	0.2
716	0.2
716	0.199
717	0.198
717	0.198
718	0.198
718	0.197
719	0.198
719	0.198
720	0.199
720	0.199
720	0.2
721	0.2
721	0.201
722	0.202
722	0.202
723	0.203
723	0.203
723	0.203
724	0.203
724	0.203
725	0.203
725	0.202
726	0.201
726	0.201
727	0.2
727	0.2
727	0.199
728	0.199
728	0.198
729	0.198
729	0.198
730	0.198
730	0.198
730	0.198
731	0.198
731	0.198
732	0.199
732	0.198
733	0.198
733	0.198
734	0.198
734	0.198
734	0.199
735	0.199
735	0.199
736	0.199
736	0.199
737	0.199
737	0.199
737	0.2
738	0.199
738	0.199
739	0.198
739	0.198
740	0.197
740	0.197
741	0.197
741	0.197
741	0.196
742	0.196
742	0.196
743	0.196
743	0.197
744	0.197
744	0.198
744	0.198
745	0.199
745	0.199
746	0.2
746	0.201
747	0.202
747	0.202
748	0.203
748	0.203
748	0.203
749	0.203
749	0.203
750	0.203
750	0.202
751	0.202
751	0.202
751	0.201
752	0.201
752	0.2
753	0.2
753	0.199
754	0.199
754	0.199
754	0.2
755	0.2
755	0.2
756	0.199
756	0.198
757	0.197
757	0.197
758	0.197
758	0.197
758	0.197
759	0.197
759	0.196
760	0.196
760	0.196
761	0.197
761	0.198
761	0.198
762	0.199
762	0.2
763	0.201
763	0.201
764	0.201
764	0.201
764	0.201
765	0.2
765	0.2
766	0.2
766	0.199
767	0.199
767	0.197
768	0.196
768	0.196
768	0.195
769	0.195
769	0.196
770	0.196
770	0.196
771	0.196
771	0.196
771	0.197
772	0.198
772	0.198
773	0.199
773	0.199
774	0.2
774	0.2
775	0.201
775	0.201
775	0.201
776	0.202
776	0.202
777	0.202
777	0.202
778	0.202
778	0.201
778	0.201
779	0.201
779	0.201
780	0.2
780	0.2
781	0.199
781	0.199
781	0.199
782	0.198
782	0.198
783	0.199
783	0.199
784	0.199
784	0.199
784	0.2
785	0.2
785	0.2
786	0.201
786	0.201
787	0.202
787	0.201
788	0.201
788	0.201
788	0.201
789	0.2
789	0.201
790	0.201
790	0.201
791	0.2
791	0.2
791	0.2
792	0.2
792	0.2
793	0.2
793	0.2
794	0.199
794	0.199
794	0.198
795	0.198
795	0.198
796	0.198
796	0.198
797	0.198
797	0.198
797	0.197
798	0.197
798	0.197
799	0.197
799	0.197
800	0.196
800	0.196
801	0.197
801	0.197
801	0.197
802	0.198
802	0.198
803	0.198
803	0.199
804	0.2
804	0.201
804	0.201
805	0.201
805	0.2
806	0.2
806	0.199
807	0.199
807	0.199
807	0.198
808	0.198
808	0.198
809	0.197
809	0.197
810	0.197
810	0.197
810	0.197
811	0.197
811	0.197
812	0.197
812	0.197
813	0.197
813	0.198
813	0.198
814	0.198
814	0.199
815	0.199
815	0.199
816	0.199
816	0.199
817	0.199
817	0.199
817	0.198
818	0.198
818	0.197
819	0.197
819	0.196
820	0.195
820	0.194
820	0.193
821	0.193
821	0.193
822	0.192
822	0.192
823	0.192
823	0.192
823	0.192
824	0.193
824	0.194
825	0.194
825	0.195
826	0.195
826	0.194
826	0.194
827	0.194
827	0.194
828	0.193
828	0.193
829	0.192
829	0.192
829	0.191
830	0.191
830	0.191
831	0.191
831	0.191
832	0.191
832	0.192
832	0.192
833	0.192
833	0.192
834	0.192
834	0.192
835	0.191
835	0.191
835	0.191
836	0.192
836	0.192
837	0.192
837	0.191
838	0.191
838	0.19
839	0.19
839	0.189
839	0.188
840	0.186
840	0.185
841	0.183
841	0.182
842	0.182
842	0.181
842	0.18
843	0.18
843	0.18
844	0.18
844	0.179
845	0.179
845	0.179
845	0.179
846	0.178
846	0.178
847	0.178
847	0.178
848	0.177
848	0.177
848	0.177
849	0.177
849	0.177
850	0.177
850	0.177
851	0.176
851	0.176
851	0.176
852	0.175
852	0.174
853	0.173
853	0.172
854	0.172
854	0.172
854	0.172
855	0.172
855	0.172
856	0.172
856	0.173
857	0.173
857	0.173
857	0.173
858	0.173
858	0.172
859	0.171
859	0.17
860	0.169
860	0.168
860	0.167
861	0.166
861	0.165
862	0.164
862	0.163
863	0.163
863	0.163
863	0.163
864	0.163
864	0.163
865	0.163
865	0.163
866	0.162
866	0.162
866	0.161
867	0.161
867	0.161
868	0.16
868	0.16
869	0.16
869	0.16
869	0.16
870	0.16
870	0.16
871	0.161
871	0.162
872	0.162
872	0.162
872	0.162
873	0.163
873	0.162
874	0.162
874	0.162
875	0.161
875	0.161
875	0.161
876	0.161
876	0.16
877	0.16
877	0.16
878	0.16
878	0.16
878	0.161
879	0.161
879	0.161
880	0.161
880	0.16
881	0.16
881	0.159
881	0.158
882	0.157
882	0.155
883	0.154
883	0.153
884	0.152
884	0.151
884	0.15
885	0.149
885	0.148
886	0.147
886	0.147
887	0.146
887	0.145
887	0.145
888	0.144
888	0.143
889	0.143
889	0.143
890	0.143
890	0.143
890	0.143
891	0.143
891	0.144
892	0.145
892	0.145
893	0.146
893	0.147
893	0.147
894	0.147
894	0.148
895	0.148
895	0.148
895	0.148
896	0.148
896	0.148
897	0.148
897	0.148
898	0.147
898	0.147
898	0.147
899	0.146
899	0.146
900	0.146
900	0.145
901	0.145
901	0.145
901	0.145
902	0.144
902	0.144
903	0.143
903	0.142
904	0.142
904	0.141
904	0.14
905	0.14
905	0.139
906	0.139
906	0.139
907	0.139
907	0.139
907	0.139
908	0.139
908	0.14
909	0.14
909	0.14
910	0.141
910	0.141
910	0.14
911	0.14
911	0.139
912	0.138
912	0.138
913	0.137
913	0.137
913	0.136
914	0.135
914	0.135
915	0.134
915	0.134
916	0.133
916	0.132
916	0.132
917	0.131
917	0.13
918	0.129
918	0.128
918	0.127
919	0.126
919	0.126
920	0.125
920	0.125
921	0.125
921	0.125
921	0.125
922	0.125
922	0.125
923	0.125
923	0.126
924	0.126
924	0.126
924	0.126
925	0.126
925	0.126
926	0.125
926	0.125
927	0.124
927	0.124
927	0.123
928	0.122
928	0.122
929	0.122
929	0.122
930	0.121
930	0.121
930	0.121
931	0.121
931	0.121
932	0.121
932	0.121
933	0.121
933	0.12
933	0.12
934	0.12
934	0.119
935	0.119
935	0.118
935	0.117
936	0.117
936	0.116
937	0.115
937	0.115
938	0.115
938	0.114
938	0.114
939	0.113
939	0.113
940	0.113
940	0.114
941	0.114
941	0.115
941	0.115
942	0.115
942	0.115
943	0.116
943	0.116
944	0.116
944	0.116
944	0.116
945	0.116
945	0.116
946	0.116
946	0.116
946	0.117
947	0.117
947	0.117
948	0.117
948	0.117
949	0.117
949	0.117
949	0.116
950	0.116
950	0.115
951	0.114
951	0.113
952	0.112
952	0.112
952	0.111
953	0.111
953	0.11
954	0.11
954	0.11
955	0.109
955	0.109
955	0.109
956	0.11
956	0.11
957	0.111
957	0.111
957	0.111
958	0.112
958	0.112
959	0.112
959	0.112
960	0.112
960	0.111
960	0.111
961	0.11
961	0.11
962	0.11
962	0.109
963	0.109
963	0.109
963	0.108
964	0.108
964	0.108
965	0.108
965	0.107
966	0.107
966	0.107
966	0.107
967	0.107
967	0.107
968	0.107
968	0.106
968	0.106
969	0.106
969	0.106
970	0.106
970	0.106
971	0.106
971	0.106
971	0.106
972	0.106
972	0.106
973	0.106
973	0.106
974	0.106
974	0.105
974	0.105
975	0.105
975	0.105
976	0.105
976	0.105
976	0.105
977	0.105
977	0.105
978	0.105
978	0.105
979	0.105
979	0.105
979	0.105
980	0.105
980	0.105
981	0.104
981	0.104
982	0.103
982	0.103
982	0.102
983	0.102
983	0.101
984	0.1
984	0.099
984	0.098
985	0.097
985	0.096
986	0.095
986	0.095
987	0.094
987	0.093
987	0.092
988	0.091
988	0.091
989	0.09
989	0.09
990	0.089
990	0.089
990	0.088
991	0.088
991	0.088
992	0.088
992	0.088
992	0.087
993	0.087
993	0.087
994	0.087
994	0.087
995	0.087
995	0.086
995	0.086
996	0.086
996	0.086
997	0.087
997	0.087
997	0.087
998	0.087
998	0.088
999	0.089
999	0.089
1000	0.09
1000	0.091
1000	0.091
1001	0.092
1001	0.093
1002	0.093
1002	0.093
1003	0.093
1003	0.093
1003	0.093
1004	0.093
1004	0.092
1005	0.092
1005	0.091
1005	0.091
1006	0.09
1006	0.09
1007	0.09
1007	0.089
1008	0.089
1008	0.089
1008	0.089
1009	0.089
1009	0.09
1010	0.089
1010	0.09
1010	0.09
1011	0.09
1011	0.09
1012	0.09
1012	0.089
1013	0.089
1013	0.089
1013	0.088
1014	0.088
1014	0.088
1015	0.087
1015	0.087
1016	0.087
1016	0.086
1016	0.086
1017	0.085
1017	0.085
1018	0.085
1018	0.085
1018	0.084
1019	0.084
1019	0.084
1020	0.083
1020	0.083
1021	0.083
1021	0.082
1021	0.082
1022	0.082
1022	0.081
1023	0.081
1023	0.081
1023	0.081
1024	0.081
1024	0.08
1025	0.08
1025	0.08
1026	0.08
1026	0.079
1026	0.079
1027	0.079
1027	0.079
1028	0.079
1028	0.079
1028	0.078
1029	0.078
1029	0.078
1030	0.078
1030	0.078
1031	0.078
1031	0.078
1031	0.078
1032	0.078
1032	0.078
1033	0.078
1033	0.077
1033	0.077
1034	0.077
1034	0.077
1035	0.076
1035	0.076
1036	0.076
1036	0.076
1036	0.076
1037	0.076
1037	0.076
1038	0.076
1038	0.076
1039	0.076
1039	0.076
1039	0.076
1040	0.076
1040	0.076
1041	0.076
1041	0.075
1041	0.075
1042	0.075
1042	0.074
1043	0.074
1043	0.073
1044	0.073
1044	0.073
1044	0.073
1045	0.073
1045	0.074
1046	0.074
1046	0.075
1046	0.075
1047	0.076
1047	0.077
1048	0.077
1048	0.078
1049	0.078
1049	0.079
1049	0.079
1050	0.078
1050	0.078
1051	0.077
1051	0.076
1051	0.076
1052	0.075
1052	0.074
1053	0.072
1053	0.071
1053	0.07
1054	0.069
1054	0.069
1055	0.068
1055	0.068
1056	0.067
1056	0.067
1056	0.067
1057	0.066
1057	0.066
1058	0.066
1058	0.065
1058	0.064
1059	0.063
1059	0.063
1060	0.063
1060	0.062
1061	0.062
1061	0.062
1061	0.062
1062	0.061
1062	0.062
1063	0.062
1063	0.062
1063	0.062
1064	0.062
1064	0.062
1065	0.062
1065	0.062
1066	0.062
1066	0.062
1066	0.063
1067	0.062
1067	0.062
1068	0.062
1068	0.062
1068	0.061
1069	0.061
1069	0.061
1070	0.06
1070	0.059
1071	0.059
1071	0.058
1071	0.058
1072	0.057
1072	0.056
1073	0.056
1073	0.055
1073	0.055
1074	0.056
1074	0.056
1075	0.056
1075	0.056
1076	0.056
1076	0.057
1076	0.057
1077	0.057
1077	0.057
1078	0.057
1078	0.057
1078	0.057
1079	0.056
1079	0.056
1080	0.055
1080	0.055
1080	0.055
1081	0.055
1081	0.055
1082	0.055
1082	0.055
1083	0.055
1083	0.055
1083	0.054
1084	0.054
1084	0.054
1085	0.054
1085	0.053
1085	0.053
1086	0.053
1086	0.053
1087	0.052
1087	0.052
1088	0.053
1088	0.052
1088	0.053
1089	0.052
1089	0.051
1090	0.051
1090	0.05
1090	0.049
1091	0.049
1091	0.049
1092	0.049
1092	0.048
1092	0.048
1093	0.047
1093	0.047
1094	0.047
1094	0.047
1095	0.047
1095	0.046
1095	0.046
1096	0.045
1096	0.044
1097	0.044
1097	0.043
1097	0.044
1098	0.043
1098	0.042
1099	0.041
1099	0.039
1100	0.039
1100	0.037
1100	0.037
1101	0.036
1101	0.034
1102	0.034
1102	0.032
1102	0.031
1103	0.031
1103	0.031
1104	0.031
1104	0.03
1104	0.029
1105	0.028
1105	0.027
1106	0.026
1106	0.024
1107	0.023
1107	0.022
1107	0.022
1108	0.021
1108	0.019
1109	0.018
1109	0.017
1109	0.017
1110	0.018
1110	0.017
1111	0.017
1111	0.021
