Data from reversibility-20sec_Absorbance__3085__000000000003085.txt Node

Date: Wed Dec 06 05:21:25 CET 2023
User: Marek
Spectrometer: MAYP115816
Trigger mode: 0
Integration Time (sec): 2.000000E-1
Scans to average: 10
Electric dark correction enabled: true
Nonlinearity correction enabled: true
Boxcar width: 5
XAxis mode: Wavelengths
Number of Pixels in Spectrum: 2068
>>>>>Begin Spectral Data<<<<<
199	-0.13
199	-0.093
200	-0.029
200	0.024
201	0.055
201	0.077
202	0.093
202	0.103
203	0.11
203	0.112
204	0.129
204	0.14
205	0.154
205	0.161
205	0.158
206	0.159
206	0.159
207	0.158
207	0.155
208	0.156
208	0.159
209	0.162
209	0.159
210	0.159
210	0.159
211	0.161
211	0.163
212	0.157
212	0.16
213	0.166
213	0.167
213	0.168
214	0.172
214	0.174
215	0.174
215	0.173
216	0.177
216	0.176
217	0.181
217	0.185
218	0.183
218	0.184
219	0.187
219	0.186
220	0.188
220	0.189
221	0.192
221	0.194
221	0.199
222	0.206
222	0.209
223	0.216
223	0.219
224	0.223
224	0.231
225	0.242
225	0.253
226	0.264
226	0.273
227	0.284
227	0.293
228	0.307
228	0.32
229	0.338
229	0.361
229	0.386
230	0.41
230	0.437
231	0.47
231	0.508
232	0.544
232	0.586
233	0.63
233	0.679
234	0.727
234	0.78
235	0.831
235	0.884
236	0.938
236	0.989
236	1.046
237	1.099
237	1.152
238	1.2
238	1.249
239	1.301
239	1.346
240	1.392
240	1.432
241	1.473
241	1.509
242	1.541
242	1.575
243	1.608
243	1.638
243	1.666
244	1.69
244	1.714
245	1.735
245	1.763
246	1.783
246	1.802
247	1.816
247	1.834
248	1.851
248	1.867
249	1.88
249	1.889
250	1.899
250	1.907
250	1.911
251	1.915
251	1.919
252	1.926
252	1.926
253	1.93
253	1.926
254	1.924
254	1.926
255	1.925
255	1.926
256	1.926
256	1.927
257	1.925
257	1.924
258	1.925
258	1.925
258	1.928
259	1.932
259	1.932
260	1.932
260	1.936
261	1.937
261	1.941
262	1.948
262	1.952
263	1.959
263	1.962
264	1.965
264	1.967
265	1.97
265	1.975
265	1.978
266	1.98
266	1.983
267	1.981
267	1.983
268	1.982
268	1.985
269	1.989
269	1.989
270	1.991
270	1.99
271	1.987
271	1.987
272	1.984
272	1.981
272	1.975
273	1.965
273	1.954
274	1.945
274	1.935
275	1.927
275	1.919
276	1.91
276	1.902
277	1.892
277	1.881
278	1.869
278	1.857
278	1.841
279	1.821
279	1.794
280	1.76
280	1.719
281	1.673
281	1.621
282	1.57
282	1.519
283	1.469
283	1.421
284	1.376
284	1.333
285	1.294
285	1.259
285	1.227
286	1.199
286	1.176
287	1.156
287	1.138
288	1.124
288	1.111
289	1.1
289	1.091
290	1.084
290	1.077
291	1.071
291	1.066
292	1.061
292	1.057
292	1.053
293	1.049
293	1.046
294	1.042
294	1.039
295	1.036
295	1.033
296	1.03
296	1.027
297	1.024
297	1.022
298	1.019
298	1.016
298	1.013
299	1.011
299	1.008
300	1.005
300	1.003
301	1.001
301	0.998
302	0.995
302	0.993
303	0.991
303	0.988
304	0.986
304	0.984
305	0.982
305	0.98
305	0.978
306	0.976
306	0.973
307	0.971
307	0.969
308	0.967
308	0.964
309	0.962
309	0.959
310	0.956
310	0.953
311	0.95
311	0.947
311	0.943
312	0.94
312	0.936
313	0.932
313	0.928
314	0.924
314	0.92
315	0.916
315	0.911
316	0.907
316	0.902
317	0.898
317	0.893
318	0.888
318	0.883
318	0.878
319	0.873
319	0.867
320	0.862
320	0.856
321	0.85
321	0.844
322	0.837
322	0.831
323	0.825
323	0.818
324	0.812
324	0.805
324	0.798
325	0.791
325	0.784
326	0.777
326	0.77
327	0.763
327	0.756
328	0.749
328	0.742
329	0.735
329	0.728
330	0.72
330	0.713
330	0.706
331	0.699
331	0.692
332	0.685
332	0.677
333	0.67
333	0.663
334	0.656
334	0.649
335	0.642
335	0.636
336	0.629
336	0.622
336	0.616
337	0.609
337	0.603
338	0.596
338	0.59
339	0.584
339	0.577
340	0.571
340	0.566
341	0.56
341	0.554
342	0.549
342	0.543
342	0.538
343	0.533
343	0.527
344	0.522
344	0.518
345	0.513
345	0.508
346	0.504
346	0.499
347	0.495
347	0.491
348	0.486
348	0.482
348	0.478
349	0.475
349	0.471
350	0.467
350	0.464
351	0.46
351	0.457
352	0.454
352	0.451
353	0.448
353	0.445
354	0.442
354	0.439
354	0.436
355	0.433
355	0.43
356	0.427
356	0.424
357	0.421
357	0.419
358	0.416
358	0.413
359	0.411
359	0.409
360	0.407
360	0.404
360	0.402
361	0.4
361	0.398
362	0.397
362	0.395
363	0.393
363	0.391
364	0.389
364	0.387
365	0.385
365	0.384
366	0.382
366	0.38
366	0.378
367	0.376
367	0.374
368	0.373
368	0.371
369	0.369
369	0.368
370	0.366
370	0.365
371	0.364
371	0.362
372	0.361
372	0.36
372	0.359
373	0.358
373	0.357
374	0.356
374	0.355
375	0.354
375	0.353
376	0.352
376	0.351
377	0.35
377	0.349
378	0.348
378	0.347
378	0.346
379	0.345
379	0.344
380	0.343
380	0.342
381	0.341
381	0.34
382	0.34
382	0.339
383	0.339
383	0.338
383	0.337
384	0.337
384	0.336
385	0.336
385	0.335
386	0.335
386	0.334
387	0.334
387	0.333
388	0.332
388	0.332
389	0.331
389	0.331
389	0.33
390	0.33
390	0.329
391	0.329
391	0.328
392	0.328
392	0.328
393	0.327
393	0.327
394	0.327
394	0.326
394	0.326
395	0.325
395	0.325
396	0.325
396	0.324
397	0.324
397	0.323
398	0.323
398	0.323
399	0.322
399	0.322
400	0.321
400	0.321
400	0.32
401	0.32
401	0.32
402	0.319
402	0.319
403	0.319
403	0.318
404	0.318
404	0.317
405	0.317
405	0.317
405	0.316
406	0.316
406	0.315
407	0.315
407	0.315
408	0.315
408	0.314
409	0.314
409	0.314
410	0.313
410	0.313
411	0.313
411	0.313
411	0.312
412	0.312
412	0.312
413	0.311
413	0.311
414	0.311
414	0.31
415	0.31
415	0.309
416	0.309
416	0.309
416	0.308
417	0.308
417	0.308
418	0.307
418	0.307
419	0.307
419	0.306
420	0.306
420	0.306
421	0.305
421	0.305
421	0.304
422	0.304
422	0.304
423	0.303
423	0.303
424	0.302
424	0.302
425	0.302
425	0.301
426	0.301
426	0.301
427	0.3
427	0.3
427	0.3
428	0.299
428	0.299
429	0.299
429	0.298
430	0.298
430	0.298
431	0.297
431	0.297
432	0.297
432	0.297
432	0.297
433	0.296
433	0.296
434	0.296
434	0.296
435	0.296
435	0.296
436	0.296
436	0.296
437	0.295
437	0.295
437	0.295
438	0.294
438	0.294
439	0.293
439	0.293
440	0.292
440	0.292
441	0.292
441	0.291
442	0.291
442	0.291
442	0.29
443	0.29
443	0.29
444	0.29
444	0.29
445	0.29
445	0.29
446	0.289
446	0.289
447	0.289
447	0.289
447	0.289
448	0.289
448	0.289
449	0.288
449	0.288
450	0.288
450	0.288
451	0.287
451	0.287
452	0.287
452	0.287
452	0.287
453	0.287
453	0.287
454	0.286
454	0.286
455	0.286
455	0.286
456	0.286
456	0.285
457	0.285
457	0.285
458	0.284
458	0.284
458	0.284
459	0.284
459	0.284
460	0.284
460	0.284
461	0.283
461	0.283
462	0.283
462	0.283
463	0.283
463	0.283
463	0.282
464	0.282
464	0.281
465	0.281
465	0.281
466	0.281
466	0.28
467	0.28
467	0.281
467	0.28
468	0.28
468	0.28
469	0.281
469	0.281
470	0.281
470	0.281
471	0.281
471	0.281
472	0.281
472	0.281
472	0.281
473	0.281
473	0.281
474	0.281
474	0.281
475	0.281
475	0.281
476	0.281
476	0.281
477	0.281
477	0.281
477	0.281
478	0.281
478	0.281
479	0.281
479	0.281
480	0.281
480	0.281
481	0.281
481	0.281
482	0.281
482	0.281
482	0.282
483	0.282
483	0.282
484	0.283
484	0.283
485	0.283
485	0.283
486	0.283
486	0.283
487	0.284
487	0.284
487	0.284
488	0.285
488	0.285
489	0.285
489	0.286
490	0.287
490	0.287
491	0.288
491	0.289
492	0.289
492	0.29
492	0.291
493	0.291
493	0.292
494	0.293
494	0.293
495	0.294
495	0.294
496	0.294
496	0.295
496	0.296
497	0.296
497	0.296
498	0.297
498	0.297
499	0.298
499	0.298
500	0.299
500	0.3
501	0.301
501	0.301
501	0.301
502	0.302
502	0.302
503	0.303
503	0.304
504	0.304
504	0.305
505	0.305
505	0.306
506	0.306
506	0.307
506	0.307
507	0.308
507	0.308
508	0.309
508	0.31
509	0.31
509	0.311
510	0.311
510	0.312
511	0.313
511	0.314
511	0.314
512	0.315
512	0.315
513	0.316
513	0.317
514	0.317
514	0.318
515	0.318
515	0.318
515	0.319
516	0.319
516	0.32
517	0.32
517	0.321
518	0.321
518	0.321
519	0.321
519	0.322
520	0.322
520	0.322
520	0.323
521	0.323
521	0.323
522	0.323
522	0.323
523	0.324
523	0.324
524	0.324
524	0.324
524	0.324
525	0.324
525	0.324
526	0.324
526	0.324
527	0.324
527	0.324
528	0.324
528	0.324
529	0.324
529	0.324
529	0.323
530	0.324
530	0.323
531	0.323
531	0.323
532	0.323
532	0.322
533	0.322
533	0.322
533	0.321
534	0.321
534	0.32
535	0.32
535	0.319
536	0.319
536	0.318
537	0.318
537	0.317
538	0.316
538	0.316
538	0.315
539	0.315
539	0.315
540	0.314
540	0.314
541	0.314
541	0.313
542	0.313
542	0.313
542	0.312
543	0.312
543	0.312
544	0.311
544	0.31
545	0.31
545	0.309
546	0.309
546	0.308
547	0.307
547	0.306
547	0.306
548	0.305
548	0.304
549	0.304
549	0.303
550	0.302
550	0.302
551	0.301
551	0.3
551	0.299
552	0.299
552	0.299
553	0.298
553	0.297
554	0.297
554	0.296
555	0.295
555	0.294
556	0.293
556	0.293
556	0.292
557	0.292
557	0.291
558	0.291
558	0.29
559	0.29
559	0.29
560	0.289
560	0.289
560	0.288
561	0.288
561	0.287
562	0.286
562	0.285
563	0.284
563	0.283
564	0.283
564	0.282
564	0.281
565	0.281
565	0.28
566	0.279
566	0.279
567	0.278
567	0.278
568	0.277
568	0.277
568	0.276
569	0.276
569	0.275
570	0.274
570	0.273
571	0.272
571	0.272
572	0.271
572	0.271
573	0.27
573	0.27
573	0.269
574	0.269
574	0.269
575	0.268
575	0.268
576	0.268
576	0.267
577	0.266
577	0.266
577	0.265
578	0.265
578	0.264
579	0.264
579	0.264
580	0.263
580	0.262
581	0.261
581	0.261
581	0.26
582	0.26
582	0.26
583	0.26
583	0.26
584	0.259
584	0.257
585	0.257
585	0.257
585	0.256
586	0.256
586	0.255
587	0.254
587	0.254
588	0.253
588	0.252
589	0.252
589	0.252
590	0.252
590	0.251
590	0.251
591	0.251
591	0.251
592	0.25
592	0.249
593	0.249
593	0.248
594	0.247
594	0.246
594	0.246
595	0.245
595	0.244
596	0.244
596	0.244
597	0.245
597	0.245
598	0.245
598	0.245
598	0.245
599	0.245
599	0.245
600	0.244
600	0.244
601	0.244
601	0.243
602	0.242
602	0.242
602	0.241
603	0.241
603	0.241
604	0.241
604	0.24
605	0.24
605	0.24
606	0.239
606	0.239
606	0.238
607	0.237
607	0.237
608	0.236
608	0.235
609	0.235
609	0.235
610	0.234
610	0.234
610	0.233
611	0.234
611	0.234
612	0.234
612	0.234
613	0.234
613	0.234
614	0.234
614	0.234
614	0.233
615	0.233
615	0.233
616	0.233
616	0.233
617	0.232
617	0.232
618	0.232
618	0.232
618	0.232
619	0.232
619	0.232
620	0.232
620	0.232
621	0.232
621	0.231
622	0.231
622	0.23
622	0.23
623	0.229
623	0.229
624	0.228
624	0.228
625	0.227
625	0.227
626	0.227
626	0.226
626	0.227
627	0.226
627	0.226
628	0.226
628	0.225
629	0.225
629	0.225
630	0.225
630	0.225
630	0.225
631	0.225
631	0.225
632	0.225
632	0.225
633	0.225
633	0.225
634	0.225
634	0.225
634	0.225
635	0.225
635	0.225
636	0.224
636	0.224
637	0.224
637	0.223
638	0.223
638	0.223
638	0.222
639	0.221
639	0.22
640	0.22
640	0.22
641	0.22
641	0.22
642	0.22
642	0.22
642	0.221
643	0.221
643	0.221
644	0.221
644	0.222
645	0.221
645	0.222
646	0.222
646	0.222
646	0.221
647	0.221
647	0.221
648	0.22
648	0.22
649	0.22
649	0.22
650	0.22
650	0.219
650	0.219
651	0.219
651	0.219
652	0.219
652	0.219
653	0.219
653	0.221
653	0.227
654	0.176
654	0.14
655	0.142
655	0.143
656	0.143
656	0.144
657	0.144
657	0.145
657	0.145
658	0.143
658	0.132
659	0.168
659	0.217
660	0.221
660	0.221
661	0.22
661	0.219
661	0.219
662	0.218
662	0.218
663	0.217
663	0.217
664	0.217
664	0.217
665	0.216
665	0.217
665	0.217
666	0.217
666	0.217
667	0.217
667	0.218
668	0.218
668	0.218
669	0.219
669	0.219
669	0.219
670	0.22
670	0.22
671	0.219
671	0.219
672	0.219
672	0.218
672	0.218
673	0.218
673	0.217
674	0.217
674	0.216
675	0.216
675	0.216
676	0.217
676	0.217
676	0.217
677	0.217
677	0.217
678	0.217
678	0.217
679	0.217
679	0.217
680	0.217
680	0.217
680	0.216
681	0.217
681	0.217
682	0.217
682	0.217
683	0.218
683	0.218
684	0.219
684	0.219
684	0.219
685	0.219
685	0.219
686	0.219
686	0.219
687	0.219
687	0.219
687	0.219
688	0.219
688	0.219
689	0.22
689	0.22
690	0.221
690	0.221
691	0.221
691	0.221
691	0.221
692	0.221
692	0.221
693	0.221
693	0.221
694	0.221
694	0.22
695	0.221
695	0.221
695	0.221
696	0.221
696	0.221
697	0.221
697	0.221
698	0.221
698	0.221
698	0.221
699	0.221
699	0.221
700	0.22
700	0.22
701	0.22
701	0.22
702	0.22
702	0.22
702	0.22
703	0.22
703	0.219
704	0.219
704	0.219
705	0.22
705	0.22
705	0.219
706	0.219
706	0.22
707	0.22
707	0.219
708	0.219
708	0.22
709	0.219
709	0.219
709	0.219
710	0.219
710	0.219
711	0.219
711	0.219
712	0.22
712	0.22
713	0.22
713	0.22
713	0.22
714	0.22
714	0.22
715	0.22
715	0.22
716	0.22
716	0.22
716	0.219
717	0.219
717	0.218
718	0.218
718	0.217
719	0.218
719	0.218
720	0.218
720	0.218
720	0.219
721	0.219
721	0.22
722	0.22
722	0.22
723	0.221
723	0.221
723	0.221
724	0.221
724	0.221
725	0.22
725	0.219
726	0.219
726	0.218
727	0.218
727	0.218
727	0.217
728	0.217
728	0.217
729	0.217
729	0.218
730	0.218
730	0.218
730	0.219
731	0.22
731	0.22
732	0.221
732	0.221
733	0.222
733	0.222
734	0.222
734	0.222
734	0.222
735	0.222
735	0.222
736	0.221
736	0.221
737	0.221
737	0.22
737	0.22
738	0.219
738	0.219
739	0.219
739	0.218
740	0.218
740	0.219
741	0.219
741	0.219
741	0.219
742	0.22
742	0.22
743	0.221
743	0.222
744	0.222
744	0.222
744	0.222
745	0.222
745	0.222
746	0.222
746	0.222
747	0.222
747	0.222
748	0.223
748	0.223
748	0.223
749	0.223
749	0.224
750	0.224
750	0.224
751	0.225
751	0.225
751	0.225
752	0.224
752	0.224
753	0.223
753	0.223
754	0.223
754	0.222
754	0.222
755	0.222
755	0.221
756	0.221
756	0.22
757	0.219
757	0.219
758	0.219
758	0.219
758	0.22
759	0.22
759	0.22
760	0.22
760	0.22
761	0.22
761	0.221
761	0.221
762	0.221
762	0.222
763	0.222
763	0.222
764	0.222
764	0.222
764	0.223
765	0.223
765	0.223
766	0.223
766	0.223
767	0.222
767	0.222
768	0.221
768	0.221
768	0.222
769	0.222
769	0.222
770	0.222
770	0.222
771	0.222
771	0.223
771	0.223
772	0.223
772	0.224
773	0.224
773	0.224
774	0.225
774	0.225
775	0.226
775	0.226
775	0.226
776	0.226
776	0.226
777	0.227
777	0.227
778	0.227
778	0.226
778	0.226
779	0.226
779	0.225
780	0.225
780	0.224
781	0.224
781	0.224
781	0.224
782	0.224
782	0.224
783	0.224
783	0.224
784	0.224
784	0.225
784	0.225
785	0.225
785	0.225
786	0.225
786	0.225
787	0.225
787	0.225
788	0.225
788	0.225
788	0.224
789	0.224
789	0.224
790	0.224
790	0.224
791	0.224
791	0.224
791	0.224
792	0.225
792	0.225
793	0.225
793	0.225
794	0.225
794	0.224
794	0.224
795	0.224
795	0.225
796	0.225
796	0.225
797	0.225
797	0.225
797	0.225
798	0.225
798	0.225
799	0.226
799	0.226
800	0.226
800	0.225
801	0.225
801	0.225
801	0.225
802	0.225
802	0.226
803	0.226
803	0.226
804	0.226
804	0.227
804	0.227
805	0.227
805	0.228
806	0.228
806	0.228
807	0.228
807	0.228
807	0.228
808	0.228
808	0.228
809	0.227
809	0.227
810	0.228
810	0.228
810	0.227
811	0.227
811	0.228
812	0.228
812	0.228
813	0.228
813	0.229
813	0.229
814	0.23
814	0.23
815	0.23
815	0.23
816	0.23
816	0.229
817	0.229
817	0.228
817	0.228
818	0.227
818	0.227
819	0.227
819	0.226
820	0.226
820	0.225
820	0.225
821	0.225
821	0.226
822	0.226
822	0.226
823	0.227
823	0.227
823	0.228
824	0.23
824	0.231
825	0.232
825	0.233
826	0.233
826	0.233
826	0.233
827	0.233
827	0.233
828	0.233
828	0.233
829	0.232
829	0.232
829	0.232
830	0.232
830	0.233
831	0.233
831	0.234
832	0.234
832	0.234
832	0.234
833	0.234
833	0.234
834	0.234
834	0.233
835	0.233
835	0.232
835	0.232
836	0.231
836	0.231
837	0.23
837	0.23
838	0.229
838	0.229
839	0.228
839	0.228
839	0.227
840	0.227
840	0.226
841	0.225
841	0.224
842	0.224
842	0.224
842	0.223
843	0.223
843	0.223
844	0.223
844	0.223
845	0.223
845	0.223
845	0.224
846	0.224
846	0.224
847	0.225
847	0.225
848	0.225
848	0.225
848	0.224
849	0.224
849	0.223
850	0.223
850	0.222
851	0.222
851	0.221
851	0.221
852	0.22
852	0.219
853	0.219
853	0.219
854	0.219
854	0.22
854	0.22
855	0.221
855	0.222
856	0.223
856	0.223
857	0.224
857	0.225
857	0.225
858	0.225
858	0.225
859	0.224
859	0.224
860	0.223
860	0.222
860	0.221
861	0.22
861	0.219
862	0.217
862	0.216
863	0.215
863	0.215
863	0.214
864	0.214
864	0.214
865	0.214
865	0.214
866	0.214
866	0.213
866	0.213
867	0.213
867	0.213
868	0.213
868	0.213
869	0.213
869	0.212
869	0.211
870	0.21
870	0.21
871	0.21
871	0.21
872	0.209
872	0.209
872	0.209
873	0.209
873	0.208
874	0.208
874	0.208
875	0.208
875	0.207
875	0.207
876	0.207
876	0.207
877	0.206
877	0.206
878	0.206
878	0.206
878	0.207
879	0.207
879	0.207
880	0.208
880	0.208
881	0.208
881	0.208
881	0.208
882	0.208
882	0.208
883	0.208
883	0.207
884	0.207
884	0.207
884	0.207
885	0.206
885	0.206
886	0.205
886	0.205
887	0.204
887	0.203
887	0.202
888	0.202
888	0.201
889	0.201
889	0.2
890	0.2
890	0.2
890	0.199
891	0.199
891	0.199
892	0.198
892	0.198
893	0.198
893	0.197
893	0.197
894	0.196
894	0.196
895	0.195
895	0.195
895	0.194
896	0.193
896	0.193
897	0.192
897	0.192
898	0.191
898	0.19
898	0.19
899	0.189
899	0.189
900	0.189
900	0.189
901	0.189
901	0.189
901	0.189
902	0.189
902	0.189
903	0.189
903	0.189
904	0.189
904	0.189
904	0.189
905	0.189
905	0.189
906	0.189
906	0.189
907	0.19
907	0.19
907	0.191
908	0.191
908	0.192
909	0.192
909	0.192
910	0.192
910	0.192
910	0.191
911	0.191
911	0.19
912	0.19
912	0.189
913	0.188
913	0.188
913	0.187
914	0.187
914	0.186
915	0.186
915	0.186
916	0.185
916	0.185
916	0.185
917	0.184
917	0.184
918	0.183
918	0.182
918	0.182
919	0.181
919	0.18
920	0.179
920	0.179
921	0.178
921	0.177
921	0.177
922	0.176
922	0.176
923	0.176
923	0.176
924	0.176
924	0.176
924	0.177
925	0.177
925	0.177
926	0.177
926	0.177
927	0.177
927	0.177
927	0.177
928	0.177
928	0.177
929	0.176
929	0.176
930	0.176
930	0.175
930	0.175
931	0.175
931	0.175
932	0.175
932	0.175
933	0.175
933	0.174
933	0.174
934	0.174
934	0.173
935	0.173
935	0.172
935	0.172
936	0.171
936	0.171
937	0.17
937	0.17
938	0.169
938	0.169
938	0.168
939	0.167
939	0.167
940	0.166
940	0.166
941	0.165
941	0.165
941	0.164
942	0.164
942	0.163
943	0.163
943	0.163
944	0.163
944	0.163
944	0.162
945	0.162
945	0.162
946	0.162
946	0.162
946	0.161
947	0.162
947	0.162
948	0.162
948	0.162
949	0.162
949	0.162
949	0.161
950	0.161
950	0.161
951	0.16
951	0.159
952	0.158
952	0.157
952	0.156
953	0.155
953	0.154
954	0.153
954	0.152
955	0.151
955	0.151
955	0.15
956	0.15
956	0.15
957	0.15
957	0.15
957	0.15
958	0.15
958	0.15
959	0.15
959	0.15
960	0.15
960	0.149
960	0.149
961	0.149
961	0.148
962	0.148
962	0.148
963	0.147
963	0.147
963	0.147
964	0.147
964	0.146
965	0.146
965	0.147
966	0.147
966	0.148
966	0.148
967	0.149
967	0.149
968	0.15
968	0.15
968	0.15
969	0.15
969	0.15
970	0.149
970	0.149
971	0.148
971	0.148
971	0.147
972	0.147
972	0.146
973	0.146
973	0.146
974	0.145
974	0.145
974	0.145
975	0.145
975	0.145
976	0.145
976	0.145
976	0.145
977	0.145
977	0.145
978	0.145
978	0.145
979	0.145
979	0.145
979	0.145
980	0.144
980	0.144
981	0.144
981	0.143
982	0.143
982	0.143
982	0.142
983	0.142
983	0.141
984	0.14
984	0.14
984	0.139
985	0.139
985	0.138
986	0.138
986	0.137
987	0.137
987	0.136
987	0.136
988	0.136
988	0.135
989	0.135
989	0.134
990	0.134
990	0.133
990	0.133
991	0.132
991	0.131
992	0.131
992	0.13
992	0.129
993	0.129
993	0.128
994	0.128
994	0.127
995	0.127
995	0.127
995	0.126
996	0.126
996	0.127
997	0.127
997	0.127
997	0.128
998	0.129
998	0.129
999	0.13
999	0.131
1000	0.131
1000	0.132
1000	0.132
1001	0.133
1001	0.133
1002	0.132
1002	0.132
1003	0.131
1003	0.131
1003	0.13
1004	0.129
1004	0.128
1005	0.127
1005	0.126
1005	0.125
1006	0.124
1006	0.124
1007	0.123
1007	0.123
1008	0.123
1008	0.123
1008	0.123
1009	0.123
1009	0.123
1010	0.122
1010	0.123
1010	0.123
1011	0.123
1011	0.122
1012	0.122
1012	0.122
1013	0.122
1013	0.122
1013	0.122
1014	0.122
1014	0.122
1015	0.122
1015	0.122
1016	0.122
1016	0.121
1016	0.121
1017	0.12
1017	0.12
1018	0.12
1018	0.119
1018	0.118
1019	0.118
1019	0.118
1020	0.117
1020	0.117
1021	0.117
1021	0.117
1021	0.117
1022	0.117
1022	0.117
1023	0.117
1023	0.117
1023	0.117
1024	0.117
1024	0.116
1025	0.116
1025	0.116
1026	0.116
1026	0.115
1026	0.115
1027	0.115
1027	0.115
1028	0.114
1028	0.114
1028	0.114
1029	0.114
1029	0.113
1030	0.113
1030	0.113
1031	0.113
1031	0.113
1031	0.113
1032	0.113
1032	0.113
1033	0.113
1033	0.113
1033	0.113
1034	0.113
1034	0.113
1035	0.112
1035	0.112
1036	0.112
1036	0.111
1036	0.111
1037	0.111
1037	0.11
1038	0.11
1038	0.11
1039	0.11
1039	0.11
1039	0.11
1040	0.11
1040	0.111
1041	0.111
1041	0.111
1041	0.111
1042	0.112
1042	0.112
1043	0.112
1043	0.112
1044	0.112
1044	0.113
1044	0.113
1045	0.113
1045	0.113
1046	0.114
1046	0.114
1046	0.114
1047	0.115
1047	0.115
1048	0.115
1048	0.116
1049	0.116
1049	0.117
1049	0.117
1050	0.117
1050	0.117
1051	0.117
1051	0.117
1051	0.117
1052	0.117
1052	0.117
1053	0.116
1053	0.115
1053	0.114
1054	0.113
1054	0.113
1055	0.112
1055	0.111
1056	0.11
1056	0.109
1056	0.109
1057	0.108
1057	0.107
1058	0.106
1058	0.105
1058	0.104
1059	0.104
1059	0.103
1060	0.102
1060	0.102
1061	0.101
1061	0.101
1061	0.101
1062	0.1
1062	0.099
1063	0.099
1063	0.099
1063	0.099
1064	0.098
1064	0.098
1065	0.097
1065	0.097
1066	0.097
1066	0.097
1066	0.096
1067	0.096
1067	0.096
1068	0.095
1068	0.095
1068	0.095
1069	0.094
1069	0.093
1070	0.093
1070	0.093
1071	0.092
1071	0.092
1071	0.091
1072	0.091
1072	0.09
1073	0.09
1073	0.089
1073	0.089
1074	0.089
1074	0.089
1075	0.089
1075	0.089
1076	0.09
1076	0.09
1076	0.09
1077	0.09
1077	0.091
1078	0.09
1078	0.091
1078	0.091
1079	0.09
1079	0.09
1080	0.09
1080	0.09
1080	0.09
1081	0.09
1081	0.09
1082	0.09
1082	0.091
1083	0.09
1083	0.09
1083	0.09
1084	0.09
1084	0.091
1085	0.091
1085	0.091
1085	0.09
1086	0.09
1086	0.09
1087	0.089
1087	0.089
1088	0.088
1088	0.088
1088	0.088
1089	0.087
1089	0.085
1090	0.084
1090	0.083
1090	0.082
1091	0.081
1091	0.081
1092	0.081
1092	0.081
1092	0.081
1093	0.079
1093	0.08
1094	0.08
1094	0.08
1095	0.08
1095	0.08
1095	0.079
1096	0.079
1096	0.078
1097	0.076
1097	0.075
1097	0.076
1098	0.075
1098	0.074
1099	0.073
1099	0.072
1100	0.072
1100	0.071
1100	0.07
1101	0.071
1101	0.071
1102	0.071
1102	0.07
1102	0.069
1103	0.069
1103	0.069
1104	0.069
1104	0.068
1104	0.068
1105	0.067
1105	0.066
1106	0.065
1106	0.063
1107	0.063
1107	0.063
1107	0.063
1108	0.061
1108	0.061
1109	0.06
1109	0.059
1109	0.059
1110	0.059
1110	0.058
1111	0.06
1111	0.058
