Data from reversibility-20sec_Absorbance__1470__000000000001470.txt Node

Date: Tue Dec 05 20:23:06 CET 2023
User: Marek
Spectrometer: MAYP115816
Trigger mode: 0
Integration Time (sec): 2.000000E-1
Scans to average: 10
Electric dark correction enabled: true
Nonlinearity correction enabled: true
Boxcar width: 5
XAxis mode: Wavelengths
Number of Pixels in Spectrum: 2068
>>>>>Begin Spectral Data<<<<<
199	-0.233
199	-0.204
200	-0.136
200	-0.081
201	-0.046
201	-0.028
202	-0.011
202	-0.003
203	0.005
203	0.008
204	0.021
204	0.036
205	0.05
205	0.057
205	0.055
206	0.051
206	0.052
207	0.053
207	0.052
208	0.053
208	0.053
209	0.053
209	0.051
210	0.049
210	0.049
211	0.051
211	0.054
212	0.052
212	0.052
213	0.056
213	0.056
213	0.055
214	0.06
214	0.061
215	0.065
215	0.063
216	0.064
216	0.062
217	0.066
217	0.067
218	0.065
218	0.067
219	0.075
219	0.076
220	0.079
220	0.077
221	0.079
221	0.082
221	0.089
222	0.094
222	0.099
223	0.105
223	0.11
224	0.113
224	0.121
225	0.13
225	0.142
226	0.15
226	0.161
227	0.172
227	0.181
228	0.195
228	0.209
229	0.226
229	0.249
229	0.27
230	0.295
230	0.324
231	0.36
231	0.398
232	0.434
232	0.479
233	0.523
233	0.572
234	0.624
234	0.675
235	0.728
235	0.781
236	0.834
236	0.887
236	0.94
237	0.994
237	1.044
238	1.097
238	1.146
239	1.198
239	1.243
240	1.289
240	1.329
241	1.37
241	1.409
242	1.445
242	1.482
243	1.516
243	1.543
243	1.574
244	1.598
244	1.627
245	1.648
245	1.674
246	1.695
246	1.715
247	1.732
247	1.751
248	1.771
248	1.79
249	1.803
249	1.812
250	1.821
250	1.834
250	1.844
251	1.853
251	1.861
252	1.871
252	1.874
253	1.879
253	1.88
254	1.884
254	1.889
255	1.892
255	1.896
256	1.898
256	1.897
257	1.901
257	1.901
258	1.904
258	1.904
258	1.905
259	1.908
259	1.911
260	1.912
260	1.915
261	1.916
261	1.923
262	1.926
262	1.929
263	1.934
263	1.938
264	1.942
264	1.946
265	1.947
265	1.95
265	1.951
266	1.954
266	1.956
267	1.955
267	1.957
268	1.958
268	1.961
269	1.964
269	1.964
270	1.965
270	1.965
271	1.964
271	1.966
272	1.965
272	1.962
272	1.961
273	1.954
273	1.945
274	1.939
274	1.934
275	1.929
275	1.924
276	1.919
276	1.911
277	1.905
277	1.895
278	1.884
278	1.874
278	1.862
279	1.846
279	1.824
280	1.798
280	1.767
281	1.729
281	1.688
282	1.644
282	1.601
283	1.559
283	1.516
284	1.475
284	1.436
285	1.399
285	1.365
285	1.335
286	1.308
286	1.285
287	1.265
287	1.248
288	1.232
288	1.22
289	1.209
289	1.199
290	1.191
290	1.184
291	1.177
291	1.171
292	1.166
292	1.161
292	1.157
293	1.152
293	1.149
294	1.145
294	1.141
295	1.138
295	1.135
296	1.131
296	1.128
297	1.125
297	1.122
298	1.119
298	1.116
298	1.113
299	1.111
299	1.108
300	1.105
300	1.102
301	1.1
301	1.097
302	1.094
302	1.091
303	1.089
303	1.086
304	1.083
304	1.081
305	1.078
305	1.075
305	1.072
306	1.07
306	1.067
307	1.064
307	1.061
308	1.058
308	1.055
309	1.052
309	1.049
310	1.045
310	1.042
311	1.039
311	1.035
311	1.032
312	1.028
312	1.024
313	1.021
313	1.016
314	1.012
314	1.008
315	1.004
315	0.999
316	0.995
316	0.99
317	0.985
317	0.98
318	0.975
318	0.969
318	0.964
319	0.958
319	0.953
320	0.947
320	0.941
321	0.935
321	0.928
322	0.922
322	0.915
323	0.909
323	0.903
324	0.896
324	0.889
324	0.882
325	0.875
325	0.868
326	0.861
326	0.854
327	0.846
327	0.839
328	0.832
328	0.825
329	0.817
329	0.81
330	0.803
330	0.796
330	0.788
331	0.781
331	0.774
332	0.767
332	0.759
333	0.752
333	0.745
334	0.738
334	0.731
335	0.724
335	0.717
336	0.71
336	0.704
336	0.697
337	0.69
337	0.684
338	0.678
338	0.671
339	0.665
339	0.659
340	0.652
340	0.647
341	0.641
341	0.635
342	0.629
342	0.624
342	0.618
343	0.613
343	0.607
344	0.602
344	0.598
345	0.593
345	0.588
346	0.583
346	0.579
347	0.574
347	0.57
348	0.566
348	0.561
348	0.558
349	0.553
349	0.549
350	0.546
350	0.542
351	0.538
351	0.535
352	0.531
352	0.528
353	0.525
353	0.521
354	0.518
354	0.515
354	0.512
355	0.509
355	0.506
356	0.504
356	0.501
357	0.497
357	0.494
358	0.491
358	0.488
359	0.486
359	0.483
360	0.481
360	0.479
360	0.476
361	0.474
361	0.472
362	0.47
362	0.468
363	0.466
363	0.464
364	0.462
364	0.46
365	0.458
365	0.456
366	0.454
366	0.452
366	0.45
367	0.448
367	0.446
368	0.444
368	0.442
369	0.44
369	0.439
370	0.437
370	0.435
371	0.434
371	0.432
372	0.43
372	0.429
372	0.427
373	0.426
373	0.425
374	0.424
374	0.422
375	0.421
375	0.42
376	0.419
376	0.418
377	0.416
377	0.415
378	0.414
378	0.413
378	0.412
379	0.411
379	0.41
380	0.409
380	0.408
381	0.407
381	0.406
382	0.405
382	0.404
383	0.403
383	0.402
383	0.401
384	0.4
384	0.4
385	0.399
385	0.398
386	0.397
386	0.397
387	0.396
387	0.395
388	0.394
388	0.393
389	0.392
389	0.392
389	0.391
390	0.39
390	0.39
391	0.389
391	0.388
392	0.388
392	0.387
393	0.387
393	0.386
394	0.385
394	0.385
394	0.384
395	0.383
395	0.383
396	0.382
396	0.381
397	0.38
397	0.379
398	0.379
398	0.378
399	0.378
399	0.377
400	0.377
400	0.376
400	0.376
401	0.375
401	0.375
402	0.375
402	0.374
403	0.374
403	0.373
404	0.373
404	0.372
405	0.372
405	0.372
405	0.371
406	0.37
406	0.37
407	0.369
407	0.368
408	0.368
408	0.367
409	0.367
409	0.366
410	0.366
410	0.365
411	0.364
411	0.364
411	0.364
412	0.363
412	0.363
413	0.362
413	0.362
414	0.361
414	0.361
415	0.361
415	0.36
416	0.36
416	0.359
416	0.359
417	0.358
417	0.358
418	0.358
418	0.357
419	0.357
419	0.357
420	0.356
420	0.356
421	0.355
421	0.355
421	0.355
422	0.354
422	0.354
423	0.353
423	0.353
424	0.352
424	0.352
425	0.351
425	0.351
426	0.351
426	0.35
427	0.35
427	0.349
427	0.349
428	0.349
428	0.348
429	0.348
429	0.348
430	0.347
430	0.347
431	0.347
431	0.347
432	0.347
432	0.346
432	0.346
433	0.346
433	0.346
434	0.346
434	0.346
435	0.345
435	0.345
436	0.345
436	0.345
437	0.345
437	0.344
437	0.344
438	0.344
438	0.343
439	0.343
439	0.343
440	0.342
440	0.342
441	0.342
441	0.342
442	0.341
442	0.341
442	0.341
443	0.341
443	0.341
444	0.341
444	0.341
445	0.341
445	0.341
446	0.341
446	0.34
447	0.34
447	0.34
447	0.34
448	0.34
448	0.34
449	0.34
449	0.34
450	0.34
450	0.34
451	0.339
451	0.339
452	0.339
452	0.339
452	0.339
453	0.339
453	0.339
454	0.339
454	0.339
455	0.338
455	0.338
456	0.339
456	0.339
457	0.339
457	0.339
458	0.339
458	0.339
458	0.339
459	0.339
459	0.339
460	0.339
460	0.339
461	0.339
461	0.339
462	0.339
462	0.338
463	0.339
463	0.339
463	0.339
464	0.339
464	0.339
465	0.339
465	0.339
466	0.339
466	0.34
467	0.34
467	0.34
467	0.34
468	0.34
468	0.341
469	0.341
469	0.341
470	0.342
470	0.342
471	0.342
471	0.343
472	0.343
472	0.343
472	0.344
473	0.345
473	0.345
474	0.345
474	0.346
475	0.346
475	0.347
476	0.347
476	0.348
477	0.349
477	0.349
477	0.35
478	0.35
478	0.351
479	0.352
479	0.353
480	0.353
480	0.354
481	0.355
481	0.355
482	0.356
482	0.357
482	0.357
483	0.359
483	0.36
484	0.361
484	0.361
485	0.362
485	0.363
486	0.364
486	0.365
487	0.366
487	0.367
487	0.367
488	0.368
488	0.369
489	0.37
489	0.372
490	0.373
490	0.375
491	0.377
491	0.378
492	0.379
492	0.38
492	0.382
493	0.384
493	0.385
494	0.386
494	0.388
495	0.39
495	0.391
496	0.392
496	0.394
496	0.395
497	0.397
497	0.398
498	0.399
498	0.401
499	0.402
499	0.404
500	0.405
500	0.407
501	0.409
501	0.41
501	0.411
502	0.413
502	0.414
503	0.415
503	0.417
504	0.418
504	0.42
505	0.421
505	0.423
506	0.424
506	0.425
506	0.427
507	0.428
507	0.43
508	0.431
508	0.432
509	0.434
509	0.435
510	0.436
510	0.438
511	0.439
511	0.44
511	0.442
512	0.443
512	0.444
513	0.445
513	0.446
514	0.447
514	0.448
515	0.449
515	0.449
515	0.45
516	0.451
516	0.451
517	0.452
517	0.453
518	0.453
518	0.454
519	0.454
519	0.454
520	0.454
520	0.455
520	0.455
521	0.454
521	0.454
522	0.454
522	0.454
523	0.454
523	0.454
524	0.454
524	0.453
524	0.453
525	0.453
525	0.452
526	0.452
526	0.451
527	0.451
527	0.449
528	0.448
528	0.447
529	0.446
529	0.445
529	0.443
530	0.442
530	0.441
531	0.439
531	0.438
532	0.437
532	0.435
533	0.434
533	0.432
533	0.431
534	0.429
534	0.428
535	0.426
535	0.424
536	0.422
536	0.421
537	0.419
537	0.417
538	0.415
538	0.413
538	0.411
539	0.409
539	0.407
540	0.405
540	0.403
541	0.4
541	0.398
542	0.396
542	0.393
542	0.391
543	0.388
543	0.386
544	0.383
544	0.381
545	0.379
545	0.377
546	0.375
546	0.372
547	0.369
547	0.367
547	0.365
548	0.363
548	0.36
549	0.358
549	0.356
550	0.353
550	0.351
551	0.348
551	0.345
551	0.343
552	0.34
552	0.338
553	0.335
553	0.333
554	0.33
554	0.327
555	0.325
555	0.322
556	0.32
556	0.318
556	0.316
557	0.314
557	0.312
558	0.31
558	0.308
559	0.306
559	0.304
560	0.301
560	0.299
560	0.297
561	0.295
561	0.293
562	0.291
562	0.288
563	0.285
563	0.283
564	0.281
564	0.279
564	0.277
565	0.275
565	0.274
566	0.271
566	0.269
567	0.268
567	0.266
568	0.265
568	0.263
568	0.261
569	0.26
569	0.258
570	0.256
570	0.254
571	0.252
571	0.251
572	0.249
572	0.247
573	0.246
573	0.244
573	0.242
574	0.24
574	0.239
575	0.237
575	0.236
576	0.235
576	0.233
577	0.231
577	0.23
577	0.228
578	0.227
578	0.226
579	0.225
579	0.224
580	0.222
580	0.22
581	0.219
581	0.217
581	0.217
582	0.216
582	0.215
583	0.215
583	0.213
584	0.211
584	0.209
585	0.208
585	0.207
585	0.206
586	0.205
586	0.203
587	0.202
587	0.2
588	0.198
588	0.197
589	0.196
589	0.195
590	0.195
590	0.194
590	0.193
591	0.193
591	0.192
592	0.191
592	0.189
593	0.189
593	0.188
594	0.187
594	0.186
594	0.185
595	0.184
595	0.183
596	0.181
596	0.181
597	0.181
597	0.18
598	0.18
598	0.179
598	0.178
599	0.178
599	0.177
600	0.176
600	0.175
601	0.174
601	0.174
602	0.172
602	0.171
602	0.17
603	0.17
603	0.169
604	0.169
604	0.168
605	0.168
605	0.167
606	0.166
606	0.165
606	0.164
607	0.164
607	0.163
608	0.162
608	0.161
609	0.16
609	0.159
610	0.159
610	0.158
610	0.157
611	0.157
611	0.157
612	0.157
612	0.156
613	0.156
613	0.156
614	0.155
614	0.154
614	0.154
615	0.154
615	0.153
616	0.153
616	0.152
617	0.152
617	0.151
618	0.15
618	0.15
618	0.149
619	0.149
619	0.149
620	0.149
620	0.149
621	0.148
621	0.147
622	0.146
622	0.145
622	0.144
623	0.143
623	0.143
624	0.142
624	0.141
625	0.141
625	0.14
626	0.14
626	0.139
626	0.139
627	0.138
627	0.138
628	0.138
628	0.137
629	0.137
629	0.136
630	0.136
630	0.135
630	0.135
631	0.135
631	0.134
632	0.134
632	0.134
633	0.134
633	0.134
634	0.134
634	0.134
634	0.134
635	0.134
635	0.133
636	0.133
636	0.133
637	0.132
637	0.132
638	0.131
638	0.131
638	0.13
639	0.129
639	0.128
640	0.128
640	0.128
641	0.127
641	0.127
642	0.127
642	0.127
642	0.127
643	0.126
643	0.126
644	0.126
644	0.126
645	0.126
645	0.126
646	0.125
646	0.125
646	0.125
647	0.125
647	0.124
648	0.123
648	0.123
649	0.122
649	0.122
650	0.122
650	0.122
650	0.122
651	0.121
651	0.121
652	0.121
652	0.12
653	0.121
653	0.122
653	0.13
654	0.104
654	0.084
655	0.082
655	0.082
656	0.083
656	0.083
657	0.083
657	0.083
657	0.083
658	0.081
658	0.072
659	0.09
659	0.113
660	0.118
660	0.118
661	0.117
661	0.117
661	0.116
662	0.116
662	0.115
663	0.114
663	0.114
664	0.113
664	0.113
665	0.113
665	0.112
665	0.112
666	0.112
666	0.112
667	0.112
667	0.112
668	0.112
668	0.111
669	0.111
669	0.111
669	0.112
670	0.112
670	0.112
671	0.112
671	0.112
672	0.112
672	0.111
672	0.111
673	0.111
673	0.111
674	0.111
674	0.11
675	0.11
675	0.11
676	0.11
676	0.11
676	0.109
677	0.109
677	0.109
678	0.109
678	0.108
679	0.107
679	0.107
680	0.107
680	0.107
680	0.106
681	0.106
681	0.107
682	0.107
682	0.107
683	0.107
683	0.108
684	0.108
684	0.108
684	0.108
685	0.108
685	0.108
686	0.108
686	0.108
687	0.107
687	0.107
687	0.107
688	0.106
688	0.106
689	0.106
689	0.107
690	0.107
690	0.106
691	0.106
691	0.106
691	0.107
692	0.107
692	0.107
693	0.107
693	0.107
694	0.107
694	0.107
695	0.107
695	0.108
695	0.108
696	0.108
696	0.107
697	0.107
697	0.107
698	0.106
698	0.105
698	0.105
699	0.105
699	0.104
700	0.104
700	0.104
701	0.104
701	0.104
702	0.103
702	0.103
702	0.103
703	0.103
703	0.103
704	0.102
704	0.102
705	0.101
705	0.101
705	0.1
706	0.1
706	0.099
707	0.099
707	0.099
708	0.099
708	0.099
709	0.099
709	0.098
709	0.097
710	0.097
710	0.097
711	0.097
711	0.097
712	0.097
712	0.097
713	0.097
713	0.097
713	0.097
714	0.097
714	0.097
715	0.097
715	0.097
716	0.097
716	0.097
716	0.097
717	0.096
717	0.096
718	0.096
718	0.095
719	0.096
719	0.096
720	0.096
720	0.096
720	0.096
721	0.096
721	0.097
722	0.097
722	0.098
723	0.098
723	0.098
723	0.098
724	0.098
724	0.097
725	0.096
725	0.096
726	0.095
726	0.094
727	0.093
727	0.092
727	0.092
728	0.091
728	0.091
729	0.091
729	0.091
730	0.09
730	0.09
730	0.09
731	0.09
731	0.09
732	0.09
732	0.09
733	0.09
733	0.089
734	0.089
734	0.089
734	0.089
735	0.089
735	0.089
736	0.089
736	0.089
737	0.088
737	0.089
737	0.088
738	0.088
738	0.087
739	0.086
739	0.086
740	0.085
740	0.085
741	0.084
741	0.084
741	0.084
742	0.083
742	0.083
743	0.084
743	0.084
744	0.084
744	0.085
744	0.085
745	0.085
745	0.085
746	0.085
746	0.086
747	0.086
747	0.086
748	0.086
748	0.086
748	0.086
749	0.086
749	0.086
750	0.086
750	0.085
751	0.085
751	0.085
751	0.084
752	0.084
752	0.083
753	0.083
753	0.083
754	0.083
754	0.083
754	0.083
755	0.083
755	0.083
756	0.082
756	0.081
757	0.08
757	0.08
758	0.079
758	0.078
758	0.078
759	0.078
759	0.077
760	0.076
760	0.076
761	0.076
761	0.077
761	0.077
762	0.077
762	0.078
763	0.078
763	0.077
764	0.077
764	0.076
764	0.076
765	0.075
765	0.074
766	0.074
766	0.073
767	0.072
767	0.071
768	0.07
768	0.069
768	0.069
769	0.069
769	0.069
770	0.068
770	0.069
771	0.069
771	0.069
771	0.069
772	0.07
772	0.07
773	0.071
773	0.071
774	0.071
774	0.072
775	0.072
775	0.072
775	0.072
776	0.072
776	0.073
777	0.073
777	0.072
778	0.072
778	0.072
778	0.071
779	0.071
779	0.07
780	0.069
780	0.068
781	0.068
781	0.067
781	0.066
782	0.066
782	0.066
783	0.066
783	0.066
784	0.066
784	0.066
784	0.067
785	0.067
785	0.067
786	0.068
786	0.068
787	0.068
787	0.068
788	0.068
788	0.067
788	0.067
789	0.067
789	0.067
790	0.067
790	0.066
791	0.066
791	0.066
791	0.066
792	0.066
792	0.066
793	0.066
793	0.066
794	0.066
794	0.065
794	0.065
795	0.065
795	0.065
796	0.065
796	0.064
797	0.064
797	0.064
797	0.064
798	0.064
798	0.064
799	0.064
799	0.064
800	0.063
800	0.063
801	0.063
801	0.062
801	0.062
802	0.062
802	0.062
803	0.062
803	0.063
804	0.063
804	0.063
804	0.063
805	0.063
805	0.063
806	0.063
806	0.062
807	0.062
807	0.061
807	0.061
808	0.06
808	0.06
809	0.06
809	0.06
810	0.06
810	0.06
810	0.06
811	0.06
811	0.06
812	0.061
812	0.061
813	0.062
813	0.062
813	0.062
814	0.063
814	0.063
815	0.063
815	0.063
816	0.063
816	0.063
817	0.062
817	0.062
817	0.062
818	0.061
818	0.061
819	0.06
819	0.059
820	0.058
820	0.057
820	0.057
821	0.056
821	0.056
822	0.056
822	0.056
823	0.057
823	0.057
823	0.058
824	0.059
824	0.06
825	0.06
825	0.061
826	0.061
826	0.06
826	0.06
827	0.06
827	0.06
828	0.06
828	0.059
829	0.059
829	0.058
829	0.058
830	0.058
830	0.058
831	0.059
831	0.059
832	0.059
832	0.059
832	0.059
833	0.059
833	0.059
834	0.059
834	0.06
835	0.06
835	0.06
835	0.06
836	0.06
836	0.06
837	0.06
837	0.06
838	0.06
838	0.059
839	0.059
839	0.058
839	0.057
840	0.055
840	0.054
841	0.053
841	0.052
842	0.051
842	0.051
842	0.05
843	0.05
843	0.05
844	0.05
844	0.05
845	0.05
845	0.05
845	0.05
846	0.05
846	0.05
847	0.05
847	0.051
848	0.051
848	0.051
848	0.052
849	0.052
849	0.053
850	0.053
850	0.053
851	0.053
851	0.052
851	0.052
852	0.051
852	0.051
853	0.05
853	0.049
854	0.049
854	0.049
854	0.049
855	0.049
855	0.05
856	0.05
856	0.05
857	0.051
857	0.051
857	0.052
858	0.052
858	0.051
859	0.05
859	0.05
860	0.049
860	0.048
860	0.047
861	0.046
861	0.045
862	0.044
862	0.044
863	0.043
863	0.043
863	0.043
864	0.043
864	0.043
865	0.044
865	0.044
866	0.044
866	0.044
866	0.044
867	0.044
867	0.045
868	0.045
868	0.045
869	0.045
869	0.045
869	0.045
870	0.045
870	0.045
871	0.046
871	0.046
872	0.047
872	0.047
872	0.047
873	0.047
873	0.047
874	0.047
874	0.047
875	0.047
875	0.047
875	0.047
876	0.047
876	0.047
877	0.048
877	0.048
878	0.049
878	0.051
878	0.052
879	0.053
879	0.053
880	0.054
880	0.054
881	0.054
881	0.053
881	0.053
882	0.052
882	0.05
883	0.049
883	0.048
884	0.047
884	0.046
884	0.045
885	0.044
885	0.043
886	0.043
886	0.042
887	0.042
887	0.041
887	0.041
888	0.04
888	0.04
889	0.039
889	0.039
890	0.039
890	0.039
890	0.039
891	0.039
891	0.04
892	0.04
892	0.041
893	0.041
893	0.042
893	0.042
894	0.043
894	0.043
895	0.043
895	0.044
895	0.044
896	0.045
896	0.045
897	0.045
897	0.044
898	0.044
898	0.044
898	0.044
899	0.044
899	0.044
900	0.044
900	0.044
901	0.044
901	0.044
901	0.045
902	0.044
902	0.044
903	0.044
903	0.043
904	0.043
904	0.043
904	0.042
905	0.042
905	0.042
906	0.042
906	0.042
907	0.043
907	0.044
907	0.044
908	0.045
908	0.046
909	0.046
909	0.047
910	0.048
910	0.048
910	0.048
911	0.048
911	0.048
912	0.047
912	0.047
913	0.047
913	0.046
913	0.046
914	0.046
914	0.045
915	0.045
915	0.044
916	0.044
916	0.043
916	0.042
917	0.041
917	0.041
918	0.04
918	0.039
918	0.038
919	0.038
919	0.037
920	0.037
920	0.037
921	0.037
921	0.037
921	0.038
922	0.038
922	0.039
923	0.04
923	0.041
924	0.041
924	0.042
924	0.042
925	0.043
925	0.043
926	0.044
926	0.044
927	0.044
927	0.043
927	0.043
928	0.043
928	0.042
929	0.042
929	0.042
930	0.042
930	0.041
930	0.041
931	0.041
931	0.041
932	0.041
932	0.041
933	0.042
933	0.042
933	0.042
934	0.042
934	0.042
935	0.042
935	0.041
935	0.041
936	0.041
936	0.041
937	0.041
937	0.04
938	0.04
938	0.04
938	0.04
939	0.04
939	0.04
940	0.04
940	0.04
941	0.041
941	0.041
941	0.042
942	0.043
942	0.043
943	0.044
943	0.044
944	0.044
944	0.044
944	0.045
945	0.045
945	0.045
946	0.045
946	0.045
946	0.045
947	0.045
947	0.045
948	0.045
948	0.045
949	0.045
949	0.045
949	0.044
950	0.044
950	0.044
951	0.043
951	0.043
952	0.042
952	0.042
952	0.042
953	0.041
953	0.041
954	0.041
954	0.04
955	0.04
955	0.04
955	0.04
956	0.04
956	0.041
957	0.041
957	0.041
957	0.041
958	0.042
958	0.042
959	0.042
959	0.043
960	0.043
960	0.043
960	0.044
961	0.044
961	0.044
962	0.044
962	0.044
963	0.044
963	0.044
963	0.044
964	0.044
964	0.044
965	0.044
965	0.044
966	0.044
966	0.044
966	0.044
967	0.044
967	0.044
968	0.044
968	0.044
968	0.044
969	0.044
969	0.044
970	0.044
970	0.043
971	0.043
971	0.043
971	0.044
972	0.044
972	0.044
973	0.044
973	0.044
974	0.044
974	0.044
974	0.044
975	0.044
975	0.044
976	0.044
976	0.044
976	0.044
977	0.044
977	0.044
978	0.044
978	0.043
979	0.043
979	0.043
979	0.043
980	0.043
980	0.043
981	0.043
981	0.043
982	0.043
982	0.042
982	0.042
983	0.042
983	0.042
984	0.042
984	0.041
984	0.041
985	0.04
985	0.04
986	0.039
986	0.039
987	0.038
987	0.038
987	0.037
988	0.037
988	0.036
989	0.036
989	0.036
990	0.035
990	0.035
990	0.035
991	0.035
991	0.034
992	0.034
992	0.034
992	0.033
993	0.033
993	0.033
994	0.033
994	0.033
995	0.033
995	0.033
995	0.033
996	0.033
996	0.034
997	0.034
997	0.035
997	0.035
998	0.036
998	0.037
999	0.038
999	0.038
1000	0.039
1000	0.04
1000	0.041
1001	0.041
1001	0.041
1002	0.041
1002	0.041
1003	0.041
1003	0.041
1003	0.04
1004	0.04
1004	0.039
1005	0.039
1005	0.038
1005	0.038
1006	0.037
1006	0.037
1007	0.038
1007	0.038
1008	0.038
1008	0.038
1008	0.038
1009	0.039
1009	0.039
1010	0.039
1010	0.04
1010	0.04
1011	0.04
1011	0.04
1012	0.04
1012	0.04
1013	0.04
1013	0.039
1013	0.039
1014	0.039
1014	0.038
1015	0.038
1015	0.037
1016	0.037
1016	0.037
1016	0.036
1017	0.036
1017	0.035
1018	0.035
1018	0.035
1018	0.035
1019	0.034
1019	0.034
1020	0.034
1020	0.034
1021	0.034
1021	0.034
1021	0.034
1022	0.034
1022	0.034
1023	0.034
1023	0.034
1023	0.034
1024	0.034
1024	0.034
1025	0.034
1025	0.034
1026	0.034
1026	0.034
1026	0.034
1027	0.034
1027	0.033
1028	0.033
1028	0.033
1028	0.033
1029	0.033
1029	0.032
1030	0.033
1030	0.033
1031	0.033
1031	0.033
1031	0.033
1032	0.033
1032	0.034
1033	0.034
1033	0.033
1033	0.033
1034	0.033
1034	0.033
1035	0.033
1035	0.033
1036	0.032
1036	0.032
1036	0.033
1037	0.033
1037	0.033
1038	0.033
1038	0.034
1039	0.034
1039	0.034
1039	0.035
1040	0.035
1040	0.035
1041	0.035
1041	0.035
1041	0.035
1042	0.035
1042	0.035
1043	0.035
1043	0.035
1044	0.035
1044	0.035
1044	0.035
1045	0.035
1045	0.036
1046	0.036
1046	0.037
1046	0.037
1047	0.038
1047	0.039
1048	0.039
1048	0.04
1049	0.04
1049	0.041
1049	0.041
1050	0.04
1050	0.04
1051	0.039
1051	0.038
1051	0.038
1052	0.037
1052	0.035
1053	0.034
1053	0.033
1053	0.032
1054	0.031
1054	0.03
1055	0.029
1055	0.029
1056	0.028
1056	0.028
1056	0.027
1057	0.027
1057	0.027
1058	0.026
1058	0.026
1058	0.025
1059	0.025
1059	0.025
1060	0.024
1060	0.024
1061	0.024
1061	0.024
1061	0.024
1062	0.024
1062	0.024
1063	0.025
1063	0.025
1063	0.024
1064	0.024
1064	0.025
1065	0.024
1065	0.024
1066	0.024
1066	0.024
1066	0.023
1067	0.023
1067	0.023
1068	0.023
1068	0.022
1068	0.022
1069	0.021
1069	0.02
1070	0.02
1070	0.019
1071	0.018
1071	0.018
1071	0.017
1072	0.016
1072	0.016
1073	0.015
1073	0.014
1073	0.014
1074	0.015
1074	0.015
1075	0.015
1075	0.016
1076	0.016
1076	0.017
1076	0.017
1077	0.018
1077	0.018
1078	0.018
1078	0.018
1078	0.018
1079	0.018
1079	0.018
1080	0.018
1080	0.018
1080	0.017
1081	0.017
1081	0.017
1082	0.018
1082	0.018
1083	0.018
1083	0.017
1083	0.017
1084	0.017
1084	0.017
1085	0.017
1085	0.016
1085	0.016
1086	0.016
1086	0.015
1087	0.015
1087	0.014
1088	0.014
1088	0.014
1088	0.014
1089	0.013
1089	0.012
1090	0.012
1090	0.011
1090	0.01
1091	0.011
1091	0.011
1092	0.011
1092	0.012
1092	0.012
1093	0.012
1093	0.012
1094	0.013
1094	0.013
1095	0.013
1095	0.013
1095	0.013
1096	0.013
1096	0.012
1097	0.011
1097	0.011
1097	0.011
1098	0.01
1098	0.008
1099	0.008
1099	0.006
1100	0.006
1100	0.005
1100	0.004
1101	0.003
1101	0.002
1102	0.001
1102	0
1102	-0.001
1103	-0.001
1103	-0.001
1104	-0.001
1104	-0.001
1104	-0.002
1105	-0.002
1105	-0.004
1106	-0.006
1106	-0.007
1107	-0.008
1107	-0.009
1107	-0.011
1108	-0.012
1108	-0.014
1109	-0.016
1109	-0.017
1109	-0.019
1110	-0.017
1110	-0.018
1111	-0.021
1111	-0.021
