Data from reversibility-20sec_Absorbance__2112__000000000002112.txt Node

Date: Tue Dec 05 23:57:07 CET 2023
User: Marek
Spectrometer: MAYP115816
Trigger mode: 0
Integration Time (sec): 2.000000E-1
Scans to average: 10
Electric dark correction enabled: true
Nonlinearity correction enabled: true
Boxcar width: 5
XAxis mode: Wavelengths
Number of Pixels in Spectrum: 2068
>>>>>Begin Spectral Data<<<<<
199	-0.212
199	-0.178
200	-0.109
200	-0.054
201	-0.025
201	-0.007
202	0.004
202	0.013
203	0.022
203	0.025
204	0.039
204	0.053
205	0.064
205	0.071
205	0.069
206	0.068
206	0.067
207	0.07
207	0.069
208	0.069
208	0.07
209	0.073
209	0.071
210	0.071
210	0.07
211	0.071
211	0.073
212	0.073
212	0.075
213	0.08
213	0.079
213	0.079
214	0.082
214	0.084
215	0.086
215	0.088
216	0.091
216	0.09
217	0.092
217	0.092
218	0.093
218	0.098
219	0.102
219	0.102
220	0.104
220	0.103
221	0.102
221	0.102
221	0.107
222	0.113
222	0.118
223	0.121
223	0.122
224	0.124
224	0.133
225	0.143
225	0.156
226	0.167
226	0.18
227	0.19
227	0.2
228	0.215
228	0.229
229	0.251
229	0.278
229	0.301
230	0.327
230	0.358
231	0.391
231	0.429
232	0.466
232	0.511
233	0.556
233	0.605
234	0.653
234	0.705
235	0.755
235	0.806
236	0.856
236	0.911
236	0.96
237	1.014
237	1.065
238	1.114
238	1.166
239	1.218
239	1.262
240	1.309
240	1.349
241	1.389
241	1.428
242	1.465
242	1.504
243	1.535
243	1.566
243	1.592
244	1.615
244	1.64
245	1.663
245	1.688
246	1.71
246	1.731
247	1.746
247	1.763
248	1.781
248	1.796
249	1.81
249	1.823
250	1.835
250	1.845
250	1.853
251	1.86
251	1.866
252	1.876
252	1.881
253	1.887
253	1.888
254	1.89
254	1.896
255	1.897
255	1.901
256	1.901
256	1.903
257	1.905
257	1.906
258	1.908
258	1.908
258	1.91
259	1.911
259	1.91
260	1.912
260	1.916
261	1.918
261	1.922
262	1.925
262	1.928
263	1.933
263	1.934
264	1.936
264	1.939
265	1.941
265	1.942
265	1.943
266	1.946
266	1.948
267	1.947
267	1.95
268	1.948
268	1.951
269	1.955
269	1.955
270	1.957
270	1.957
271	1.954
271	1.955
272	1.952
272	1.952
272	1.948
273	1.943
273	1.936
274	1.93
274	1.924
275	1.917
275	1.91
276	1.903
276	1.895
277	1.889
277	1.879
278	1.869
278	1.859
278	1.846
279	1.83
279	1.809
280	1.784
280	1.754
281	1.718
281	1.677
282	1.635
282	1.592
283	1.549
283	1.507
284	1.467
284	1.428
285	1.391
285	1.358
285	1.328
286	1.301
286	1.278
287	1.256
287	1.239
288	1.223
288	1.21
289	1.199
289	1.189
290	1.181
290	1.173
291	1.166
291	1.161
292	1.155
292	1.151
292	1.146
293	1.142
293	1.138
294	1.134
294	1.13
295	1.127
295	1.123
296	1.12
296	1.116
297	1.113
297	1.109
298	1.106
298	1.103
298	1.1
299	1.097
299	1.094
300	1.091
300	1.088
301	1.085
301	1.083
302	1.08
302	1.078
303	1.075
303	1.073
304	1.07
304	1.068
305	1.065
305	1.062
305	1.06
306	1.057
306	1.054
307	1.052
307	1.048
308	1.045
308	1.042
309	1.039
309	1.037
310	1.034
310	1.03
311	1.027
311	1.024
311	1.02
312	1.016
312	1.013
313	1.009
313	1.005
314	1.001
314	0.996
315	0.991
315	0.987
316	0.982
316	0.977
317	0.972
317	0.967
318	0.962
318	0.957
318	0.951
319	0.946
319	0.94
320	0.934
320	0.928
321	0.922
321	0.915
322	0.909
322	0.903
323	0.896
323	0.889
324	0.883
324	0.876
324	0.869
325	0.862
325	0.855
326	0.848
326	0.841
327	0.834
327	0.827
328	0.82
328	0.813
329	0.806
329	0.798
330	0.791
330	0.784
330	0.777
331	0.77
331	0.762
332	0.755
332	0.748
333	0.741
333	0.734
334	0.727
334	0.72
335	0.713
335	0.706
336	0.7
336	0.693
336	0.686
337	0.68
337	0.673
338	0.667
338	0.661
339	0.654
339	0.648
340	0.642
340	0.637
341	0.631
341	0.625
342	0.62
342	0.614
342	0.609
343	0.603
343	0.598
344	0.593
344	0.588
345	0.583
345	0.578
346	0.573
346	0.569
347	0.564
347	0.56
348	0.556
348	0.552
348	0.548
349	0.544
349	0.54
350	0.536
350	0.532
351	0.529
351	0.525
352	0.522
352	0.519
353	0.516
353	0.512
354	0.509
354	0.506
354	0.503
355	0.501
355	0.498
356	0.495
356	0.492
357	0.489
357	0.486
358	0.483
358	0.48
359	0.478
359	0.475
360	0.473
360	0.471
360	0.468
361	0.466
361	0.464
362	0.462
362	0.46
363	0.458
363	0.456
364	0.454
364	0.452
365	0.45
365	0.448
366	0.446
366	0.444
366	0.442
367	0.44
367	0.438
368	0.436
368	0.435
369	0.433
369	0.431
370	0.43
370	0.428
371	0.427
371	0.425
372	0.424
372	0.422
372	0.421
373	0.42
373	0.418
374	0.417
374	0.416
375	0.414
375	0.413
376	0.412
376	0.411
377	0.41
377	0.408
378	0.407
378	0.406
378	0.405
379	0.404
379	0.403
380	0.402
380	0.401
381	0.4
381	0.399
382	0.398
382	0.398
383	0.397
383	0.396
383	0.395
384	0.394
384	0.394
385	0.393
385	0.392
386	0.391
386	0.39
387	0.389
387	0.389
388	0.388
388	0.387
389	0.386
389	0.386
389	0.385
390	0.384
390	0.384
391	0.383
391	0.383
392	0.382
392	0.382
393	0.381
393	0.381
394	0.38
394	0.379
394	0.379
395	0.378
395	0.378
396	0.377
396	0.376
397	0.375
397	0.375
398	0.374
398	0.374
399	0.373
399	0.373
400	0.372
400	0.372
400	0.371
401	0.371
401	0.37
402	0.37
402	0.369
403	0.369
403	0.368
404	0.368
404	0.367
405	0.367
405	0.366
405	0.366
406	0.365
406	0.365
407	0.364
407	0.364
408	0.363
408	0.363
409	0.362
409	0.362
410	0.361
410	0.361
411	0.361
411	0.36
411	0.36
412	0.36
412	0.359
413	0.359
413	0.358
414	0.358
414	0.358
415	0.357
415	0.357
416	0.356
416	0.356
416	0.355
417	0.355
417	0.355
418	0.354
418	0.354
419	0.353
419	0.353
420	0.352
420	0.352
421	0.351
421	0.351
421	0.351
422	0.35
422	0.35
423	0.349
423	0.349
424	0.349
424	0.348
425	0.348
425	0.348
426	0.348
426	0.347
427	0.347
427	0.347
427	0.346
428	0.346
428	0.346
429	0.346
429	0.345
430	0.345
430	0.345
431	0.344
431	0.344
432	0.344
432	0.344
432	0.343
433	0.343
433	0.342
434	0.342
434	0.342
435	0.342
435	0.342
436	0.342
436	0.341
437	0.341
437	0.341
437	0.341
438	0.34
438	0.34
439	0.34
439	0.34
440	0.34
440	0.34
441	0.34
441	0.339
442	0.339
442	0.339
442	0.339
443	0.339
443	0.339
444	0.338
444	0.338
445	0.338
445	0.338
446	0.338
446	0.338
447	0.337
447	0.337
447	0.337
448	0.337
448	0.337
449	0.337
449	0.336
450	0.337
450	0.337
451	0.336
451	0.336
452	0.337
452	0.337
452	0.337
453	0.337
453	0.337
454	0.337
454	0.337
455	0.336
455	0.336
456	0.336
456	0.336
457	0.336
457	0.336
458	0.336
458	0.336
458	0.336
459	0.336
459	0.336
460	0.336
460	0.336
461	0.336
461	0.336
462	0.336
462	0.336
463	0.336
463	0.336
463	0.336
464	0.336
464	0.336
465	0.336
465	0.336
466	0.336
466	0.337
467	0.337
467	0.337
467	0.337
468	0.337
468	0.338
469	0.338
469	0.339
470	0.339
470	0.339
471	0.34
471	0.34
472	0.34
472	0.341
472	0.341
473	0.342
473	0.342
474	0.342
474	0.342
475	0.343
475	0.343
476	0.344
476	0.344
477	0.345
477	0.345
477	0.346
478	0.347
478	0.347
479	0.348
479	0.348
480	0.349
480	0.35
481	0.35
481	0.351
482	0.352
482	0.353
482	0.353
483	0.354
483	0.355
484	0.356
484	0.357
485	0.358
485	0.358
486	0.359
486	0.36
487	0.361
487	0.361
487	0.362
488	0.363
488	0.364
489	0.365
489	0.367
490	0.368
490	0.37
491	0.371
491	0.373
492	0.374
492	0.375
492	0.377
493	0.378
493	0.379
494	0.381
494	0.383
495	0.384
495	0.385
496	0.386
496	0.388
496	0.389
497	0.39
497	0.392
498	0.393
498	0.394
499	0.395
499	0.397
500	0.399
500	0.4
501	0.402
501	0.403
501	0.404
502	0.406
502	0.407
503	0.409
503	0.41
504	0.411
504	0.413
505	0.414
505	0.415
506	0.416
506	0.418
506	0.419
507	0.421
507	0.422
508	0.423
508	0.424
509	0.426
509	0.427
510	0.428
510	0.43
511	0.431
511	0.432
511	0.434
512	0.435
512	0.436
513	0.437
513	0.438
514	0.439
514	0.44
515	0.44
515	0.441
515	0.442
516	0.442
516	0.443
517	0.444
517	0.444
518	0.445
518	0.445
519	0.446
519	0.446
520	0.446
520	0.446
520	0.446
521	0.446
521	0.446
522	0.445
522	0.445
523	0.446
523	0.445
524	0.445
524	0.445
524	0.445
525	0.445
525	0.444
526	0.444
526	0.443
527	0.443
527	0.442
528	0.441
528	0.44
529	0.439
529	0.438
529	0.437
530	0.436
530	0.434
531	0.433
531	0.432
532	0.43
532	0.429
533	0.427
533	0.426
533	0.424
534	0.423
534	0.422
535	0.42
535	0.419
536	0.417
536	0.415
537	0.413
537	0.411
538	0.409
538	0.407
538	0.405
539	0.403
539	0.401
540	0.399
540	0.397
541	0.395
541	0.393
542	0.391
542	0.389
542	0.387
543	0.385
543	0.382
544	0.38
544	0.378
545	0.376
545	0.374
546	0.371
546	0.369
547	0.367
547	0.364
547	0.362
548	0.36
548	0.358
549	0.356
549	0.354
550	0.352
550	0.35
551	0.347
551	0.345
551	0.342
552	0.34
552	0.338
553	0.335
553	0.333
554	0.331
554	0.328
555	0.326
555	0.323
556	0.32
556	0.318
556	0.316
557	0.314
557	0.312
558	0.31
558	0.308
559	0.306
559	0.305
560	0.303
560	0.301
560	0.299
561	0.297
561	0.295
562	0.293
562	0.291
563	0.288
563	0.286
564	0.284
564	0.282
564	0.28
565	0.279
565	0.277
566	0.275
566	0.273
567	0.272
567	0.27
568	0.269
568	0.267
568	0.266
569	0.264
569	0.263
570	0.261
570	0.259
571	0.257
571	0.256
572	0.254
572	0.252
573	0.251
573	0.249
573	0.247
574	0.246
574	0.244
575	0.243
575	0.242
576	0.241
576	0.239
577	0.237
577	0.236
577	0.235
578	0.233
578	0.232
579	0.232
579	0.231
580	0.229
580	0.227
581	0.225
581	0.224
581	0.224
582	0.223
582	0.222
583	0.221
583	0.22
584	0.218
584	0.216
585	0.215
585	0.214
585	0.213
586	0.211
586	0.21
587	0.208
587	0.207
588	0.206
588	0.205
589	0.204
589	0.203
590	0.203
590	0.202
590	0.202
591	0.201
591	0.2
592	0.199
592	0.198
593	0.197
593	0.196
594	0.195
594	0.194
594	0.193
595	0.192
595	0.191
596	0.19
596	0.189
597	0.189
597	0.189
598	0.188
598	0.188
598	0.187
599	0.186
599	0.186
600	0.185
600	0.184
601	0.183
601	0.183
602	0.181
602	0.18
602	0.179
603	0.178
603	0.178
604	0.178
604	0.177
605	0.177
605	0.177
606	0.176
606	0.175
606	0.175
607	0.174
607	0.174
608	0.173
608	0.172
609	0.171
609	0.17
610	0.17
610	0.169
610	0.168
611	0.168
611	0.167
612	0.167
612	0.167
613	0.167
613	0.166
614	0.166
614	0.165
614	0.165
615	0.164
615	0.164
616	0.163
616	0.163
617	0.162
617	0.162
618	0.162
618	0.161
618	0.161
619	0.161
619	0.161
620	0.161
620	0.161
621	0.16
621	0.159
622	0.158
622	0.158
622	0.157
623	0.156
623	0.155
624	0.155
624	0.154
625	0.153
625	0.153
626	0.153
626	0.152
626	0.152
627	0.152
627	0.152
628	0.151
628	0.151
629	0.15
629	0.15
630	0.149
630	0.149
630	0.149
631	0.148
631	0.148
632	0.148
632	0.147
633	0.147
633	0.147
634	0.147
634	0.147
634	0.146
635	0.145
635	0.145
636	0.144
636	0.144
637	0.143
637	0.143
638	0.142
638	0.142
638	0.141
639	0.141
639	0.14
640	0.14
640	0.14
641	0.14
641	0.14
642	0.139
642	0.139
642	0.139
643	0.139
643	0.139
644	0.138
644	0.138
645	0.138
645	0.138
646	0.138
646	0.138
646	0.137
647	0.137
647	0.137
648	0.136
648	0.135
649	0.135
649	0.135
650	0.135
650	0.135
650	0.135
651	0.135
651	0.135
652	0.135
652	0.135
653	0.136
653	0.137
653	0.144
654	0.114
654	0.093
655	0.091
655	0.091
656	0.091
656	0.091
657	0.091
657	0.091
657	0.091
658	0.09
658	0.081
659	0.101
659	0.128
660	0.133
660	0.133
661	0.132
661	0.132
661	0.131
662	0.131
662	0.13
663	0.129
663	0.129
664	0.128
664	0.127
665	0.127
665	0.126
665	0.127
666	0.127
666	0.127
667	0.127
667	0.127
668	0.128
668	0.128
669	0.128
669	0.128
669	0.128
670	0.129
670	0.128
671	0.128
671	0.128
672	0.127
672	0.127
672	0.126
673	0.126
673	0.126
674	0.126
674	0.125
675	0.125
675	0.125
676	0.125
676	0.124
676	0.124
677	0.124
677	0.124
678	0.123
678	0.123
679	0.122
679	0.122
680	0.122
680	0.122
680	0.122
681	0.123
681	0.123
682	0.124
682	0.124
683	0.124
683	0.125
684	0.125
684	0.125
684	0.125
685	0.125
685	0.125
686	0.124
686	0.123
687	0.123
687	0.123
687	0.122
688	0.122
688	0.121
689	0.122
689	0.122
690	0.121
690	0.121
691	0.121
691	0.122
691	0.122
692	0.122
692	0.122
693	0.123
693	0.123
694	0.123
694	0.122
695	0.123
695	0.124
695	0.123
696	0.123
696	0.123
697	0.122
697	0.122
698	0.121
698	0.121
698	0.121
699	0.121
699	0.121
700	0.121
700	0.121
701	0.121
701	0.121
702	0.121
702	0.122
702	0.121
703	0.121
703	0.121
704	0.12
704	0.12
705	0.12
705	0.119
705	0.119
706	0.118
706	0.118
707	0.118
707	0.118
708	0.118
708	0.118
709	0.118
709	0.117
709	0.116
710	0.116
710	0.116
711	0.116
711	0.115
712	0.115
712	0.114
713	0.114
713	0.114
713	0.114
714	0.114
714	0.114
715	0.114
715	0.113
716	0.113
716	0.113
716	0.113
717	0.112
717	0.112
718	0.111
718	0.111
719	0.111
719	0.111
720	0.111
720	0.111
720	0.111
721	0.111
721	0.112
722	0.112
722	0.112
723	0.112
723	0.112
723	0.112
724	0.111
724	0.111
725	0.11
725	0.109
726	0.109
726	0.109
727	0.108
727	0.108
727	0.108
728	0.107
728	0.107
729	0.107
729	0.107
730	0.107
730	0.107
730	0.108
731	0.108
731	0.108
732	0.109
732	0.109
733	0.109
733	0.108
734	0.108
734	0.108
734	0.108
735	0.108
735	0.107
736	0.106
736	0.106
737	0.105
737	0.105
737	0.104
738	0.104
738	0.103
739	0.102
739	0.102
740	0.101
740	0.101
741	0.101
741	0.1
741	0.1
742	0.1
742	0.1
743	0.101
743	0.101
744	0.101
744	0.102
744	0.102
745	0.102
745	0.102
746	0.102
746	0.102
747	0.101
747	0.101
748	0.101
748	0.101
748	0.101
749	0.101
749	0.101
750	0.101
750	0.101
751	0.101
751	0.101
751	0.102
752	0.101
752	0.1
753	0.1
753	0.1
754	0.099
754	0.098
754	0.098
755	0.098
755	0.098
756	0.097
756	0.096
757	0.095
757	0.095
758	0.094
758	0.094
758	0.094
759	0.094
759	0.093
760	0.093
760	0.093
761	0.093
761	0.094
761	0.094
762	0.094
762	0.094
763	0.095
763	0.094
764	0.094
764	0.094
764	0.094
765	0.094
765	0.093
766	0.093
766	0.093
767	0.092
767	0.091
768	0.09
768	0.09
768	0.089
769	0.089
769	0.088
770	0.088
770	0.088
771	0.088
771	0.087
771	0.087
772	0.088
772	0.088
773	0.088
773	0.088
774	0.088
774	0.089
775	0.089
775	0.089
775	0.089
776	0.089
776	0.089
777	0.089
777	0.089
778	0.089
778	0.088
778	0.088
779	0.088
779	0.088
780	0.087
780	0.086
781	0.086
781	0.086
781	0.086
782	0.085
782	0.085
783	0.085
783	0.085
784	0.085
784	0.085
784	0.085
785	0.085
785	0.084
786	0.084
786	0.084
787	0.084
787	0.083
788	0.083
788	0.082
788	0.082
789	0.082
789	0.082
790	0.082
790	0.082
791	0.082
791	0.082
791	0.082
792	0.083
792	0.083
793	0.082
793	0.082
794	0.082
794	0.082
794	0.082
795	0.082
795	0.082
796	0.083
796	0.083
797	0.082
797	0.082
797	0.082
798	0.082
798	0.082
799	0.081
799	0.08
800	0.08
800	0.079
801	0.078
801	0.077
801	0.077
802	0.077
802	0.077
803	0.077
803	0.077
804	0.077
804	0.077
804	0.077
805	0.077
805	0.077
806	0.077
806	0.077
807	0.077
807	0.077
807	0.076
808	0.076
808	0.076
809	0.075
809	0.075
810	0.075
810	0.075
810	0.075
811	0.075
811	0.075
812	0.075
812	0.076
813	0.076
813	0.076
813	0.076
814	0.077
814	0.077
815	0.077
815	0.077
816	0.077
816	0.076
817	0.076
817	0.075
817	0.075
818	0.075
818	0.074
819	0.074
819	0.073
820	0.072
820	0.072
820	0.072
821	0.072
821	0.072
822	0.071
822	0.071
823	0.071
823	0.071
823	0.071
824	0.071
824	0.072
825	0.073
825	0.073
826	0.073
826	0.072
826	0.072
827	0.072
827	0.071
828	0.071
828	0.071
829	0.071
829	0.07
829	0.07
830	0.07
830	0.07
831	0.071
831	0.071
832	0.071
832	0.072
832	0.072
833	0.072
833	0.072
834	0.072
834	0.072
835	0.072
835	0.072
835	0.072
836	0.072
836	0.073
837	0.073
837	0.073
838	0.073
838	0.073
839	0.072
839	0.071
839	0.071
840	0.07
840	0.068
841	0.067
841	0.066
842	0.065
842	0.064
842	0.064
843	0.063
843	0.063
844	0.063
844	0.063
845	0.062
845	0.062
845	0.062
846	0.062
846	0.062
847	0.062
847	0.063
848	0.063
848	0.063
848	0.064
849	0.064
849	0.064
850	0.065
850	0.065
851	0.065
851	0.066
851	0.065
852	0.065
852	0.064
853	0.064
853	0.063
854	0.063
854	0.063
854	0.063
855	0.064
855	0.064
856	0.064
856	0.065
857	0.065
857	0.066
857	0.066
858	0.066
858	0.066
859	0.065
859	0.065
860	0.064
860	0.063
860	0.062
861	0.061
861	0.06
862	0.059
862	0.058
863	0.057
863	0.057
863	0.057
864	0.057
864	0.057
865	0.057
865	0.057
866	0.057
866	0.057
866	0.057
867	0.057
867	0.057
868	0.057
868	0.057
869	0.057
869	0.057
869	0.056
870	0.056
870	0.056
871	0.057
871	0.057
872	0.057
872	0.058
872	0.058
873	0.058
873	0.058
874	0.058
874	0.058
875	0.058
875	0.058
875	0.057
876	0.057
876	0.057
877	0.057
877	0.057
878	0.058
878	0.058
878	0.059
879	0.06
879	0.06
880	0.061
880	0.061
881	0.061
881	0.061
881	0.061
882	0.061
882	0.061
883	0.06
883	0.059
884	0.059
884	0.058
884	0.057
885	0.057
885	0.056
886	0.056
886	0.055
887	0.055
887	0.054
887	0.054
888	0.053
888	0.053
889	0.053
889	0.053
890	0.053
890	0.053
890	0.053
891	0.053
891	0.054
892	0.054
892	0.055
893	0.055
893	0.056
893	0.057
894	0.057
894	0.057
895	0.057
895	0.058
895	0.058
896	0.058
896	0.057
897	0.057
897	0.056
898	0.055
898	0.055
898	0.054
899	0.054
899	0.054
900	0.053
900	0.053
901	0.053
901	0.054
901	0.054
902	0.054
902	0.054
903	0.054
903	0.054
904	0.054
904	0.054
904	0.054
905	0.054
905	0.054
906	0.054
906	0.054
907	0.054
907	0.054
907	0.054
908	0.054
908	0.054
909	0.054
909	0.054
910	0.054
910	0.054
910	0.054
911	0.054
911	0.054
912	0.054
912	0.055
913	0.055
913	0.055
913	0.055
914	0.055
914	0.055
915	0.055
915	0.055
916	0.055
916	0.054
916	0.054
917	0.053
917	0.053
918	0.052
918	0.051
918	0.05
919	0.05
919	0.049
920	0.049
920	0.049
921	0.048
921	0.048
921	0.048
922	0.047
922	0.047
923	0.047
923	0.047
924	0.047
924	0.047
924	0.047
925	0.048
925	0.048
926	0.048
926	0.049
927	0.049
927	0.049
927	0.049
928	0.049
928	0.049
929	0.049
929	0.049
930	0.049
930	0.049
930	0.048
931	0.048
931	0.048
932	0.049
932	0.048
933	0.048
933	0.048
933	0.048
934	0.048
934	0.047
935	0.047
935	0.047
935	0.047
936	0.047
936	0.047
937	0.047
937	0.047
938	0.047
938	0.048
938	0.048
939	0.048
939	0.048
940	0.048
940	0.049
941	0.049
941	0.05
941	0.05
942	0.051
942	0.051
943	0.051
943	0.051
944	0.051
944	0.052
944	0.052
945	0.052
945	0.052
946	0.052
946	0.052
946	0.052
947	0.053
947	0.052
948	0.053
948	0.052
949	0.052
949	0.052
949	0.052
950	0.051
950	0.051
951	0.051
951	0.051
952	0.05
952	0.05
952	0.05
953	0.05
953	0.049
954	0.048
954	0.048
955	0.047
955	0.046
955	0.046
956	0.046
956	0.046
957	0.046
957	0.045
957	0.046
958	0.046
958	0.046
959	0.046
959	0.046
960	0.047
960	0.047
960	0.047
961	0.047
961	0.048
962	0.048
962	0.048
963	0.048
963	0.049
963	0.049
964	0.049
964	0.049
965	0.049
965	0.049
966	0.049
966	0.05
966	0.05
967	0.05
967	0.05
968	0.05
968	0.05
968	0.05
969	0.05
969	0.05
970	0.05
970	0.049
971	0.049
971	0.049
971	0.049
972	0.049
972	0.049
973	0.049
973	0.049
974	0.049
974	0.05
974	0.05
975	0.051
975	0.051
976	0.052
976	0.052
976	0.052
977	0.053
977	0.053
978	0.053
978	0.053
979	0.053
979	0.053
979	0.053
980	0.053
980	0.052
981	0.052
981	0.051
982	0.051
982	0.05
982	0.049
983	0.049
983	0.048
984	0.047
984	0.046
984	0.045
985	0.045
985	0.044
986	0.043
986	0.043
987	0.042
987	0.042
987	0.042
988	0.041
988	0.041
989	0.041
989	0.04
990	0.04
990	0.04
990	0.04
991	0.039
991	0.039
992	0.039
992	0.038
992	0.038
993	0.038
993	0.038
994	0.038
994	0.038
995	0.038
995	0.038
995	0.039
996	0.039
996	0.04
997	0.041
997	0.042
997	0.043
998	0.044
998	0.045
999	0.046
999	0.047
1000	0.048
1000	0.049
1000	0.05
1001	0.051
1001	0.051
1002	0.052
1002	0.052
1003	0.052
1003	0.051
1003	0.051
1004	0.05
1004	0.049
1005	0.049
1005	0.048
1005	0.047
1006	0.046
1006	0.046
1007	0.045
1007	0.044
1008	0.044
1008	0.044
1008	0.044
1009	0.043
1009	0.043
1010	0.043
1010	0.043
1010	0.043
1011	0.043
1011	0.043
1012	0.043
1012	0.042
1013	0.043
1013	0.043
1013	0.043
1014	0.042
1014	0.042
1015	0.043
1015	0.043
1016	0.043
1016	0.043
1016	0.042
1017	0.042
1017	0.042
1018	0.042
1018	0.042
1018	0.042
1019	0.042
1019	0.042
1020	0.042
1020	0.042
1021	0.042
1021	0.042
1021	0.043
1022	0.043
1022	0.043
1023	0.043
1023	0.042
1023	0.042
1024	0.042
1024	0.042
1025	0.041
1025	0.041
1026	0.04
1026	0.04
1026	0.039
1027	0.038
1027	0.038
1028	0.038
1028	0.037
1028	0.037
1029	0.037
1029	0.037
1030	0.037
1030	0.038
1031	0.038
1031	0.038
1031	0.039
1032	0.039
1032	0.039
1033	0.04
1033	0.04
1033	0.039
1034	0.04
1034	0.039
1035	0.04
1035	0.04
1036	0.039
1036	0.039
1036	0.04
1037	0.04
1037	0.039
1038	0.04
1038	0.04
1039	0.04
1039	0.04
1039	0.04
1040	0.04
1040	0.04
1041	0.041
1041	0.041
1041	0.041
1042	0.041
1042	0.041
1043	0.041
1043	0.041
1044	0.042
1044	0.042
1044	0.042
1045	0.042
1045	0.042
1046	0.043
1046	0.043
1046	0.043
1047	0.044
1047	0.044
1048	0.044
1048	0.045
1049	0.045
1049	0.045
1049	0.045
1050	0.045
1050	0.044
1051	0.044
1051	0.043
1051	0.043
1052	0.042
1052	0.041
1053	0.041
1053	0.04
1053	0.039
1054	0.038
1054	0.037
1055	0.037
1055	0.037
1056	0.036
1056	0.036
1056	0.035
1057	0.035
1057	0.034
1058	0.033
1058	0.032
1058	0.032
1059	0.032
1059	0.031
1060	0.03
1060	0.03
1061	0.029
1061	0.029
1061	0.029
1062	0.029
1062	0.029
1063	0.029
1063	0.029
1063	0.029
1064	0.029
1064	0.028
1065	0.028
1065	0.028
1066	0.028
1066	0.028
1066	0.028
1067	0.028
1067	0.028
1068	0.028
1068	0.028
1068	0.028
1069	0.028
1069	0.027
1070	0.027
1070	0.027
1071	0.026
1071	0.026
1071	0.025
1072	0.025
1072	0.024
1073	0.024
1073	0.023
1073	0.022
1074	0.023
1074	0.023
1075	0.023
1075	0.023
1076	0.023
1076	0.023
1076	0.024
1077	0.024
1077	0.024
1078	0.025
1078	0.025
1078	0.026
1079	0.025
1079	0.026
1080	0.026
1080	0.026
1080	0.026
1081	0.027
1081	0.027
1082	0.028
1082	0.028
1083	0.028
1083	0.028
1083	0.028
1084	0.028
1084	0.029
1085	0.028
1085	0.028
1085	0.028
1086	0.027
1086	0.027
1087	0.026
1087	0.026
1088	0.026
1088	0.025
1088	0.025
1089	0.024
1089	0.024
1090	0.024
1090	0.023
1090	0.022
1091	0.022
1091	0.021
1092	0.022
1092	0.022
1092	0.022
1093	0.021
1093	0.021
1094	0.02
1094	0.02
1095	0.019
1095	0.019
1095	0.02
1096	0.019
1096	0.018
1097	0.018
1097	0.017
1097	0.017
1098	0.017
1098	0.016
1099	0.016
1099	0.015
1100	0.014
1100	0.013
1100	0.012
1101	0.012
1101	0.011
1102	0.01
1102	0.008
1102	0.007
1103	0.007
1103	0.007
1104	0.006
1104	0.006
1104	0.005
1105	0.003
1105	0.002
1106	-0
1106	-0.001
1107	-0.001
1107	-0.002
1107	-0.003
1108	-0.005
1108	-0.006
1109	-0.007
1109	-0.008
1109	-0.008
1110	-0.008
1110	-0.007
1111	-0.009
1111	-0.012
