Data from reversibility-20sec_Absorbance__3782__000000000003782.txt Node

Date: Wed Dec 06 09:13:46 CET 2023
User: Marek
Spectrometer: MAYP115816
Trigger mode: 0
Integration Time (sec): 2.000000E-1
Scans to average: 10
Electric dark correction enabled: true
Nonlinearity correction enabled: true
Boxcar width: 5
XAxis mode: Wavelengths
Number of Pixels in Spectrum: 2068
>>>>>Begin Spectral Data<<<<<
199	-0.152
199	-0.114
200	-0.061
200	-0.003
201	0.024
201	0.042
202	0.052
202	0.062
203	0.068
203	0.074
204	0.087
204	0.099
205	0.109
205	0.117
205	0.112
206	0.111
206	0.109
207	0.113
207	0.113
208	0.112
208	0.109
209	0.11
209	0.111
210	0.109
210	0.111
211	0.113
211	0.115
212	0.117
212	0.117
213	0.12
213	0.12
213	0.123
214	0.125
214	0.125
215	0.13
215	0.131
216	0.135
216	0.133
217	0.135
217	0.141
218	0.14
218	0.145
219	0.149
219	0.151
220	0.153
220	0.152
221	0.151
221	0.155
221	0.163
222	0.169
222	0.169
223	0.177
223	0.183
224	0.187
224	0.197
225	0.208
225	0.218
226	0.226
226	0.235
227	0.246
227	0.256
228	0.27
228	0.283
229	0.297
229	0.32
229	0.343
230	0.366
230	0.396
231	0.431
231	0.468
232	0.504
232	0.549
233	0.592
233	0.644
234	0.695
234	0.748
235	0.798
235	0.852
236	0.902
236	0.955
236	1.007
237	1.06
237	1.107
238	1.155
238	1.2
239	1.246
239	1.285
240	1.327
240	1.363
241	1.401
241	1.434
242	1.464
242	1.496
243	1.523
243	1.549
243	1.576
244	1.599
244	1.622
245	1.639
245	1.659
246	1.675
246	1.693
247	1.706
247	1.719
248	1.733
248	1.746
249	1.755
249	1.763
250	1.771
250	1.778
250	1.784
251	1.789
251	1.792
252	1.797
252	1.799
253	1.8
253	1.797
254	1.798
254	1.798
255	1.799
255	1.801
256	1.8
256	1.799
257	1.8
257	1.798
258	1.797
258	1.797
258	1.798
259	1.797
259	1.797
260	1.794
260	1.794
261	1.794
261	1.794
262	1.794
262	1.795
263	1.798
263	1.797
264	1.799
264	1.799
265	1.8
265	1.801
265	1.801
266	1.8
266	1.8
267	1.8
267	1.799
268	1.799
268	1.8
269	1.801
269	1.799
270	1.797
270	1.795
271	1.793
271	1.792
272	1.79
272	1.787
272	1.785
273	1.78
273	1.773
274	1.768
274	1.764
275	1.758
275	1.753
276	1.747
276	1.74
277	1.733
277	1.724
278	1.713
278	1.702
278	1.69
279	1.676
279	1.659
280	1.639
280	1.614
281	1.586
281	1.553
282	1.517
282	1.482
283	1.446
283	1.41
284	1.375
284	1.339
285	1.306
285	1.275
285	1.248
286	1.223
286	1.201
287	1.182
287	1.165
288	1.149
288	1.136
289	1.126
289	1.116
290	1.108
290	1.101
291	1.094
291	1.089
292	1.083
292	1.078
292	1.073
293	1.069
293	1.066
294	1.062
294	1.058
295	1.054
295	1.05
296	1.047
296	1.043
297	1.04
297	1.037
298	1.034
298	1.031
298	1.028
299	1.025
299	1.022
300	1.02
300	1.017
301	1.014
301	1.012
302	1.009
302	1.006
303	1.004
303	1.001
304	0.998
304	0.995
305	0.993
305	0.99
305	0.987
306	0.985
306	0.982
307	0.979
307	0.976
308	0.973
308	0.97
309	0.968
309	0.964
310	0.962
310	0.958
311	0.955
311	0.952
311	0.948
312	0.944
312	0.941
313	0.937
313	0.933
314	0.929
314	0.925
315	0.921
315	0.916
316	0.912
316	0.907
317	0.903
317	0.898
318	0.893
318	0.888
318	0.883
319	0.877
319	0.872
320	0.866
320	0.861
321	0.855
321	0.849
322	0.843
322	0.837
323	0.83
323	0.824
324	0.818
324	0.811
324	0.804
325	0.798
325	0.791
326	0.785
326	0.778
327	0.771
327	0.764
328	0.758
328	0.751
329	0.744
329	0.737
330	0.731
330	0.724
330	0.717
331	0.71
331	0.704
332	0.697
332	0.69
333	0.683
333	0.676
334	0.67
334	0.663
335	0.657
335	0.65
336	0.643
336	0.637
336	0.63
337	0.624
337	0.618
338	0.612
338	0.606
339	0.6
339	0.594
340	0.588
340	0.583
341	0.577
341	0.572
342	0.566
342	0.561
342	0.556
343	0.551
343	0.546
344	0.541
344	0.536
345	0.531
345	0.527
346	0.522
346	0.518
347	0.514
347	0.509
348	0.505
348	0.501
348	0.497
349	0.494
349	0.49
350	0.486
350	0.483
351	0.48
351	0.477
352	0.473
352	0.47
353	0.468
353	0.465
354	0.462
354	0.459
354	0.456
355	0.453
355	0.45
356	0.447
356	0.444
357	0.44
357	0.438
358	0.435
358	0.432
359	0.429
359	0.427
360	0.425
360	0.423
360	0.421
361	0.419
361	0.417
362	0.416
362	0.414
363	0.412
363	0.41
364	0.408
364	0.406
365	0.404
365	0.402
366	0.4
366	0.399
366	0.397
367	0.395
367	0.393
368	0.391
368	0.39
369	0.388
369	0.387
370	0.385
370	0.383
371	0.382
371	0.38
372	0.379
372	0.378
372	0.376
373	0.375
373	0.374
374	0.373
374	0.372
375	0.37
375	0.369
376	0.368
376	0.367
377	0.366
377	0.365
378	0.363
378	0.362
378	0.361
379	0.36
379	0.36
380	0.359
380	0.358
381	0.357
381	0.356
382	0.356
382	0.355
383	0.354
383	0.353
383	0.352
384	0.352
384	0.351
385	0.35
385	0.35
386	0.349
386	0.349
387	0.348
387	0.347
388	0.347
388	0.346
389	0.346
389	0.345
389	0.344
390	0.344
390	0.343
391	0.342
391	0.342
392	0.341
392	0.341
393	0.34
393	0.34
394	0.339
394	0.338
394	0.338
395	0.337
395	0.337
396	0.337
396	0.336
397	0.336
397	0.335
398	0.335
398	0.335
399	0.334
399	0.333
400	0.333
400	0.332
400	0.332
401	0.332
401	0.331
402	0.33
402	0.33
403	0.329
403	0.328
404	0.328
404	0.328
405	0.327
405	0.327
405	0.327
406	0.326
406	0.326
407	0.325
407	0.325
408	0.325
408	0.324
409	0.324
409	0.323
410	0.323
410	0.323
411	0.322
411	0.322
411	0.322
412	0.322
412	0.321
413	0.321
413	0.32
414	0.32
414	0.32
415	0.319
415	0.319
416	0.319
416	0.318
416	0.318
417	0.317
417	0.317
418	0.317
418	0.317
419	0.316
419	0.316
420	0.315
420	0.315
421	0.314
421	0.314
421	0.314
422	0.313
422	0.313
423	0.313
423	0.312
424	0.312
424	0.311
425	0.311
425	0.311
426	0.311
426	0.31
427	0.31
427	0.309
427	0.309
428	0.309
428	0.308
429	0.308
429	0.308
430	0.307
430	0.307
431	0.307
431	0.307
432	0.307
432	0.307
432	0.306
433	0.306
433	0.306
434	0.306
434	0.306
435	0.306
435	0.306
436	0.306
436	0.306
437	0.306
437	0.306
437	0.305
438	0.305
438	0.305
439	0.305
439	0.305
440	0.304
440	0.304
441	0.304
441	0.303
442	0.303
442	0.303
442	0.303
443	0.302
443	0.302
444	0.302
444	0.302
445	0.302
445	0.302
446	0.302
446	0.302
447	0.301
447	0.301
447	0.302
448	0.302
448	0.302
449	0.302
449	0.302
450	0.302
450	0.302
451	0.302
451	0.302
452	0.302
452	0.302
452	0.302
453	0.302
453	0.302
454	0.302
454	0.302
455	0.302
455	0.302
456	0.302
456	0.301
457	0.301
457	0.301
458	0.301
458	0.302
458	0.302
459	0.302
459	0.302
460	0.302
460	0.302
461	0.303
461	0.303
462	0.303
462	0.303
463	0.303
463	0.303
463	0.303
464	0.303
464	0.303
465	0.303
465	0.303
466	0.303
466	0.303
467	0.304
467	0.304
467	0.304
468	0.305
468	0.305
469	0.305
469	0.306
470	0.306
470	0.307
471	0.307
471	0.308
472	0.308
472	0.308
472	0.309
473	0.309
473	0.309
474	0.31
474	0.31
475	0.31
475	0.311
476	0.311
476	0.312
477	0.313
477	0.313
477	0.314
478	0.315
478	0.315
479	0.316
479	0.317
480	0.317
480	0.318
481	0.319
481	0.319
482	0.32
482	0.321
482	0.322
483	0.322
483	0.323
484	0.324
484	0.325
485	0.326
485	0.326
486	0.327
486	0.328
487	0.329
487	0.329
487	0.33
488	0.331
488	0.333
489	0.334
489	0.336
490	0.337
490	0.338
491	0.34
491	0.341
492	0.342
492	0.344
492	0.345
493	0.347
493	0.348
494	0.349
494	0.351
495	0.352
495	0.354
496	0.355
496	0.357
496	0.358
497	0.359
497	0.36
498	0.362
498	0.363
499	0.365
499	0.366
500	0.368
500	0.37
501	0.371
501	0.372
501	0.373
502	0.375
502	0.376
503	0.377
503	0.379
504	0.38
504	0.382
505	0.383
505	0.384
506	0.385
506	0.387
506	0.388
507	0.389
507	0.391
508	0.392
508	0.393
509	0.394
509	0.395
510	0.397
510	0.398
511	0.399
511	0.4
511	0.402
512	0.403
512	0.404
513	0.405
513	0.406
514	0.407
514	0.407
515	0.408
515	0.409
515	0.409
516	0.41
516	0.411
517	0.411
517	0.412
518	0.413
518	0.413
519	0.413
519	0.413
520	0.414
520	0.414
520	0.414
521	0.414
521	0.414
522	0.414
522	0.414
523	0.414
523	0.414
524	0.414
524	0.414
524	0.413
525	0.413
525	0.412
526	0.411
526	0.411
527	0.41
527	0.409
528	0.408
528	0.407
529	0.407
529	0.406
529	0.405
530	0.404
530	0.403
531	0.402
531	0.401
532	0.4
532	0.398
533	0.396
533	0.395
533	0.394
534	0.392
534	0.39
535	0.389
535	0.387
536	0.385
536	0.383
537	0.381
537	0.379
538	0.377
538	0.375
538	0.373
539	0.371
539	0.369
540	0.367
540	0.365
541	0.363
541	0.361
542	0.359
542	0.358
542	0.355
543	0.353
543	0.351
544	0.348
544	0.346
545	0.344
545	0.342
546	0.34
546	0.337
547	0.335
547	0.333
547	0.33
548	0.328
548	0.326
549	0.323
549	0.321
550	0.319
550	0.316
551	0.313
551	0.311
551	0.308
552	0.306
552	0.304
553	0.301
553	0.299
554	0.297
554	0.295
555	0.292
555	0.29
556	0.288
556	0.286
556	0.284
557	0.282
557	0.28
558	0.278
558	0.276
559	0.274
559	0.272
560	0.27
560	0.268
560	0.266
561	0.265
561	0.262
562	0.26
562	0.258
563	0.255
563	0.253
564	0.251
564	0.249
564	0.247
565	0.245
565	0.243
566	0.241
566	0.239
567	0.237
567	0.236
568	0.234
568	0.232
568	0.23
569	0.228
569	0.226
570	0.224
570	0.222
571	0.221
571	0.219
572	0.218
572	0.216
573	0.215
573	0.213
573	0.212
574	0.211
574	0.209
575	0.208
575	0.207
576	0.206
576	0.204
577	0.202
577	0.201
577	0.199
578	0.198
578	0.197
579	0.196
579	0.195
580	0.193
580	0.192
581	0.19
581	0.189
581	0.188
582	0.188
582	0.186
583	0.185
583	0.184
584	0.182
584	0.18
585	0.179
585	0.178
585	0.177
586	0.176
586	0.175
587	0.173
587	0.172
588	0.171
588	0.171
589	0.17
589	0.169
590	0.168
590	0.168
590	0.167
591	0.166
591	0.165
592	0.163
592	0.162
593	0.161
593	0.16
594	0.158
594	0.157
594	0.156
595	0.155
595	0.154
596	0.153
596	0.152
597	0.153
597	0.152
598	0.152
598	0.151
598	0.151
599	0.15
599	0.15
600	0.149
600	0.148
601	0.147
601	0.147
602	0.146
602	0.145
602	0.144
603	0.143
603	0.143
604	0.142
604	0.142
605	0.141
605	0.141
606	0.14
606	0.139
606	0.139
607	0.138
607	0.137
608	0.137
608	0.136
609	0.135
609	0.134
610	0.133
610	0.133
610	0.132
611	0.132
611	0.131
612	0.131
612	0.131
613	0.131
613	0.13
614	0.13
614	0.129
614	0.129
615	0.129
615	0.128
616	0.128
616	0.127
617	0.127
617	0.127
618	0.126
618	0.126
618	0.126
619	0.125
619	0.125
620	0.125
620	0.124
621	0.123
621	0.123
622	0.122
622	0.122
622	0.121
623	0.12
623	0.12
624	0.119
624	0.118
625	0.118
625	0.118
626	0.117
626	0.117
626	0.116
627	0.116
627	0.116
628	0.115
628	0.115
629	0.114
629	0.114
630	0.113
630	0.113
630	0.113
631	0.112
631	0.112
632	0.111
632	0.111
633	0.111
633	0.111
634	0.111
634	0.111
634	0.111
635	0.111
635	0.11
636	0.11
636	0.11
637	0.11
637	0.109
638	0.109
638	0.108
638	0.108
639	0.107
639	0.107
640	0.106
640	0.106
641	0.106
641	0.105
642	0.105
642	0.105
642	0.104
643	0.104
643	0.104
644	0.104
644	0.104
645	0.104
645	0.104
646	0.104
646	0.104
646	0.104
647	0.104
647	0.103
648	0.103
648	0.102
649	0.102
649	0.102
650	0.102
650	0.101
650	0.101
651	0.101
651	0.101
652	0.101
652	0.101
653	0.101
653	0.103
653	0.108
654	0.086
654	0.07
655	0.069
655	0.068
656	0.068
656	0.068
657	0.068
657	0.068
657	0.068
658	0.067
658	0.06
659	0.074
659	0.094
660	0.098
660	0.098
661	0.097
661	0.097
661	0.096
662	0.095
662	0.095
663	0.094
663	0.094
664	0.093
664	0.093
665	0.092
665	0.092
665	0.092
666	0.092
666	0.092
667	0.092
667	0.092
668	0.092
668	0.092
669	0.093
669	0.093
669	0.093
670	0.094
670	0.094
671	0.094
671	0.093
672	0.093
672	0.092
672	0.092
673	0.091
673	0.091
674	0.09
674	0.09
675	0.089
675	0.089
676	0.09
676	0.09
676	0.09
677	0.09
677	0.09
678	0.09
678	0.09
679	0.09
679	0.09
680	0.09
680	0.089
680	0.089
681	0.089
681	0.089
682	0.089
682	0.089
683	0.089
683	0.09
684	0.09
684	0.089
684	0.089
685	0.089
685	0.089
686	0.089
686	0.089
687	0.088
687	0.089
687	0.089
688	0.089
688	0.089
689	0.089
689	0.09
690	0.089
690	0.089
691	0.089
691	0.089
691	0.089
692	0.088
692	0.088
693	0.088
693	0.088
694	0.087
694	0.087
695	0.087
695	0.088
695	0.088
696	0.088
696	0.088
697	0.088
697	0.088
698	0.088
698	0.087
698	0.087
699	0.087
699	0.087
700	0.086
700	0.086
701	0.086
701	0.085
702	0.084
702	0.084
702	0.083
703	0.083
703	0.082
704	0.082
704	0.082
705	0.082
705	0.082
705	0.082
706	0.082
706	0.082
707	0.082
707	0.082
708	0.083
708	0.083
709	0.083
709	0.082
709	0.082
710	0.081
710	0.081
711	0.081
711	0.08
712	0.08
712	0.08
713	0.079
713	0.079
713	0.079
714	0.078
714	0.078
715	0.078
715	0.078
716	0.077
716	0.077
716	0.076
717	0.075
717	0.075
718	0.074
718	0.074
719	0.074
719	0.075
720	0.075
720	0.075
720	0.076
721	0.076
721	0.077
722	0.078
722	0.078
723	0.078
723	0.078
723	0.078
724	0.077
724	0.076
725	0.075
725	0.074
726	0.073
726	0.073
727	0.072
727	0.072
727	0.071
728	0.071
728	0.071
729	0.072
729	0.072
730	0.072
730	0.073
730	0.073
731	0.074
731	0.074
732	0.074
732	0.075
733	0.074
733	0.074
734	0.074
734	0.074
734	0.074
735	0.074
735	0.073
736	0.072
736	0.071
737	0.071
737	0.07
737	0.069
738	0.069
738	0.068
739	0.067
739	0.066
740	0.066
740	0.066
741	0.066
741	0.067
741	0.067
742	0.067
742	0.068
743	0.069
743	0.069
744	0.07
744	0.07
744	0.07
745	0.07
745	0.07
746	0.07
746	0.07
747	0.07
747	0.07
748	0.069
748	0.069
748	0.069
749	0.069
749	0.069
750	0.069
750	0.069
751	0.069
751	0.069
751	0.069
752	0.069
752	0.068
753	0.068
753	0.068
754	0.067
754	0.067
754	0.066
755	0.066
755	0.065
756	0.065
756	0.064
757	0.063
757	0.063
758	0.063
758	0.062
758	0.062
759	0.062
759	0.062
760	0.062
760	0.062
761	0.062
761	0.062
761	0.062
762	0.062
762	0.062
763	0.062
763	0.062
764	0.061
764	0.061
764	0.061
765	0.061
765	0.061
766	0.06
766	0.06
767	0.06
767	0.06
768	0.059
768	0.06
768	0.06
769	0.061
769	0.061
770	0.061
770	0.061
771	0.061
771	0.061
771	0.061
772	0.061
772	0.061
773	0.061
773	0.061
774	0.06
774	0.06
775	0.06
775	0.06
775	0.061
776	0.061
776	0.061
777	0.062
777	0.062
778	0.062
778	0.061
778	0.061
779	0.061
779	0.06
780	0.059
780	0.059
781	0.058
781	0.057
781	0.057
782	0.057
782	0.057
783	0.057
783	0.057
784	0.057
784	0.058
784	0.058
785	0.059
785	0.059
786	0.06
786	0.06
787	0.06
787	0.06
788	0.059
788	0.059
788	0.058
789	0.057
789	0.057
790	0.057
790	0.056
791	0.056
791	0.055
791	0.055
792	0.055
792	0.055
793	0.055
793	0.054
794	0.054
794	0.054
794	0.054
795	0.054
795	0.054
796	0.054
796	0.054
797	0.054
797	0.054
797	0.055
798	0.055
798	0.055
799	0.055
799	0.055
800	0.054
800	0.054
801	0.053
801	0.052
801	0.052
802	0.052
802	0.052
803	0.051
803	0.052
804	0.052
804	0.052
804	0.053
805	0.053
805	0.053
806	0.053
806	0.053
807	0.053
807	0.053
807	0.053
808	0.053
808	0.053
809	0.053
809	0.053
810	0.053
810	0.053
810	0.053
811	0.053
811	0.054
812	0.054
812	0.054
813	0.054
813	0.055
813	0.055
814	0.055
814	0.055
815	0.056
815	0.055
816	0.055
816	0.055
817	0.054
817	0.054
817	0.054
818	0.053
818	0.053
819	0.052
819	0.052
820	0.051
820	0.051
820	0.051
821	0.05
821	0.05
822	0.05
822	0.05
823	0.05
823	0.05
823	0.051
824	0.052
824	0.053
825	0.054
825	0.055
826	0.055
826	0.055
826	0.056
827	0.056
827	0.056
828	0.056
828	0.056
829	0.056
829	0.056
829	0.055
830	0.055
830	0.056
831	0.056
831	0.056
832	0.056
832	0.056
832	0.056
833	0.055
833	0.055
834	0.054
834	0.054
835	0.053
835	0.052
835	0.051
836	0.05
836	0.05
837	0.05
837	0.049
838	0.049
838	0.049
839	0.049
839	0.048
839	0.048
840	0.047
840	0.047
841	0.046
841	0.046
842	0.045
842	0.045
842	0.045
843	0.045
843	0.045
844	0.046
844	0.046
845	0.046
845	0.047
845	0.047
846	0.048
846	0.048
847	0.048
847	0.048
848	0.048
848	0.048
848	0.048
849	0.047
849	0.047
850	0.046
850	0.046
851	0.046
851	0.045
851	0.045
852	0.044
852	0.044
853	0.044
853	0.043
854	0.044
854	0.044
854	0.045
855	0.045
855	0.046
856	0.046
856	0.047
857	0.047
857	0.048
857	0.049
858	0.049
858	0.049
859	0.049
859	0.049
860	0.049
860	0.048
860	0.048
861	0.047
861	0.046
862	0.045
862	0.045
863	0.044
863	0.044
863	0.044
864	0.043
864	0.043
865	0.043
865	0.043
866	0.043
866	0.043
866	0.043
867	0.043
867	0.043
868	0.043
868	0.043
869	0.043
869	0.043
869	0.042
870	0.041
870	0.041
871	0.041
871	0.042
872	0.042
872	0.042
872	0.042
873	0.042
873	0.042
874	0.042
874	0.042
875	0.042
875	0.041
875	0.041
876	0.041
876	0.04
877	0.04
877	0.04
878	0.04
878	0.04
878	0.041
879	0.041
879	0.041
880	0.041
880	0.041
881	0.041
881	0.041
881	0.041
882	0.041
882	0.041
883	0.04
883	0.04
884	0.04
884	0.04
884	0.04
885	0.04
885	0.04
886	0.04
886	0.04
887	0.04
887	0.04
887	0.04
888	0.04
888	0.04
889	0.04
889	0.04
890	0.04
890	0.04
890	0.04
891	0.04
891	0.04
892	0.04
892	0.04
893	0.04
893	0.04
893	0.039
894	0.039
894	0.038
895	0.038
895	0.037
895	0.037
896	0.037
896	0.037
897	0.036
897	0.036
898	0.035
898	0.035
898	0.035
899	0.035
899	0.035
900	0.035
900	0.035
901	0.035
901	0.035
901	0.035
902	0.036
902	0.036
903	0.036
903	0.035
904	0.035
904	0.035
904	0.035
905	0.035
905	0.035
906	0.036
906	0.036
907	0.037
907	0.038
907	0.038
908	0.039
908	0.04
909	0.04
909	0.041
910	0.041
910	0.042
910	0.042
911	0.042
911	0.042
912	0.042
912	0.042
913	0.042
913	0.042
913	0.042
914	0.042
914	0.042
915	0.041
915	0.041
916	0.041
916	0.04
916	0.04
917	0.039
917	0.039
918	0.038
918	0.038
918	0.038
919	0.037
919	0.037
920	0.037
920	0.037
921	0.037
921	0.037
921	0.037
922	0.037
922	0.038
923	0.038
923	0.039
924	0.039
924	0.04
924	0.04
925	0.041
925	0.041
926	0.041
926	0.041
927	0.041
927	0.041
927	0.04
928	0.04
928	0.04
929	0.04
929	0.04
930	0.04
930	0.04
930	0.04
931	0.04
931	0.04
932	0.041
932	0.041
933	0.041
933	0.041
933	0.041
934	0.041
934	0.041
935	0.041
935	0.041
935	0.041
936	0.041
936	0.041
937	0.041
937	0.04
938	0.04
938	0.04
938	0.039
939	0.038
939	0.037
940	0.037
940	0.036
941	0.036
941	0.035
941	0.035
942	0.035
942	0.035
943	0.035
943	0.035
944	0.035
944	0.035
944	0.036
945	0.036
945	0.037
946	0.037
946	0.037
946	0.038
947	0.038
947	0.039
948	0.039
948	0.04
949	0.04
949	0.041
949	0.041
950	0.041
950	0.041
951	0.041
951	0.041
952	0.04
952	0.04
952	0.039
953	0.038
953	0.037
954	0.037
954	0.036
955	0.035
955	0.035
955	0.034
956	0.033
956	0.033
957	0.033
957	0.033
957	0.033
958	0.034
958	0.034
959	0.034
959	0.035
960	0.035
960	0.036
960	0.036
961	0.036
961	0.037
962	0.037
962	0.037
963	0.037
963	0.037
963	0.038
964	0.038
964	0.038
965	0.038
965	0.038
966	0.039
966	0.039
966	0.04
967	0.04
967	0.04
968	0.041
968	0.041
968	0.041
969	0.041
969	0.041
970	0.04
970	0.04
971	0.039
971	0.039
971	0.038
972	0.037
972	0.037
973	0.036
973	0.036
974	0.035
974	0.035
974	0.035
975	0.035
975	0.035
976	0.035
976	0.036
976	0.036
977	0.036
977	0.036
978	0.036
978	0.036
979	0.036
979	0.036
979	0.036
980	0.036
980	0.036
981	0.036
981	0.036
982	0.036
982	0.036
982	0.036
983	0.036
983	0.037
984	0.037
984	0.037
984	0.037
985	0.037
985	0.037
986	0.037
986	0.037
987	0.037
987	0.036
987	0.036
988	0.036
988	0.036
989	0.035
989	0.035
990	0.034
990	0.034
990	0.033
991	0.033
991	0.033
992	0.032
992	0.032
992	0.031
993	0.031
993	0.031
994	0.03
994	0.03
995	0.03
995	0.03
995	0.03
996	0.03
996	0.031
997	0.031
997	0.032
997	0.032
998	0.033
998	0.034
999	0.035
999	0.035
1000	0.036
1000	0.036
1000	0.037
1001	0.037
1001	0.036
1002	0.036
1002	0.036
1003	0.035
1003	0.035
1003	0.034
1004	0.033
1004	0.032
1005	0.031
1005	0.03
1005	0.03
1006	0.029
1006	0.029
1007	0.029
1007	0.028
1008	0.028
1008	0.029
1008	0.029
1009	0.03
1009	0.03
1010	0.03
1010	0.031
1010	0.031
1011	0.032
1011	0.032
1012	0.032
1012	0.032
1013	0.032
1013	0.032
1013	0.031
1014	0.031
1014	0.031
1015	0.031
1015	0.031
1016	0.031
1016	0.03
1016	0.03
1017	0.03
1017	0.029
1018	0.029
1018	0.028
1018	0.028
1019	0.028
1019	0.028
1020	0.027
1020	0.027
1021	0.028
1021	0.028
1021	0.028
1022	0.028
1022	0.028
1023	0.028
1023	0.029
1023	0.029
1024	0.029
1024	0.029
1025	0.029
1025	0.029
1026	0.029
1026	0.029
1026	0.029
1027	0.029
1027	0.029
1028	0.03
1028	0.03
1028	0.03
1029	0.03
1029	0.03
1030	0.031
1030	0.031
1031	0.031
1031	0.031
1031	0.031
1032	0.031
1032	0.031
1033	0.032
1033	0.032
1033	0.032
1034	0.032
1034	0.031
1035	0.031
1035	0.031
1036	0.03
1036	0.03
1036	0.03
1037	0.029
1037	0.029
1038	0.028
1038	0.028
1039	0.028
1039	0.028
1039	0.028
1040	0.028
1040	0.028
1041	0.028
1041	0.028
1041	0.028
1042	0.028
1042	0.029
1043	0.029
1043	0.029
1044	0.03
1044	0.03
1044	0.031
1045	0.031
1045	0.032
1046	0.032
1046	0.033
1046	0.033
1047	0.034
1047	0.034
1048	0.035
1048	0.035
1049	0.035
1049	0.036
1049	0.036
1050	0.036
1050	0.036
1051	0.036
1051	0.035
1051	0.035
1052	0.035
1052	0.034
1053	0.034
1053	0.033
1053	0.033
1054	0.032
1054	0.032
1055	0.031
1055	0.03
1056	0.03
1056	0.029
1056	0.029
1057	0.028
1057	0.028
1058	0.027
1058	0.026
1058	0.025
1059	0.025
1059	0.024
1060	0.024
1060	0.024
1061	0.023
1061	0.023
1061	0.023
1062	0.024
1062	0.024
1063	0.024
1063	0.024
1063	0.024
1064	0.024
1064	0.025
1065	0.024
1065	0.025
1066	0.025
1066	0.025
1066	0.025
1067	0.025
1067	0.025
1068	0.025
1068	0.026
1068	0.026
1069	0.026
1069	0.025
1070	0.025
1070	0.025
1071	0.025
1071	0.024
1071	0.024
1072	0.024
1072	0.024
1073	0.023
1073	0.023
1073	0.022
1074	0.023
1074	0.023
1075	0.023
1075	0.023
1076	0.023
1076	0.023
1076	0.024
1077	0.024
1077	0.024
1078	0.024
1078	0.024
1078	0.024
1079	0.024
1079	0.023
1080	0.023
1080	0.023
1080	0.022
1081	0.022
1081	0.022
1082	0.022
1082	0.022
1083	0.022
1083	0.022
1083	0.022
1084	0.022
1084	0.023
1085	0.023
1085	0.023
1085	0.023
1086	0.024
1086	0.023
1087	0.023
1087	0.023
1088	0.023
1088	0.023
1088	0.023
1089	0.022
1089	0.022
1090	0.021
1090	0.02
1090	0.019
1091	0.019
1091	0.019
1092	0.019
1092	0.02
1092	0.019
1093	0.019
1093	0.019
1094	0.019
1094	0.019
1095	0.019
1095	0.018
1095	0.018
1096	0.017
1096	0.016
1097	0.016
1097	0.015
1097	0.016
1098	0.015
1098	0.015
1099	0.014
1099	0.014
1100	0.013
1100	0.013
1100	0.013
1101	0.013
1101	0.012
1102	0.012
1102	0.011
1102	0.011
1103	0.011
1103	0.012
1104	0.011
1104	0.011
1104	0.011
1105	0.01
1105	0.008
1106	0.008
1106	0.008
1107	0.007
1107	0.006
1107	0.006
1108	0.004
1108	0.003
1109	0.002
1109	0.001
1109	0.002
1110	0.005
1110	0.004
1111	0.001
1111	-0.003
