Data from reversibility-20sec_Absorbance__3308__000000000003308.txt Node

Date: Wed Dec 06 06:35:45 CET 2023
User: Marek
Spectrometer: MAYP115816
Trigger mode: 0
Integration Time (sec): 2.000000E-1
Scans to average: 10
Electric dark correction enabled: true
Nonlinearity correction enabled: true
Boxcar width: 5
XAxis mode: Wavelengths
Number of Pixels in Spectrum: 2068
>>>>>Begin Spectral Data<<<<<
199	-0.104
199	-0.075
200	-0.011
200	0.043
201	0.069
201	0.085
202	0.097
202	0.108
203	0.117
203	0.12
204	0.134
204	0.151
205	0.163
205	0.17
205	0.167
206	0.168
206	0.17
207	0.172
207	0.173
208	0.17
208	0.169
209	0.171
209	0.167
210	0.169
210	0.167
211	0.169
211	0.171
212	0.17
212	0.174
213	0.175
213	0.18
213	0.179
214	0.181
214	0.181
215	0.183
215	0.183
216	0.184
216	0.184
217	0.186
217	0.184
218	0.181
218	0.183
219	0.189
219	0.189
220	0.195
220	0.193
221	0.195
221	0.198
221	0.203
222	0.208
222	0.215
223	0.226
223	0.227
224	0.233
224	0.242
225	0.25
225	0.259
226	0.269
226	0.281
227	0.29
227	0.298
228	0.311
228	0.322
229	0.341
229	0.365
229	0.387
230	0.412
230	0.443
231	0.475
231	0.51
232	0.548
232	0.592
233	0.634
233	0.682
234	0.73
234	0.779
235	0.83
235	0.882
236	0.935
236	0.987
236	1.039
237	1.093
237	1.142
238	1.191
238	1.239
239	1.289
239	1.334
240	1.374
240	1.41
241	1.444
241	1.477
242	1.512
242	1.544
243	1.574
243	1.6
243	1.626
244	1.644
244	1.661
245	1.679
245	1.702
246	1.722
246	1.738
247	1.746
247	1.758
248	1.769
248	1.781
249	1.788
249	1.797
250	1.805
250	1.812
250	1.813
251	1.812
251	1.814
252	1.817
252	1.813
253	1.813
253	1.81
254	1.807
254	1.805
255	1.803
255	1.8
256	1.797
256	1.799
257	1.798
257	1.796
258	1.798
258	1.798
258	1.796
259	1.795
259	1.797
260	1.798
260	1.8
261	1.802
261	1.804
262	1.806
262	1.808
263	1.811
263	1.812
264	1.816
264	1.818
265	1.817
265	1.818
265	1.818
266	1.817
266	1.816
267	1.815
267	1.816
268	1.815
268	1.815
269	1.816
269	1.815
270	1.814
270	1.813
271	1.809
271	1.808
272	1.805
272	1.802
272	1.797
273	1.789
273	1.781
274	1.772
274	1.764
275	1.756
275	1.748
276	1.74
276	1.732
277	1.723
277	1.712
278	1.7
278	1.688
278	1.673
279	1.655
279	1.632
280	1.604
280	1.57
281	1.531
281	1.489
282	1.444
282	1.399
283	1.355
283	1.312
284	1.271
284	1.232
285	1.196
285	1.163
285	1.134
286	1.108
286	1.086
287	1.067
287	1.051
288	1.038
288	1.026
289	1.017
289	1.009
290	1.002
290	0.995
291	0.99
291	0.985
292	0.981
292	0.978
292	0.974
293	0.971
293	0.967
294	0.964
294	0.961
295	0.958
295	0.956
296	0.953
296	0.95
297	0.948
297	0.945
298	0.942
298	0.94
298	0.937
299	0.935
299	0.932
300	0.93
300	0.928
301	0.926
301	0.923
302	0.921
302	0.919
303	0.917
303	0.915
304	0.913
304	0.911
305	0.909
305	0.907
305	0.905
306	0.903
306	0.901
307	0.899
307	0.897
308	0.894
308	0.892
309	0.89
309	0.887
310	0.885
310	0.882
311	0.879
311	0.876
311	0.873
312	0.87
312	0.867
313	0.864
313	0.86
314	0.856
314	0.852
315	0.849
315	0.845
316	0.84
316	0.836
317	0.832
317	0.827
318	0.822
318	0.817
318	0.812
319	0.807
319	0.802
320	0.797
320	0.791
321	0.786
321	0.78
322	0.774
322	0.768
323	0.762
323	0.756
324	0.749
324	0.743
324	0.736
325	0.73
325	0.723
326	0.717
326	0.71
327	0.703
327	0.697
328	0.69
328	0.683
329	0.677
329	0.67
330	0.663
330	0.656
330	0.649
331	0.642
331	0.635
332	0.628
332	0.621
333	0.615
333	0.608
334	0.601
334	0.594
335	0.588
335	0.581
336	0.575
336	0.568
336	0.562
337	0.556
337	0.55
338	0.543
338	0.537
339	0.532
339	0.526
340	0.52
340	0.514
341	0.509
341	0.504
342	0.498
342	0.493
342	0.488
343	0.483
343	0.478
344	0.473
344	0.468
345	0.463
345	0.459
346	0.454
346	0.45
347	0.446
347	0.441
348	0.437
348	0.434
348	0.43
349	0.426
349	0.422
350	0.419
350	0.416
351	0.412
351	0.409
352	0.406
352	0.403
353	0.4
353	0.398
354	0.395
354	0.392
354	0.389
355	0.386
355	0.383
356	0.381
356	0.378
357	0.374
357	0.372
358	0.369
358	0.367
359	0.364
359	0.362
360	0.36
360	0.358
360	0.357
361	0.355
361	0.353
362	0.352
362	0.35
363	0.349
363	0.347
364	0.345
364	0.343
365	0.342
365	0.34
366	0.338
366	0.336
366	0.335
367	0.333
367	0.332
368	0.33
368	0.328
369	0.327
369	0.326
370	0.324
370	0.323
371	0.322
371	0.321
372	0.319
372	0.318
372	0.317
373	0.316
373	0.315
374	0.314
374	0.313
375	0.312
375	0.311
376	0.311
376	0.31
377	0.309
377	0.308
378	0.307
378	0.306
378	0.306
379	0.305
379	0.304
380	0.303
380	0.302
381	0.302
381	0.301
382	0.3
382	0.3
383	0.299
383	0.299
383	0.298
384	0.298
384	0.298
385	0.297
385	0.297
386	0.296
386	0.296
387	0.296
387	0.295
388	0.295
388	0.294
389	0.294
389	0.293
389	0.293
390	0.292
390	0.292
391	0.291
391	0.291
392	0.291
392	0.29
393	0.29
393	0.29
394	0.289
394	0.289
394	0.289
395	0.289
395	0.288
396	0.288
396	0.288
397	0.288
397	0.287
398	0.287
398	0.287
399	0.286
399	0.286
400	0.285
400	0.285
400	0.285
401	0.284
401	0.284
402	0.283
402	0.283
403	0.283
403	0.283
404	0.283
404	0.282
405	0.282
405	0.282
405	0.282
406	0.282
406	0.281
407	0.281
407	0.281
408	0.28
408	0.28
409	0.28
409	0.279
410	0.279
410	0.279
411	0.279
411	0.278
411	0.278
412	0.278
412	0.278
413	0.278
413	0.277
414	0.277
414	0.277
415	0.276
415	0.276
416	0.276
416	0.276
416	0.275
417	0.275
417	0.275
418	0.274
418	0.274
419	0.274
419	0.274
420	0.273
420	0.273
421	0.272
421	0.272
421	0.271
422	0.271
422	0.271
423	0.27
423	0.27
424	0.27
424	0.269
425	0.269
425	0.268
426	0.268
426	0.268
427	0.268
427	0.267
427	0.267
428	0.267
428	0.266
429	0.266
429	0.266
430	0.266
430	0.265
431	0.265
431	0.265
432	0.265
432	0.265
432	0.265
433	0.264
433	0.264
434	0.264
434	0.264
435	0.264
435	0.264
436	0.263
436	0.263
437	0.263
437	0.263
437	0.262
438	0.262
438	0.262
439	0.262
439	0.262
440	0.261
440	0.261
441	0.26
441	0.26
442	0.26
442	0.26
442	0.26
443	0.26
443	0.259
444	0.259
444	0.259
445	0.259
445	0.259
446	0.259
446	0.258
447	0.258
447	0.258
447	0.258
448	0.257
448	0.257
449	0.257
449	0.257
450	0.257
450	0.257
451	0.256
451	0.256
452	0.256
452	0.256
452	0.256
453	0.256
453	0.256
454	0.255
454	0.255
455	0.255
455	0.254
456	0.254
456	0.254
457	0.254
457	0.253
458	0.253
458	0.253
458	0.253
459	0.252
459	0.252
460	0.252
460	0.252
461	0.252
461	0.252
462	0.252
462	0.251
463	0.251
463	0.251
463	0.251
464	0.25
464	0.25
465	0.249
465	0.249
466	0.249
466	0.249
467	0.249
467	0.249
467	0.249
468	0.249
468	0.249
469	0.249
469	0.249
470	0.249
470	0.249
471	0.249
471	0.249
472	0.249
472	0.249
472	0.249
473	0.249
473	0.249
474	0.249
474	0.248
475	0.248
475	0.248
476	0.248
476	0.248
477	0.248
477	0.248
477	0.248
478	0.248
478	0.248
479	0.248
479	0.248
480	0.248
480	0.248
481	0.248
481	0.248
482	0.248
482	0.248
482	0.249
483	0.249
483	0.249
484	0.249
484	0.249
485	0.249
485	0.249
486	0.249
486	0.249
487	0.249
487	0.249
487	0.25
488	0.25
488	0.25
489	0.25
489	0.25
490	0.251
490	0.251
491	0.252
491	0.252
492	0.253
492	0.253
492	0.254
493	0.255
493	0.255
494	0.255
494	0.256
495	0.256
495	0.256
496	0.257
496	0.257
496	0.258
497	0.258
497	0.258
498	0.259
498	0.259
499	0.259
499	0.26
500	0.26
500	0.261
501	0.261
501	0.262
501	0.262
502	0.262
502	0.262
503	0.263
503	0.263
504	0.264
504	0.264
505	0.265
505	0.265
506	0.266
506	0.266
506	0.266
507	0.267
507	0.268
508	0.268
508	0.268
509	0.269
509	0.269
510	0.27
510	0.27
511	0.271
511	0.271
511	0.272
512	0.272
512	0.273
513	0.273
513	0.274
514	0.274
514	0.275
515	0.275
515	0.276
515	0.276
516	0.276
516	0.277
517	0.277
517	0.278
518	0.278
518	0.278
519	0.278
519	0.279
520	0.279
520	0.279
520	0.28
521	0.281
521	0.281
522	0.281
522	0.282
523	0.282
523	0.282
524	0.282
524	0.283
524	0.283
525	0.283
525	0.283
526	0.283
526	0.283
527	0.283
527	0.283
528	0.283
528	0.283
529	0.284
529	0.284
529	0.283
530	0.283
530	0.283
531	0.284
531	0.283
532	0.283
532	0.283
533	0.283
533	0.282
533	0.282
534	0.282
534	0.282
535	0.282
535	0.281
536	0.281
536	0.281
537	0.281
537	0.28
538	0.28
538	0.28
538	0.28
539	0.28
539	0.28
540	0.28
540	0.28
541	0.279
541	0.279
542	0.279
542	0.279
542	0.279
543	0.279
543	0.278
544	0.278
544	0.278
545	0.278
545	0.278
546	0.278
546	0.277
547	0.277
547	0.277
547	0.276
548	0.276
548	0.275
549	0.275
549	0.275
550	0.274
550	0.274
551	0.273
551	0.273
551	0.272
552	0.272
552	0.272
553	0.271
553	0.271
554	0.271
554	0.27
555	0.27
555	0.269
556	0.269
556	0.268
556	0.268
557	0.268
557	0.268
558	0.268
558	0.268
559	0.268
559	0.268
560	0.267
560	0.267
560	0.267
561	0.267
561	0.266
562	0.266
562	0.265
563	0.264
563	0.263
564	0.262
564	0.262
564	0.262
565	0.261
565	0.261
566	0.26
566	0.26
567	0.26
567	0.26
568	0.26
568	0.259
568	0.259
569	0.259
569	0.258
570	0.257
570	0.257
571	0.256
571	0.256
572	0.255
572	0.255
573	0.255
573	0.254
573	0.254
574	0.254
574	0.254
575	0.254
575	0.254
576	0.254
576	0.253
577	0.252
577	0.252
577	0.251
578	0.251
578	0.25
579	0.25
579	0.251
580	0.25
580	0.249
581	0.249
581	0.249
581	0.249
582	0.249
582	0.249
583	0.249
583	0.248
584	0.247
584	0.246
585	0.246
585	0.246
585	0.245
586	0.245
586	0.245
587	0.244
587	0.243
588	0.243
588	0.243
589	0.242
589	0.242
590	0.242
590	0.242
590	0.242
591	0.242
591	0.241
592	0.241
592	0.24
593	0.239
593	0.239
594	0.238
594	0.237
594	0.237
595	0.236
595	0.236
596	0.235
596	0.235
597	0.236
597	0.236
598	0.236
598	0.237
598	0.237
599	0.237
599	0.237
600	0.237
600	0.236
601	0.236
601	0.236
602	0.235
602	0.234
602	0.234
603	0.234
603	0.234
604	0.233
604	0.233
605	0.233
605	0.233
606	0.233
606	0.232
606	0.231
607	0.231
607	0.231
608	0.23
608	0.229
609	0.229
609	0.229
610	0.228
610	0.228
610	0.228
611	0.228
611	0.228
612	0.228
612	0.228
613	0.228
613	0.228
614	0.228
614	0.228
614	0.228
615	0.228
615	0.228
616	0.228
616	0.228
617	0.228
617	0.228
618	0.227
618	0.227
618	0.227
619	0.227
619	0.227
620	0.227
620	0.227
621	0.226
621	0.226
622	0.226
622	0.225
622	0.225
623	0.224
623	0.224
624	0.224
624	0.223
625	0.223
625	0.223
626	0.223
626	0.223
626	0.223
627	0.223
627	0.222
628	0.222
628	0.222
629	0.222
629	0.222
630	0.222
630	0.222
630	0.222
631	0.222
631	0.222
632	0.222
632	0.221
633	0.221
633	0.221
634	0.222
634	0.222
634	0.222
635	0.222
635	0.221
636	0.221
636	0.221
637	0.221
637	0.22
638	0.22
638	0.22
638	0.219
639	0.219
639	0.218
640	0.218
640	0.218
641	0.218
641	0.218
642	0.217
642	0.218
642	0.218
643	0.218
643	0.218
644	0.218
644	0.218
645	0.219
645	0.219
646	0.219
646	0.219
646	0.219
647	0.219
647	0.219
648	0.219
648	0.219
649	0.218
649	0.218
650	0.218
650	0.218
650	0.217
651	0.217
651	0.217
652	0.217
652	0.217
653	0.218
653	0.219
653	0.225
654	0.175
654	0.139
655	0.141
655	0.142
656	0.142
656	0.143
657	0.143
657	0.144
657	0.144
658	0.142
658	0.131
659	0.167
659	0.216
660	0.219
660	0.219
661	0.218
661	0.218
661	0.217
662	0.217
662	0.216
663	0.216
663	0.216
664	0.216
664	0.216
665	0.216
665	0.215
665	0.216
666	0.216
666	0.217
667	0.217
667	0.218
668	0.218
668	0.218
669	0.218
669	0.219
669	0.219
670	0.22
670	0.219
671	0.219
671	0.219
672	0.218
672	0.218
672	0.217
673	0.217
673	0.216
674	0.216
674	0.215
675	0.215
675	0.215
676	0.215
676	0.216
676	0.216
677	0.216
677	0.217
678	0.217
678	0.216
679	0.216
679	0.216
680	0.216
680	0.216
680	0.216
681	0.216
681	0.216
682	0.216
682	0.217
683	0.217
683	0.218
684	0.218
684	0.218
684	0.218
685	0.218
685	0.219
686	0.219
686	0.218
687	0.218
687	0.219
687	0.219
688	0.219
688	0.219
689	0.22
689	0.221
690	0.221
690	0.221
691	0.221
691	0.221
691	0.221
692	0.221
692	0.221
693	0.222
693	0.222
694	0.222
694	0.221
695	0.222
695	0.223
695	0.223
696	0.223
696	0.223
697	0.223
697	0.224
698	0.224
698	0.224
698	0.224
699	0.224
699	0.224
700	0.223
700	0.223
701	0.223
701	0.223
702	0.222
702	0.222
702	0.221
703	0.221
703	0.221
704	0.22
704	0.22
705	0.221
705	0.221
705	0.221
706	0.221
706	0.221
707	0.221
707	0.221
708	0.222
708	0.222
709	0.222
709	0.222
709	0.222
710	0.222
710	0.222
711	0.222
711	0.222
712	0.223
712	0.223
713	0.223
713	0.223
713	0.223
714	0.223
714	0.224
715	0.224
715	0.223
716	0.223
716	0.223
716	0.222
717	0.222
717	0.222
718	0.221
718	0.221
719	0.221
719	0.222
720	0.222
720	0.223
720	0.223
721	0.224
721	0.224
722	0.225
722	0.225
723	0.226
723	0.226
723	0.226
724	0.226
724	0.226
725	0.225
725	0.224
726	0.223
726	0.223
727	0.223
727	0.223
727	0.223
728	0.223
728	0.223
729	0.223
729	0.224
730	0.224
730	0.225
730	0.226
731	0.226
731	0.227
732	0.227
732	0.228
733	0.228
733	0.228
734	0.228
734	0.228
734	0.229
735	0.229
735	0.229
736	0.228
736	0.228
737	0.228
737	0.228
737	0.228
738	0.227
738	0.226
739	0.226
739	0.225
740	0.225
740	0.225
741	0.226
741	0.226
741	0.226
742	0.226
742	0.226
743	0.227
743	0.228
744	0.228
744	0.228
744	0.229
745	0.229
745	0.229
746	0.229
746	0.229
747	0.229
747	0.23
748	0.23
748	0.23
748	0.23
749	0.23
749	0.23
750	0.231
750	0.231
751	0.231
751	0.231
751	0.231
752	0.231
752	0.23
753	0.229
753	0.229
754	0.229
754	0.228
754	0.228
755	0.227
755	0.227
756	0.226
756	0.225
757	0.225
757	0.225
758	0.225
758	0.226
758	0.226
759	0.226
759	0.226
760	0.226
760	0.226
761	0.227
761	0.227
761	0.228
762	0.228
762	0.228
763	0.228
763	0.228
764	0.228
764	0.228
764	0.229
765	0.229
765	0.228
766	0.229
766	0.229
767	0.228
767	0.228
768	0.228
768	0.228
768	0.228
769	0.228
769	0.228
770	0.228
770	0.229
771	0.229
771	0.229
771	0.229
772	0.229
772	0.229
773	0.23
773	0.23
774	0.23
774	0.231
775	0.231
775	0.231
775	0.232
776	0.232
776	0.233
777	0.233
777	0.233
778	0.233
778	0.233
778	0.233
779	0.233
779	0.232
780	0.231
780	0.231
781	0.231
781	0.23
781	0.23
782	0.23
782	0.23
783	0.231
783	0.231
784	0.231
784	0.231
784	0.232
785	0.232
785	0.232
786	0.232
786	0.232
787	0.232
787	0.232
788	0.232
788	0.231
788	0.231
789	0.231
789	0.231
790	0.231
790	0.231
791	0.231
791	0.231
791	0.232
792	0.233
792	0.233
793	0.233
793	0.234
794	0.234
794	0.233
794	0.233
795	0.233
795	0.234
796	0.234
796	0.234
797	0.233
797	0.233
797	0.233
798	0.233
798	0.233
799	0.233
799	0.233
800	0.233
800	0.233
801	0.233
801	0.233
801	0.233
802	0.233
802	0.233
803	0.233
803	0.234
804	0.234
804	0.235
804	0.235
805	0.235
805	0.235
806	0.235
806	0.236
807	0.236
807	0.235
807	0.235
808	0.235
808	0.235
809	0.235
809	0.235
810	0.235
810	0.235
810	0.235
811	0.235
811	0.235
812	0.236
812	0.236
813	0.236
813	0.236
813	0.237
814	0.237
814	0.238
815	0.238
815	0.238
816	0.238
816	0.238
817	0.237
817	0.237
817	0.236
818	0.236
818	0.236
819	0.235
819	0.234
820	0.233
820	0.233
820	0.233
821	0.233
821	0.234
822	0.234
822	0.235
823	0.235
823	0.236
823	0.237
824	0.238
824	0.24
825	0.241
825	0.242
826	0.243
826	0.243
826	0.243
827	0.243
827	0.244
828	0.244
828	0.243
829	0.243
829	0.243
829	0.243
830	0.243
830	0.243
831	0.243
831	0.244
832	0.243
832	0.244
832	0.244
833	0.244
833	0.244
834	0.244
834	0.244
835	0.244
835	0.243
835	0.243
836	0.243
836	0.243
837	0.242
837	0.242
838	0.241
838	0.241
839	0.24
839	0.239
839	0.239
840	0.238
840	0.238
841	0.237
841	0.237
842	0.236
842	0.236
842	0.236
843	0.236
843	0.236
844	0.236
844	0.237
845	0.237
845	0.237
845	0.237
846	0.238
846	0.238
847	0.238
847	0.239
848	0.239
848	0.239
848	0.239
849	0.239
849	0.238
850	0.238
850	0.237
851	0.237
851	0.237
851	0.236
852	0.236
852	0.235
853	0.235
853	0.235
854	0.235
854	0.236
854	0.237
855	0.237
855	0.238
856	0.239
856	0.24
857	0.241
857	0.241
857	0.242
858	0.242
858	0.241
859	0.241
859	0.24
860	0.239
860	0.238
860	0.237
861	0.236
861	0.235
862	0.234
862	0.233
863	0.232
863	0.232
863	0.231
864	0.231
864	0.231
865	0.232
865	0.232
866	0.232
866	0.232
866	0.232
867	0.232
867	0.233
868	0.233
868	0.232
869	0.232
869	0.232
869	0.231
870	0.23
870	0.23
871	0.23
871	0.229
872	0.229
872	0.229
872	0.229
873	0.229
873	0.229
874	0.229
874	0.229
875	0.228
875	0.228
875	0.228
876	0.228
876	0.228
877	0.227
877	0.227
878	0.227
878	0.227
878	0.228
879	0.228
879	0.228
880	0.229
880	0.229
881	0.229
881	0.229
881	0.229
882	0.229
882	0.229
883	0.229
883	0.229
884	0.229
884	0.229
884	0.229
885	0.229
885	0.229
886	0.228
886	0.228
887	0.227
887	0.226
887	0.226
888	0.225
888	0.225
889	0.224
889	0.224
890	0.224
890	0.223
890	0.223
891	0.223
891	0.222
892	0.222
892	0.222
893	0.222
893	0.221
893	0.221
894	0.22
894	0.219
895	0.219
895	0.218
895	0.218
896	0.218
896	0.217
897	0.216
897	0.215
898	0.215
898	0.214
898	0.214
899	0.213
899	0.213
900	0.213
900	0.213
901	0.213
901	0.213
901	0.213
902	0.213
902	0.213
903	0.213
903	0.213
904	0.213
904	0.213
904	0.213
905	0.213
905	0.213
906	0.213
906	0.213
907	0.214
907	0.215
907	0.215
908	0.216
908	0.216
909	0.217
909	0.217
910	0.217
910	0.217
910	0.217
911	0.216
911	0.216
912	0.215
912	0.215
913	0.214
913	0.213
913	0.213
914	0.212
914	0.212
915	0.212
915	0.211
916	0.211
916	0.211
916	0.21
917	0.21
917	0.209
918	0.209
918	0.208
918	0.207
919	0.207
919	0.206
920	0.205
920	0.205
921	0.204
921	0.204
921	0.203
922	0.203
922	0.203
923	0.203
923	0.203
924	0.203
924	0.203
924	0.204
925	0.204
925	0.204
926	0.204
926	0.204
927	0.204
927	0.204
927	0.203
928	0.203
928	0.202
929	0.202
929	0.201
930	0.2
930	0.2
930	0.2
931	0.199
931	0.199
932	0.199
932	0.199
933	0.199
933	0.199
933	0.199
934	0.199
934	0.199
935	0.199
935	0.199
935	0.199
936	0.198
936	0.198
937	0.198
937	0.197
938	0.196
938	0.195
938	0.195
939	0.194
939	0.193
940	0.193
940	0.192
941	0.191
941	0.191
941	0.19
942	0.19
942	0.19
943	0.189
943	0.189
944	0.189
944	0.188
944	0.188
945	0.188
945	0.188
946	0.188
946	0.187
946	0.187
947	0.187
947	0.187
948	0.187
948	0.187
949	0.187
949	0.187
949	0.187
950	0.186
950	0.186
951	0.186
951	0.185
952	0.184
952	0.183
952	0.182
953	0.181
953	0.18
954	0.179
954	0.178
955	0.177
955	0.176
955	0.175
956	0.175
956	0.175
957	0.174
957	0.174
957	0.174
958	0.174
958	0.174
959	0.174
959	0.174
960	0.174
960	0.174
960	0.174
961	0.173
961	0.173
962	0.173
962	0.172
963	0.172
963	0.171
963	0.171
964	0.171
964	0.171
965	0.171
965	0.17
966	0.171
966	0.171
966	0.171
967	0.171
967	0.171
968	0.171
968	0.171
968	0.171
969	0.171
969	0.171
970	0.17
970	0.17
971	0.169
971	0.169
971	0.169
972	0.169
972	0.168
973	0.168
973	0.168
974	0.168
974	0.168
974	0.168
975	0.168
975	0.168
976	0.168
976	0.168
976	0.168
977	0.168
977	0.167
978	0.167
978	0.167
979	0.166
979	0.166
979	0.166
980	0.165
980	0.164
981	0.164
981	0.163
982	0.163
982	0.162
982	0.162
983	0.161
983	0.161
984	0.161
984	0.16
984	0.16
985	0.159
985	0.159
986	0.159
986	0.158
987	0.158
987	0.157
987	0.157
988	0.156
988	0.156
989	0.155
989	0.155
990	0.154
990	0.153
990	0.153
991	0.152
991	0.152
992	0.151
992	0.151
992	0.15
993	0.149
993	0.149
994	0.148
994	0.148
995	0.147
995	0.147
995	0.147
996	0.146
996	0.146
997	0.146
997	0.146
997	0.147
998	0.147
998	0.148
999	0.148
999	0.149
1000	0.15
1000	0.15
1000	0.15
1001	0.15
1001	0.151
1002	0.151
1002	0.15
1003	0.15
1003	0.149
1003	0.149
1004	0.148
1004	0.147
1005	0.146
1005	0.146
1005	0.145
1006	0.144
1006	0.144
1007	0.143
1007	0.143
1008	0.142
1008	0.142
1008	0.142
1009	0.142
1009	0.142
1010	0.142
1010	0.142
1010	0.142
1011	0.142
1011	0.142
1012	0.142
1012	0.142
1013	0.142
1013	0.141
1013	0.141
1014	0.141
1014	0.141
1015	0.141
1015	0.14
1016	0.14
1016	0.14
1016	0.139
1017	0.138
1017	0.138
1018	0.137
1018	0.137
1018	0.137
1019	0.136
1019	0.136
1020	0.136
1020	0.135
1021	0.135
1021	0.136
1021	0.136
1022	0.136
1022	0.136
1023	0.136
1023	0.136
1023	0.136
1024	0.136
1024	0.136
1025	0.136
1025	0.135
1026	0.135
1026	0.135
1026	0.134
1027	0.134
1027	0.134
1028	0.133
1028	0.133
1028	0.133
1029	0.133
1029	0.132
1030	0.133
1030	0.133
1031	0.133
1031	0.133
1031	0.133
1032	0.133
1032	0.132
1033	0.132
1033	0.132
1033	0.132
1034	0.132
1034	0.131
1035	0.131
1035	0.13
1036	0.13
1036	0.129
1036	0.13
1037	0.129
1037	0.129
1038	0.129
1038	0.128
1039	0.128
1039	0.128
1039	0.128
1040	0.128
1040	0.128
1041	0.129
1041	0.128
1041	0.128
1042	0.129
1042	0.129
1043	0.129
1043	0.129
1044	0.129
1044	0.129
1044	0.129
1045	0.13
1045	0.13
1046	0.13
1046	0.13
1046	0.13
1047	0.131
1047	0.131
1048	0.131
1048	0.132
1049	0.132
1049	0.132
1049	0.133
1050	0.133
1050	0.133
1051	0.132
1051	0.132
1051	0.132
1052	0.131
1052	0.131
1053	0.13
1053	0.129
1053	0.129
1054	0.128
1054	0.127
1055	0.126
1055	0.126
1056	0.125
1056	0.124
1056	0.123
1057	0.122
1057	0.121
1058	0.121
1058	0.119
1058	0.119
1059	0.118
1059	0.117
1060	0.116
1060	0.116
1061	0.115
1061	0.115
1061	0.114
1062	0.114
1062	0.113
1063	0.113
1063	0.112
1063	0.112
1064	0.111
1064	0.111
1065	0.111
1065	0.11
1066	0.11
1066	0.109
1066	0.109
1067	0.109
1067	0.109
1068	0.108
1068	0.108
1068	0.108
1069	0.107
1069	0.107
1070	0.106
1070	0.106
1071	0.106
1071	0.105
1071	0.104
1072	0.104
1072	0.103
1073	0.102
1073	0.102
1073	0.102
1074	0.102
1074	0.102
1075	0.102
1075	0.102
1076	0.103
1076	0.103
1076	0.103
1077	0.104
1077	0.104
1078	0.104
1078	0.104
1078	0.104
1079	0.103
1079	0.103
1080	0.102
1080	0.102
1080	0.101
1081	0.101
1081	0.101
1082	0.101
1082	0.101
1083	0.101
1083	0.101
1083	0.101
1084	0.101
1084	0.101
1085	0.101
1085	0.101
1085	0.101
1086	0.101
1086	0.1
1087	0.1
1087	0.099
1088	0.099
1088	0.099
1088	0.099
1089	0.098
1089	0.097
1090	0.096
1090	0.095
1090	0.094
1091	0.094
1091	0.093
1092	0.093
1092	0.093
1092	0.092
1093	0.092
1093	0.092
1094	0.092
1094	0.092
1095	0.091
1095	0.091
1095	0.09
1096	0.09
1096	0.089
1097	0.088
1097	0.088
1097	0.088
1098	0.087
1098	0.086
1099	0.086
1099	0.086
1100	0.085
1100	0.085
1100	0.084
1101	0.083
1101	0.083
1102	0.083
1102	0.082
1102	0.081
1103	0.081
1103	0.08
1104	0.079
1104	0.079
1104	0.078
1105	0.077
1105	0.076
1106	0.073
1106	0.074
1107	0.073
1107	0.072
1107	0.071
1108	0.069
1108	0.068
1109	0.067
1109	0.066
1109	0.067
1110	0.069
1110	0.07
1111	0.069
1111	0.064
