Data from reversibility-20sec_Absorbance__4367__000000000004367.txt Node

Date: Wed Dec 06 12:28:45 CET 2023
User: Marek
Spectrometer: MAYP115816
Trigger mode: 0
Integration Time (sec): 2.000000E-1
Scans to average: 10
Electric dark correction enabled: true
Nonlinearity correction enabled: true
Boxcar width: 5
XAxis mode: Wavelengths
Number of Pixels in Spectrum: 2068
>>>>>Begin Spectral Data<<<<<
199	-0.163
199	-0.14
200	-0.074
200	-0.018
201	0.007
201	0.024
202	0.038
202	0.046
203	0.055
203	0.056
204	0.069
204	0.083
205	0.097
205	0.104
205	0.099
206	0.101
206	0.099
207	0.102
207	0.102
208	0.098
208	0.102
209	0.105
209	0.102
210	0.103
210	0.103
211	0.105
211	0.107
212	0.105
212	0.103
213	0.106
213	0.11
213	0.107
214	0.11
214	0.113
215	0.112
215	0.112
216	0.112
216	0.109
217	0.114
217	0.117
218	0.114
218	0.119
219	0.123
219	0.123
220	0.124
220	0.124
221	0.124
221	0.129
221	0.133
222	0.139
222	0.143
223	0.149
223	0.149
224	0.154
224	0.162
225	0.171
225	0.182
226	0.192
226	0.202
227	0.214
227	0.221
228	0.236
228	0.252
229	0.271
229	0.294
229	0.316
230	0.338
230	0.365
231	0.397
231	0.432
232	0.467
232	0.512
233	0.552
233	0.602
234	0.65
234	0.702
235	0.754
235	0.808
236	0.861
236	0.91
236	0.964
237	1.017
237	1.066
238	1.114
238	1.159
239	1.207
239	1.248
240	1.29
240	1.327
241	1.36
241	1.398
242	1.428
242	1.459
243	1.49
243	1.516
243	1.54
244	1.562
244	1.582
245	1.6
245	1.625
246	1.645
246	1.662
247	1.675
247	1.69
248	1.702
248	1.717
249	1.727
249	1.732
250	1.741
250	1.749
250	1.751
251	1.756
251	1.757
252	1.762
252	1.762
253	1.763
253	1.76
254	1.76
254	1.764
255	1.761
255	1.76
256	1.759
256	1.757
257	1.758
257	1.756
258	1.756
258	1.754
258	1.753
259	1.751
259	1.749
260	1.747
260	1.749
261	1.749
261	1.753
262	1.754
262	1.757
263	1.76
263	1.763
264	1.765
264	1.768
265	1.77
265	1.773
265	1.775
266	1.775
266	1.775
267	1.773
267	1.773
268	1.772
268	1.773
269	1.774
269	1.773
270	1.773
270	1.771
271	1.768
271	1.768
272	1.764
272	1.761
272	1.759
273	1.753
273	1.746
274	1.739
274	1.732
275	1.725
275	1.718
276	1.71
276	1.702
277	1.696
277	1.686
278	1.674
278	1.661
278	1.647
279	1.63
279	1.609
280	1.582
280	1.55
281	1.512
281	1.47
282	1.426
282	1.382
283	1.34
283	1.298
284	1.258
284	1.22
285	1.184
285	1.152
285	1.123
286	1.097
286	1.076
287	1.057
287	1.041
288	1.027
288	1.015
289	1.005
289	0.996
290	0.989
290	0.983
291	0.977
291	0.973
292	0.968
292	0.964
292	0.961
293	0.957
293	0.954
294	0.951
294	0.949
295	0.946
295	0.943
296	0.94
296	0.938
297	0.935
297	0.932
298	0.929
298	0.927
298	0.924
299	0.922
299	0.919
300	0.917
300	0.914
301	0.912
301	0.91
302	0.908
302	0.906
303	0.904
303	0.902
304	0.9
304	0.897
305	0.895
305	0.893
305	0.891
306	0.889
306	0.887
307	0.885
307	0.882
308	0.88
308	0.878
309	0.875
309	0.873
310	0.87
310	0.867
311	0.865
311	0.861
311	0.859
312	0.855
312	0.852
313	0.849
313	0.845
314	0.842
314	0.838
315	0.834
315	0.83
316	0.826
316	0.822
317	0.817
317	0.813
318	0.808
318	0.803
318	0.798
319	0.793
319	0.788
320	0.782
320	0.777
321	0.771
321	0.765
322	0.759
322	0.753
323	0.747
323	0.74
324	0.734
324	0.728
324	0.721
325	0.715
325	0.708
326	0.701
326	0.695
327	0.688
327	0.681
328	0.675
328	0.668
329	0.661
329	0.654
330	0.647
330	0.641
330	0.634
331	0.627
331	0.62
332	0.614
332	0.607
333	0.6
333	0.593
334	0.586
334	0.58
335	0.573
335	0.566
336	0.56
336	0.553
336	0.547
337	0.541
337	0.535
338	0.529
338	0.523
339	0.517
339	0.511
340	0.505
340	0.5
341	0.494
341	0.489
342	0.484
342	0.478
342	0.473
343	0.468
343	0.463
344	0.458
344	0.453
345	0.449
345	0.444
346	0.44
346	0.435
347	0.431
347	0.427
348	0.423
348	0.419
348	0.415
349	0.411
349	0.408
350	0.404
350	0.401
351	0.397
351	0.394
352	0.391
352	0.388
353	0.385
353	0.382
354	0.38
354	0.377
354	0.374
355	0.371
355	0.368
356	0.365
356	0.363
357	0.359
357	0.357
358	0.355
358	0.352
359	0.35
359	0.348
360	0.346
360	0.344
360	0.342
361	0.34
361	0.339
362	0.338
362	0.336
363	0.334
363	0.333
364	0.331
364	0.329
365	0.327
365	0.325
366	0.324
366	0.322
366	0.32
367	0.319
367	0.317
368	0.316
368	0.314
369	0.313
369	0.312
370	0.31
370	0.309
371	0.308
371	0.307
372	0.305
372	0.304
372	0.303
373	0.303
373	0.302
374	0.301
374	0.3
375	0.299
375	0.298
376	0.297
376	0.296
377	0.295
377	0.294
378	0.293
378	0.293
378	0.292
379	0.291
379	0.291
380	0.29
380	0.289
381	0.288
381	0.288
382	0.287
382	0.287
383	0.286
383	0.286
383	0.285
384	0.284
384	0.284
385	0.284
385	0.283
386	0.283
386	0.283
387	0.282
387	0.282
388	0.281
388	0.281
389	0.281
389	0.28
389	0.28
390	0.279
390	0.279
391	0.279
391	0.278
392	0.278
392	0.278
393	0.277
393	0.277
394	0.277
394	0.277
394	0.276
395	0.276
395	0.276
396	0.275
396	0.275
397	0.274
397	0.274
398	0.274
398	0.273
399	0.273
399	0.273
400	0.273
400	0.272
400	0.272
401	0.272
401	0.272
402	0.271
402	0.271
403	0.271
403	0.271
404	0.271
404	0.27
405	0.27
405	0.27
405	0.27
406	0.269
406	0.269
407	0.269
407	0.268
408	0.268
408	0.267
409	0.267
409	0.267
410	0.266
410	0.266
411	0.266
411	0.266
411	0.266
412	0.266
412	0.265
413	0.265
413	0.265
414	0.265
414	0.264
415	0.264
415	0.263
416	0.263
416	0.263
416	0.263
417	0.263
417	0.262
418	0.262
418	0.262
419	0.261
419	0.261
420	0.261
420	0.26
421	0.26
421	0.259
421	0.259
422	0.259
422	0.258
423	0.258
423	0.258
424	0.257
424	0.257
425	0.257
425	0.257
426	0.257
426	0.256
427	0.256
427	0.256
427	0.256
428	0.255
428	0.255
429	0.255
429	0.254
430	0.254
430	0.254
431	0.253
431	0.253
432	0.253
432	0.253
432	0.252
433	0.252
433	0.252
434	0.252
434	0.252
435	0.251
435	0.251
436	0.251
436	0.251
437	0.251
437	0.25
437	0.25
438	0.25
438	0.25
439	0.25
439	0.249
440	0.249
440	0.249
441	0.249
441	0.249
442	0.248
442	0.248
442	0.248
443	0.248
443	0.248
444	0.248
444	0.248
445	0.247
445	0.247
446	0.247
446	0.246
447	0.246
447	0.246
447	0.246
448	0.246
448	0.245
449	0.245
449	0.245
450	0.245
450	0.245
451	0.244
451	0.244
452	0.244
452	0.244
452	0.244
453	0.244
453	0.243
454	0.243
454	0.243
455	0.242
455	0.242
456	0.242
456	0.242
457	0.242
457	0.241
458	0.241
458	0.241
458	0.241
459	0.24
459	0.24
460	0.24
460	0.24
461	0.24
461	0.239
462	0.239
462	0.239
463	0.239
463	0.239
463	0.238
464	0.238
464	0.238
465	0.237
465	0.237
466	0.237
466	0.237
467	0.237
467	0.237
467	0.237
468	0.237
468	0.236
469	0.236
469	0.236
470	0.237
470	0.236
471	0.236
471	0.236
472	0.236
472	0.236
472	0.236
473	0.237
473	0.237
474	0.236
474	0.236
475	0.236
475	0.236
476	0.236
476	0.236
477	0.236
477	0.236
477	0.236
478	0.236
478	0.236
479	0.236
479	0.236
480	0.236
480	0.236
481	0.235
481	0.235
482	0.235
482	0.236
482	0.236
483	0.236
483	0.236
484	0.236
484	0.236
485	0.236
485	0.236
486	0.236
486	0.237
487	0.237
487	0.237
487	0.237
488	0.237
488	0.237
489	0.237
489	0.238
490	0.238
490	0.239
491	0.239
491	0.239
492	0.24
492	0.24
492	0.24
493	0.241
493	0.241
494	0.241
494	0.242
495	0.242
495	0.242
496	0.243
496	0.243
496	0.244
497	0.244
497	0.245
498	0.245
498	0.246
499	0.246
499	0.246
500	0.247
500	0.247
501	0.248
501	0.248
501	0.248
502	0.249
502	0.249
503	0.25
503	0.25
504	0.25
504	0.251
505	0.251
505	0.251
506	0.251
506	0.252
506	0.252
507	0.252
507	0.253
508	0.253
508	0.254
509	0.254
509	0.254
510	0.255
510	0.256
511	0.256
511	0.257
511	0.257
512	0.258
512	0.258
513	0.258
513	0.259
514	0.259
514	0.26
515	0.261
515	0.261
515	0.261
516	0.262
516	0.263
517	0.263
517	0.264
518	0.264
518	0.264
519	0.265
519	0.265
520	0.265
520	0.265
520	0.265
521	0.265
521	0.265
522	0.265
522	0.265
523	0.266
523	0.266
524	0.266
524	0.267
524	0.267
525	0.267
525	0.267
526	0.267
526	0.267
527	0.267
527	0.268
528	0.267
528	0.268
529	0.268
529	0.268
529	0.268
530	0.267
530	0.268
531	0.268
531	0.268
532	0.268
532	0.267
533	0.267
533	0.267
533	0.267
534	0.267
534	0.267
535	0.267
535	0.267
536	0.267
536	0.267
537	0.266
537	0.266
538	0.266
538	0.266
538	0.266
539	0.266
539	0.266
540	0.266
540	0.266
541	0.265
541	0.265
542	0.265
542	0.264
542	0.264
543	0.264
543	0.264
544	0.263
544	0.263
545	0.263
545	0.263
546	0.263
546	0.262
547	0.262
547	0.261
547	0.261
548	0.261
548	0.261
549	0.26
549	0.26
550	0.259
550	0.259
551	0.258
551	0.258
551	0.258
552	0.258
552	0.257
553	0.257
553	0.257
554	0.257
554	0.256
555	0.256
555	0.255
556	0.255
556	0.254
556	0.254
557	0.254
557	0.254
558	0.254
558	0.254
559	0.254
559	0.254
560	0.254
560	0.254
560	0.253
561	0.254
561	0.253
562	0.252
562	0.252
563	0.251
563	0.25
564	0.249
564	0.249
564	0.248
565	0.248
565	0.247
566	0.247
566	0.247
567	0.247
567	0.247
568	0.247
568	0.247
568	0.247
569	0.247
569	0.246
570	0.246
570	0.245
571	0.244
571	0.244
572	0.243
572	0.243
573	0.243
573	0.242
573	0.242
574	0.241
574	0.241
575	0.241
575	0.241
576	0.241
576	0.241
577	0.24
577	0.239
577	0.239
578	0.238
578	0.238
579	0.238
579	0.238
580	0.237
580	0.236
581	0.236
581	0.235
581	0.236
582	0.236
582	0.236
583	0.236
583	0.236
584	0.235
584	0.234
585	0.234
585	0.234
585	0.233
586	0.233
586	0.233
587	0.232
587	0.231
588	0.23
588	0.23
589	0.23
589	0.229
590	0.229
590	0.229
590	0.23
591	0.23
591	0.23
592	0.229
592	0.229
593	0.228
593	0.228
594	0.228
594	0.227
594	0.226
595	0.226
595	0.225
596	0.225
596	0.225
597	0.226
597	0.226
598	0.226
598	0.226
598	0.226
599	0.226
599	0.226
600	0.225
600	0.225
601	0.225
601	0.225
602	0.224
602	0.224
602	0.223
603	0.223
603	0.224
604	0.224
604	0.223
605	0.224
605	0.223
606	0.223
606	0.222
606	0.221
607	0.221
607	0.221
608	0.221
608	0.22
609	0.219
609	0.219
610	0.218
610	0.218
610	0.218
611	0.218
611	0.218
612	0.218
612	0.218
613	0.219
613	0.219
614	0.218
614	0.218
614	0.218
615	0.218
615	0.218
616	0.218
616	0.217
617	0.217
617	0.217
618	0.217
618	0.217
618	0.217
619	0.217
619	0.217
620	0.217
620	0.217
621	0.216
621	0.216
622	0.215
622	0.215
622	0.215
623	0.214
623	0.214
624	0.213
624	0.213
625	0.212
625	0.212
626	0.212
626	0.212
626	0.212
627	0.212
627	0.212
628	0.211
628	0.211
629	0.211
629	0.211
630	0.211
630	0.211
630	0.211
631	0.212
631	0.211
632	0.211
632	0.211
633	0.211
633	0.211
634	0.211
634	0.211
634	0.211
635	0.21
635	0.21
636	0.209
636	0.209
637	0.209
637	0.209
638	0.209
638	0.208
638	0.208
639	0.207
639	0.207
640	0.207
640	0.207
641	0.207
641	0.207
642	0.206
642	0.206
642	0.207
643	0.207
643	0.207
644	0.207
644	0.207
645	0.207
645	0.207
646	0.207
646	0.207
646	0.207
647	0.207
647	0.207
648	0.206
648	0.206
649	0.206
649	0.206
650	0.206
650	0.206
650	0.206
651	0.206
651	0.206
652	0.206
652	0.206
653	0.206
653	0.208
653	0.215
654	0.168
654	0.134
655	0.135
655	0.135
656	0.135
656	0.136
657	0.136
657	0.136
657	0.136
658	0.135
658	0.123
659	0.156
659	0.201
660	0.206
660	0.206
661	0.206
661	0.206
661	0.205
662	0.205
662	0.205
663	0.205
663	0.205
664	0.205
664	0.205
665	0.205
665	0.204
665	0.204
666	0.204
666	0.204
667	0.204
667	0.204
668	0.205
668	0.205
669	0.205
669	0.205
669	0.206
670	0.206
670	0.206
671	0.206
671	0.206
672	0.206
672	0.205
672	0.205
673	0.205
673	0.205
674	0.205
674	0.204
675	0.204
675	0.204
676	0.204
676	0.205
676	0.205
677	0.205
677	0.205
678	0.205
678	0.204
679	0.204
679	0.204
680	0.204
680	0.204
680	0.204
681	0.204
681	0.205
682	0.205
682	0.205
683	0.206
683	0.207
684	0.207
684	0.207
684	0.207
685	0.207
685	0.208
686	0.208
686	0.208
687	0.207
687	0.207
687	0.207
688	0.207
688	0.207
689	0.208
689	0.208
690	0.208
690	0.207
691	0.207
691	0.207
691	0.208
692	0.208
692	0.208
693	0.208
693	0.208
694	0.208
694	0.208
695	0.209
695	0.21
695	0.21
696	0.21
696	0.21
697	0.21
697	0.21
698	0.21
698	0.21
698	0.21
699	0.211
699	0.21
700	0.209
700	0.21
701	0.21
701	0.21
702	0.21
702	0.21
702	0.21
703	0.21
703	0.21
704	0.21
704	0.21
705	0.211
705	0.211
705	0.211
706	0.211
706	0.211
707	0.211
707	0.211
708	0.211
708	0.211
709	0.211
709	0.21
709	0.21
710	0.21
710	0.21
711	0.211
711	0.211
712	0.211
712	0.211
713	0.212
713	0.212
713	0.212
714	0.212
714	0.212
715	0.212
715	0.212
716	0.211
716	0.211
716	0.211
717	0.21
717	0.21
718	0.209
718	0.209
719	0.209
719	0.21
720	0.21
720	0.211
720	0.212
721	0.212
721	0.213
722	0.214
722	0.214
723	0.215
723	0.215
723	0.215
724	0.215
724	0.215
725	0.214
725	0.213
726	0.213
726	0.212
727	0.212
727	0.212
727	0.212
728	0.211
728	0.211
729	0.212
729	0.212
730	0.212
730	0.213
730	0.213
731	0.213
731	0.214
732	0.214
732	0.215
733	0.215
733	0.215
734	0.215
734	0.215
734	0.215
735	0.216
735	0.215
736	0.215
736	0.215
737	0.215
737	0.215
737	0.214
738	0.214
738	0.213
739	0.212
739	0.212
740	0.212
740	0.212
741	0.212
741	0.213
741	0.213
742	0.213
742	0.213
743	0.214
743	0.215
744	0.215
744	0.216
744	0.216
745	0.216
745	0.216
746	0.216
746	0.216
747	0.216
747	0.216
748	0.216
748	0.216
748	0.216
749	0.216
749	0.217
750	0.217
750	0.217
751	0.217
751	0.217
751	0.217
752	0.217
752	0.216
753	0.216
753	0.216
754	0.216
754	0.215
754	0.215
755	0.215
755	0.216
756	0.215
756	0.215
757	0.215
757	0.215
758	0.215
758	0.216
758	0.216
759	0.217
759	0.217
760	0.217
760	0.216
761	0.217
761	0.217
761	0.218
762	0.217
762	0.217
763	0.217
763	0.217
764	0.217
764	0.217
764	0.217
765	0.216
765	0.216
766	0.216
766	0.217
767	0.217
767	0.216
768	0.215
768	0.215
768	0.216
769	0.216
769	0.216
770	0.216
770	0.217
771	0.217
771	0.218
771	0.218
772	0.219
772	0.22
773	0.221
773	0.221
774	0.221
774	0.221
775	0.221
775	0.221
775	0.221
776	0.22
776	0.22
777	0.22
777	0.22
778	0.22
778	0.219
778	0.219
779	0.219
779	0.219
780	0.218
780	0.218
781	0.218
781	0.218
781	0.218
782	0.218
782	0.218
783	0.219
783	0.22
784	0.22
784	0.22
784	0.221
785	0.221
785	0.221
786	0.221
786	0.222
787	0.222
787	0.222
788	0.222
788	0.221
788	0.221
789	0.221
789	0.221
790	0.222
790	0.222
791	0.222
791	0.221
791	0.221
792	0.222
792	0.222
793	0.222
793	0.222
794	0.221
794	0.221
794	0.221
795	0.221
795	0.221
796	0.221
796	0.221
797	0.221
797	0.221
797	0.221
798	0.222
798	0.222
799	0.222
799	0.223
800	0.223
800	0.222
801	0.222
801	0.223
801	0.223
802	0.223
802	0.223
803	0.223
803	0.224
804	0.224
804	0.225
804	0.225
805	0.225
805	0.225
806	0.225
806	0.225
807	0.225
807	0.225
807	0.225
808	0.225
808	0.225
809	0.225
809	0.225
810	0.225
810	0.225
810	0.225
811	0.225
811	0.226
812	0.227
812	0.227
813	0.227
813	0.227
813	0.227
814	0.228
814	0.228
815	0.229
815	0.229
816	0.229
816	0.228
817	0.228
817	0.228
817	0.228
818	0.228
818	0.228
819	0.227
819	0.227
820	0.226
820	0.226
820	0.226
821	0.226
821	0.226
822	0.226
822	0.226
823	0.226
823	0.226
823	0.227
824	0.228
824	0.229
825	0.23
825	0.231
826	0.231
826	0.231
826	0.231
827	0.232
827	0.232
828	0.232
828	0.232
829	0.232
829	0.232
829	0.231
830	0.231
830	0.231
831	0.232
831	0.232
832	0.232
832	0.232
832	0.233
833	0.233
833	0.233
834	0.233
834	0.234
835	0.234
835	0.234
835	0.234
836	0.234
836	0.234
837	0.234
837	0.234
838	0.233
838	0.232
839	0.232
839	0.231
839	0.23
840	0.229
840	0.228
841	0.227
841	0.226
842	0.226
842	0.225
842	0.225
843	0.225
843	0.225
844	0.225
844	0.225
845	0.224
845	0.224
845	0.225
846	0.225
846	0.225
847	0.225
847	0.225
848	0.226
848	0.226
848	0.226
849	0.227
849	0.227
850	0.227
850	0.227
851	0.227
851	0.227
851	0.227
852	0.227
852	0.226
853	0.226
853	0.226
854	0.226
854	0.226
854	0.226
855	0.227
855	0.227
856	0.227
856	0.228
857	0.228
857	0.229
857	0.229
858	0.229
858	0.229
859	0.229
859	0.228
860	0.228
860	0.228
860	0.227
861	0.227
861	0.226
862	0.226
862	0.225
863	0.224
863	0.224
863	0.224
864	0.223
864	0.223
865	0.223
865	0.223
866	0.223
866	0.223
866	0.224
867	0.224
867	0.225
868	0.225
868	0.225
869	0.226
869	0.226
869	0.226
870	0.226
870	0.226
871	0.227
871	0.227
872	0.227
872	0.227
872	0.227
873	0.227
873	0.227
874	0.226
874	0.226
875	0.226
875	0.225
875	0.225
876	0.225
876	0.225
877	0.225
877	0.225
878	0.226
878	0.226
878	0.227
879	0.227
879	0.227
880	0.227
880	0.227
881	0.227
881	0.227
881	0.227
882	0.226
882	0.225
883	0.225
883	0.224
884	0.224
884	0.223
884	0.223
885	0.222
885	0.222
886	0.221
886	0.221
887	0.22
887	0.22
887	0.219
888	0.218
888	0.218
889	0.217
889	0.217
890	0.217
890	0.217
890	0.216
891	0.216
891	0.216
892	0.215
892	0.215
893	0.215
893	0.215
893	0.214
894	0.214
894	0.214
895	0.214
895	0.214
895	0.214
896	0.214
896	0.214
897	0.215
897	0.215
898	0.214
898	0.214
898	0.214
899	0.214
899	0.214
900	0.214
900	0.214
901	0.214
901	0.214
901	0.213
902	0.213
902	0.213
903	0.213
903	0.212
904	0.212
904	0.211
904	0.21
905	0.21
905	0.209
906	0.208
906	0.207
907	0.207
907	0.207
907	0.206
908	0.206
908	0.206
909	0.205
909	0.205
910	0.205
910	0.205
910	0.204
911	0.203
911	0.202
912	0.202
912	0.202
913	0.201
913	0.201
913	0.201
914	0.2
914	0.2
915	0.2
915	0.201
916	0.201
916	0.201
916	0.201
917	0.201
917	0.201
918	0.201
918	0.201
918	0.2
919	0.2
919	0.199
920	0.199
920	0.198
921	0.198
921	0.197
921	0.197
922	0.196
922	0.196
923	0.196
923	0.197
924	0.197
924	0.197
924	0.197
925	0.198
925	0.198
926	0.198
926	0.198
927	0.198
927	0.198
927	0.198
928	0.198
928	0.198
929	0.198
929	0.197
930	0.197
930	0.197
930	0.196
931	0.196
931	0.196
932	0.195
932	0.195
933	0.194
933	0.193
933	0.192
934	0.192
934	0.191
935	0.19
935	0.189
935	0.188
936	0.187
936	0.186
937	0.186
937	0.185
938	0.185
938	0.184
938	0.184
939	0.184
939	0.183
940	0.183
940	0.184
941	0.184
941	0.184
941	0.184
942	0.184
942	0.185
943	0.185
943	0.185
944	0.185
944	0.185
944	0.185
945	0.185
945	0.185
946	0.185
946	0.185
946	0.185
947	0.184
947	0.184
948	0.184
948	0.183
949	0.182
949	0.182
949	0.181
950	0.18
950	0.179
951	0.178
951	0.177
952	0.176
952	0.175
952	0.174
953	0.174
953	0.173
954	0.172
954	0.172
955	0.171
955	0.171
955	0.171
956	0.171
956	0.171
957	0.171
957	0.171
957	0.171
958	0.17
958	0.17
959	0.17
959	0.169
960	0.169
960	0.169
960	0.168
961	0.167
961	0.167
962	0.167
962	0.166
963	0.166
963	0.166
963	0.166
964	0.166
964	0.166
965	0.166
965	0.166
966	0.166
966	0.166
966	0.166
967	0.167
967	0.167
968	0.167
968	0.167
968	0.167
969	0.167
969	0.166
970	0.165
970	0.164
971	0.163
971	0.162
971	0.161
972	0.16
972	0.159
973	0.158
973	0.157
974	0.156
974	0.156
974	0.157
975	0.157
975	0.158
976	0.159
976	0.16
976	0.16
977	0.161
977	0.162
978	0.162
978	0.163
979	0.163
979	0.163
979	0.163
980	0.163
980	0.162
981	0.161
981	0.16
982	0.159
982	0.158
982	0.158
983	0.157
983	0.156
984	0.155
984	0.154
984	0.154
985	0.153
985	0.153
986	0.152
986	0.152
987	0.152
987	0.151
987	0.151
988	0.151
988	0.15
989	0.15
989	0.15
990	0.15
990	0.15
990	0.15
991	0.15
991	0.149
992	0.149
992	0.148
992	0.148
993	0.147
993	0.146
994	0.145
994	0.144
995	0.143
995	0.143
995	0.142
996	0.142
996	0.141
997	0.141
997	0.142
997	0.142
998	0.142
998	0.143
999	0.143
999	0.144
1000	0.144
1000	0.145
1000	0.145
1001	0.146
1001	0.146
1002	0.145
1002	0.145
1003	0.145
1003	0.144
1003	0.144
1004	0.143
1004	0.142
1005	0.141
1005	0.141
1005	0.14
1006	0.14
1006	0.139
1007	0.139
1007	0.139
1008	0.139
1008	0.139
1008	0.139
1009	0.139
1009	0.139
1010	0.138
1010	0.138
1010	0.138
1011	0.138
1011	0.137
1012	0.137
1012	0.136
1013	0.136
1013	0.135
1013	0.134
1014	0.133
1014	0.133
1015	0.132
1015	0.131
1016	0.131
1016	0.131
1016	0.13
1017	0.13
1017	0.129
1018	0.129
1018	0.129
1018	0.129
1019	0.129
1019	0.129
1020	0.13
1020	0.13
1021	0.13
1021	0.13
1021	0.13
1022	0.13
1022	0.13
1023	0.13
1023	0.13
1023	0.13
1024	0.13
1024	0.13
1025	0.13
1025	0.13
1026	0.13
1026	0.13
1026	0.13
1027	0.13
1027	0.13
1028	0.13
1028	0.13
1028	0.13
1029	0.131
1029	0.131
1030	0.131
1030	0.131
1031	0.131
1031	0.131
1031	0.131
1032	0.131
1032	0.131
1033	0.13
1033	0.13
1033	0.13
1034	0.129
1034	0.129
1035	0.128
1035	0.128
1036	0.127
1036	0.127
1036	0.126
1037	0.126
1037	0.125
1038	0.125
1038	0.124
1039	0.124
1039	0.124
1039	0.123
1040	0.123
1040	0.123
1041	0.123
1041	0.123
1041	0.123
1042	0.123
1042	0.123
1043	0.123
1043	0.123
1044	0.122
1044	0.122
1044	0.122
1045	0.122
1045	0.121
1046	0.121
1046	0.121
1046	0.121
1047	0.12
1047	0.12
1048	0.12
1048	0.12
1049	0.12
1049	0.119
1049	0.119
1050	0.119
1050	0.118
1051	0.118
1051	0.118
1051	0.117
1052	0.116
1052	0.116
1053	0.115
1053	0.114
1053	0.113
1054	0.112
1054	0.112
1055	0.111
1055	0.11
1056	0.11
1056	0.109
1056	0.108
1057	0.107
1057	0.106
1058	0.105
1058	0.104
1058	0.103
1059	0.102
1059	0.101
1060	0.1
1060	0.099
1061	0.099
1061	0.098
1061	0.098
1062	0.097
1062	0.097
1063	0.097
1063	0.097
1063	0.096
1064	0.096
1064	0.096
1065	0.095
1065	0.095
1066	0.095
1066	0.095
1066	0.095
1067	0.095
1067	0.094
1068	0.094
1068	0.094
1068	0.094
1069	0.094
1069	0.093
1070	0.093
1070	0.093
1071	0.092
1071	0.092
1071	0.092
1072	0.092
1072	0.093
1073	0.092
1073	0.092
1073	0.092
1074	0.093
1074	0.094
1075	0.094
1075	0.094
1076	0.095
1076	0.095
1076	0.095
1077	0.095
1077	0.095
1078	0.095
1078	0.095
1078	0.094
1079	0.093
1079	0.093
1080	0.092
1080	0.092
1080	0.091
1081	0.091
1081	0.091
1082	0.091
1082	0.091
1083	0.091
1083	0.091
1083	0.091
1084	0.091
1084	0.092
1085	0.092
1085	0.092
1085	0.092
1086	0.093
1086	0.092
1087	0.092
1087	0.091
1088	0.091
1088	0.091
1088	0.091
1089	0.09
1089	0.089
1090	0.089
1090	0.088
1090	0.086
1091	0.086
1091	0.085
1092	0.085
1092	0.085
1092	0.084
1093	0.083
1093	0.083
1094	0.083
1094	0.083
1095	0.082
1095	0.082
1095	0.082
1096	0.081
1096	0.081
1097	0.08
1097	0.079
1097	0.078
1098	0.077
1098	0.076
1099	0.075
1099	0.074
1100	0.073
1100	0.071
1100	0.07
1101	0.068
1101	0.067
1102	0.066
1102	0.065
1102	0.063
1103	0.062
1103	0.062
1104	0.061
1104	0.06
1104	0.059
1105	0.059
1105	0.057
1106	0.055
1106	0.053
1107	0.053
1107	0.052
1107	0.051
1108	0.049
1108	0.048
1109	0.046
1109	0.045
1109	0.044
1110	0.045
1110	0.046
1111	0.045
1111	0.044
