Data from reversibility-20sec_Absorbance__3725__000000000003725.txt Node

Date: Wed Dec 06 08:54:46 CET 2023
User: Marek
Spectrometer: MAYP115816
Trigger mode: 0
Integration Time (sec): 2.000000E-1
Scans to average: 10
Electric dark correction enabled: true
Nonlinearity correction enabled: true
Boxcar width: 5
XAxis mode: Wavelengths
Number of Pixels in Spectrum: 2068
>>>>>Begin Spectral Data<<<<<
199	-0.149
199	-0.12
200	-0.052
200	-0.001
201	0.029
201	0.043
202	0.049
202	0.055
203	0.065
203	0.068
204	0.08
204	0.093
205	0.104
205	0.107
205	0.106
206	0.104
206	0.105
207	0.109
207	0.109
208	0.106
208	0.107
209	0.111
209	0.112
210	0.111
210	0.114
211	0.115
211	0.118
212	0.116
212	0.117
213	0.122
213	0.128
213	0.129
214	0.132
214	0.133
215	0.135
215	0.137
216	0.138
216	0.137
217	0.14
217	0.143
218	0.143
218	0.143
219	0.147
219	0.147
220	0.152
220	0.151
221	0.149
221	0.151
221	0.158
222	0.165
222	0.169
223	0.175
223	0.179
224	0.184
224	0.191
225	0.2
225	0.215
226	0.227
226	0.238
227	0.247
227	0.257
228	0.27
228	0.287
229	0.305
229	0.329
229	0.352
230	0.379
230	0.405
231	0.435
231	0.473
232	0.512
232	0.554
233	0.598
233	0.644
234	0.694
234	0.746
235	0.798
235	0.849
236	0.898
236	0.953
236	1.003
237	1.056
237	1.106
238	1.154
238	1.201
239	1.247
239	1.288
240	1.326
240	1.364
241	1.403
241	1.436
242	1.47
242	1.501
243	1.531
243	1.556
243	1.58
244	1.603
244	1.626
245	1.646
245	1.666
246	1.685
246	1.703
247	1.715
247	1.727
248	1.744
248	1.759
249	1.771
249	1.777
250	1.785
250	1.792
250	1.797
251	1.801
251	1.802
252	1.81
252	1.81
253	1.809
253	1.806
254	1.805
254	1.807
255	1.807
255	1.807
256	1.807
256	1.806
257	1.806
257	1.802
258	1.802
258	1.803
258	1.804
259	1.804
259	1.802
260	1.799
260	1.8
261	1.797
261	1.799
262	1.801
262	1.801
263	1.803
263	1.802
264	1.801
264	1.801
265	1.802
265	1.803
265	1.803
266	1.804
266	1.804
267	1.801
267	1.801
268	1.8
268	1.8
269	1.802
269	1.802
270	1.801
270	1.799
271	1.797
271	1.797
272	1.795
272	1.794
272	1.791
273	1.786
273	1.782
274	1.777
274	1.771
275	1.765
275	1.76
276	1.753
276	1.745
277	1.737
277	1.728
278	1.717
278	1.706
278	1.692
279	1.677
279	1.661
280	1.64
280	1.617
281	1.588
281	1.556
282	1.522
282	1.486
283	1.451
283	1.416
284	1.381
284	1.346
285	1.313
285	1.282
285	1.254
286	1.229
286	1.207
287	1.187
287	1.17
288	1.156
288	1.143
289	1.131
289	1.122
290	1.114
290	1.106
291	1.099
291	1.094
292	1.088
292	1.084
292	1.079
293	1.074
293	1.07
294	1.066
294	1.062
295	1.059
295	1.055
296	1.052
296	1.048
297	1.045
297	1.042
298	1.039
298	1.035
298	1.032
299	1.029
299	1.026
300	1.023
300	1.02
301	1.017
301	1.015
302	1.012
302	1.009
303	1.006
303	1.004
304	1.001
304	0.999
305	0.996
305	0.993
305	0.99
306	0.988
306	0.985
307	0.982
307	0.979
308	0.976
308	0.973
309	0.97
309	0.967
310	0.964
310	0.961
311	0.958
311	0.955
311	0.951
312	0.948
312	0.944
313	0.94
313	0.936
314	0.932
314	0.928
315	0.924
315	0.92
316	0.915
316	0.911
317	0.906
317	0.901
318	0.896
318	0.891
318	0.886
319	0.88
319	0.875
320	0.869
320	0.864
321	0.858
321	0.852
322	0.846
322	0.84
323	0.833
323	0.827
324	0.821
324	0.815
324	0.808
325	0.802
325	0.795
326	0.789
326	0.782
327	0.775
327	0.769
328	0.762
328	0.755
329	0.748
329	0.741
330	0.734
330	0.727
330	0.72
331	0.713
331	0.706
332	0.7
332	0.693
333	0.686
333	0.679
334	0.673
334	0.666
335	0.659
335	0.653
336	0.646
336	0.64
336	0.634
337	0.627
337	0.621
338	0.615
338	0.609
339	0.603
339	0.597
340	0.592
340	0.586
341	0.58
341	0.575
342	0.569
342	0.564
342	0.559
343	0.554
343	0.549
344	0.544
344	0.539
345	0.535
345	0.53
346	0.526
346	0.521
347	0.517
347	0.513
348	0.509
348	0.505
348	0.501
349	0.497
349	0.494
350	0.49
350	0.487
351	0.483
351	0.48
352	0.477
352	0.474
353	0.47
353	0.468
354	0.464
354	0.462
354	0.458
355	0.455
355	0.452
356	0.45
356	0.446
357	0.443
357	0.441
358	0.438
358	0.435
359	0.433
359	0.43
360	0.428
360	0.426
360	0.424
361	0.422
361	0.42
362	0.419
362	0.417
363	0.415
363	0.413
364	0.411
364	0.409
365	0.407
365	0.405
366	0.403
366	0.401
366	0.399
367	0.397
367	0.395
368	0.394
368	0.392
369	0.39
369	0.389
370	0.387
370	0.386
371	0.384
371	0.383
372	0.381
372	0.38
372	0.379
373	0.378
373	0.376
374	0.375
374	0.374
375	0.373
375	0.372
376	0.371
376	0.37
377	0.369
377	0.367
378	0.366
378	0.365
378	0.364
379	0.363
379	0.362
380	0.361
380	0.36
381	0.359
381	0.358
382	0.358
382	0.357
383	0.356
383	0.356
383	0.355
384	0.354
384	0.354
385	0.353
385	0.352
386	0.352
386	0.351
387	0.35
387	0.35
388	0.349
388	0.348
389	0.348
389	0.347
389	0.347
390	0.346
390	0.345
391	0.344
391	0.344
392	0.343
392	0.343
393	0.342
393	0.342
394	0.341
394	0.34
394	0.34
395	0.339
395	0.339
396	0.339
396	0.338
397	0.338
397	0.337
398	0.337
398	0.336
399	0.335
399	0.335
400	0.335
400	0.334
400	0.334
401	0.333
401	0.333
402	0.332
402	0.332
403	0.331
403	0.33
404	0.33
404	0.33
405	0.329
405	0.329
405	0.329
406	0.328
406	0.328
407	0.327
407	0.327
408	0.327
408	0.326
409	0.326
409	0.325
410	0.325
410	0.324
411	0.324
411	0.324
411	0.323
412	0.323
412	0.323
413	0.322
413	0.322
414	0.322
414	0.321
415	0.321
415	0.32
416	0.32
416	0.32
416	0.32
417	0.319
417	0.319
418	0.319
418	0.318
419	0.318
419	0.317
420	0.317
420	0.316
421	0.316
421	0.315
421	0.315
422	0.315
422	0.314
423	0.314
423	0.313
424	0.313
424	0.312
425	0.312
425	0.312
426	0.312
426	0.311
427	0.311
427	0.311
427	0.31
428	0.31
428	0.31
429	0.31
429	0.309
430	0.309
430	0.308
431	0.308
431	0.308
432	0.308
432	0.308
432	0.308
433	0.308
433	0.308
434	0.307
434	0.307
435	0.307
435	0.307
436	0.307
436	0.307
437	0.307
437	0.307
437	0.307
438	0.307
438	0.306
439	0.306
439	0.306
440	0.306
440	0.305
441	0.305
441	0.305
442	0.305
442	0.304
442	0.304
443	0.304
443	0.304
444	0.304
444	0.303
445	0.303
445	0.303
446	0.303
446	0.303
447	0.303
447	0.303
447	0.303
448	0.303
448	0.303
449	0.303
449	0.303
450	0.303
450	0.303
451	0.303
451	0.303
452	0.303
452	0.303
452	0.304
453	0.304
453	0.304
454	0.303
454	0.303
455	0.303
455	0.303
456	0.303
456	0.303
457	0.303
457	0.303
458	0.303
458	0.303
458	0.303
459	0.303
459	0.304
460	0.304
460	0.304
461	0.304
461	0.304
462	0.304
462	0.304
463	0.305
463	0.305
463	0.305
464	0.305
464	0.305
465	0.305
465	0.305
466	0.305
466	0.305
467	0.305
467	0.306
467	0.306
468	0.306
468	0.307
469	0.307
469	0.308
470	0.308
470	0.309
471	0.309
471	0.31
472	0.31
472	0.31
472	0.311
473	0.311
473	0.312
474	0.312
474	0.312
475	0.313
475	0.313
476	0.314
476	0.314
477	0.315
477	0.316
477	0.316
478	0.317
478	0.318
479	0.319
479	0.319
480	0.32
480	0.321
481	0.321
481	0.322
482	0.322
482	0.323
482	0.324
483	0.325
483	0.326
484	0.327
484	0.327
485	0.328
485	0.329
486	0.33
486	0.331
487	0.332
487	0.333
487	0.334
488	0.335
488	0.336
489	0.337
489	0.339
490	0.34
490	0.341
491	0.343
491	0.345
492	0.346
492	0.347
492	0.349
493	0.35
493	0.352
494	0.353
494	0.354
495	0.356
495	0.357
496	0.358
496	0.36
496	0.362
497	0.363
497	0.364
498	0.366
498	0.367
499	0.368
499	0.37
500	0.372
500	0.373
501	0.375
501	0.376
501	0.377
502	0.379
502	0.38
503	0.382
503	0.383
504	0.384
504	0.386
505	0.387
505	0.388
506	0.39
506	0.391
506	0.392
507	0.394
507	0.395
508	0.396
508	0.398
509	0.399
509	0.4
510	0.402
510	0.403
511	0.405
511	0.406
511	0.407
512	0.408
512	0.409
513	0.411
513	0.412
514	0.412
514	0.413
515	0.414
515	0.414
515	0.415
516	0.415
516	0.416
517	0.416
517	0.417
518	0.417
518	0.417
519	0.418
519	0.418
520	0.418
520	0.418
520	0.418
521	0.419
521	0.419
522	0.419
522	0.419
523	0.419
523	0.419
524	0.418
524	0.418
524	0.418
525	0.418
525	0.417
526	0.416
526	0.415
527	0.415
527	0.414
528	0.413
528	0.412
529	0.411
529	0.41
529	0.409
530	0.408
530	0.407
531	0.406
531	0.405
532	0.404
532	0.402
533	0.4
533	0.399
533	0.397
534	0.395
534	0.393
535	0.392
535	0.39
536	0.388
536	0.386
537	0.384
537	0.382
538	0.38
538	0.378
538	0.376
539	0.374
539	0.373
540	0.371
540	0.369
541	0.367
541	0.365
542	0.363
542	0.36
542	0.358
543	0.356
543	0.354
544	0.351
544	0.349
545	0.346
545	0.344
546	0.342
546	0.339
547	0.336
547	0.334
547	0.332
548	0.33
548	0.327
549	0.324
549	0.322
550	0.32
550	0.317
551	0.314
551	0.311
551	0.309
552	0.306
552	0.304
553	0.302
553	0.3
554	0.297
554	0.295
555	0.292
555	0.29
556	0.288
556	0.285
556	0.284
557	0.281
557	0.279
558	0.277
558	0.276
559	0.273
559	0.271
560	0.269
560	0.267
560	0.265
561	0.263
561	0.261
562	0.259
562	0.256
563	0.254
563	0.252
564	0.249
564	0.248
564	0.246
565	0.244
565	0.241
566	0.239
566	0.237
567	0.235
567	0.233
568	0.231
568	0.229
568	0.227
569	0.225
569	0.223
570	0.221
570	0.219
571	0.218
571	0.217
572	0.215
572	0.213
573	0.211
573	0.21
573	0.208
574	0.207
574	0.205
575	0.204
575	0.203
576	0.201
576	0.2
577	0.198
577	0.196
577	0.195
578	0.194
578	0.192
579	0.191
579	0.19
580	0.189
580	0.187
581	0.186
581	0.184
581	0.184
582	0.183
582	0.182
583	0.181
583	0.18
584	0.178
584	0.176
585	0.175
585	0.173
585	0.172
586	0.171
586	0.17
587	0.169
587	0.168
588	0.167
588	0.165
589	0.164
589	0.164
590	0.163
590	0.162
590	0.161
591	0.16
591	0.159
592	0.157
592	0.156
593	0.155
593	0.154
594	0.153
594	0.152
594	0.151
595	0.15
595	0.149
596	0.147
596	0.147
597	0.147
597	0.147
598	0.146
598	0.146
598	0.146
599	0.145
599	0.144
600	0.143
600	0.142
601	0.142
601	0.141
602	0.14
602	0.139
602	0.138
603	0.137
603	0.136
604	0.136
604	0.135
605	0.135
605	0.134
606	0.134
606	0.133
606	0.132
607	0.131
607	0.13
608	0.129
608	0.128
609	0.127
609	0.127
610	0.126
610	0.125
610	0.124
611	0.124
611	0.124
612	0.123
612	0.123
613	0.123
613	0.123
614	0.122
614	0.121
614	0.121
615	0.121
615	0.12
616	0.12
616	0.119
617	0.119
617	0.119
618	0.118
618	0.118
618	0.118
619	0.118
619	0.118
620	0.117
620	0.117
621	0.116
621	0.116
622	0.115
622	0.114
622	0.113
623	0.113
623	0.112
624	0.112
624	0.111
625	0.11
625	0.11
626	0.109
626	0.109
626	0.109
627	0.108
627	0.108
628	0.108
628	0.107
629	0.107
629	0.106
630	0.106
630	0.105
630	0.105
631	0.105
631	0.104
632	0.104
632	0.103
633	0.103
633	0.102
634	0.103
634	0.103
634	0.103
635	0.102
635	0.102
636	0.101
636	0.101
637	0.101
637	0.1
638	0.1
638	0.099
638	0.098
639	0.098
639	0.097
640	0.097
640	0.096
641	0.096
641	0.095
642	0.095
642	0.095
642	0.095
643	0.095
643	0.095
644	0.095
644	0.095
645	0.095
645	0.095
646	0.095
646	0.095
646	0.095
647	0.095
647	0.095
648	0.094
648	0.093
649	0.093
649	0.093
650	0.093
650	0.093
650	0.092
651	0.092
651	0.092
652	0.092
652	0.091
653	0.092
653	0.093
653	0.098
654	0.079
654	0.064
655	0.062
655	0.062
656	0.062
656	0.062
657	0.062
657	0.062
657	0.062
658	0.061
658	0.054
659	0.068
659	0.085
660	0.089
660	0.089
661	0.088
661	0.088
661	0.087
662	0.087
662	0.086
663	0.085
663	0.085
664	0.084
664	0.084
665	0.084
665	0.083
665	0.083
666	0.083
666	0.083
667	0.083
667	0.083
668	0.084
668	0.084
669	0.084
669	0.084
669	0.084
670	0.084
670	0.084
671	0.083
671	0.083
672	0.083
672	0.082
672	0.081
673	0.081
673	0.08
674	0.08
674	0.079
675	0.079
675	0.079
676	0.079
676	0.08
676	0.08
677	0.08
677	0.08
678	0.08
678	0.08
679	0.08
679	0.08
680	0.08
680	0.079
680	0.079
681	0.079
681	0.079
682	0.079
682	0.079
683	0.079
683	0.079
684	0.079
684	0.078
684	0.078
685	0.078
685	0.078
686	0.078
686	0.077
687	0.077
687	0.077
687	0.077
688	0.077
688	0.077
689	0.078
689	0.078
690	0.078
690	0.078
691	0.078
691	0.078
691	0.078
692	0.078
692	0.078
693	0.078
693	0.078
694	0.078
694	0.078
695	0.078
695	0.079
695	0.079
696	0.079
696	0.079
697	0.079
697	0.079
698	0.078
698	0.078
698	0.078
699	0.078
699	0.077
700	0.076
700	0.076
701	0.076
701	0.075
702	0.074
702	0.073
702	0.072
703	0.072
703	0.071
704	0.07
704	0.07
705	0.071
705	0.07
705	0.07
706	0.071
706	0.071
707	0.071
707	0.071
708	0.072
708	0.072
709	0.072
709	0.071
709	0.07
710	0.07
710	0.07
711	0.07
711	0.069
712	0.069
712	0.069
713	0.069
713	0.069
713	0.068
714	0.068
714	0.068
715	0.068
715	0.067
716	0.067
716	0.066
716	0.065
717	0.065
717	0.064
718	0.063
718	0.063
719	0.063
719	0.063
720	0.063
720	0.063
720	0.064
721	0.064
721	0.065
722	0.065
722	0.065
723	0.065
723	0.066
723	0.065
724	0.065
724	0.064
725	0.063
725	0.062
726	0.062
726	0.061
727	0.061
727	0.06
727	0.06
728	0.06
728	0.06
729	0.06
729	0.061
730	0.061
730	0.061
730	0.062
731	0.062
731	0.063
732	0.063
732	0.063
733	0.063
733	0.063
734	0.063
734	0.063
734	0.063
735	0.063
735	0.063
736	0.063
736	0.062
737	0.062
737	0.061
737	0.061
738	0.061
738	0.06
739	0.059
739	0.059
740	0.059
740	0.059
741	0.059
741	0.059
741	0.059
742	0.059
742	0.06
743	0.06
743	0.06
744	0.061
744	0.061
744	0.061
745	0.06
745	0.06
746	0.06
746	0.06
747	0.06
747	0.06
748	0.059
748	0.059
748	0.059
749	0.059
749	0.059
750	0.059
750	0.059
751	0.059
751	0.059
751	0.06
752	0.059
752	0.059
753	0.058
753	0.058
754	0.058
754	0.057
754	0.057
755	0.056
755	0.056
756	0.055
756	0.054
757	0.053
757	0.053
758	0.053
758	0.053
758	0.053
759	0.053
759	0.053
760	0.053
760	0.053
761	0.053
761	0.054
761	0.054
762	0.054
762	0.054
763	0.054
763	0.053
764	0.053
764	0.053
764	0.052
765	0.052
765	0.051
766	0.051
766	0.051
767	0.05
767	0.05
768	0.05
768	0.05
768	0.05
769	0.051
769	0.051
770	0.052
770	0.052
771	0.052
771	0.053
771	0.053
772	0.053
772	0.054
773	0.054
773	0.054
774	0.053
774	0.054
775	0.054
775	0.054
775	0.054
776	0.054
776	0.054
777	0.054
777	0.054
778	0.054
778	0.054
778	0.053
779	0.053
779	0.052
780	0.051
780	0.05
781	0.05
781	0.05
781	0.049
782	0.049
782	0.049
783	0.049
783	0.049
784	0.049
784	0.049
784	0.05
785	0.05
785	0.05
786	0.05
786	0.05
787	0.051
787	0.051
788	0.05
788	0.05
788	0.05
789	0.049
789	0.049
790	0.049
790	0.049
791	0.048
791	0.047
791	0.047
792	0.047
792	0.047
793	0.047
793	0.047
794	0.046
794	0.046
794	0.046
795	0.046
795	0.047
796	0.047
796	0.047
797	0.047
797	0.047
797	0.048
798	0.048
798	0.049
799	0.048
799	0.048
800	0.048
800	0.047
801	0.047
801	0.046
801	0.046
802	0.046
802	0.046
803	0.046
803	0.045
804	0.046
804	0.046
804	0.046
805	0.046
805	0.046
806	0.046
806	0.046
807	0.046
807	0.046
807	0.046
808	0.046
808	0.047
809	0.046
809	0.047
810	0.047
810	0.047
810	0.047
811	0.047
811	0.047
812	0.047
812	0.047
813	0.047
813	0.047
813	0.047
814	0.047
814	0.048
815	0.048
815	0.048
816	0.048
816	0.047
817	0.047
817	0.047
817	0.046
818	0.046
818	0.046
819	0.046
819	0.045
820	0.044
820	0.044
820	0.044
821	0.044
821	0.045
822	0.045
822	0.045
823	0.046
823	0.046
823	0.047
824	0.048
824	0.049
825	0.05
825	0.051
826	0.051
826	0.051
826	0.052
827	0.052
827	0.052
828	0.051
828	0.051
829	0.051
829	0.051
829	0.05
830	0.05
830	0.05
831	0.051
831	0.051
832	0.051
832	0.051
832	0.051
833	0.051
833	0.051
834	0.051
834	0.05
835	0.05
835	0.05
835	0.049
836	0.049
836	0.049
837	0.048
837	0.048
838	0.047
838	0.047
839	0.046
839	0.046
839	0.045
840	0.044
840	0.044
841	0.043
841	0.042
842	0.042
842	0.041
842	0.041
843	0.041
843	0.041
844	0.041
844	0.041
845	0.041
845	0.041
845	0.042
846	0.042
846	0.042
847	0.042
847	0.042
848	0.042
848	0.042
848	0.041
849	0.041
849	0.041
850	0.041
850	0.04
851	0.04
851	0.04
851	0.04
852	0.039
852	0.039
853	0.038
853	0.038
854	0.039
854	0.039
854	0.04
855	0.04
855	0.041
856	0.041
856	0.042
857	0.043
857	0.044
857	0.044
858	0.044
858	0.044
859	0.044
859	0.043
860	0.043
860	0.042
860	0.041
861	0.04
861	0.039
862	0.038
862	0.037
863	0.037
863	0.037
863	0.036
864	0.037
864	0.037
865	0.037
865	0.037
866	0.037
866	0.037
866	0.038
867	0.038
867	0.038
868	0.039
868	0.039
869	0.039
869	0.038
869	0.038
870	0.038
870	0.038
871	0.038
871	0.038
872	0.038
872	0.039
872	0.039
873	0.039
873	0.038
874	0.038
874	0.038
875	0.038
875	0.037
875	0.037
876	0.037
876	0.037
877	0.036
877	0.036
878	0.036
878	0.037
878	0.037
879	0.038
879	0.038
880	0.038
880	0.039
881	0.039
881	0.039
881	0.039
882	0.039
882	0.039
883	0.038
883	0.038
884	0.038
884	0.038
884	0.038
885	0.038
885	0.038
886	0.038
886	0.038
887	0.038
887	0.038
887	0.038
888	0.037
888	0.037
889	0.037
889	0.037
890	0.037
890	0.037
890	0.037
891	0.036
891	0.036
892	0.036
892	0.036
893	0.035
893	0.035
893	0.035
894	0.034
894	0.033
895	0.033
895	0.033
895	0.033
896	0.033
896	0.033
897	0.032
897	0.032
898	0.032
898	0.032
898	0.033
899	0.033
899	0.033
900	0.034
900	0.034
901	0.034
901	0.035
901	0.035
902	0.035
902	0.036
903	0.036
903	0.036
904	0.036
904	0.036
904	0.036
905	0.036
905	0.036
906	0.036
906	0.037
907	0.037
907	0.038
907	0.038
908	0.039
908	0.039
909	0.039
909	0.04
910	0.04
910	0.04
910	0.04
911	0.04
911	0.039
912	0.039
912	0.039
913	0.039
913	0.039
913	0.039
914	0.039
914	0.039
915	0.039
915	0.039
916	0.04
916	0.04
916	0.039
917	0.039
917	0.039
918	0.038
918	0.038
918	0.038
919	0.037
919	0.037
920	0.037
920	0.037
921	0.036
921	0.036
921	0.037
922	0.037
922	0.037
923	0.037
923	0.037
924	0.038
924	0.038
924	0.038
925	0.039
925	0.039
926	0.039
926	0.039
927	0.039
927	0.038
927	0.038
928	0.038
928	0.038
929	0.038
929	0.038
930	0.037
930	0.037
930	0.037
931	0.037
931	0.036
932	0.036
932	0.036
933	0.036
933	0.036
933	0.036
934	0.035
934	0.035
935	0.035
935	0.035
935	0.035
936	0.035
936	0.035
937	0.035
937	0.035
938	0.035
938	0.035
938	0.035
939	0.034
939	0.034
940	0.033
940	0.033
941	0.033
941	0.033
941	0.033
942	0.033
942	0.032
943	0.033
943	0.033
944	0.033
944	0.033
944	0.033
945	0.033
945	0.033
946	0.033
946	0.033
946	0.034
947	0.034
947	0.035
948	0.036
948	0.036
949	0.037
949	0.037
949	0.038
950	0.038
950	0.039
951	0.039
951	0.038
952	0.038
952	0.037
952	0.037
953	0.036
953	0.036
954	0.035
954	0.035
955	0.035
955	0.034
955	0.034
956	0.034
956	0.034
957	0.035
957	0.035
957	0.035
958	0.035
958	0.035
959	0.036
959	0.036
960	0.036
960	0.037
960	0.037
961	0.037
961	0.038
962	0.038
962	0.038
963	0.039
963	0.039
963	0.039
964	0.039
964	0.04
965	0.04
965	0.04
966	0.041
966	0.041
966	0.042
967	0.042
967	0.043
968	0.043
968	0.043
968	0.043
969	0.043
969	0.043
970	0.042
970	0.041
971	0.04
971	0.04
971	0.039
972	0.038
972	0.037
973	0.036
973	0.036
974	0.035
974	0.035
974	0.035
975	0.035
975	0.035
976	0.035
976	0.035
976	0.035
977	0.035
977	0.034
978	0.034
978	0.034
979	0.033
979	0.033
979	0.032
980	0.032
980	0.031
981	0.031
981	0.031
982	0.031
982	0.031
982	0.032
983	0.032
983	0.033
984	0.033
984	0.033
984	0.034
985	0.034
985	0.034
986	0.034
986	0.034
987	0.034
987	0.034
987	0.034
988	0.034
988	0.034
989	0.033
989	0.033
990	0.033
990	0.033
990	0.033
991	0.032
991	0.032
992	0.032
992	0.032
992	0.032
993	0.032
993	0.032
994	0.031
994	0.031
995	0.031
995	0.031
995	0.031
996	0.03
996	0.031
997	0.031
997	0.031
997	0.031
998	0.031
998	0.031
999	0.032
999	0.032
1000	0.032
1000	0.033
1000	0.033
1001	0.032
1001	0.032
1002	0.032
1002	0.032
1003	0.031
1003	0.03
1003	0.029
1004	0.029
1004	0.028
1005	0.027
1005	0.026
1005	0.026
1006	0.025
1006	0.025
1007	0.024
1007	0.024
1008	0.025
1008	0.025
1008	0.025
1009	0.026
1009	0.026
1010	0.026
1010	0.027
1010	0.027
1011	0.028
1011	0.028
1012	0.029
1012	0.029
1013	0.029
1013	0.029
1013	0.029
1014	0.029
1014	0.029
1015	0.029
1015	0.029
1016	0.029
1016	0.029
1016	0.028
1017	0.028
1017	0.028
1018	0.027
1018	0.027
1018	0.027
1019	0.027
1019	0.027
1020	0.027
1020	0.027
1021	0.027
1021	0.028
1021	0.028
1022	0.029
1022	0.029
1023	0.029
1023	0.029
1023	0.03
1024	0.03
1024	0.03
1025	0.03
1025	0.03
1026	0.03
1026	0.029
1026	0.029
1027	0.029
1027	0.029
1028	0.029
1028	0.028
1028	0.028
1029	0.028
1029	0.028
1030	0.028
1030	0.028
1031	0.029
1031	0.029
1031	0.029
1032	0.029
1032	0.029
1033	0.03
1033	0.03
1033	0.03
1034	0.03
1034	0.03
1035	0.03
1035	0.03
1036	0.03
1036	0.03
1036	0.029
1037	0.029
1037	0.029
1038	0.029
1038	0.029
1039	0.028
1039	0.028
1039	0.028
1040	0.028
1040	0.028
1041	0.028
1041	0.028
1041	0.028
1042	0.028
1042	0.028
1043	0.028
1043	0.028
1044	0.028
1044	0.028
1044	0.028
1045	0.029
1045	0.029
1046	0.029
1046	0.03
1046	0.03
1047	0.031
1047	0.031
1048	0.032
1048	0.033
1049	0.033
1049	0.033
1049	0.033
1050	0.033
1050	0.033
1051	0.033
1051	0.033
1051	0.033
1052	0.032
1052	0.032
1053	0.032
1053	0.031
1053	0.031
1054	0.031
1054	0.031
1055	0.03
1055	0.03
1056	0.03
1056	0.03
1056	0.029
1057	0.029
1057	0.029
1058	0.028
1058	0.028
1058	0.027
1059	0.027
1059	0.026
1060	0.026
1060	0.026
1061	0.026
1061	0.026
1061	0.026
1062	0.026
1062	0.026
1063	0.027
1063	0.027
1063	0.027
1064	0.027
1064	0.027
1065	0.027
1065	0.027
1066	0.027
1066	0.026
1066	0.026
1067	0.026
1067	0.026
1068	0.025
1068	0.025
1068	0.025
1069	0.025
1069	0.025
1070	0.024
1070	0.024
1071	0.023
1071	0.023
1071	0.023
1072	0.022
1072	0.022
1073	0.022
1073	0.021
1073	0.02
1074	0.02
1074	0.02
1075	0.02
1075	0.021
1076	0.021
1076	0.021
1076	0.022
1077	0.022
1077	0.022
1078	0.021
1078	0.022
1078	0.022
1079	0.022
1079	0.022
1080	0.022
1080	0.022
1080	0.022
1081	0.021
1081	0.022
1082	0.023
1082	0.023
1083	0.023
1083	0.023
1083	0.022
1084	0.022
1084	0.023
1085	0.022
1085	0.022
1085	0.023
1086	0.023
1086	0.022
1087	0.022
1087	0.021
1088	0.021
1088	0.021
1088	0.021
1089	0.021
1089	0.021
1090	0.02
1090	0.019
1090	0.018
1091	0.018
1091	0.018
1092	0.019
1092	0.019
1092	0.019
1093	0.019
1093	0.019
1094	0.02
1094	0.02
1095	0.02
1095	0.02
1095	0.021
1096	0.021
1096	0.02
1097	0.02
1097	0.02
1097	0.02
1098	0.019
1098	0.018
1099	0.017
1099	0.016
1100	0.015
1100	0.014
1100	0.013
1101	0.012
1101	0.012
1102	0.011
1102	0.01
1102	0.009
1103	0.009
1103	0.009
1104	0.009
1104	0.009
1104	0.009
1105	0.009
1105	0.007
1106	0.006
1106	0.005
1107	0.005
1107	0.005
1107	0.005
1108	0.005
1108	0.003
1109	0.002
1109	0.001
1109	0.001
1110	0.003
1110	0.002
1111	0.005
1111	0.008
