Data from reversibility-20sec_Absorbance__7861__000000000007861.txt Node

Date: Thu Dec 07 07:53:26 CET 2023
User: Marek
Spectrometer: MAYP115816
Trigger mode: 0
Integration Time (sec): 2.000000E-1
Scans to average: 10
Electric dark correction enabled: true
Nonlinearity correction enabled: true
Boxcar width: 5
XAxis mode: Wavelengths
Number of Pixels in Spectrum: 2068
>>>>>Begin Spectral Data<<<<<
199	-0.117
199	-0.096
200	-0.033
200	0.015
201	0.041
201	0.056
202	0.064
202	0.072
203	0.08
203	0.081
204	0.096
204	0.11
205	0.121
205	0.124
205	0.12
206	0.12
206	0.119
207	0.121
207	0.12
208	0.119
208	0.118
209	0.119
209	0.112
210	0.11
210	0.113
211	0.116
211	0.119
212	0.12
212	0.122
213	0.125
213	0.129
213	0.132
214	0.137
214	0.145
215	0.15
215	0.152
216	0.157
216	0.154
217	0.157
217	0.158
218	0.158
218	0.16
219	0.167
219	0.164
220	0.166
220	0.167
221	0.167
221	0.169
221	0.177
222	0.182
222	0.188
223	0.193
223	0.198
224	0.2
224	0.212
225	0.219
225	0.225
226	0.236
226	0.246
227	0.256
227	0.267
228	0.278
228	0.297
229	0.313
229	0.341
229	0.364
230	0.391
230	0.423
231	0.455
231	0.493
232	0.528
232	0.572
233	0.615
233	0.662
234	0.71
234	0.758
235	0.81
235	0.866
236	0.916
236	0.966
236	1.015
237	1.066
237	1.112
238	1.161
238	1.204
239	1.253
239	1.292
240	1.332
240	1.365
241	1.401
241	1.436
242	1.471
242	1.505
243	1.536
243	1.563
243	1.586
244	1.607
244	1.63
245	1.649
245	1.669
246	1.684
246	1.699
247	1.711
247	1.722
248	1.736
248	1.747
249	1.759
249	1.766
250	1.772
250	1.778
250	1.784
251	1.791
251	1.793
252	1.798
252	1.799
253	1.8
253	1.799
254	1.799
254	1.8
255	1.801
255	1.801
256	1.8
256	1.8
257	1.801
257	1.798
258	1.797
258	1.797
258	1.796
259	1.796
259	1.794
260	1.793
260	1.792
261	1.793
261	1.793
262	1.796
262	1.797
263	1.799
263	1.8
264	1.801
264	1.802
265	1.803
265	1.802
265	1.803
266	1.803
266	1.803
267	1.8
267	1.8
268	1.799
268	1.798
269	1.8
269	1.798
270	1.797
270	1.797
271	1.795
271	1.792
272	1.792
272	1.79
272	1.789
273	1.784
273	1.779
274	1.776
274	1.771
275	1.766
275	1.76
276	1.754
276	1.748
277	1.739
277	1.73
278	1.717
278	1.707
278	1.695
279	1.68
279	1.663
280	1.642
280	1.617
281	1.587
281	1.553
282	1.518
282	1.481
283	1.443
283	1.405
284	1.368
284	1.332
285	1.296
285	1.264
285	1.235
286	1.208
286	1.185
287	1.164
287	1.146
288	1.131
288	1.117
289	1.105
289	1.095
290	1.086
290	1.078
291	1.071
291	1.065
292	1.059
292	1.054
292	1.049
293	1.044
293	1.039
294	1.036
294	1.032
295	1.028
295	1.024
296	1.02
296	1.016
297	1.013
297	1.009
298	1.006
298	1.003
298	0.999
299	0.996
299	0.993
300	0.99
300	0.986
301	0.983
301	0.98
302	0.977
302	0.975
303	0.971
303	0.968
304	0.966
304	0.963
305	0.96
305	0.957
305	0.955
306	0.952
306	0.949
307	0.947
307	0.944
308	0.941
308	0.938
309	0.935
309	0.932
310	0.929
310	0.925
311	0.922
311	0.918
311	0.915
312	0.911
312	0.908
313	0.904
313	0.9
314	0.896
314	0.891
315	0.887
315	0.883
316	0.878
316	0.873
317	0.869
317	0.863
318	0.858
318	0.853
318	0.847
319	0.842
319	0.836
320	0.831
320	0.824
321	0.818
321	0.812
322	0.806
322	0.8
323	0.793
323	0.786
324	0.779
324	0.772
324	0.765
325	0.758
325	0.752
326	0.744
326	0.737
327	0.73
327	0.723
328	0.716
328	0.709
329	0.702
329	0.695
330	0.687
330	0.68
330	0.673
331	0.666
331	0.659
332	0.652
332	0.645
333	0.638
333	0.631
334	0.624
334	0.617
335	0.61
335	0.603
336	0.597
336	0.59
336	0.583
337	0.576
337	0.57
338	0.564
338	0.557
339	0.551
339	0.545
340	0.539
340	0.533
341	0.527
341	0.522
342	0.516
342	0.511
342	0.505
343	0.5
343	0.495
344	0.489
344	0.484
345	0.479
345	0.475
346	0.47
346	0.465
347	0.461
347	0.456
348	0.452
348	0.448
348	0.444
349	0.44
349	0.436
350	0.433
350	0.429
351	0.425
351	0.422
352	0.419
352	0.416
353	0.412
353	0.409
354	0.406
354	0.403
354	0.4
355	0.397
355	0.394
356	0.391
356	0.388
357	0.385
357	0.382
358	0.379
358	0.377
359	0.374
359	0.372
360	0.37
360	0.368
360	0.366
361	0.364
361	0.362
362	0.36
362	0.358
363	0.357
363	0.355
364	0.352
364	0.35
365	0.349
365	0.347
366	0.345
366	0.343
366	0.341
367	0.339
367	0.338
368	0.336
368	0.334
369	0.333
369	0.331
370	0.33
370	0.328
371	0.327
371	0.326
372	0.324
372	0.323
372	0.322
373	0.321
373	0.32
374	0.319
374	0.317
375	0.316
375	0.315
376	0.314
376	0.313
377	0.312
377	0.311
378	0.31
378	0.309
378	0.308
379	0.307
379	0.306
380	0.306
380	0.305
381	0.304
381	0.303
382	0.302
382	0.302
383	0.301
383	0.3
383	0.3
384	0.299
384	0.298
385	0.298
385	0.297
386	0.297
386	0.296
387	0.295
387	0.295
388	0.295
388	0.294
389	0.294
389	0.293
389	0.293
390	0.293
390	0.292
391	0.292
391	0.291
392	0.291
392	0.29
393	0.29
393	0.289
394	0.289
394	0.288
394	0.288
395	0.288
395	0.287
396	0.287
396	0.286
397	0.286
397	0.285
398	0.285
398	0.285
399	0.284
399	0.284
400	0.283
400	0.283
400	0.282
401	0.282
401	0.282
402	0.281
402	0.281
403	0.28
403	0.28
404	0.28
404	0.279
405	0.279
405	0.279
405	0.278
406	0.278
406	0.278
407	0.278
407	0.277
408	0.277
408	0.277
409	0.276
409	0.276
410	0.276
410	0.275
411	0.275
411	0.275
411	0.275
412	0.274
412	0.274
413	0.273
413	0.273
414	0.273
414	0.272
415	0.272
415	0.272
416	0.271
416	0.271
416	0.27
417	0.27
417	0.27
418	0.269
418	0.269
419	0.268
419	0.268
420	0.268
420	0.267
421	0.266
421	0.266
421	0.266
422	0.265
422	0.265
423	0.265
423	0.264
424	0.264
424	0.264
425	0.264
425	0.264
426	0.263
426	0.263
427	0.263
427	0.262
427	0.262
428	0.262
428	0.261
429	0.261
429	0.26
430	0.26
430	0.26
431	0.26
431	0.259
432	0.259
432	0.259
432	0.259
433	0.259
433	0.258
434	0.258
434	0.258
435	0.258
435	0.258
436	0.258
436	0.258
437	0.258
437	0.257
437	0.257
438	0.257
438	0.257
439	0.257
439	0.257
440	0.256
440	0.256
441	0.256
441	0.255
442	0.255
442	0.255
442	0.255
443	0.254
443	0.254
444	0.254
444	0.254
445	0.254
445	0.254
446	0.254
446	0.253
447	0.253
447	0.253
447	0.253
448	0.253
448	0.253
449	0.253
449	0.253
450	0.253
450	0.253
451	0.252
451	0.252
452	0.252
452	0.252
452	0.252
453	0.252
453	0.252
454	0.252
454	0.252
455	0.252
455	0.252
456	0.251
456	0.251
457	0.251
457	0.251
458	0.251
458	0.251
458	0.251
459	0.251
459	0.251
460	0.251
460	0.251
461	0.251
461	0.251
462	0.251
462	0.251
463	0.251
463	0.251
463	0.251
464	0.251
464	0.251
465	0.251
465	0.251
466	0.251
466	0.251
467	0.251
467	0.251
467	0.251
468	0.251
468	0.251
469	0.252
469	0.252
470	0.252
470	0.253
471	0.253
471	0.253
472	0.253
472	0.254
472	0.254
473	0.254
473	0.254
474	0.254
474	0.254
475	0.254
475	0.255
476	0.255
476	0.255
477	0.255
477	0.256
477	0.256
478	0.257
478	0.257
479	0.258
479	0.258
480	0.258
480	0.259
481	0.259
481	0.26
482	0.26
482	0.261
482	0.261
483	0.261
483	0.262
484	0.262
484	0.262
485	0.263
485	0.263
486	0.263
486	0.264
487	0.264
487	0.265
487	0.265
488	0.266
488	0.266
489	0.267
489	0.269
490	0.27
490	0.271
491	0.272
491	0.273
492	0.274
492	0.275
492	0.276
493	0.277
493	0.278
494	0.279
494	0.28
495	0.28
495	0.281
496	0.282
496	0.283
496	0.284
497	0.285
497	0.286
498	0.287
498	0.287
499	0.288
499	0.289
500	0.291
500	0.292
501	0.293
501	0.294
501	0.294
502	0.295
502	0.296
503	0.297
503	0.298
504	0.299
504	0.3
505	0.301
505	0.302
506	0.303
506	0.304
506	0.305
507	0.306
507	0.307
508	0.308
508	0.308
509	0.309
509	0.31
510	0.311
510	0.312
511	0.313
511	0.313
511	0.314
512	0.315
512	0.315
513	0.316
513	0.316
514	0.317
514	0.318
515	0.318
515	0.318
515	0.319
516	0.319
516	0.32
517	0.321
517	0.321
518	0.322
518	0.322
519	0.322
519	0.322
520	0.323
520	0.323
520	0.323
521	0.323
521	0.323
522	0.323
522	0.323
523	0.323
523	0.323
524	0.323
524	0.323
524	0.323
525	0.323
525	0.322
526	0.322
526	0.321
527	0.321
527	0.321
528	0.32
528	0.32
529	0.319
529	0.319
529	0.318
530	0.317
530	0.316
531	0.316
531	0.314
532	0.313
532	0.312
533	0.311
533	0.31
533	0.309
534	0.308
534	0.307
535	0.306
535	0.305
536	0.304
536	0.303
537	0.302
537	0.3
538	0.299
538	0.298
538	0.297
539	0.296
539	0.295
540	0.294
540	0.293
541	0.291
541	0.29
542	0.289
542	0.287
542	0.286
543	0.284
543	0.282
544	0.281
544	0.279
545	0.278
545	0.276
546	0.275
546	0.273
547	0.271
547	0.269
547	0.268
548	0.266
548	0.265
549	0.263
549	0.262
550	0.26
550	0.259
551	0.257
551	0.256
551	0.254
552	0.253
552	0.252
553	0.25
553	0.249
554	0.247
554	0.246
555	0.244
555	0.242
556	0.241
556	0.239
556	0.238
557	0.237
557	0.236
558	0.235
558	0.234
559	0.233
559	0.231
560	0.23
560	0.229
560	0.228
561	0.227
561	0.225
562	0.224
562	0.222
563	0.22
563	0.218
564	0.217
564	0.216
564	0.214
565	0.213
565	0.212
566	0.211
566	0.209
567	0.208
567	0.207
568	0.206
568	0.205
568	0.203
569	0.202
569	0.201
570	0.199
570	0.197
571	0.196
571	0.195
572	0.194
572	0.192
573	0.191
573	0.19
573	0.189
574	0.188
574	0.187
575	0.187
575	0.186
576	0.185
576	0.184
577	0.183
577	0.182
577	0.181
578	0.18
578	0.179
579	0.179
579	0.178
580	0.177
580	0.176
581	0.175
581	0.174
581	0.173
582	0.173
582	0.172
583	0.172
583	0.171
584	0.169
584	0.168
585	0.167
585	0.166
585	0.166
586	0.165
586	0.165
587	0.164
587	0.163
588	0.162
588	0.162
589	0.161
589	0.161
590	0.16
590	0.159
590	0.159
591	0.159
591	0.157
592	0.156
592	0.155
593	0.155
593	0.154
594	0.153
594	0.152
594	0.151
595	0.151
595	0.15
596	0.149
596	0.149
597	0.149
597	0.149
598	0.149
598	0.148
598	0.148
599	0.148
599	0.147
600	0.146
600	0.145
601	0.145
601	0.145
602	0.144
602	0.143
602	0.142
603	0.142
603	0.142
604	0.142
604	0.142
605	0.142
605	0.142
606	0.141
606	0.14
606	0.139
607	0.139
607	0.139
608	0.138
608	0.137
609	0.136
609	0.136
610	0.135
610	0.134
610	0.134
611	0.134
611	0.134
612	0.133
612	0.133
613	0.133
613	0.133
614	0.133
614	0.133
614	0.133
615	0.133
615	0.132
616	0.132
616	0.132
617	0.132
617	0.132
618	0.131
618	0.131
618	0.131
619	0.131
619	0.13
620	0.13
620	0.13
621	0.129
621	0.129
622	0.128
622	0.127
622	0.127
623	0.126
623	0.126
624	0.126
624	0.125
625	0.125
625	0.124
626	0.124
626	0.124
626	0.124
627	0.124
627	0.124
628	0.123
628	0.123
629	0.123
629	0.122
630	0.122
630	0.122
630	0.122
631	0.121
631	0.121
632	0.121
632	0.12
633	0.12
633	0.12
634	0.12
634	0.12
634	0.12
635	0.119
635	0.119
636	0.119
636	0.119
637	0.118
637	0.118
638	0.118
638	0.117
638	0.117
639	0.117
639	0.116
640	0.116
640	0.116
641	0.116
641	0.116
642	0.115
642	0.115
642	0.115
643	0.115
643	0.115
644	0.115
644	0.115
645	0.115
645	0.115
646	0.115
646	0.115
646	0.115
647	0.115
647	0.115
648	0.114
648	0.113
649	0.112
649	0.112
650	0.112
650	0.112
650	0.112
651	0.111
651	0.111
652	0.111
652	0.111
653	0.112
653	0.113
653	0.119
654	0.095
654	0.077
655	0.076
655	0.076
656	0.076
656	0.076
657	0.076
657	0.077
657	0.077
658	0.076
658	0.068
659	0.085
659	0.107
660	0.112
660	0.112
661	0.111
661	0.111
661	0.11
662	0.11
662	0.109
663	0.108
663	0.108
664	0.107
664	0.107
665	0.107
665	0.107
665	0.107
666	0.107
666	0.108
667	0.108
667	0.108
668	0.109
668	0.109
669	0.109
669	0.109
669	0.11
670	0.11
670	0.11
671	0.109
671	0.109
672	0.109
672	0.108
672	0.108
673	0.107
673	0.107
674	0.107
674	0.107
675	0.106
675	0.106
676	0.106
676	0.107
676	0.106
677	0.107
677	0.107
678	0.107
678	0.107
679	0.106
679	0.106
680	0.106
680	0.106
680	0.106
681	0.106
681	0.106
682	0.107
682	0.107
683	0.107
683	0.107
684	0.107
684	0.107
684	0.106
685	0.106
685	0.106
686	0.106
686	0.106
687	0.105
687	0.105
687	0.105
688	0.105
688	0.105
689	0.106
689	0.107
690	0.106
690	0.106
691	0.106
691	0.107
691	0.107
692	0.107
692	0.107
693	0.108
693	0.108
694	0.108
694	0.108
695	0.109
695	0.109
695	0.109
696	0.109
696	0.109
697	0.109
697	0.109
698	0.108
698	0.108
698	0.108
699	0.108
699	0.108
700	0.107
700	0.107
701	0.107
701	0.107
702	0.106
702	0.105
702	0.105
703	0.104
703	0.103
704	0.103
704	0.103
705	0.102
705	0.102
705	0.102
706	0.102
706	0.102
707	0.102
707	0.102
708	0.103
708	0.103
709	0.103
709	0.103
709	0.103
710	0.103
710	0.103
711	0.104
711	0.104
712	0.104
712	0.104
713	0.104
713	0.104
713	0.104
714	0.103
714	0.103
715	0.103
715	0.102
716	0.101
716	0.101
716	0.1
717	0.1
717	0.1
718	0.1
718	0.1
719	0.1
719	0.101
720	0.101
720	0.102
720	0.103
721	0.103
721	0.104
722	0.105
722	0.105
723	0.105
723	0.105
723	0.105
724	0.104
724	0.104
725	0.103
725	0.102
726	0.101
726	0.101
727	0.1
727	0.1
727	0.099
728	0.099
728	0.099
729	0.099
729	0.099
730	0.1
730	0.1
730	0.1
731	0.101
731	0.101
732	0.101
732	0.101
733	0.101
733	0.101
734	0.101
734	0.101
734	0.102
735	0.102
735	0.102
736	0.101
736	0.101
737	0.101
737	0.101
737	0.101
738	0.1
738	0.1
739	0.1
739	0.1
740	0.099
740	0.1
741	0.1
741	0.101
741	0.101
742	0.101
742	0.102
743	0.103
743	0.103
744	0.104
744	0.103
744	0.103
745	0.103
745	0.102
746	0.102
746	0.102
747	0.101
747	0.101
748	0.101
748	0.101
748	0.101
749	0.101
749	0.101
750	0.101
750	0.101
751	0.102
751	0.102
751	0.102
752	0.101
752	0.101
753	0.101
753	0.1
754	0.1
754	0.099
754	0.099
755	0.098
755	0.098
756	0.097
756	0.095
757	0.095
757	0.095
758	0.095
758	0.095
758	0.095
759	0.095
759	0.095
760	0.094
760	0.094
761	0.095
761	0.096
761	0.096
762	0.096
762	0.097
763	0.097
763	0.096
764	0.096
764	0.096
764	0.096
765	0.095
765	0.095
766	0.095
766	0.094
767	0.094
767	0.093
768	0.092
768	0.092
768	0.092
769	0.092
769	0.092
770	0.093
770	0.093
771	0.093
771	0.093
771	0.094
772	0.094
772	0.095
773	0.095
773	0.095
774	0.095
774	0.096
775	0.096
775	0.096
775	0.097
776	0.097
776	0.098
777	0.099
777	0.099
778	0.099
778	0.099
778	0.098
779	0.098
779	0.097
780	0.096
780	0.095
781	0.093
781	0.092
781	0.091
782	0.09
782	0.09
783	0.09
783	0.09
784	0.089
784	0.09
784	0.09
785	0.091
785	0.091
786	0.091
786	0.091
787	0.092
787	0.091
788	0.091
788	0.091
788	0.09
789	0.09
789	0.09
790	0.09
790	0.09
791	0.089
791	0.089
791	0.088
792	0.088
792	0.088
793	0.087
793	0.087
794	0.086
794	0.086
794	0.086
795	0.085
795	0.085
796	0.085
796	0.085
797	0.084
797	0.085
797	0.085
798	0.085
798	0.085
799	0.085
799	0.085
800	0.085
800	0.085
801	0.086
801	0.086
801	0.087
802	0.087
802	0.088
803	0.088
803	0.089
804	0.089
804	0.09
804	0.09
805	0.09
805	0.089
806	0.089
806	0.089
807	0.088
807	0.088
807	0.088
808	0.088
808	0.088
809	0.087
809	0.087
810	0.087
810	0.087
810	0.087
811	0.087
811	0.087
812	0.088
812	0.087
813	0.087
813	0.087
813	0.087
814	0.088
814	0.088
815	0.088
815	0.088
816	0.087
816	0.087
817	0.086
817	0.086
817	0.085
818	0.085
818	0.085
819	0.085
819	0.084
820	0.083
820	0.083
820	0.083
821	0.083
821	0.083
822	0.083
822	0.083
823	0.083
823	0.083
823	0.083
824	0.084
824	0.085
825	0.086
825	0.086
826	0.087
826	0.088
826	0.088
827	0.089
827	0.089
828	0.09
828	0.09
829	0.09
829	0.091
829	0.091
830	0.091
830	0.091
831	0.092
831	0.092
832	0.092
832	0.091
832	0.091
833	0.091
833	0.09
834	0.09
834	0.089
835	0.088
835	0.087
835	0.086
836	0.086
836	0.085
837	0.084
837	0.084
838	0.083
838	0.083
839	0.082
839	0.081
839	0.08
840	0.08
840	0.079
841	0.078
841	0.077
842	0.076
842	0.075
842	0.074
843	0.074
843	0.073
844	0.072
844	0.072
845	0.071
845	0.071
845	0.071
846	0.071
846	0.071
847	0.072
847	0.072
848	0.073
848	0.073
848	0.073
849	0.073
849	0.073
850	0.073
850	0.073
851	0.073
851	0.072
851	0.072
852	0.072
852	0.071
853	0.071
853	0.072
854	0.072
854	0.073
854	0.074
855	0.075
855	0.076
856	0.077
856	0.078
857	0.079
857	0.08
857	0.081
858	0.081
858	0.08
859	0.08
859	0.079
860	0.079
860	0.078
860	0.078
861	0.077
861	0.076
862	0.075
862	0.075
863	0.075
863	0.075
863	0.075
864	0.075
864	0.075
865	0.076
865	0.076
866	0.076
866	0.076
866	0.076
867	0.077
867	0.077
868	0.077
868	0.077
869	0.077
869	0.077
869	0.076
870	0.076
870	0.076
871	0.076
871	0.076
872	0.075
872	0.075
872	0.075
873	0.074
873	0.074
874	0.073
874	0.073
875	0.073
875	0.072
875	0.072
876	0.072
876	0.072
877	0.072
877	0.072
878	0.072
878	0.072
878	0.072
879	0.072
879	0.073
880	0.073
880	0.073
881	0.073
881	0.073
881	0.073
882	0.073
882	0.073
883	0.072
883	0.072
884	0.072
884	0.072
884	0.072
885	0.072
885	0.071
886	0.071
886	0.071
887	0.071
887	0.071
887	0.07
888	0.07
888	0.07
889	0.07
889	0.07
890	0.071
890	0.071
890	0.072
891	0.072
891	0.072
892	0.072
892	0.072
893	0.071
893	0.071
893	0.071
894	0.07
894	0.069
895	0.069
895	0.069
895	0.069
896	0.069
896	0.069
897	0.07
897	0.07
898	0.07
898	0.07
898	0.07
899	0.07
899	0.07
900	0.07
900	0.07
901	0.07
901	0.069
901	0.069
902	0.069
902	0.068
903	0.068
903	0.068
904	0.068
904	0.068
904	0.068
905	0.067
905	0.067
906	0.067
906	0.067
907	0.067
907	0.067
907	0.067
908	0.067
908	0.066
909	0.066
909	0.065
910	0.065
910	0.065
910	0.065
911	0.064
911	0.064
912	0.063
912	0.063
913	0.062
913	0.062
913	0.062
914	0.061
914	0.061
915	0.061
915	0.06
916	0.06
916	0.06
916	0.059
917	0.059
917	0.059
918	0.058
918	0.058
918	0.058
919	0.057
919	0.057
920	0.057
920	0.056
921	0.056
921	0.056
921	0.056
922	0.056
922	0.057
923	0.057
923	0.058
924	0.058
924	0.059
924	0.059
925	0.06
925	0.06
926	0.061
926	0.061
927	0.061
927	0.062
927	0.062
928	0.062
928	0.062
929	0.062
929	0.063
930	0.062
930	0.062
930	0.063
931	0.063
931	0.063
932	0.063
932	0.063
933	0.063
933	0.063
933	0.063
934	0.062
934	0.062
935	0.062
935	0.061
935	0.061
936	0.06
936	0.059
937	0.059
937	0.058
938	0.057
938	0.056
938	0.055
939	0.055
939	0.054
940	0.054
940	0.054
941	0.054
941	0.054
941	0.055
942	0.055
942	0.056
943	0.057
943	0.057
944	0.058
944	0.059
944	0.06
945	0.06
945	0.061
946	0.061
946	0.061
946	0.062
947	0.062
947	0.061
948	0.061
948	0.061
949	0.06
949	0.06
949	0.059
950	0.058
950	0.058
951	0.057
951	0.057
952	0.056
952	0.055
952	0.055
953	0.054
953	0.054
954	0.054
954	0.054
955	0.054
955	0.054
955	0.054
956	0.055
956	0.056
957	0.057
957	0.057
957	0.058
958	0.059
958	0.059
959	0.059
959	0.06
960	0.06
960	0.06
960	0.06
961	0.06
961	0.06
962	0.06
962	0.059
963	0.059
963	0.058
963	0.058
964	0.058
964	0.057
965	0.057
965	0.057
966	0.057
966	0.057
966	0.057
967	0.058
967	0.058
968	0.058
968	0.058
968	0.058
969	0.058
969	0.057
970	0.057
970	0.056
971	0.055
971	0.054
971	0.054
972	0.053
972	0.052
973	0.052
973	0.051
974	0.051
974	0.051
974	0.052
975	0.052
975	0.052
976	0.053
976	0.053
976	0.054
977	0.054
977	0.054
978	0.055
978	0.055
979	0.055
979	0.055
979	0.056
980	0.056
980	0.056
981	0.056
981	0.056
982	0.055
982	0.055
982	0.055
983	0.055
983	0.055
984	0.054
984	0.054
984	0.054
985	0.054
985	0.053
986	0.053
986	0.053
987	0.053
987	0.053
987	0.053
988	0.052
988	0.052
989	0.052
989	0.052
990	0.051
990	0.051
990	0.051
991	0.05
991	0.05
992	0.05
992	0.049
992	0.048
993	0.047
993	0.047
994	0.046
994	0.045
995	0.044
995	0.044
995	0.044
996	0.044
996	0.044
997	0.044
997	0.044
997	0.044
998	0.045
998	0.045
999	0.046
999	0.046
1000	0.047
1000	0.047
1000	0.047
1001	0.047
1001	0.048
1002	0.048
1002	0.048
1003	0.048
1003	0.048
1003	0.048
1004	0.048
1004	0.047
1005	0.047
1005	0.047
1005	0.046
1006	0.046
1006	0.046
1007	0.045
1007	0.044
1008	0.044
1008	0.044
1008	0.043
1009	0.043
1009	0.043
1010	0.043
1010	0.042
1010	0.042
1011	0.042
1011	0.041
1012	0.041
1012	0.041
1013	0.041
1013	0.041
1013	0.04
1014	0.04
1014	0.04
1015	0.04
1015	0.041
1016	0.041
1016	0.041
1016	0.042
1017	0.042
1017	0.042
1018	0.042
1018	0.042
1018	0.043
1019	0.043
1019	0.043
1020	0.043
1020	0.043
1021	0.044
1021	0.044
1021	0.045
1022	0.045
1022	0.045
1023	0.046
1023	0.046
1023	0.046
1024	0.046
1024	0.046
1025	0.046
1025	0.046
1026	0.046
1026	0.045
1026	0.045
1027	0.045
1027	0.045
1028	0.045
1028	0.045
1028	0.045
1029	0.045
1029	0.045
1030	0.045
1030	0.045
1031	0.045
1031	0.045
1031	0.045
1032	0.046
1032	0.046
1033	0.046
1033	0.046
1033	0.046
1034	0.047
1034	0.047
1035	0.047
1035	0.047
1036	0.047
1036	0.047
1036	0.047
1037	0.047
1037	0.047
1038	0.047
1038	0.047
1039	0.046
1039	0.046
1039	0.046
1040	0.046
1040	0.046
1041	0.046
1041	0.046
1041	0.046
1042	0.045
1042	0.045
1043	0.045
1043	0.045
1044	0.044
1044	0.044
1044	0.044
1045	0.043
1045	0.043
1046	0.043
1046	0.043
1046	0.043
1047	0.042
1047	0.042
1048	0.042
1048	0.042
1049	0.042
1049	0.042
1049	0.042
1050	0.042
1050	0.041
1051	0.041
1051	0.041
1051	0.04
1052	0.04
1052	0.039
1053	0.038
1053	0.038
1053	0.037
1054	0.037
1054	0.036
1055	0.036
1055	0.036
1056	0.035
1056	0.035
1056	0.035
1057	0.035
1057	0.034
1058	0.034
1058	0.034
1058	0.034
1059	0.033
1059	0.033
1060	0.033
1060	0.033
1061	0.032
1061	0.032
1061	0.032
1062	0.032
1062	0.032
1063	0.033
1063	0.033
1063	0.033
1064	0.033
1064	0.033
1065	0.033
1065	0.033
1066	0.033
1066	0.033
1066	0.033
1067	0.033
1067	0.033
1068	0.033
1068	0.034
1068	0.033
1069	0.034
1069	0.033
1070	0.033
1070	0.033
1071	0.033
1071	0.033
1071	0.032
1072	0.032
1072	0.032
1073	0.031
1073	0.031
1073	0.031
1074	0.032
1074	0.032
1075	0.032
1075	0.032
1076	0.032
1076	0.033
1076	0.033
1077	0.034
1077	0.035
1078	0.035
1078	0.035
1078	0.035
1079	0.035
1079	0.035
1080	0.035
1080	0.035
1080	0.034
1081	0.034
1081	0.034
1082	0.034
1082	0.034
1083	0.034
1083	0.034
1083	0.034
1084	0.034
1084	0.035
1085	0.035
1085	0.035
1085	0.035
1086	0.035
1086	0.034
1087	0.034
1087	0.034
1088	0.034
1088	0.034
1088	0.034
1089	0.034
1089	0.033
1090	0.032
1090	0.032
1090	0.031
1091	0.031
1091	0.031
1092	0.031
1092	0.031
1092	0.031
1093	0.03
1093	0.03
1094	0.03
1094	0.03
1095	0.03
1095	0.03
1095	0.03
1096	0.029
1096	0.028
1097	0.028
1097	0.027
1097	0.027
1098	0.027
1098	0.026
1099	0.025
1099	0.024
1100	0.023
1100	0.022
1100	0.022
1101	0.022
1101	0.021
1102	0.021
1102	0.021
1102	0.019
1103	0.019
1103	0.018
1104	0.018
1104	0.019
1104	0.019
1105	0.018
1105	0.016
1106	0.015
1106	0.014
1107	0.014
1107	0.015
1107	0.014
1108	0.013
1108	0.013
1109	0.011
1109	0.01
1109	0.01
1110	0.012
1110	0.011
1111	0.015
1111	0.014
