Data from reversibility-20sec_Absorbance__2257__000000000002257.txt Node

Date: Wed Dec 06 00:45:26 CET 2023
User: Marek
Spectrometer: MAYP115816
Trigger mode: 0
Integration Time (sec): 2.000000E-1
Scans to average: 10
Electric dark correction enabled: true
Nonlinearity correction enabled: true
Boxcar width: 5
XAxis mode: Wavelengths
Number of Pixels in Spectrum: 2068
>>>>>Begin Spectral Data<<<<<
199	-0.176
199	-0.145
200	-0.081
200	-0.026
201	0.001
201	0.018
202	0.036
202	0.048
203	0.054
203	0.057
204	0.071
204	0.084
205	0.096
205	0.102
205	0.1
206	0.1
206	0.1
207	0.1
207	0.096
208	0.097
208	0.097
209	0.101
209	0.098
210	0.098
210	0.099
211	0.098
211	0.103
212	0.103
212	0.104
213	0.11
213	0.11
213	0.11
214	0.112
214	0.113
215	0.117
215	0.117
216	0.121
216	0.117
217	0.118
217	0.122
218	0.121
218	0.127
219	0.132
219	0.134
220	0.135
220	0.134
221	0.134
221	0.136
221	0.143
222	0.152
222	0.151
223	0.154
223	0.158
224	0.161
224	0.167
225	0.176
225	0.187
226	0.199
226	0.208
227	0.22
227	0.228
228	0.243
228	0.26
229	0.275
229	0.3
229	0.325
230	0.352
230	0.381
231	0.413
231	0.453
232	0.488
232	0.534
233	0.581
233	0.631
234	0.682
234	0.734
235	0.787
235	0.842
236	0.892
236	0.947
236	1
237	1.053
237	1.102
238	1.148
238	1.2
239	1.249
239	1.294
240	1.335
240	1.373
241	1.414
241	1.451
242	1.483
242	1.52
243	1.554
243	1.584
243	1.608
244	1.632
244	1.656
245	1.677
245	1.705
246	1.728
246	1.747
247	1.763
247	1.779
248	1.797
248	1.814
249	1.832
249	1.843
250	1.855
250	1.864
250	1.87
251	1.874
251	1.88
252	1.891
252	1.895
253	1.897
253	1.896
254	1.893
254	1.897
255	1.898
255	1.9
256	1.901
256	1.903
257	1.904
257	1.902
258	1.903
258	1.905
258	1.907
259	1.91
259	1.909
260	1.909
260	1.913
261	1.912
261	1.917
262	1.921
262	1.925
263	1.932
263	1.935
264	1.937
264	1.94
265	1.943
265	1.946
265	1.948
266	1.953
266	1.957
267	1.955
267	1.959
268	1.955
268	1.957
269	1.962
269	1.963
270	1.965
270	1.964
271	1.963
271	1.962
272	1.957
272	1.956
272	1.95
273	1.945
273	1.937
274	1.928
274	1.919
275	1.91
275	1.903
276	1.894
276	1.887
277	1.88
277	1.87
278	1.859
278	1.847
278	1.834
279	1.816
279	1.794
280	1.765
280	1.73
281	1.689
281	1.643
282	1.595
282	1.547
283	1.5
283	1.455
284	1.411
284	1.37
285	1.331
285	1.297
285	1.266
286	1.239
286	1.216
287	1.195
287	1.178
288	1.163
288	1.15
289	1.14
289	1.13
290	1.123
290	1.116
291	1.11
291	1.105
292	1.1
292	1.095
292	1.091
293	1.088
293	1.084
294	1.081
294	1.078
295	1.074
295	1.071
296	1.068
296	1.065
297	1.062
297	1.06
298	1.056
298	1.053
298	1.051
299	1.049
299	1.046
300	1.043
300	1.04
301	1.038
301	1.036
302	1.033
302	1.03
303	1.028
303	1.026
304	1.024
304	1.021
305	1.019
305	1.017
305	1.014
306	1.012
306	1.009
307	1.007
307	1.004
308	1.001
308	0.999
309	0.996
309	0.993
310	0.99
310	0.987
311	0.984
311	0.981
311	0.978
312	0.974
312	0.971
313	0.967
313	0.963
314	0.959
314	0.955
315	0.951
315	0.947
316	0.942
316	0.937
317	0.932
317	0.927
318	0.922
318	0.917
318	0.912
319	0.906
319	0.901
320	0.896
320	0.89
321	0.884
321	0.878
322	0.872
322	0.865
323	0.858
323	0.852
324	0.845
324	0.838
324	0.831
325	0.824
325	0.818
326	0.811
326	0.804
327	0.797
327	0.79
328	0.783
328	0.776
329	0.768
329	0.761
330	0.754
330	0.747
330	0.74
331	0.732
331	0.725
332	0.718
332	0.711
333	0.704
333	0.697
334	0.69
334	0.683
335	0.676
335	0.669
336	0.663
336	0.656
336	0.65
337	0.643
337	0.637
338	0.63
338	0.624
339	0.618
339	0.612
340	0.606
340	0.6
341	0.594
341	0.589
342	0.583
342	0.577
342	0.572
343	0.567
343	0.562
344	0.557
344	0.552
345	0.547
345	0.542
346	0.537
346	0.533
347	0.528
347	0.524
348	0.519
348	0.516
348	0.511
349	0.508
349	0.504
350	0.5
350	0.497
351	0.493
351	0.49
352	0.487
352	0.484
353	0.481
353	0.478
354	0.475
354	0.472
354	0.469
355	0.466
355	0.463
356	0.46
356	0.457
357	0.454
357	0.451
358	0.448
358	0.445
359	0.443
359	0.44
360	0.438
360	0.436
360	0.434
361	0.431
361	0.429
362	0.428
362	0.426
363	0.424
363	0.422
364	0.42
364	0.418
365	0.417
365	0.415
366	0.413
366	0.411
366	0.41
367	0.408
367	0.406
368	0.404
368	0.403
369	0.401
369	0.4
370	0.398
370	0.397
371	0.395
371	0.394
372	0.392
372	0.391
372	0.39
373	0.389
373	0.388
374	0.387
374	0.385
375	0.384
375	0.383
376	0.382
376	0.381
377	0.38
377	0.379
378	0.378
378	0.377
378	0.376
379	0.375
379	0.374
380	0.373
380	0.373
381	0.372
381	0.371
382	0.37
382	0.369
383	0.368
383	0.368
383	0.367
384	0.366
384	0.365
385	0.365
385	0.364
386	0.363
386	0.363
387	0.362
387	0.361
388	0.361
388	0.36
389	0.36
389	0.359
389	0.358
390	0.358
390	0.357
391	0.357
391	0.357
392	0.356
392	0.356
393	0.355
393	0.355
394	0.354
394	0.354
394	0.353
395	0.353
395	0.352
396	0.352
396	0.351
397	0.351
397	0.35
398	0.35
398	0.349
399	0.349
399	0.349
400	0.348
400	0.348
400	0.347
401	0.347
401	0.346
402	0.346
402	0.345
403	0.345
403	0.344
404	0.344
404	0.343
405	0.343
405	0.343
405	0.342
406	0.342
406	0.341
407	0.341
407	0.34
408	0.34
408	0.34
409	0.34
409	0.339
410	0.339
410	0.338
411	0.338
411	0.338
411	0.338
412	0.338
412	0.337
413	0.337
413	0.336
414	0.336
414	0.336
415	0.335
415	0.335
416	0.334
416	0.334
416	0.333
417	0.333
417	0.333
418	0.332
418	0.332
419	0.331
419	0.331
420	0.331
420	0.33
421	0.33
421	0.329
421	0.329
422	0.329
422	0.328
423	0.328
423	0.328
424	0.327
424	0.327
425	0.326
425	0.326
426	0.326
426	0.325
427	0.325
427	0.325
427	0.324
428	0.324
428	0.324
429	0.323
429	0.323
430	0.323
430	0.322
431	0.322
431	0.322
432	0.322
432	0.321
432	0.321
433	0.321
433	0.321
434	0.321
434	0.32
435	0.32
435	0.32
436	0.32
436	0.32
437	0.319
437	0.319
437	0.319
438	0.319
438	0.318
439	0.318
439	0.318
440	0.318
440	0.318
441	0.317
441	0.317
442	0.317
442	0.316
442	0.316
443	0.316
443	0.316
444	0.316
444	0.315
445	0.315
445	0.315
446	0.315
446	0.315
447	0.315
447	0.314
447	0.314
448	0.314
448	0.314
449	0.314
449	0.314
450	0.314
450	0.313
451	0.313
451	0.313
452	0.313
452	0.313
452	0.313
453	0.313
453	0.313
454	0.313
454	0.312
455	0.312
455	0.312
456	0.312
456	0.312
457	0.312
457	0.311
458	0.311
458	0.311
458	0.311
459	0.311
459	0.311
460	0.311
460	0.311
461	0.311
461	0.311
462	0.311
462	0.31
463	0.31
463	0.31
463	0.31
464	0.309
464	0.309
465	0.309
465	0.309
466	0.309
466	0.309
467	0.309
467	0.309
467	0.309
468	0.309
468	0.309
469	0.31
469	0.31
470	0.311
470	0.311
471	0.311
471	0.311
472	0.311
472	0.312
472	0.312
473	0.312
473	0.312
474	0.312
474	0.312
475	0.313
475	0.313
476	0.313
476	0.313
477	0.313
477	0.314
477	0.314
478	0.314
478	0.314
479	0.314
479	0.315
480	0.315
480	0.315
481	0.315
481	0.315
482	0.316
482	0.316
482	0.316
483	0.317
483	0.318
484	0.319
484	0.319
485	0.319
485	0.32
486	0.32
486	0.32
487	0.321
487	0.322
487	0.322
488	0.323
488	0.323
489	0.324
489	0.325
490	0.326
490	0.327
491	0.328
491	0.329
492	0.33
492	0.331
492	0.332
493	0.333
493	0.334
494	0.335
494	0.336
495	0.336
495	0.337
496	0.338
496	0.339
496	0.34
497	0.341
497	0.342
498	0.342
498	0.343
499	0.344
499	0.345
500	0.346
500	0.347
501	0.348
501	0.349
501	0.35
502	0.351
502	0.352
503	0.353
503	0.354
504	0.355
504	0.356
505	0.357
505	0.357
506	0.358
506	0.359
506	0.36
507	0.361
507	0.361
508	0.362
508	0.363
509	0.363
509	0.364
510	0.365
510	0.366
511	0.367
511	0.368
511	0.369
512	0.37
512	0.371
513	0.372
513	0.372
514	0.374
514	0.374
515	0.375
515	0.375
515	0.376
516	0.376
516	0.377
517	0.377
517	0.378
518	0.379
518	0.379
519	0.379
519	0.379
520	0.38
520	0.38
520	0.38
521	0.38
521	0.38
522	0.38
522	0.38
523	0.38
523	0.38
524	0.38
524	0.38
524	0.38
525	0.38
525	0.38
526	0.38
526	0.379
527	0.379
527	0.379
528	0.379
528	0.378
529	0.378
529	0.377
529	0.377
530	0.376
530	0.375
531	0.375
531	0.374
532	0.373
532	0.372
533	0.372
533	0.371
533	0.37
534	0.369
534	0.369
535	0.368
535	0.367
536	0.366
536	0.365
537	0.364
537	0.363
538	0.362
538	0.361
538	0.36
539	0.359
539	0.358
540	0.357
540	0.356
541	0.355
541	0.354
542	0.352
542	0.351
542	0.35
543	0.349
543	0.347
544	0.346
544	0.345
545	0.344
545	0.343
546	0.342
546	0.34
547	0.339
547	0.338
547	0.336
548	0.335
548	0.334
549	0.333
549	0.332
550	0.33
550	0.329
551	0.327
551	0.326
551	0.325
552	0.323
552	0.322
553	0.321
553	0.32
554	0.318
554	0.317
555	0.315
555	0.314
556	0.312
556	0.311
556	0.31
557	0.309
557	0.308
558	0.307
558	0.306
559	0.305
559	0.304
560	0.303
560	0.302
560	0.301
561	0.3
561	0.299
562	0.298
562	0.296
563	0.295
563	0.293
564	0.292
564	0.291
564	0.29
565	0.289
565	0.288
566	0.287
566	0.286
567	0.285
567	0.284
568	0.283
568	0.282
568	0.282
569	0.281
569	0.28
570	0.278
570	0.277
571	0.276
571	0.275
572	0.274
572	0.273
573	0.272
573	0.271
573	0.27
574	0.268
574	0.267
575	0.267
575	0.266
576	0.266
576	0.264
577	0.263
577	0.262
577	0.262
578	0.261
578	0.26
579	0.26
579	0.26
580	0.258
580	0.257
581	0.256
581	0.255
581	0.255
582	0.255
582	0.254
583	0.254
583	0.253
584	0.252
584	0.25
585	0.249
585	0.248
585	0.248
586	0.247
586	0.246
587	0.245
587	0.244
588	0.243
588	0.242
589	0.241
589	0.241
590	0.241
590	0.24
590	0.24
591	0.24
591	0.239
592	0.239
592	0.238
593	0.237
593	0.237
594	0.236
594	0.235
594	0.234
595	0.234
595	0.233
596	0.232
596	0.232
597	0.233
597	0.232
598	0.232
598	0.232
598	0.231
599	0.231
599	0.23
600	0.229
600	0.229
601	0.228
601	0.228
602	0.227
602	0.226
602	0.225
603	0.224
603	0.224
604	0.224
604	0.224
605	0.223
605	0.223
606	0.223
606	0.222
606	0.222
607	0.221
607	0.221
608	0.221
608	0.22
609	0.219
609	0.219
610	0.218
610	0.217
610	0.217
611	0.217
611	0.216
612	0.216
612	0.217
613	0.217
613	0.217
614	0.216
614	0.216
614	0.215
615	0.215
615	0.215
616	0.214
616	0.214
617	0.214
617	0.214
618	0.213
618	0.213
618	0.213
619	0.214
619	0.214
620	0.214
620	0.213
621	0.213
621	0.212
622	0.211
622	0.21
622	0.209
623	0.208
623	0.208
624	0.207
624	0.206
625	0.205
625	0.205
626	0.205
626	0.204
626	0.204
627	0.204
627	0.204
628	0.204
628	0.203
629	0.203
629	0.203
630	0.203
630	0.203
630	0.203
631	0.203
631	0.202
632	0.202
632	0.202
633	0.202
633	0.202
634	0.202
634	0.201
634	0.201
635	0.201
635	0.2
636	0.2
636	0.2
637	0.199
637	0.199
638	0.199
638	0.198
638	0.198
639	0.197
639	0.197
640	0.197
640	0.197
641	0.196
641	0.196
642	0.196
642	0.196
642	0.196
643	0.195
643	0.195
644	0.195
644	0.195
645	0.195
645	0.195
646	0.195
646	0.195
646	0.195
647	0.195
647	0.194
648	0.194
648	0.193
649	0.193
649	0.193
650	0.193
650	0.193
650	0.193
651	0.193
651	0.193
652	0.193
652	0.194
653	0.194
653	0.196
653	0.202
654	0.158
654	0.126
655	0.127
655	0.127
656	0.128
656	0.128
657	0.128
657	0.128
657	0.128
658	0.127
658	0.116
659	0.147
659	0.189
660	0.193
660	0.193
661	0.193
661	0.192
661	0.192
662	0.192
662	0.191
663	0.19
663	0.19
664	0.19
664	0.189
665	0.189
665	0.189
665	0.19
666	0.19
666	0.19
667	0.191
667	0.191
668	0.192
668	0.192
669	0.192
669	0.192
669	0.193
670	0.193
670	0.192
671	0.192
671	0.192
672	0.191
672	0.19
672	0.19
673	0.19
673	0.19
674	0.19
674	0.189
675	0.189
675	0.189
676	0.188
676	0.188
676	0.188
677	0.188
677	0.188
678	0.188
678	0.187
679	0.187
679	0.187
680	0.188
680	0.188
680	0.188
681	0.189
681	0.189
682	0.19
682	0.19
683	0.19
683	0.191
684	0.191
684	0.191
684	0.19
685	0.19
685	0.19
686	0.19
686	0.19
687	0.189
687	0.189
687	0.189
688	0.188
688	0.188
689	0.189
689	0.189
690	0.189
690	0.188
691	0.188
691	0.189
691	0.189
692	0.189
692	0.19
693	0.19
693	0.191
694	0.191
694	0.191
695	0.191
695	0.192
695	0.192
696	0.192
696	0.191
697	0.191
697	0.191
698	0.19
698	0.189
698	0.189
699	0.189
699	0.189
700	0.189
700	0.189
701	0.189
701	0.19
702	0.19
702	0.19
702	0.19
703	0.19
703	0.19
704	0.19
704	0.19
705	0.19
705	0.19
705	0.189
706	0.189
706	0.189
707	0.189
707	0.189
708	0.189
708	0.189
709	0.189
709	0.188
709	0.188
710	0.187
710	0.187
711	0.187
711	0.187
712	0.187
712	0.187
713	0.187
713	0.187
713	0.187
714	0.187
714	0.187
715	0.187
715	0.187
716	0.187
716	0.187
716	0.186
717	0.186
717	0.186
718	0.185
718	0.185
719	0.185
719	0.185
720	0.186
720	0.186
720	0.186
721	0.186
721	0.187
722	0.187
722	0.187
723	0.187
723	0.188
723	0.188
724	0.188
724	0.188
725	0.188
725	0.187
726	0.187
726	0.187
727	0.186
727	0.186
727	0.186
728	0.186
728	0.186
729	0.186
729	0.186
730	0.186
730	0.187
730	0.188
731	0.188
731	0.189
732	0.189
732	0.19
733	0.19
733	0.189
734	0.189
734	0.189
734	0.189
735	0.189
735	0.188
736	0.187
736	0.187
737	0.186
737	0.186
737	0.185
738	0.185
738	0.184
739	0.184
739	0.183
740	0.183
740	0.183
741	0.184
741	0.184
741	0.184
742	0.184
742	0.185
743	0.185
743	0.186
744	0.187
744	0.187
744	0.187
745	0.187
745	0.187
746	0.187
746	0.187
747	0.187
747	0.188
748	0.188
748	0.188
748	0.188
749	0.189
749	0.189
750	0.19
750	0.19
751	0.19
751	0.19
751	0.191
752	0.19
752	0.19
753	0.19
753	0.19
754	0.189
754	0.189
754	0.189
755	0.189
755	0.189
756	0.188
756	0.187
757	0.187
757	0.186
758	0.186
758	0.186
758	0.186
759	0.186
759	0.186
760	0.186
760	0.186
761	0.186
761	0.187
761	0.188
762	0.188
762	0.189
763	0.19
763	0.19
764	0.19
764	0.19
764	0.191
765	0.191
765	0.191
766	0.191
766	0.19
767	0.19
767	0.189
768	0.189
768	0.188
768	0.188
769	0.188
769	0.187
770	0.187
770	0.186
771	0.186
771	0.186
771	0.186
772	0.186
772	0.186
773	0.186
773	0.186
774	0.187
774	0.187
775	0.188
775	0.188
775	0.188
776	0.188
776	0.188
777	0.189
777	0.189
778	0.189
778	0.188
778	0.188
779	0.188
779	0.188
780	0.187
780	0.187
781	0.187
781	0.187
781	0.187
782	0.186
782	0.186
783	0.186
783	0.186
784	0.185
784	0.185
784	0.185
785	0.185
785	0.185
786	0.185
786	0.185
787	0.185
787	0.185
788	0.185
788	0.184
788	0.184
789	0.184
789	0.184
790	0.184
790	0.184
791	0.184
791	0.184
791	0.184
792	0.185
792	0.185
793	0.185
793	0.185
794	0.185
794	0.185
794	0.185
795	0.186
795	0.186
796	0.186
796	0.186
797	0.186
797	0.186
797	0.186
798	0.185
798	0.185
799	0.184
799	0.184
800	0.183
800	0.182
801	0.181
801	0.181
801	0.18
802	0.18
802	0.18
803	0.18
803	0.18
804	0.18
804	0.181
804	0.181
805	0.181
805	0.181
806	0.181
806	0.181
807	0.181
807	0.181
807	0.18
808	0.18
808	0.18
809	0.18
809	0.18
810	0.179
810	0.179
810	0.179
811	0.179
811	0.179
812	0.179
812	0.179
813	0.179
813	0.18
813	0.18
814	0.18
814	0.18
815	0.18
815	0.179
816	0.179
816	0.178
817	0.178
817	0.177
817	0.177
818	0.176
818	0.176
819	0.176
819	0.175
820	0.175
820	0.174
820	0.174
821	0.174
821	0.174
822	0.173
822	0.173
823	0.173
823	0.172
823	0.172
824	0.172
824	0.173
825	0.173
825	0.173
826	0.173
826	0.173
826	0.173
827	0.172
827	0.172
828	0.172
828	0.171
829	0.171
829	0.17
829	0.17
830	0.17
830	0.17
831	0.17
831	0.17
832	0.17
832	0.171
832	0.171
833	0.171
833	0.17
834	0.17
834	0.17
835	0.17
835	0.17
835	0.17
836	0.17
836	0.17
837	0.17
837	0.17
838	0.17
838	0.17
839	0.169
839	0.168
839	0.167
840	0.166
840	0.165
841	0.164
841	0.162
842	0.161
842	0.16
842	0.159
843	0.158
843	0.157
844	0.156
844	0.156
845	0.156
845	0.155
845	0.155
846	0.155
846	0.155
847	0.155
847	0.156
848	0.156
848	0.156
848	0.157
849	0.157
849	0.157
850	0.157
850	0.157
851	0.157
851	0.157
851	0.157
852	0.156
852	0.155
853	0.155
853	0.154
854	0.154
854	0.154
854	0.154
855	0.154
855	0.154
856	0.154
856	0.154
857	0.155
857	0.155
857	0.155
858	0.155
858	0.155
859	0.154
859	0.153
860	0.152
860	0.151
860	0.15
861	0.149
861	0.148
862	0.146
862	0.145
863	0.144
863	0.144
863	0.143
864	0.143
864	0.143
865	0.143
865	0.142
866	0.142
866	0.142
866	0.142
867	0.142
867	0.142
868	0.142
868	0.142
869	0.142
869	0.141
869	0.141
870	0.141
870	0.141
871	0.141
871	0.141
872	0.141
872	0.14
872	0.14
873	0.14
873	0.14
874	0.139
874	0.139
875	0.138
875	0.138
875	0.137
876	0.137
876	0.137
877	0.137
877	0.137
878	0.137
878	0.137
878	0.138
879	0.139
879	0.139
880	0.14
880	0.14
881	0.141
881	0.141
881	0.141
882	0.14
882	0.14
883	0.139
883	0.138
884	0.137
884	0.136
884	0.135
885	0.135
885	0.134
886	0.133
886	0.132
887	0.131
887	0.13
887	0.13
888	0.129
888	0.128
889	0.128
889	0.128
890	0.127
890	0.127
890	0.127
891	0.127
891	0.127
892	0.128
892	0.128
893	0.128
893	0.129
893	0.129
894	0.129
894	0.129
895	0.129
895	0.129
895	0.129
896	0.128
896	0.128
897	0.127
897	0.126
898	0.126
898	0.125
898	0.124
899	0.124
899	0.123
900	0.123
900	0.123
901	0.122
901	0.122
901	0.122
902	0.122
902	0.122
903	0.122
903	0.122
904	0.121
904	0.121
904	0.121
905	0.12
905	0.12
906	0.12
906	0.12
907	0.12
907	0.12
907	0.12
908	0.12
908	0.12
909	0.119
909	0.119
910	0.119
910	0.119
910	0.118
911	0.118
911	0.118
912	0.118
912	0.118
913	0.117
913	0.117
913	0.117
914	0.117
914	0.117
915	0.116
915	0.116
916	0.116
916	0.115
916	0.114
917	0.114
917	0.113
918	0.112
918	0.112
918	0.111
919	0.11
919	0.11
920	0.109
920	0.109
921	0.108
921	0.108
921	0.107
922	0.107
922	0.106
923	0.106
923	0.106
924	0.106
924	0.106
924	0.106
925	0.106
925	0.106
926	0.106
926	0.106
927	0.106
927	0.106
927	0.106
928	0.106
928	0.106
929	0.106
929	0.106
930	0.106
930	0.106
930	0.106
931	0.105
931	0.106
932	0.106
932	0.106
933	0.106
933	0.105
933	0.105
934	0.104
934	0.104
935	0.104
935	0.103
935	0.103
936	0.103
936	0.103
937	0.102
937	0.102
938	0.102
938	0.102
938	0.102
939	0.102
939	0.102
940	0.102
940	0.102
941	0.102
941	0.102
941	0.103
942	0.103
942	0.103
943	0.103
943	0.103
944	0.103
944	0.103
944	0.103
945	0.103
945	0.103
946	0.103
946	0.103
946	0.103
947	0.103
947	0.103
948	0.103
948	0.103
949	0.102
949	0.102
949	0.102
950	0.101
950	0.101
951	0.1
951	0.099
952	0.099
952	0.098
952	0.097
953	0.097
953	0.096
954	0.095
954	0.094
955	0.094
955	0.093
955	0.092
956	0.092
956	0.092
957	0.092
957	0.091
957	0.091
958	0.091
958	0.091
959	0.091
959	0.091
960	0.092
960	0.092
960	0.092
961	0.092
961	0.092
962	0.092
962	0.092
963	0.092
963	0.093
963	0.093
964	0.093
964	0.093
965	0.093
965	0.093
966	0.094
966	0.094
966	0.094
967	0.095
967	0.095
968	0.095
968	0.096
968	0.096
969	0.096
969	0.096
970	0.096
970	0.095
971	0.095
971	0.095
971	0.095
972	0.094
972	0.094
973	0.094
973	0.094
974	0.094
974	0.094
974	0.094
975	0.094
975	0.094
976	0.095
976	0.095
976	0.095
977	0.095
977	0.095
978	0.095
978	0.095
979	0.095
979	0.095
979	0.095
980	0.095
980	0.094
981	0.093
981	0.093
982	0.093
982	0.092
982	0.092
983	0.091
983	0.09
984	0.089
984	0.088
984	0.087
985	0.086
985	0.085
986	0.084
986	0.084
987	0.083
987	0.082
987	0.082
988	0.082
988	0.081
989	0.081
989	0.081
990	0.081
990	0.081
990	0.08
991	0.08
991	0.08
992	0.08
992	0.079
992	0.078
993	0.078
993	0.078
994	0.078
994	0.078
995	0.077
995	0.078
995	0.078
996	0.079
996	0.08
997	0.08
997	0.081
997	0.082
998	0.083
998	0.084
999	0.085
999	0.085
1000	0.086
1000	0.087
1000	0.087
1001	0.088
1001	0.088
1002	0.088
1002	0.088
1003	0.087
1003	0.087
1003	0.086
1004	0.086
1004	0.085
1005	0.084
1005	0.083
1005	0.082
1006	0.081
1006	0.081
1007	0.08
1007	0.08
1008	0.079
1008	0.079
1008	0.079
1009	0.079
1009	0.079
1010	0.078
1010	0.079
1010	0.078
1011	0.078
1011	0.078
1012	0.078
1012	0.078
1013	0.078
1013	0.078
1013	0.078
1014	0.078
1014	0.078
1015	0.077
1015	0.077
1016	0.077
1016	0.077
1016	0.077
1017	0.076
1017	0.076
1018	0.076
1018	0.076
1018	0.076
1019	0.076
1019	0.076
1020	0.076
1020	0.076
1021	0.076
1021	0.076
1021	0.077
1022	0.077
1022	0.077
1023	0.077
1023	0.077
1023	0.077
1024	0.077
1024	0.076
1025	0.076
1025	0.076
1026	0.075
1026	0.074
1026	0.074
1027	0.073
1027	0.073
1028	0.073
1028	0.072
1028	0.072
1029	0.071
1029	0.071
1030	0.071
1030	0.071
1031	0.072
1031	0.072
1031	0.071
1032	0.072
1032	0.072
1033	0.072
1033	0.072
1033	0.072
1034	0.071
1034	0.071
1035	0.071
1035	0.071
1036	0.071
1036	0.071
1036	0.071
1037	0.071
1037	0.071
1038	0.071
1038	0.071
1039	0.071
1039	0.072
1039	0.072
1040	0.072
1040	0.073
1041	0.073
1041	0.073
1041	0.074
1042	0.074
1042	0.074
1043	0.074
1043	0.074
1044	0.074
1044	0.074
1044	0.075
1045	0.075
1045	0.075
1046	0.075
1046	0.075
1046	0.075
1047	0.076
1047	0.076
1048	0.077
1048	0.077
1049	0.078
1049	0.078
1049	0.077
1050	0.077
1050	0.077
1051	0.077
1051	0.076
1051	0.076
1052	0.075
1052	0.074
1053	0.073
1053	0.072
1053	0.072
1054	0.071
1054	0.07
1055	0.07
1055	0.07
1056	0.069
1056	0.069
1056	0.068
1057	0.067
1057	0.067
1058	0.066
1058	0.065
1058	0.064
1059	0.063
1059	0.062
1060	0.062
1060	0.061
1061	0.06
1061	0.06
1061	0.059
1062	0.059
1062	0.059
1063	0.059
1063	0.058
1063	0.058
1064	0.058
1064	0.058
1065	0.057
1065	0.057
1066	0.057
1066	0.057
1066	0.057
1067	0.057
1067	0.057
1068	0.057
1068	0.056
1068	0.056
1069	0.056
1069	0.055
1070	0.055
1070	0.054
1071	0.054
1071	0.053
1071	0.053
1072	0.053
1072	0.052
1073	0.051
1073	0.051
1073	0.051
1074	0.051
1074	0.051
1075	0.051
1075	0.051
1076	0.051
1076	0.051
1076	0.051
1077	0.052
1077	0.052
1078	0.052
1078	0.053
1078	0.053
1079	0.053
1079	0.053
1080	0.053
1080	0.053
1080	0.054
1081	0.054
1081	0.055
1082	0.055
1082	0.056
1083	0.056
1083	0.056
1083	0.056
1084	0.056
1084	0.056
1085	0.056
1085	0.055
1085	0.055
1086	0.055
1086	0.054
1087	0.053
1087	0.052
1088	0.051
1088	0.051
1088	0.051
1089	0.05
1089	0.049
1090	0.049
1090	0.048
1090	0.047
1091	0.047
1091	0.047
1092	0.047
1092	0.047
1092	0.047
1093	0.046
1093	0.046
1094	0.047
1094	0.046
1095	0.045
1095	0.045
1095	0.045
1096	0.045
1096	0.044
1097	0.044
1097	0.043
1097	0.042
1098	0.042
1098	0.041
1099	0.04
1099	0.039
1100	0.039
1100	0.037
1100	0.037
1101	0.037
1101	0.036
1102	0.035
1102	0.034
1102	0.033
1103	0.032
1103	0.032
1104	0.032
1104	0.032
1104	0.031
1105	0.03
1105	0.029
1106	0.028
1106	0.027
1107	0.026
1107	0.027
1107	0.026
1108	0.024
1108	0.023
1109	0.022
1109	0.022
1109	0.022
1110	0.023
1110	0.022
1111	0.023
1111	0.023
