Data from reversibility-20sec_Absorbance__4032__000000000004032.txt Node

Date: Wed Dec 06 10:37:06 CET 2023
User: Marek
Spectrometer: MAYP115816
Trigger mode: 0
Integration Time (sec): 2.000000E-1
Scans to average: 10
Electric dark correction enabled: true
Nonlinearity correction enabled: true
Boxcar width: 5
XAxis mode: Wavelengths
Number of Pixels in Spectrum: 2068
>>>>>Begin Spectral Data<<<<<
199	-0.133
199	-0.105
200	-0.046
200	-0
201	0.029
201	0.045
202	0.059
202	0.069
203	0.077
203	0.079
204	0.093
204	0.106
205	0.114
205	0.121
205	0.119
206	0.118
206	0.119
207	0.118
207	0.115
208	0.112
208	0.113
209	0.112
209	0.11
210	0.112
210	0.112
211	0.114
211	0.118
212	0.117
212	0.119
213	0.125
213	0.126
213	0.127
214	0.13
214	0.133
215	0.138
215	0.138
216	0.14
216	0.138
217	0.142
217	0.142
218	0.141
218	0.145
219	0.149
219	0.151
220	0.152
220	0.148
221	0.149
221	0.155
221	0.16
222	0.163
222	0.171
223	0.178
223	0.184
224	0.191
224	0.201
225	0.211
225	0.222
226	0.235
226	0.244
227	0.254
227	0.267
228	0.281
228	0.295
229	0.313
229	0.336
229	0.355
230	0.379
230	0.41
231	0.44
231	0.478
232	0.514
232	0.557
233	0.6
233	0.647
234	0.699
234	0.751
235	0.804
235	0.858
236	0.907
236	0.96
236	1.012
237	1.066
237	1.114
238	1.161
238	1.208
239	1.253
239	1.296
240	1.334
240	1.371
241	1.409
241	1.443
242	1.472
242	1.507
243	1.537
243	1.563
243	1.59
244	1.611
244	1.631
245	1.65
245	1.674
246	1.69
246	1.706
247	1.72
247	1.731
248	1.743
248	1.756
249	1.764
249	1.771
250	1.78
250	1.789
250	1.792
251	1.795
251	1.8
252	1.805
252	1.807
253	1.808
253	1.807
254	1.809
254	1.81
255	1.81
255	1.809
256	1.81
256	1.811
257	1.81
257	1.811
258	1.81
258	1.808
258	1.808
259	1.809
259	1.809
260	1.809
260	1.809
261	1.809
261	1.809
262	1.811
262	1.81
263	1.812
263	1.813
264	1.814
264	1.813
265	1.813
265	1.811
265	1.81
266	1.81
266	1.811
267	1.808
267	1.809
268	1.809
268	1.81
269	1.811
269	1.811
270	1.808
270	1.807
271	1.805
271	1.803
272	1.8
272	1.798
272	1.795
273	1.789
273	1.783
274	1.778
274	1.773
275	1.768
275	1.763
276	1.756
276	1.749
277	1.742
277	1.733
278	1.721
278	1.71
278	1.697
279	1.682
279	1.665
280	1.645
280	1.62
281	1.591
281	1.557
282	1.522
282	1.485
283	1.448
283	1.412
284	1.377
284	1.341
285	1.307
285	1.276
285	1.248
286	1.223
286	1.201
287	1.182
287	1.165
288	1.15
288	1.138
289	1.127
289	1.117
290	1.109
290	1.102
291	1.095
291	1.089
292	1.084
292	1.079
292	1.075
293	1.071
293	1.067
294	1.063
294	1.059
295	1.056
295	1.052
296	1.049
296	1.046
297	1.043
297	1.039
298	1.036
298	1.033
298	1.029
299	1.027
299	1.024
300	1.02
300	1.018
301	1.015
301	1.012
302	1.009
302	1.007
303	1.004
303	1.002
304	0.999
304	0.996
305	0.994
305	0.991
305	0.988
306	0.986
306	0.983
307	0.98
307	0.977
308	0.975
308	0.972
309	0.969
309	0.966
310	0.963
310	0.96
311	0.956
311	0.953
311	0.95
312	0.946
312	0.942
313	0.938
313	0.934
314	0.931
314	0.926
315	0.922
315	0.918
316	0.913
316	0.909
317	0.904
317	0.899
318	0.894
318	0.889
318	0.884
319	0.879
319	0.873
320	0.868
320	0.862
321	0.856
321	0.85
322	0.844
322	0.837
323	0.831
323	0.825
324	0.818
324	0.812
324	0.805
325	0.799
325	0.792
326	0.785
326	0.779
327	0.772
327	0.765
328	0.758
328	0.752
329	0.745
329	0.738
330	0.731
330	0.724
330	0.717
331	0.71
331	0.704
332	0.697
332	0.69
333	0.683
333	0.676
334	0.669
334	0.662
335	0.656
335	0.649
336	0.642
336	0.636
336	0.629
337	0.623
337	0.617
338	0.611
338	0.604
339	0.599
339	0.593
340	0.587
340	0.582
341	0.576
341	0.571
342	0.566
342	0.561
342	0.555
343	0.55
343	0.545
344	0.54
344	0.536
345	0.531
345	0.526
346	0.522
346	0.517
347	0.513
347	0.509
348	0.505
348	0.501
348	0.497
349	0.493
349	0.489
350	0.486
350	0.482
351	0.479
351	0.476
352	0.472
352	0.469
353	0.466
353	0.464
354	0.461
354	0.458
354	0.455
355	0.452
355	0.448
356	0.445
356	0.442
357	0.44
357	0.437
358	0.434
358	0.431
359	0.429
359	0.426
360	0.424
360	0.422
360	0.42
361	0.419
361	0.417
362	0.415
362	0.413
363	0.411
363	0.409
364	0.407
364	0.405
365	0.403
365	0.401
366	0.399
366	0.397
366	0.395
367	0.394
367	0.392
368	0.39
368	0.389
369	0.387
369	0.386
370	0.384
370	0.383
371	0.381
371	0.38
372	0.378
372	0.377
372	0.376
373	0.375
373	0.373
374	0.372
374	0.371
375	0.37
375	0.369
376	0.368
376	0.367
377	0.366
377	0.364
378	0.363
378	0.362
378	0.361
379	0.36
379	0.359
380	0.358
380	0.357
381	0.356
381	0.355
382	0.355
382	0.354
383	0.353
383	0.352
383	0.352
384	0.351
384	0.35
385	0.349
385	0.349
386	0.348
386	0.348
387	0.347
387	0.346
388	0.346
388	0.345
389	0.345
389	0.344
389	0.343
390	0.343
390	0.342
391	0.342
391	0.341
392	0.341
392	0.34
393	0.34
393	0.339
394	0.339
394	0.338
394	0.338
395	0.337
395	0.337
396	0.336
396	0.336
397	0.335
397	0.334
398	0.334
398	0.333
399	0.333
399	0.332
400	0.332
400	0.331
400	0.331
401	0.33
401	0.33
402	0.329
402	0.329
403	0.328
403	0.328
404	0.327
404	0.327
405	0.327
405	0.326
405	0.326
406	0.326
406	0.325
407	0.325
407	0.324
408	0.324
408	0.324
409	0.323
409	0.323
410	0.322
410	0.322
411	0.322
411	0.321
411	0.321
412	0.321
412	0.32
413	0.32
413	0.32
414	0.32
414	0.319
415	0.319
415	0.319
416	0.318
416	0.318
416	0.317
417	0.317
417	0.317
418	0.316
418	0.316
419	0.315
419	0.315
420	0.314
420	0.314
421	0.314
421	0.313
421	0.313
422	0.313
422	0.312
423	0.312
423	0.312
424	0.311
424	0.311
425	0.31
425	0.31
426	0.31
426	0.31
427	0.309
427	0.309
427	0.308
428	0.308
428	0.308
429	0.308
429	0.307
430	0.307
430	0.307
431	0.307
431	0.306
432	0.306
432	0.306
432	0.306
433	0.306
433	0.305
434	0.305
434	0.305
435	0.305
435	0.305
436	0.305
436	0.305
437	0.305
437	0.304
437	0.304
438	0.304
438	0.304
439	0.304
439	0.303
440	0.303
440	0.303
441	0.302
441	0.302
442	0.302
442	0.302
442	0.302
443	0.301
443	0.301
444	0.301
444	0.301
445	0.301
445	0.301
446	0.301
446	0.301
447	0.301
447	0.301
447	0.3
448	0.3
448	0.301
449	0.3
449	0.3
450	0.3
450	0.3
451	0.3
451	0.3
452	0.3
452	0.3
452	0.3
453	0.3
453	0.3
454	0.3
454	0.3
455	0.3
455	0.3
456	0.3
456	0.3
457	0.3
457	0.3
458	0.299
458	0.299
458	0.3
459	0.3
459	0.3
460	0.3
460	0.3
461	0.301
461	0.301
462	0.301
462	0.301
463	0.301
463	0.301
463	0.301
464	0.301
464	0.301
465	0.301
465	0.301
466	0.302
466	0.302
467	0.302
467	0.303
467	0.303
468	0.303
468	0.303
469	0.304
469	0.304
470	0.305
470	0.305
471	0.306
471	0.306
472	0.306
472	0.307
472	0.307
473	0.308
473	0.308
474	0.308
474	0.308
475	0.309
475	0.309
476	0.31
476	0.31
477	0.311
477	0.311
477	0.312
478	0.313
478	0.313
479	0.314
479	0.315
480	0.315
480	0.316
481	0.316
481	0.317
482	0.318
482	0.319
482	0.319
483	0.32
483	0.321
484	0.322
484	0.323
485	0.324
485	0.324
486	0.325
486	0.326
487	0.327
487	0.328
487	0.328
488	0.329
488	0.33
489	0.331
489	0.333
490	0.334
490	0.336
491	0.337
491	0.339
492	0.34
492	0.342
492	0.343
493	0.345
493	0.346
494	0.347
494	0.349
495	0.35
495	0.351
496	0.352
496	0.354
496	0.355
497	0.356
497	0.358
498	0.359
498	0.36
499	0.362
499	0.363
500	0.365
500	0.366
501	0.368
501	0.369
501	0.37
502	0.372
502	0.373
503	0.374
503	0.376
504	0.377
504	0.379
505	0.38
505	0.382
506	0.383
506	0.384
506	0.386
507	0.387
507	0.388
508	0.389
508	0.391
509	0.392
509	0.393
510	0.395
510	0.396
511	0.397
511	0.398
511	0.399
512	0.4
512	0.401
513	0.402
513	0.403
514	0.404
514	0.405
515	0.405
515	0.406
515	0.407
516	0.407
516	0.408
517	0.409
517	0.41
518	0.41
518	0.41
519	0.411
519	0.411
520	0.412
520	0.412
520	0.412
521	0.412
521	0.412
522	0.412
522	0.412
523	0.412
523	0.412
524	0.412
524	0.411
524	0.411
525	0.411
525	0.41
526	0.409
526	0.409
527	0.408
527	0.407
528	0.407
528	0.406
529	0.405
529	0.404
529	0.403
530	0.402
530	0.401
531	0.4
531	0.399
532	0.397
532	0.395
533	0.394
533	0.392
533	0.391
534	0.389
534	0.387
535	0.386
535	0.384
536	0.382
536	0.38
537	0.378
537	0.377
538	0.375
538	0.373
538	0.371
539	0.369
539	0.367
540	0.365
540	0.363
541	0.361
541	0.359
542	0.357
542	0.355
542	0.353
543	0.351
543	0.348
544	0.346
544	0.344
545	0.341
545	0.339
546	0.337
546	0.334
547	0.332
547	0.33
547	0.327
548	0.325
548	0.323
549	0.321
549	0.319
550	0.317
550	0.314
551	0.312
551	0.309
551	0.307
552	0.305
552	0.302
553	0.3
553	0.298
554	0.296
554	0.293
555	0.291
555	0.289
556	0.286
556	0.284
556	0.283
557	0.281
557	0.279
558	0.277
558	0.275
559	0.273
559	0.271
560	0.269
560	0.267
560	0.265
561	0.263
561	0.261
562	0.259
562	0.257
563	0.254
563	0.252
564	0.25
564	0.248
564	0.246
565	0.244
565	0.242
566	0.24
566	0.238
567	0.236
567	0.234
568	0.233
568	0.231
568	0.229
569	0.227
569	0.226
570	0.224
570	0.222
571	0.221
571	0.219
572	0.217
572	0.215
573	0.214
573	0.212
573	0.21
574	0.209
574	0.208
575	0.206
575	0.205
576	0.204
576	0.202
577	0.2
577	0.199
577	0.198
578	0.196
578	0.195
579	0.194
579	0.193
580	0.192
580	0.19
581	0.189
581	0.188
581	0.187
582	0.186
582	0.185
583	0.185
583	0.183
584	0.182
584	0.18
585	0.178
585	0.177
585	0.176
586	0.175
586	0.174
587	0.173
587	0.172
588	0.171
588	0.17
589	0.169
589	0.168
590	0.168
590	0.167
590	0.166
591	0.165
591	0.164
592	0.162
592	0.161
593	0.16
593	0.159
594	0.158
594	0.157
594	0.156
595	0.155
595	0.154
596	0.153
596	0.153
597	0.153
597	0.153
598	0.152
598	0.152
598	0.151
599	0.151
599	0.15
600	0.149
600	0.148
601	0.148
601	0.147
602	0.145
602	0.144
602	0.143
603	0.142
603	0.142
604	0.141
604	0.141
605	0.14
605	0.14
606	0.139
606	0.139
606	0.138
607	0.137
607	0.137
608	0.136
608	0.135
609	0.134
609	0.133
610	0.133
610	0.132
610	0.131
611	0.131
611	0.13
612	0.13
612	0.13
613	0.13
613	0.129
614	0.129
614	0.128
614	0.128
615	0.127
615	0.127
616	0.126
616	0.126
617	0.126
617	0.125
618	0.125
618	0.125
618	0.124
619	0.124
619	0.124
620	0.124
620	0.124
621	0.123
621	0.122
622	0.122
622	0.121
622	0.12
623	0.119
623	0.118
624	0.118
624	0.117
625	0.116
625	0.116
626	0.115
626	0.115
626	0.115
627	0.114
627	0.114
628	0.114
628	0.113
629	0.113
629	0.112
630	0.112
630	0.112
630	0.112
631	0.111
631	0.111
632	0.111
632	0.11
633	0.11
633	0.11
634	0.11
634	0.111
634	0.111
635	0.11
635	0.11
636	0.11
636	0.109
637	0.109
637	0.109
638	0.108
638	0.107
638	0.107
639	0.106
639	0.106
640	0.105
640	0.105
641	0.104
641	0.104
642	0.103
642	0.103
642	0.103
643	0.103
643	0.103
644	0.103
644	0.103
645	0.102
645	0.102
646	0.103
646	0.103
646	0.103
647	0.103
647	0.102
648	0.102
648	0.101
649	0.101
649	0.1
650	0.1
650	0.1
650	0.1
651	0.1
651	0.1
652	0.1
652	0.1
653	0.1
653	0.101
653	0.106
654	0.085
654	0.069
655	0.068
655	0.068
656	0.068
656	0.068
657	0.068
657	0.068
657	0.068
658	0.067
658	0.06
659	0.075
659	0.094
660	0.098
660	0.098
661	0.097
661	0.096
661	0.096
662	0.095
662	0.094
663	0.093
663	0.093
664	0.092
664	0.092
665	0.092
665	0.091
665	0.092
666	0.092
666	0.092
667	0.092
667	0.092
668	0.092
668	0.092
669	0.092
669	0.092
669	0.092
670	0.092
670	0.092
671	0.092
671	0.091
672	0.091
672	0.09
672	0.089
673	0.089
673	0.088
674	0.088
674	0.087
675	0.087
675	0.087
676	0.087
676	0.087
676	0.087
677	0.088
677	0.088
678	0.088
678	0.088
679	0.088
679	0.088
680	0.088
680	0.087
680	0.087
681	0.087
681	0.087
682	0.087
682	0.087
683	0.087
683	0.088
684	0.088
684	0.087
684	0.087
685	0.087
685	0.087
686	0.087
686	0.087
687	0.087
687	0.087
687	0.087
688	0.087
688	0.087
689	0.088
689	0.088
690	0.088
690	0.088
691	0.088
691	0.088
691	0.088
692	0.088
692	0.088
693	0.088
693	0.088
694	0.088
694	0.087
695	0.088
695	0.089
695	0.089
696	0.088
696	0.088
697	0.088
697	0.088
698	0.087
698	0.087
698	0.087
699	0.087
699	0.086
700	0.085
700	0.085
701	0.085
701	0.085
702	0.084
702	0.083
702	0.083
703	0.083
703	0.082
704	0.082
704	0.082
705	0.082
705	0.081
705	0.081
706	0.081
706	0.081
707	0.081
707	0.081
708	0.081
708	0.081
709	0.081
709	0.081
709	0.08
710	0.079
710	0.079
711	0.078
711	0.078
712	0.078
712	0.077
713	0.077
713	0.077
713	0.077
714	0.077
714	0.077
715	0.076
715	0.076
716	0.076
716	0.075
716	0.074
717	0.073
717	0.073
718	0.072
718	0.071
719	0.071
719	0.071
720	0.072
720	0.072
720	0.072
721	0.073
721	0.074
722	0.074
722	0.075
723	0.075
723	0.075
723	0.075
724	0.074
724	0.074
725	0.072
725	0.072
726	0.071
726	0.07
727	0.069
727	0.069
727	0.068
728	0.068
728	0.068
729	0.069
729	0.069
730	0.07
730	0.07
730	0.071
731	0.071
731	0.071
732	0.072
732	0.072
733	0.072
733	0.072
734	0.072
734	0.072
734	0.072
735	0.072
735	0.072
736	0.071
736	0.071
737	0.07
737	0.07
737	0.069
738	0.069
738	0.068
739	0.068
739	0.067
740	0.067
740	0.067
741	0.067
741	0.067
741	0.067
742	0.067
742	0.067
743	0.068
743	0.068
744	0.068
744	0.068
744	0.068
745	0.067
745	0.067
746	0.067
746	0.067
747	0.067
747	0.067
748	0.067
748	0.067
748	0.067
749	0.067
749	0.067
750	0.067
750	0.067
751	0.068
751	0.068
751	0.068
752	0.067
752	0.066
753	0.066
753	0.065
754	0.064
754	0.064
754	0.063
755	0.063
755	0.062
756	0.061
756	0.06
757	0.06
757	0.06
758	0.06
758	0.06
758	0.06
759	0.06
759	0.06
760	0.06
760	0.06
761	0.06
761	0.06
761	0.06
762	0.06
762	0.06
763	0.06
763	0.06
764	0.059
764	0.059
764	0.059
765	0.059
765	0.059
766	0.058
766	0.058
767	0.058
767	0.057
768	0.056
768	0.056
768	0.056
769	0.056
769	0.056
770	0.057
770	0.057
771	0.057
771	0.057
771	0.057
772	0.058
772	0.058
773	0.059
773	0.059
774	0.059
774	0.059
775	0.06
775	0.06
775	0.06
776	0.06
776	0.061
777	0.061
777	0.062
778	0.062
778	0.061
778	0.061
779	0.06
779	0.06
780	0.058
780	0.058
781	0.057
781	0.056
781	0.055
782	0.055
782	0.054
783	0.054
783	0.054
784	0.054
784	0.054
784	0.055
785	0.055
785	0.055
786	0.056
786	0.056
787	0.057
787	0.057
788	0.057
788	0.057
788	0.056
789	0.056
789	0.056
790	0.055
790	0.055
791	0.054
791	0.053
791	0.053
792	0.053
792	0.053
793	0.053
793	0.053
794	0.053
794	0.052
794	0.052
795	0.052
795	0.053
796	0.053
796	0.053
797	0.053
797	0.053
797	0.053
798	0.054
798	0.054
799	0.054
799	0.053
800	0.053
800	0.052
801	0.052
801	0.051
801	0.051
802	0.05
802	0.05
803	0.05
803	0.05
804	0.049
804	0.05
804	0.05
805	0.05
805	0.05
806	0.05
806	0.05
807	0.05
807	0.05
807	0.051
808	0.051
808	0.052
809	0.052
809	0.052
810	0.053
810	0.053
810	0.053
811	0.053
811	0.053
812	0.054
812	0.054
813	0.053
813	0.053
813	0.053
814	0.053
814	0.053
815	0.053
815	0.053
816	0.053
816	0.052
817	0.051
817	0.051
817	0.05
818	0.05
818	0.05
819	0.049
819	0.049
820	0.048
820	0.047
820	0.047
821	0.047
821	0.047
822	0.048
822	0.048
823	0.048
823	0.049
823	0.049
824	0.05
824	0.051
825	0.052
825	0.053
826	0.053
826	0.054
826	0.054
827	0.054
827	0.054
828	0.054
828	0.054
829	0.055
829	0.055
829	0.055
830	0.055
830	0.056
831	0.056
831	0.056
832	0.056
832	0.057
832	0.057
833	0.057
833	0.057
834	0.056
834	0.056
835	0.055
835	0.054
835	0.054
836	0.054
836	0.053
837	0.053
837	0.052
838	0.052
838	0.051
839	0.05
839	0.049
839	0.049
840	0.048
840	0.047
841	0.047
841	0.046
842	0.045
842	0.045
842	0.045
843	0.045
843	0.044
844	0.044
844	0.044
845	0.044
845	0.045
845	0.045
846	0.045
846	0.045
847	0.045
847	0.045
848	0.046
848	0.045
848	0.045
849	0.045
849	0.044
850	0.044
850	0.043
851	0.043
851	0.043
851	0.043
852	0.042
852	0.042
853	0.042
853	0.042
854	0.042
854	0.043
854	0.044
855	0.045
855	0.045
856	0.046
856	0.047
857	0.048
857	0.048
857	0.049
858	0.049
858	0.049
859	0.048
859	0.048
860	0.047
860	0.046
860	0.045
861	0.044
861	0.043
862	0.042
862	0.041
863	0.041
863	0.04
863	0.04
864	0.039
864	0.039
865	0.039
865	0.039
866	0.039
866	0.039
866	0.039
867	0.04
867	0.04
868	0.04
868	0.04
869	0.039
869	0.039
869	0.039
870	0.039
870	0.039
871	0.039
871	0.039
872	0.039
872	0.039
872	0.04
873	0.04
873	0.04
874	0.04
874	0.04
875	0.04
875	0.04
875	0.039
876	0.039
876	0.039
877	0.039
877	0.04
878	0.04
878	0.04
878	0.041
879	0.041
879	0.042
880	0.042
880	0.042
881	0.042
881	0.042
881	0.042
882	0.042
882	0.042
883	0.042
883	0.042
884	0.042
884	0.041
884	0.041
885	0.041
885	0.041
886	0.04
886	0.04
887	0.04
887	0.039
887	0.039
888	0.039
888	0.038
889	0.038
889	0.038
890	0.038
890	0.038
890	0.038
891	0.038
891	0.038
892	0.038
892	0.037
893	0.037
893	0.037
893	0.036
894	0.036
894	0.035
895	0.034
895	0.034
895	0.034
896	0.034
896	0.034
897	0.033
897	0.033
898	0.033
898	0.033
898	0.033
899	0.033
899	0.034
900	0.034
900	0.035
901	0.035
901	0.036
901	0.036
902	0.037
902	0.037
903	0.038
903	0.038
904	0.038
904	0.038
904	0.038
905	0.039
905	0.039
906	0.039
906	0.04
907	0.041
907	0.041
907	0.042
908	0.043
908	0.043
909	0.044
909	0.044
910	0.044
910	0.044
910	0.044
911	0.044
911	0.044
912	0.043
912	0.043
913	0.043
913	0.042
913	0.042
914	0.042
914	0.041
915	0.041
915	0.041
916	0.041
916	0.041
916	0.041
917	0.04
917	0.04
918	0.04
918	0.039
918	0.039
919	0.039
919	0.038
920	0.038
920	0.037
921	0.037
921	0.037
921	0.037
922	0.037
922	0.037
923	0.037
923	0.037
924	0.037
924	0.037
924	0.037
925	0.038
925	0.038
926	0.038
926	0.038
927	0.038
927	0.038
927	0.038
928	0.038
928	0.038
929	0.039
929	0.039
930	0.038
930	0.038
930	0.038
931	0.038
931	0.038
932	0.038
932	0.038
933	0.038
933	0.038
933	0.038
934	0.038
934	0.039
935	0.039
935	0.04
935	0.04
936	0.04
936	0.041
937	0.041
937	0.041
938	0.04
938	0.04
938	0.04
939	0.039
939	0.038
940	0.038
940	0.037
941	0.037
941	0.036
941	0.036
942	0.036
942	0.036
943	0.036
943	0.036
944	0.036
944	0.037
944	0.037
945	0.037
945	0.038
946	0.038
946	0.038
946	0.039
947	0.039
947	0.04
948	0.04
948	0.041
949	0.041
949	0.041
949	0.042
950	0.042
950	0.042
951	0.041
951	0.041
952	0.04
952	0.04
952	0.039
953	0.038
953	0.038
954	0.037
954	0.036
955	0.036
955	0.036
955	0.035
956	0.035
956	0.036
957	0.036
957	0.036
957	0.037
958	0.038
958	0.038
959	0.039
959	0.039
960	0.04
960	0.04
960	0.041
961	0.041
961	0.041
962	0.042
962	0.042
963	0.042
963	0.042
963	0.042
964	0.043
964	0.043
965	0.043
965	0.043
966	0.043
966	0.043
966	0.044
967	0.044
967	0.044
968	0.045
968	0.045
968	0.045
969	0.045
969	0.044
970	0.044
970	0.043
971	0.042
971	0.041
971	0.04
972	0.039
972	0.038
973	0.037
973	0.036
974	0.036
974	0.035
974	0.035
975	0.035
975	0.035
976	0.035
976	0.035
976	0.035
977	0.034
977	0.034
978	0.034
978	0.034
979	0.033
979	0.033
979	0.033
980	0.033
980	0.033
981	0.032
981	0.032
982	0.032
982	0.033
982	0.033
983	0.033
983	0.034
984	0.034
984	0.034
984	0.035
985	0.035
985	0.035
986	0.035
986	0.035
987	0.035
987	0.035
987	0.035
988	0.035
988	0.035
989	0.035
989	0.034
990	0.034
990	0.034
990	0.034
991	0.034
991	0.034
992	0.034
992	0.034
992	0.034
993	0.034
993	0.034
994	0.034
994	0.034
995	0.034
995	0.034
995	0.034
996	0.034
996	0.034
997	0.034
997	0.035
997	0.035
998	0.035
998	0.036
999	0.036
999	0.037
1000	0.037
1000	0.037
1000	0.037
1001	0.037
1001	0.037
1002	0.036
1002	0.036
1003	0.035
1003	0.035
1003	0.034
1004	0.033
1004	0.032
1005	0.031
1005	0.03
1005	0.03
1006	0.029
1006	0.029
1007	0.029
1007	0.029
1008	0.029
1008	0.029
1008	0.029
1009	0.03
1009	0.03
1010	0.03
1010	0.031
1010	0.032
1011	0.032
1011	0.033
1012	0.033
1012	0.033
1013	0.033
1013	0.033
1013	0.033
1014	0.033
1014	0.033
1015	0.033
1015	0.033
1016	0.033
1016	0.032
1016	0.032
1017	0.032
1017	0.031
1018	0.032
1018	0.031
1018	0.031
1019	0.031
1019	0.031
1020	0.031
1020	0.031
1021	0.032
1021	0.032
1021	0.032
1022	0.032
1022	0.032
1023	0.033
1023	0.033
1023	0.033
1024	0.033
1024	0.033
1025	0.033
1025	0.033
1026	0.033
1026	0.033
1026	0.033
1027	0.033
1027	0.033
1028	0.033
1028	0.033
1028	0.033
1029	0.033
1029	0.033
1030	0.033
1030	0.033
1031	0.033
1031	0.033
1031	0.033
1032	0.033
1032	0.033
1033	0.033
1033	0.033
1033	0.032
1034	0.032
1034	0.032
1035	0.031
1035	0.031
1036	0.031
1036	0.031
1036	0.031
1037	0.03
1037	0.03
1038	0.03
1038	0.029
1039	0.029
1039	0.029
1039	0.029
1040	0.029
1040	0.029
1041	0.029
1041	0.029
1041	0.029
1042	0.029
1042	0.029
1043	0.029
1043	0.029
1044	0.03
1044	0.03
1044	0.03
1045	0.031
1045	0.031
1046	0.031
1046	0.032
1046	0.032
1047	0.033
1047	0.033
1048	0.034
1048	0.034
1049	0.035
1049	0.035
1049	0.036
1050	0.036
1050	0.036
1051	0.036
1051	0.035
1051	0.035
1052	0.035
1052	0.035
1053	0.034
1053	0.033
1053	0.033
1054	0.033
1054	0.032
1055	0.032
1055	0.032
1056	0.031
1056	0.031
1056	0.031
1057	0.03
1057	0.03
1058	0.03
1058	0.029
1058	0.029
1059	0.028
1059	0.028
1060	0.028
1060	0.028
1061	0.028
1061	0.028
1061	0.028
1062	0.028
1062	0.028
1063	0.028
1063	0.028
1063	0.028
1064	0.028
1064	0.028
1065	0.028
1065	0.028
1066	0.028
1066	0.027
1066	0.027
1067	0.027
1067	0.026
1068	0.026
1068	0.026
1068	0.026
1069	0.026
1069	0.025
1070	0.025
1070	0.025
1071	0.024
1071	0.024
1071	0.024
1072	0.024
1072	0.024
1073	0.023
1073	0.023
1073	0.023
1074	0.023
1074	0.023
1075	0.023
1075	0.023
1076	0.023
1076	0.023
1076	0.023
1077	0.023
1077	0.023
1078	0.023
1078	0.023
1078	0.023
1079	0.022
1079	0.022
1080	0.022
1080	0.022
1080	0.022
1081	0.022
1081	0.022
1082	0.022
1082	0.022
1083	0.022
1083	0.022
1083	0.022
1084	0.022
1084	0.023
1085	0.022
1085	0.023
1085	0.023
1086	0.023
1086	0.022
1087	0.022
1087	0.022
1088	0.022
1088	0.022
1088	0.022
1089	0.022
1089	0.022
1090	0.021
1090	0.021
1090	0.02
1091	0.02
1091	0.02
1092	0.02
1092	0.02
1092	0.02
1093	0.019
1093	0.02
1094	0.02
1094	0.02
1095	0.019
1095	0.019
1095	0.019
1096	0.019
1096	0.018
1097	0.018
1097	0.018
1097	0.018
1098	0.018
1098	0.017
1099	0.017
1099	0.016
1100	0.017
1100	0.016
1100	0.016
1101	0.015
1101	0.014
1102	0.014
1102	0.014
1102	0.012
1103	0.013
1103	0.013
1104	0.012
1104	0.011
1104	0.011
1105	0.011
1105	0.009
1106	0.009
1106	0.008
1107	0.007
1107	0.007
1107	0.006
1108	0.004
1108	0.004
1109	0.003
1109	0.002
1109	0.002
1110	0.004
1110	0.004
1111	0.003
1111	0.001
