Data from reversibility-20sec_Absorbance__6296__000000000006296.txt Node

Date: Wed Dec 06 23:11:46 CET 2023
User: Marek
Spectrometer: MAYP115816
Trigger mode: 0
Integration Time (sec): 2.000000E-1
Scans to average: 10
Electric dark correction enabled: true
Nonlinearity correction enabled: true
Boxcar width: 5
XAxis mode: Wavelengths
Number of Pixels in Spectrum: 2068
>>>>>Begin Spectral Data<<<<<
199	-0.169
199	-0.147
200	-0.084
200	-0.033
201	-0.005
201	0.014
202	0.024
202	0.034
203	0.039
203	0.04
204	0.056
204	0.069
205	0.082
205	0.086
205	0.085
206	0.084
206	0.084
207	0.085
207	0.082
208	0.082
208	0.082
209	0.083
209	0.079
210	0.078
210	0.078
211	0.078
211	0.081
212	0.078
212	0.081
213	0.083
213	0.083
213	0.083
214	0.087
214	0.089
215	0.091
215	0.093
216	0.096
216	0.095
217	0.098
217	0.099
218	0.099
218	0.104
219	0.11
219	0.109
220	0.113
220	0.113
221	0.113
221	0.116
221	0.119
222	0.125
222	0.13
223	0.136
223	0.142
224	0.144
224	0.151
225	0.158
225	0.169
226	0.178
226	0.188
227	0.199
227	0.209
228	0.223
228	0.238
229	0.253
229	0.278
229	0.301
230	0.327
230	0.354
231	0.389
231	0.426
232	0.464
232	0.508
233	0.552
233	0.603
234	0.657
234	0.711
235	0.764
235	0.819
236	0.869
236	0.919
236	0.97
237	1.02
237	1.069
238	1.118
238	1.161
239	1.203
239	1.244
240	1.284
240	1.317
241	1.355
241	1.391
242	1.424
242	1.457
243	1.486
243	1.511
243	1.538
244	1.561
244	1.584
245	1.601
245	1.624
246	1.643
246	1.659
247	1.669
247	1.684
248	1.699
248	1.712
249	1.721
249	1.73
250	1.738
250	1.749
250	1.755
251	1.761
251	1.767
252	1.775
252	1.777
253	1.779
253	1.779
254	1.778
254	1.781
255	1.779
255	1.778
256	1.778
256	1.776
257	1.776
257	1.774
258	1.774
258	1.774
258	1.774
259	1.775
259	1.774
260	1.774
260	1.776
261	1.777
261	1.78
262	1.782
262	1.782
263	1.784
263	1.784
264	1.785
264	1.785
265	1.787
265	1.786
265	1.786
266	1.786
266	1.786
267	1.783
267	1.785
268	1.784
268	1.785
269	1.786
269	1.786
270	1.785
270	1.785
271	1.783
271	1.783
272	1.78
272	1.778
272	1.776
273	1.771
273	1.767
274	1.762
274	1.758
275	1.752
275	1.747
276	1.74
276	1.734
277	1.727
277	1.719
278	1.707
278	1.697
278	1.685
279	1.671
279	1.654
280	1.634
280	1.61
281	1.581
281	1.548
282	1.512
282	1.476
283	1.44
283	1.403
284	1.367
284	1.332
285	1.298
285	1.266
285	1.237
286	1.212
286	1.189
287	1.169
287	1.152
288	1.137
288	1.124
289	1.113
289	1.103
290	1.094
290	1.086
291	1.08
291	1.074
292	1.068
292	1.064
292	1.059
293	1.055
293	1.051
294	1.047
294	1.043
295	1.04
295	1.037
296	1.033
296	1.029
297	1.026
297	1.022
298	1.019
298	1.016
298	1.012
299	1.009
299	1.006
300	1.003
300	1
301	0.997
301	0.994
302	0.991
302	0.989
303	0.986
303	0.983
304	0.98
304	0.978
305	0.975
305	0.972
305	0.969
306	0.966
306	0.964
307	0.961
307	0.958
308	0.955
308	0.952
309	0.949
309	0.946
310	0.942
310	0.939
311	0.936
311	0.932
311	0.929
312	0.925
312	0.921
313	0.917
313	0.914
314	0.91
314	0.905
315	0.901
315	0.897
316	0.892
316	0.888
317	0.883
317	0.878
318	0.873
318	0.868
318	0.862
319	0.857
319	0.851
320	0.846
320	0.84
321	0.834
321	0.828
322	0.822
322	0.815
323	0.809
323	0.802
324	0.796
324	0.789
324	0.783
325	0.776
325	0.769
326	0.762
326	0.755
327	0.749
327	0.742
328	0.735
328	0.728
329	0.721
329	0.714
330	0.706
330	0.7
330	0.693
331	0.686
331	0.679
332	0.672
332	0.665
333	0.658
333	0.651
334	0.644
334	0.638
335	0.631
335	0.624
336	0.617
336	0.611
336	0.604
337	0.598
337	0.591
338	0.585
338	0.579
339	0.573
339	0.567
340	0.561
340	0.556
341	0.55
341	0.544
342	0.539
342	0.534
342	0.528
343	0.523
343	0.518
344	0.513
344	0.508
345	0.503
345	0.499
346	0.494
346	0.49
347	0.485
347	0.481
348	0.477
348	0.473
348	0.469
349	0.465
349	0.462
350	0.458
350	0.454
351	0.451
351	0.447
352	0.444
352	0.441
353	0.438
353	0.435
354	0.432
354	0.429
354	0.426
355	0.423
355	0.42
356	0.417
356	0.414
357	0.411
357	0.408
358	0.405
358	0.402
359	0.4
359	0.398
360	0.396
360	0.394
360	0.392
361	0.39
361	0.388
362	0.387
362	0.385
363	0.383
363	0.381
364	0.379
364	0.377
365	0.375
365	0.373
366	0.371
366	0.369
366	0.367
367	0.365
367	0.363
368	0.362
368	0.36
369	0.358
369	0.357
370	0.355
370	0.354
371	0.352
371	0.351
372	0.35
372	0.348
372	0.347
373	0.346
373	0.345
374	0.344
374	0.343
375	0.342
375	0.341
376	0.34
376	0.339
377	0.338
377	0.336
378	0.335
378	0.334
378	0.333
379	0.332
379	0.332
380	0.331
380	0.33
381	0.329
381	0.328
382	0.327
382	0.327
383	0.326
383	0.325
383	0.325
384	0.324
384	0.323
385	0.322
385	0.321
386	0.321
386	0.32
387	0.319
387	0.319
388	0.318
388	0.318
389	0.317
389	0.317
389	0.316
390	0.316
390	0.315
391	0.315
391	0.315
392	0.314
392	0.314
393	0.313
393	0.313
394	0.312
394	0.312
394	0.311
395	0.311
395	0.31
396	0.31
396	0.309
397	0.308
397	0.308
398	0.308
398	0.307
399	0.307
399	0.306
400	0.306
400	0.305
400	0.305
401	0.304
401	0.304
402	0.304
402	0.303
403	0.303
403	0.302
404	0.302
404	0.302
405	0.301
405	0.301
405	0.301
406	0.3
406	0.3
407	0.3
407	0.299
408	0.299
408	0.299
409	0.298
409	0.298
410	0.298
410	0.297
411	0.297
411	0.297
411	0.296
412	0.296
412	0.295
413	0.295
413	0.295
414	0.294
414	0.294
415	0.293
415	0.293
416	0.293
416	0.292
416	0.292
417	0.291
417	0.291
418	0.291
418	0.29
419	0.29
419	0.289
420	0.289
420	0.289
421	0.288
421	0.288
421	0.287
422	0.287
422	0.287
423	0.286
423	0.286
424	0.286
424	0.285
425	0.285
425	0.285
426	0.285
426	0.285
427	0.284
427	0.284
427	0.283
428	0.283
428	0.283
429	0.283
429	0.282
430	0.282
430	0.282
431	0.281
431	0.281
432	0.281
432	0.281
432	0.281
433	0.281
433	0.281
434	0.281
434	0.281
435	0.28
435	0.28
436	0.28
436	0.28
437	0.279
437	0.279
437	0.279
438	0.279
438	0.279
439	0.278
439	0.278
440	0.278
440	0.278
441	0.277
441	0.277
442	0.277
442	0.277
442	0.276
443	0.276
443	0.276
444	0.276
444	0.276
445	0.276
445	0.276
446	0.276
446	0.275
447	0.275
447	0.275
447	0.275
448	0.275
448	0.275
449	0.275
449	0.275
450	0.275
450	0.275
451	0.274
451	0.275
452	0.275
452	0.275
452	0.275
453	0.275
453	0.275
454	0.274
454	0.274
455	0.274
455	0.274
456	0.274
456	0.274
457	0.274
457	0.274
458	0.274
458	0.274
458	0.274
459	0.274
459	0.274
460	0.274
460	0.274
461	0.274
461	0.274
462	0.274
462	0.274
463	0.274
463	0.274
463	0.274
464	0.274
464	0.274
465	0.274
465	0.274
466	0.274
466	0.274
467	0.275
467	0.275
467	0.275
468	0.275
468	0.276
469	0.276
469	0.277
470	0.277
470	0.278
471	0.278
471	0.278
472	0.279
472	0.279
472	0.279
473	0.28
473	0.28
474	0.281
474	0.281
475	0.281
475	0.281
476	0.282
476	0.282
477	0.283
477	0.283
477	0.283
478	0.284
478	0.284
479	0.285
479	0.286
480	0.286
480	0.287
481	0.287
481	0.288
482	0.288
482	0.289
482	0.289
483	0.29
483	0.291
484	0.292
484	0.292
485	0.293
485	0.294
486	0.294
486	0.295
487	0.295
487	0.296
487	0.297
488	0.298
488	0.298
489	0.299
489	0.301
490	0.302
490	0.303
491	0.304
491	0.306
492	0.307
492	0.308
492	0.309
493	0.31
493	0.311
494	0.313
494	0.314
495	0.314
495	0.316
496	0.317
496	0.318
496	0.319
497	0.32
497	0.321
498	0.323
498	0.324
499	0.325
499	0.326
500	0.328
500	0.329
501	0.33
501	0.331
501	0.332
502	0.334
502	0.335
503	0.337
503	0.338
504	0.339
504	0.34
505	0.341
505	0.342
506	0.344
506	0.345
506	0.346
507	0.346
507	0.347
508	0.348
508	0.349
509	0.351
509	0.352
510	0.353
510	0.354
511	0.355
511	0.356
511	0.357
512	0.358
512	0.359
513	0.36
513	0.361
514	0.362
514	0.362
515	0.363
515	0.364
515	0.364
516	0.365
516	0.365
517	0.366
517	0.367
518	0.367
518	0.368
519	0.368
519	0.368
520	0.369
520	0.369
520	0.369
521	0.369
521	0.369
522	0.369
522	0.368
523	0.368
523	0.368
524	0.368
524	0.368
524	0.368
525	0.368
525	0.367
526	0.367
526	0.366
527	0.366
527	0.365
528	0.364
528	0.364
529	0.363
529	0.362
529	0.361
530	0.36
530	0.359
531	0.357
531	0.356
532	0.355
532	0.354
533	0.353
533	0.352
533	0.35
534	0.349
534	0.348
535	0.346
535	0.345
536	0.344
536	0.343
537	0.341
537	0.339
538	0.338
538	0.336
538	0.335
539	0.333
539	0.332
540	0.33
540	0.328
541	0.326
541	0.324
542	0.323
542	0.321
542	0.319
543	0.317
543	0.315
544	0.313
544	0.311
545	0.31
545	0.308
546	0.306
546	0.303
547	0.301
547	0.299
547	0.297
548	0.296
548	0.293
549	0.291
549	0.289
550	0.287
550	0.285
551	0.283
551	0.281
551	0.279
552	0.277
552	0.275
553	0.273
553	0.271
554	0.269
554	0.267
555	0.264
555	0.262
556	0.26
556	0.258
556	0.256
557	0.255
557	0.253
558	0.251
558	0.25
559	0.248
559	0.246
560	0.245
560	0.243
560	0.242
561	0.24
561	0.239
562	0.237
562	0.235
563	0.233
563	0.231
564	0.229
564	0.227
564	0.226
565	0.224
565	0.223
566	0.221
566	0.219
567	0.218
567	0.216
568	0.215
568	0.213
568	0.211
569	0.21
569	0.208
570	0.206
570	0.204
571	0.203
571	0.201
572	0.2
572	0.198
573	0.197
573	0.196
573	0.194
574	0.193
574	0.192
575	0.191
575	0.19
576	0.189
576	0.188
577	0.186
577	0.185
577	0.184
578	0.183
578	0.181
579	0.181
579	0.18
580	0.179
580	0.177
581	0.175
581	0.174
581	0.174
582	0.173
582	0.173
583	0.172
583	0.171
584	0.17
584	0.168
585	0.167
585	0.166
585	0.165
586	0.164
586	0.163
587	0.162
587	0.16
588	0.159
588	0.158
589	0.157
589	0.156
590	0.156
590	0.155
590	0.155
591	0.154
591	0.153
592	0.152
592	0.151
593	0.15
593	0.15
594	0.149
594	0.148
594	0.147
595	0.146
595	0.145
596	0.144
596	0.144
597	0.144
597	0.144
598	0.143
598	0.143
598	0.142
599	0.142
599	0.141
600	0.141
600	0.14
601	0.139
601	0.139
602	0.138
602	0.137
602	0.136
603	0.135
603	0.135
604	0.134
604	0.134
605	0.134
605	0.133
606	0.132
606	0.131
606	0.131
607	0.13
607	0.13
608	0.129
608	0.128
609	0.128
609	0.127
610	0.127
610	0.126
610	0.126
611	0.125
611	0.125
612	0.125
612	0.125
613	0.124
613	0.124
614	0.123
614	0.123
614	0.122
615	0.122
615	0.121
616	0.121
616	0.121
617	0.12
617	0.12
618	0.119
618	0.119
618	0.119
619	0.119
619	0.119
620	0.119
620	0.119
621	0.118
621	0.118
622	0.117
622	0.116
622	0.116
623	0.115
623	0.114
624	0.114
624	0.113
625	0.112
625	0.111
626	0.111
626	0.111
626	0.111
627	0.111
627	0.11
628	0.11
628	0.11
629	0.109
629	0.109
630	0.109
630	0.109
630	0.108
631	0.108
631	0.107
632	0.107
632	0.106
633	0.106
633	0.106
634	0.106
634	0.106
634	0.106
635	0.106
635	0.105
636	0.105
636	0.105
637	0.105
637	0.105
638	0.104
638	0.104
638	0.103
639	0.102
639	0.102
640	0.102
640	0.102
641	0.102
641	0.101
642	0.101
642	0.1
642	0.101
643	0.101
643	0.1
644	0.1
644	0.1
645	0.1
645	0.1
646	0.099
646	0.099
646	0.1
647	0.099
647	0.099
648	0.098
648	0.097
649	0.097
649	0.096
650	0.096
650	0.096
650	0.095
651	0.095
651	0.095
652	0.095
652	0.095
653	0.095
653	0.097
653	0.103
654	0.083
654	0.067
655	0.065
655	0.065
656	0.065
656	0.066
657	0.066
657	0.066
657	0.066
658	0.065
658	0.058
659	0.072
659	0.091
660	0.096
660	0.096
661	0.096
661	0.096
661	0.096
662	0.095
662	0.095
663	0.095
663	0.094
664	0.094
664	0.093
665	0.093
665	0.093
665	0.092
666	0.092
666	0.092
667	0.092
667	0.092
668	0.093
668	0.093
669	0.093
669	0.094
669	0.094
670	0.095
670	0.095
671	0.094
671	0.094
672	0.094
672	0.093
672	0.092
673	0.092
673	0.091
674	0.09
674	0.089
675	0.089
675	0.088
676	0.089
676	0.089
676	0.089
677	0.089
677	0.089
678	0.088
678	0.088
679	0.088
679	0.088
680	0.088
680	0.087
680	0.087
681	0.087
681	0.087
682	0.086
682	0.086
683	0.086
683	0.087
684	0.087
684	0.087
684	0.086
685	0.087
685	0.087
686	0.087
686	0.087
687	0.087
687	0.087
687	0.087
688	0.086
688	0.086
689	0.086
689	0.087
690	0.086
690	0.086
691	0.085
691	0.086
691	0.086
692	0.086
692	0.086
693	0.086
693	0.086
694	0.086
694	0.085
695	0.086
695	0.087
695	0.087
696	0.087
696	0.087
697	0.087
697	0.086
698	0.086
698	0.085
698	0.085
699	0.085
699	0.085
700	0.084
700	0.084
701	0.084
701	0.084
702	0.084
702	0.084
702	0.084
703	0.084
703	0.084
704	0.083
704	0.083
705	0.083
705	0.082
705	0.082
706	0.082
706	0.082
707	0.082
707	0.082
708	0.082
708	0.082
709	0.082
709	0.082
709	0.082
710	0.082
710	0.082
711	0.082
711	0.082
712	0.082
712	0.082
713	0.082
713	0.083
713	0.082
714	0.082
714	0.082
715	0.082
715	0.081
716	0.081
716	0.08
716	0.079
717	0.079
717	0.078
718	0.078
718	0.077
719	0.077
719	0.077
720	0.078
720	0.078
720	0.078
721	0.078
721	0.079
722	0.08
722	0.08
723	0.08
723	0.08
723	0.08
724	0.08
724	0.08
725	0.079
725	0.078
726	0.078
726	0.077
727	0.077
727	0.076
727	0.076
728	0.075
728	0.075
729	0.075
729	0.075
730	0.075
730	0.075
730	0.076
731	0.076
731	0.077
732	0.078
732	0.078
733	0.078
733	0.078
734	0.078
734	0.078
734	0.078
735	0.078
735	0.078
736	0.077
736	0.077
737	0.077
737	0.077
737	0.077
738	0.076
738	0.075
739	0.075
739	0.075
740	0.074
740	0.074
741	0.074
741	0.074
741	0.074
742	0.074
742	0.074
743	0.075
743	0.076
744	0.076
744	0.076
744	0.076
745	0.076
745	0.076
746	0.076
746	0.076
747	0.076
747	0.076
748	0.075
748	0.075
748	0.074
749	0.074
749	0.074
750	0.074
750	0.074
751	0.074
751	0.074
751	0.075
752	0.074
752	0.073
753	0.073
753	0.073
754	0.072
754	0.071
754	0.071
755	0.071
755	0.071
756	0.07
756	0.069
757	0.068
757	0.068
758	0.069
758	0.069
758	0.069
759	0.069
759	0.069
760	0.068
760	0.068
761	0.068
761	0.069
761	0.069
762	0.069
762	0.069
763	0.069
763	0.068
764	0.067
764	0.067
764	0.067
765	0.067
765	0.066
766	0.066
766	0.066
767	0.065
767	0.064
768	0.063
768	0.063
768	0.063
769	0.063
769	0.063
770	0.063
770	0.064
771	0.064
771	0.064
771	0.065
772	0.066
772	0.067
773	0.067
773	0.067
774	0.068
774	0.068
775	0.068
775	0.069
775	0.069
776	0.069
776	0.069
777	0.069
777	0.069
778	0.069
778	0.069
778	0.068
779	0.068
779	0.068
780	0.067
780	0.067
781	0.066
781	0.065
781	0.065
782	0.065
782	0.065
783	0.065
783	0.065
784	0.065
784	0.065
784	0.066
785	0.066
785	0.066
786	0.066
786	0.066
787	0.066
787	0.066
788	0.065
788	0.064
788	0.063
789	0.062
789	0.061
790	0.061
790	0.06
791	0.059
791	0.059
791	0.058
792	0.059
792	0.059
793	0.058
793	0.058
794	0.058
794	0.057
794	0.057
795	0.057
795	0.058
796	0.058
796	0.058
797	0.058
797	0.058
797	0.059
798	0.059
798	0.059
799	0.06
799	0.06
800	0.059
800	0.059
801	0.058
801	0.058
801	0.058
802	0.058
802	0.059
803	0.059
803	0.059
804	0.059
804	0.059
804	0.059
805	0.059
805	0.059
806	0.058
806	0.058
807	0.058
807	0.057
807	0.057
808	0.057
808	0.057
809	0.057
809	0.057
810	0.057
810	0.058
810	0.058
811	0.059
811	0.059
812	0.06
812	0.06
813	0.061
813	0.061
813	0.061
814	0.062
814	0.062
815	0.062
815	0.062
816	0.061
816	0.06
817	0.059
817	0.059
817	0.058
818	0.058
818	0.057
819	0.057
819	0.056
820	0.055
820	0.054
820	0.054
821	0.054
821	0.054
822	0.054
822	0.054
823	0.054
823	0.053
823	0.054
824	0.055
824	0.055
825	0.056
825	0.057
826	0.057
826	0.057
826	0.058
827	0.058
827	0.059
828	0.059
828	0.059
829	0.059
829	0.059
829	0.059
830	0.059
830	0.06
831	0.061
831	0.061
832	0.06
832	0.061
832	0.06
833	0.06
833	0.06
834	0.059
834	0.059
835	0.058
835	0.057
835	0.057
836	0.057
836	0.056
837	0.056
837	0.056
838	0.056
838	0.056
839	0.055
839	0.055
839	0.054
840	0.054
840	0.053
841	0.052
841	0.052
842	0.051
842	0.05
842	0.049
843	0.048
843	0.047
844	0.047
844	0.046
845	0.045
845	0.044
845	0.043
846	0.043
846	0.043
847	0.042
847	0.043
848	0.043
848	0.043
848	0.044
849	0.045
849	0.046
850	0.047
850	0.047
851	0.048
851	0.048
851	0.048
852	0.048
852	0.048
853	0.048
853	0.047
854	0.047
854	0.047
854	0.048
855	0.048
855	0.049
856	0.049
856	0.049
857	0.05
857	0.051
857	0.052
858	0.052
858	0.052
859	0.052
859	0.052
860	0.051
860	0.051
860	0.05
861	0.05
861	0.049
862	0.048
862	0.047
863	0.046
863	0.046
863	0.045
864	0.045
864	0.045
865	0.045
865	0.045
866	0.045
866	0.046
866	0.046
867	0.047
867	0.048
868	0.048
868	0.049
869	0.049
869	0.049
869	0.049
870	0.049
870	0.049
871	0.049
871	0.049
872	0.049
872	0.049
872	0.049
873	0.049
873	0.049
874	0.048
874	0.048
875	0.048
875	0.048
875	0.048
876	0.047
876	0.047
877	0.047
877	0.046
878	0.046
878	0.047
878	0.047
879	0.047
879	0.047
880	0.048
880	0.048
881	0.048
881	0.049
881	0.049
882	0.05
882	0.05
883	0.05
883	0.05
884	0.051
884	0.051
884	0.051
885	0.051
885	0.05
886	0.05
886	0.049
887	0.049
887	0.048
887	0.047
888	0.046
888	0.045
889	0.044
889	0.044
890	0.043
890	0.043
890	0.043
891	0.042
891	0.042
892	0.042
892	0.041
893	0.041
893	0.041
893	0.041
894	0.041
894	0.041
895	0.041
895	0.041
895	0.041
896	0.042
896	0.042
897	0.043
897	0.043
898	0.043
898	0.043
898	0.043
899	0.043
899	0.043
900	0.043
900	0.042
901	0.042
901	0.042
901	0.041
902	0.041
902	0.04
903	0.04
903	0.04
904	0.04
904	0.039
904	0.039
905	0.039
905	0.039
906	0.039
906	0.039
907	0.04
907	0.041
907	0.041
908	0.041
908	0.042
909	0.042
909	0.042
910	0.042
910	0.042
910	0.042
911	0.042
911	0.041
912	0.041
912	0.041
913	0.04
913	0.04
913	0.04
914	0.04
914	0.04
915	0.04
915	0.04
916	0.04
916	0.041
916	0.041
917	0.041
917	0.041
918	0.041
918	0.041
918	0.04
919	0.04
919	0.04
920	0.04
920	0.039
921	0.039
921	0.039
921	0.039
922	0.038
922	0.039
923	0.039
923	0.039
924	0.039
924	0.039
924	0.039
925	0.04
925	0.04
926	0.04
926	0.041
927	0.041
927	0.041
927	0.041
928	0.041
928	0.041
929	0.041
929	0.041
930	0.041
930	0.041
930	0.041
931	0.041
931	0.041
932	0.041
932	0.041
933	0.041
933	0.041
933	0.04
934	0.04
934	0.04
935	0.039
935	0.039
935	0.039
936	0.039
936	0.038
937	0.038
937	0.038
938	0.038
938	0.038
938	0.037
939	0.037
939	0.037
940	0.037
940	0.037
941	0.038
941	0.038
941	0.039
942	0.039
942	0.039
943	0.039
943	0.039
944	0.039
944	0.039
944	0.039
945	0.039
945	0.039
946	0.039
946	0.039
946	0.039
947	0.039
947	0.039
948	0.039
948	0.04
949	0.04
949	0.04
949	0.04
950	0.04
950	0.04
951	0.041
951	0.04
952	0.04
952	0.04
952	0.04
953	0.039
953	0.039
954	0.039
954	0.039
955	0.039
955	0.039
955	0.039
956	0.039
956	0.039
957	0.039
957	0.04
957	0.04
958	0.04
958	0.04
959	0.041
959	0.041
960	0.041
960	0.041
960	0.042
961	0.042
961	0.042
962	0.042
962	0.042
963	0.042
963	0.042
963	0.042
964	0.042
964	0.042
965	0.043
965	0.043
966	0.043
966	0.043
966	0.043
967	0.043
967	0.043
968	0.043
968	0.043
968	0.042
969	0.042
969	0.041
970	0.04
970	0.04
971	0.039
971	0.039
971	0.038
972	0.037
972	0.037
973	0.036
973	0.036
974	0.036
974	0.037
974	0.037
975	0.038
975	0.038
976	0.039
976	0.04
976	0.04
977	0.04
977	0.04
978	0.04
978	0.04
979	0.039
979	0.039
979	0.039
980	0.038
980	0.037
981	0.037
981	0.037
982	0.037
982	0.036
982	0.037
983	0.037
983	0.037
984	0.037
984	0.037
984	0.038
985	0.038
985	0.038
986	0.039
986	0.039
987	0.039
987	0.039
987	0.039
988	0.039
988	0.039
989	0.039
989	0.039
990	0.039
990	0.039
990	0.039
991	0.038
991	0.038
992	0.038
992	0.037
992	0.037
993	0.036
993	0.035
994	0.035
994	0.034
995	0.033
995	0.033
995	0.032
996	0.032
996	0.032
997	0.032
997	0.032
997	0.033
998	0.033
998	0.034
999	0.034
999	0.035
1000	0.036
1000	0.036
1000	0.037
1001	0.037
1001	0.037
1002	0.037
1002	0.037
1003	0.037
1003	0.036
1003	0.036
1004	0.035
1004	0.034
1005	0.033
1005	0.032
1005	0.031
1006	0.03
1006	0.029
1007	0.028
1007	0.027
1008	0.027
1008	0.027
1008	0.027
1009	0.027
1009	0.027
1010	0.027
1010	0.028
1010	0.028
1011	0.029
1011	0.029
1012	0.03
1012	0.03
1013	0.03
1013	0.03
1013	0.03
1014	0.03
1014	0.03
1015	0.029
1015	0.029
1016	0.029
1016	0.029
1016	0.029
1017	0.028
1017	0.028
1018	0.028
1018	0.028
1018	0.028
1019	0.028
1019	0.028
1020	0.028
1020	0.028
1021	0.028
1021	0.029
1021	0.029
1022	0.03
1022	0.03
1023	0.03
1023	0.03
1023	0.031
1024	0.031
1024	0.031
1025	0.031
1025	0.031
1026	0.032
1026	0.032
1026	0.032
1027	0.032
1027	0.032
1028	0.032
1028	0.033
1028	0.033
1029	0.033
1029	0.033
1030	0.033
1030	0.033
1031	0.034
1031	0.034
1031	0.034
1032	0.034
1032	0.035
1033	0.035
1033	0.035
1033	0.035
1034	0.035
1034	0.035
1035	0.035
1035	0.035
1036	0.035
1036	0.035
1036	0.035
1037	0.035
1037	0.035
1038	0.035
1038	0.035
1039	0.035
1039	0.035
1039	0.035
1040	0.035
1040	0.035
1041	0.035
1041	0.035
1041	0.035
1042	0.035
1042	0.035
1043	0.035
1043	0.035
1044	0.034
1044	0.034
1044	0.034
1045	0.034
1045	0.033
1046	0.034
1046	0.034
1046	0.034
1047	0.034
1047	0.034
1048	0.034
1048	0.035
1049	0.034
1049	0.035
1049	0.035
1050	0.035
1050	0.035
1051	0.034
1051	0.034
1051	0.034
1052	0.033
1052	0.033
1053	0.032
1053	0.032
1053	0.031
1054	0.031
1054	0.03
1055	0.03
1055	0.03
1056	0.029
1056	0.029
1056	0.028
1057	0.027
1057	0.027
1058	0.026
1058	0.025
1058	0.025
1059	0.024
1059	0.024
1060	0.024
1060	0.023
1061	0.023
1061	0.023
1061	0.023
1062	0.023
1062	0.023
1063	0.023
1063	0.023
1063	0.022
1064	0.022
1064	0.022
1065	0.022
1065	0.022
1066	0.022
1066	0.022
1066	0.022
1067	0.022
1067	0.022
1068	0.022
1068	0.022
1068	0.023
1069	0.022
1069	0.022
1070	0.022
1070	0.022
1071	0.022
1071	0.021
1071	0.021
1072	0.021
1072	0.021
1073	0.02
1073	0.02
1073	0.02
1074	0.02
1074	0.02
1075	0.02
1075	0.021
1076	0.021
1076	0.022
1076	0.022
1077	0.022
1077	0.022
1078	0.022
1078	0.023
1078	0.023
1079	0.022
1079	0.021
1080	0.021
1080	0.021
1080	0.02
1081	0.02
1081	0.02
1082	0.02
1082	0.02
1083	0.02
1083	0.02
1083	0.02
1084	0.02
1084	0.02
1085	0.021
1085	0.021
1085	0.021
1086	0.021
1086	0.021
1087	0.021
1087	0.02
1088	0.021
1088	0.021
1088	0.021
1089	0.021
1089	0.02
1090	0.02
1090	0.019
1090	0.018
1091	0.018
1091	0.018
1092	0.018
1092	0.018
1092	0.018
1093	0.018
1093	0.018
1094	0.018
1094	0.018
1095	0.018
1095	0.018
1095	0.019
1096	0.018
1096	0.018
1097	0.017
1097	0.016
1097	0.016
1098	0.015
1098	0.014
1099	0.012
1099	0.01
1100	0.008
1100	0.006
1100	0.004
1101	0.003
1101	0.001
1102	0
1102	-0.001
1102	-0.002
1103	-0.003
1103	-0.002
1104	-0.001
1104	-0
1104	-0.001
1105	-0.001
1105	-0.002
1106	-0.003
1106	-0.004
1107	-0.005
1107	-0.005
1107	-0.007
1108	-0.008
1108	-0.01
1109	-0.012
1109	-0.013
1109	-0.013
1110	-0.011
1110	-0.015
1111	-0.014
1111	-0.013
