Data from reversibility-20sec_Absorbance__6624__000000000006624.txt Node

Date: Thu Dec 07 01:01:06 CET 2023
User: Marek
Spectrometer: MAYP115816
Trigger mode: 0
Integration Time (sec): 2.000000E-1
Scans to average: 10
Electric dark correction enabled: true
Nonlinearity correction enabled: true
Boxcar width: 5
XAxis mode: Wavelengths
Number of Pixels in Spectrum: 2068
>>>>>Begin Spectral Data<<<<<
199	-0.131
199	-0.109
200	-0.048
200	0
201	0.03
201	0.048
202	0.058
202	0.069
203	0.08
203	0.083
204	0.098
204	0.114
205	0.129
205	0.138
205	0.136
206	0.136
206	0.138
207	0.14
207	0.141
208	0.14
208	0.138
209	0.14
209	0.137
210	0.134
210	0.134
211	0.139
211	0.142
212	0.138
212	0.14
213	0.142
213	0.144
213	0.148
214	0.149
214	0.149
215	0.151
215	0.15
216	0.15
216	0.148
217	0.152
217	0.155
218	0.152
218	0.156
219	0.158
219	0.16
220	0.165
220	0.163
221	0.165
221	0.164
221	0.171
222	0.175
222	0.178
223	0.183
223	0.187
224	0.191
224	0.199
225	0.208
225	0.221
226	0.231
226	0.245
227	0.253
227	0.267
228	0.284
228	0.299
229	0.313
229	0.336
229	0.357
230	0.382
230	0.409
231	0.439
231	0.475
232	0.514
232	0.555
233	0.596
233	0.644
234	0.697
234	0.749
235	0.803
235	0.856
236	0.907
236	0.962
236	1.011
237	1.064
237	1.11
238	1.156
238	1.204
239	1.248
239	1.29
240	1.329
240	1.365
241	1.399
241	1.433
242	1.468
242	1.5
243	1.53
243	1.556
243	1.581
244	1.603
244	1.621
245	1.64
245	1.662
246	1.679
246	1.695
247	1.707
247	1.72
248	1.734
248	1.746
249	1.754
249	1.761
250	1.769
250	1.775
250	1.777
251	1.784
251	1.787
252	1.789
252	1.787
253	1.785
253	1.784
254	1.781
254	1.782
255	1.779
255	1.778
256	1.778
256	1.774
257	1.774
257	1.773
258	1.774
258	1.776
258	1.775
259	1.776
259	1.777
260	1.777
260	1.779
261	1.78
261	1.782
262	1.784
262	1.785
263	1.788
263	1.789
264	1.791
264	1.793
265	1.794
265	1.795
265	1.797
266	1.797
266	1.798
267	1.796
267	1.797
268	1.796
268	1.796
269	1.798
269	1.796
270	1.795
270	1.795
271	1.793
271	1.79
272	1.787
272	1.784
272	1.779
273	1.773
273	1.766
274	1.759
274	1.752
275	1.745
275	1.737
276	1.729
276	1.722
277	1.715
277	1.704
278	1.693
278	1.679
278	1.664
279	1.647
279	1.625
280	1.596
280	1.563
281	1.524
281	1.481
282	1.436
282	1.391
283	1.347
283	1.304
284	1.263
284	1.223
285	1.186
285	1.153
285	1.123
286	1.097
286	1.074
287	1.054
287	1.037
288	1.023
288	1.011
289	1.001
289	0.992
290	0.985
290	0.978
291	0.972
291	0.967
292	0.963
292	0.959
292	0.955
293	0.951
293	0.948
294	0.944
294	0.941
295	0.938
295	0.935
296	0.932
296	0.93
297	0.927
297	0.924
298	0.921
298	0.919
298	0.916
299	0.913
299	0.911
300	0.908
300	0.905
301	0.903
301	0.9
302	0.898
302	0.895
303	0.893
303	0.891
304	0.889
304	0.887
305	0.885
305	0.882
305	0.88
306	0.878
306	0.876
307	0.873
307	0.871
308	0.869
308	0.866
309	0.864
309	0.861
310	0.859
310	0.856
311	0.853
311	0.85
311	0.846
312	0.843
312	0.84
313	0.836
313	0.832
314	0.828
314	0.824
315	0.82
315	0.816
316	0.812
316	0.807
317	0.803
317	0.798
318	0.793
318	0.788
318	0.783
319	0.778
319	0.772
320	0.767
320	0.761
321	0.755
321	0.749
322	0.743
322	0.736
323	0.73
323	0.723
324	0.717
324	0.711
324	0.704
325	0.697
325	0.69
326	0.683
326	0.676
327	0.669
327	0.663
328	0.656
328	0.649
329	0.642
329	0.635
330	0.627
330	0.62
330	0.613
331	0.607
331	0.6
332	0.593
332	0.585
333	0.579
333	0.572
334	0.565
334	0.558
335	0.551
335	0.544
336	0.538
336	0.531
336	0.524
337	0.518
337	0.512
338	0.506
338	0.499
339	0.494
339	0.487
340	0.482
340	0.476
341	0.47
341	0.465
342	0.459
342	0.454
342	0.448
343	0.443
343	0.438
344	0.433
344	0.428
345	0.423
345	0.418
346	0.414
346	0.41
347	0.405
347	0.401
348	0.397
348	0.393
348	0.39
349	0.386
349	0.382
350	0.379
350	0.375
351	0.372
351	0.369
352	0.365
352	0.362
353	0.36
353	0.357
354	0.354
354	0.351
354	0.348
355	0.345
355	0.342
356	0.34
356	0.337
357	0.334
357	0.331
358	0.328
358	0.326
359	0.323
359	0.321
360	0.319
360	0.318
360	0.316
361	0.314
361	0.312
362	0.311
362	0.309
363	0.307
363	0.306
364	0.304
364	0.302
365	0.3
365	0.298
366	0.297
366	0.295
366	0.293
367	0.292
367	0.29
368	0.289
368	0.287
369	0.286
369	0.285
370	0.283
370	0.282
371	0.281
371	0.279
372	0.278
372	0.277
372	0.276
373	0.275
373	0.274
374	0.274
374	0.273
375	0.272
375	0.271
376	0.27
376	0.269
377	0.268
377	0.268
378	0.267
378	0.266
378	0.265
379	0.265
379	0.264
380	0.263
380	0.262
381	0.262
381	0.261
382	0.26
382	0.26
383	0.259
383	0.259
383	0.258
384	0.257
384	0.257
385	0.257
385	0.257
386	0.256
386	0.256
387	0.256
387	0.255
388	0.255
388	0.255
389	0.254
389	0.254
389	0.254
390	0.254
390	0.253
391	0.253
391	0.253
392	0.252
392	0.252
393	0.252
393	0.251
394	0.251
394	0.251
394	0.25
395	0.25
395	0.25
396	0.25
396	0.249
397	0.249
397	0.249
398	0.248
398	0.248
399	0.248
399	0.247
400	0.247
400	0.247
400	0.247
401	0.246
401	0.246
402	0.246
402	0.246
403	0.245
403	0.245
404	0.245
404	0.245
405	0.245
405	0.245
405	0.244
406	0.244
406	0.244
407	0.243
407	0.243
408	0.243
408	0.242
409	0.242
409	0.242
410	0.242
410	0.241
411	0.241
411	0.241
411	0.241
412	0.24
412	0.24
413	0.24
413	0.24
414	0.239
414	0.239
415	0.239
415	0.238
416	0.238
416	0.238
416	0.238
417	0.237
417	0.237
418	0.237
418	0.237
419	0.236
419	0.236
420	0.235
420	0.235
421	0.235
421	0.234
421	0.234
422	0.234
422	0.233
423	0.233
423	0.233
424	0.232
424	0.232
425	0.232
425	0.231
426	0.231
426	0.231
427	0.231
427	0.23
427	0.23
428	0.229
428	0.229
429	0.229
429	0.228
430	0.228
430	0.228
431	0.227
431	0.227
432	0.227
432	0.227
432	0.227
433	0.227
433	0.226
434	0.226
434	0.226
435	0.226
435	0.226
436	0.226
436	0.226
437	0.225
437	0.225
437	0.225
438	0.225
438	0.224
439	0.224
439	0.224
440	0.223
440	0.223
441	0.223
441	0.222
442	0.222
442	0.222
442	0.222
443	0.221
443	0.221
444	0.221
444	0.221
445	0.221
445	0.221
446	0.221
446	0.22
447	0.22
447	0.22
447	0.22
448	0.219
448	0.219
449	0.219
449	0.218
450	0.218
450	0.218
451	0.217
451	0.217
452	0.217
452	0.217
452	0.217
453	0.217
453	0.216
454	0.216
454	0.216
455	0.216
455	0.215
456	0.215
456	0.215
457	0.215
457	0.215
458	0.215
458	0.214
458	0.214
459	0.214
459	0.214
460	0.213
460	0.213
461	0.213
461	0.213
462	0.212
462	0.212
463	0.212
463	0.212
463	0.211
464	0.211
464	0.211
465	0.21
465	0.21
466	0.21
466	0.21
467	0.21
467	0.21
467	0.21
468	0.21
468	0.21
469	0.21
469	0.21
470	0.211
470	0.211
471	0.21
471	0.21
472	0.21
472	0.21
472	0.21
473	0.21
473	0.21
474	0.21
474	0.209
475	0.209
475	0.209
476	0.209
476	0.209
477	0.209
477	0.209
477	0.209
478	0.209
478	0.208
479	0.208
479	0.208
480	0.208
480	0.208
481	0.208
481	0.208
482	0.208
482	0.207
482	0.207
483	0.208
483	0.208
484	0.208
484	0.208
485	0.207
485	0.207
486	0.207
486	0.207
487	0.207
487	0.207
487	0.207
488	0.207
488	0.207
489	0.207
489	0.208
490	0.208
490	0.208
491	0.209
491	0.209
492	0.21
492	0.21
492	0.21
493	0.211
493	0.211
494	0.211
494	0.212
495	0.212
495	0.212
496	0.212
496	0.212
496	0.213
497	0.213
497	0.213
498	0.213
498	0.213
499	0.214
499	0.214
500	0.214
500	0.215
501	0.215
501	0.216
501	0.216
502	0.216
502	0.216
503	0.217
503	0.217
504	0.217
504	0.218
505	0.218
505	0.218
506	0.219
506	0.219
506	0.219
507	0.219
507	0.22
508	0.22
508	0.22
509	0.22
509	0.221
510	0.221
510	0.222
511	0.222
511	0.223
511	0.223
512	0.224
512	0.224
513	0.224
513	0.225
514	0.225
514	0.225
515	0.226
515	0.226
515	0.226
516	0.226
516	0.227
517	0.227
517	0.228
518	0.228
518	0.228
519	0.228
519	0.229
520	0.229
520	0.229
520	0.23
521	0.23
521	0.23
522	0.23
522	0.23
523	0.23
523	0.23
524	0.231
524	0.231
524	0.231
525	0.231
525	0.231
526	0.231
526	0.232
527	0.232
527	0.232
528	0.232
528	0.233
529	0.233
529	0.233
529	0.232
530	0.232
530	0.233
531	0.233
531	0.233
532	0.232
532	0.232
533	0.232
533	0.232
533	0.232
534	0.232
534	0.232
535	0.232
535	0.232
536	0.232
536	0.232
537	0.232
537	0.232
538	0.232
538	0.232
538	0.232
539	0.232
539	0.232
540	0.232
540	0.232
541	0.232
541	0.232
542	0.232
542	0.232
542	0.231
543	0.231
543	0.231
544	0.231
544	0.231
545	0.231
545	0.231
546	0.231
546	0.23
547	0.23
547	0.23
547	0.23
548	0.23
548	0.229
549	0.229
549	0.229
550	0.229
550	0.229
551	0.229
551	0.228
551	0.228
552	0.228
552	0.228
553	0.227
553	0.227
554	0.226
554	0.226
555	0.225
555	0.225
556	0.224
556	0.224
556	0.224
557	0.224
557	0.224
558	0.224
558	0.224
559	0.224
559	0.224
560	0.225
560	0.224
560	0.225
561	0.225
561	0.225
562	0.224
562	0.223
563	0.223
563	0.222
564	0.221
564	0.221
564	0.221
565	0.221
565	0.22
566	0.22
566	0.219
567	0.219
567	0.22
568	0.219
568	0.219
568	0.219
569	0.219
569	0.218
570	0.218
570	0.217
571	0.216
571	0.216
572	0.215
572	0.215
573	0.215
573	0.214
573	0.214
574	0.214
574	0.214
575	0.214
575	0.214
576	0.214
576	0.213
577	0.213
577	0.212
577	0.212
578	0.212
578	0.211
579	0.211
579	0.211
580	0.211
580	0.21
581	0.209
581	0.209
581	0.209
582	0.21
582	0.21
583	0.21
583	0.21
584	0.209
584	0.208
585	0.208
585	0.208
585	0.208
586	0.208
586	0.207
587	0.206
587	0.206
588	0.205
588	0.205
589	0.205
589	0.205
590	0.205
590	0.204
590	0.205
591	0.205
591	0.205
592	0.204
592	0.204
593	0.204
593	0.203
594	0.203
594	0.202
594	0.202
595	0.201
595	0.201
596	0.2
596	0.201
597	0.202
597	0.202
598	0.202
598	0.202
598	0.202
599	0.202
599	0.202
600	0.201
600	0.201
601	0.2
601	0.2
602	0.2
602	0.199
602	0.199
603	0.198
603	0.199
604	0.198
604	0.198
605	0.198
605	0.198
606	0.198
606	0.197
606	0.197
607	0.197
607	0.197
608	0.197
608	0.196
609	0.196
609	0.196
610	0.195
610	0.195
610	0.195
611	0.195
611	0.195
612	0.195
612	0.195
613	0.196
613	0.195
614	0.195
614	0.195
614	0.195
615	0.195
615	0.194
616	0.194
616	0.195
617	0.195
617	0.194
618	0.194
618	0.194
618	0.195
619	0.195
619	0.195
620	0.196
620	0.195
621	0.195
621	0.195
622	0.194
622	0.194
622	0.193
623	0.193
623	0.192
624	0.192
624	0.191
625	0.191
625	0.191
626	0.19
626	0.19
626	0.19
627	0.19
627	0.19
628	0.19
628	0.19
629	0.189
629	0.189
630	0.189
630	0.189
630	0.189
631	0.189
631	0.189
632	0.188
632	0.188
633	0.188
633	0.188
634	0.188
634	0.189
634	0.188
635	0.188
635	0.188
636	0.188
636	0.188
637	0.188
637	0.188
638	0.188
638	0.187
638	0.187
639	0.187
639	0.186
640	0.186
640	0.186
641	0.186
641	0.186
642	0.186
642	0.186
642	0.186
643	0.186
643	0.187
644	0.187
644	0.187
645	0.187
645	0.187
646	0.187
646	0.187
646	0.187
647	0.186
647	0.186
648	0.185
648	0.185
649	0.184
649	0.184
650	0.184
650	0.184
650	0.184
651	0.184
651	0.184
652	0.184
652	0.185
653	0.186
653	0.187
653	0.193
654	0.152
654	0.121
655	0.122
655	0.122
656	0.122
656	0.123
657	0.123
657	0.123
657	0.123
658	0.122
658	0.112
659	0.142
659	0.182
660	0.187
660	0.187
661	0.187
661	0.187
661	0.186
662	0.186
662	0.186
663	0.185
663	0.185
664	0.185
664	0.184
665	0.184
665	0.184
665	0.184
666	0.184
666	0.184
667	0.184
667	0.184
668	0.185
668	0.185
669	0.185
669	0.185
669	0.186
670	0.186
670	0.186
671	0.186
671	0.186
672	0.186
672	0.185
672	0.185
673	0.185
673	0.184
674	0.184
674	0.184
675	0.183
675	0.183
676	0.183
676	0.183
676	0.183
677	0.183
677	0.184
678	0.183
678	0.183
679	0.183
679	0.183
680	0.183
680	0.183
680	0.183
681	0.183
681	0.183
682	0.183
682	0.183
683	0.184
683	0.184
684	0.184
684	0.184
684	0.184
685	0.184
685	0.184
686	0.184
686	0.184
687	0.184
687	0.184
687	0.184
688	0.184
688	0.185
689	0.185
689	0.186
690	0.186
690	0.185
691	0.186
691	0.186
691	0.186
692	0.186
692	0.186
693	0.186
693	0.187
694	0.186
694	0.186
695	0.187
695	0.188
695	0.188
696	0.188
696	0.188
697	0.188
697	0.188
698	0.187
698	0.187
698	0.187
699	0.187
699	0.187
700	0.186
700	0.186
701	0.186
701	0.186
702	0.186
702	0.186
702	0.186
703	0.187
703	0.186
704	0.186
704	0.186
705	0.187
705	0.187
705	0.186
706	0.186
706	0.187
707	0.186
707	0.186
708	0.186
708	0.187
709	0.187
709	0.187
709	0.186
710	0.186
710	0.187
711	0.187
711	0.188
712	0.188
712	0.188
713	0.189
713	0.189
713	0.189
714	0.189
714	0.189
715	0.189
715	0.189
716	0.188
716	0.188
716	0.187
717	0.186
717	0.186
718	0.185
718	0.185
719	0.185
719	0.185
720	0.185
720	0.185
720	0.186
721	0.186
721	0.187
722	0.188
722	0.189
723	0.189
723	0.19
723	0.19
724	0.19
724	0.19
725	0.19
725	0.189
726	0.188
726	0.188
727	0.187
727	0.187
727	0.187
728	0.186
728	0.186
729	0.186
729	0.186
730	0.187
730	0.187
730	0.188
731	0.188
731	0.189
732	0.19
732	0.191
733	0.191
733	0.191
734	0.192
734	0.192
734	0.193
735	0.193
735	0.193
736	0.192
736	0.192
737	0.192
737	0.192
737	0.192
738	0.191
738	0.19
739	0.19
739	0.19
740	0.19
740	0.19
741	0.19
741	0.189
741	0.189
742	0.189
742	0.19
743	0.191
743	0.192
744	0.193
744	0.194
744	0.194
745	0.194
745	0.195
746	0.195
746	0.195
747	0.195
747	0.195
748	0.194
748	0.194
748	0.194
749	0.193
749	0.194
750	0.194
750	0.193
751	0.194
751	0.194
751	0.194
752	0.194
752	0.194
753	0.194
753	0.193
754	0.193
754	0.193
754	0.193
755	0.192
755	0.192
756	0.192
756	0.191
757	0.191
757	0.191
758	0.191
758	0.191
758	0.191
759	0.192
759	0.192
760	0.192
760	0.192
761	0.192
761	0.193
761	0.193
762	0.193
762	0.194
763	0.194
763	0.193
764	0.193
764	0.193
764	0.194
765	0.194
765	0.194
766	0.194
766	0.194
767	0.193
767	0.193
768	0.192
768	0.193
768	0.193
769	0.193
769	0.193
770	0.194
770	0.195
771	0.195
771	0.196
771	0.196
772	0.197
772	0.198
773	0.199
773	0.199
774	0.199
774	0.199
775	0.199
775	0.199
775	0.199
776	0.2
776	0.2
777	0.2
777	0.201
778	0.201
778	0.201
778	0.201
779	0.201
779	0.201
780	0.2
780	0.2
781	0.2
781	0.199
781	0.199
782	0.199
782	0.199
783	0.199
783	0.2
784	0.2
784	0.2
784	0.201
785	0.201
785	0.201
786	0.201
786	0.201
787	0.201
787	0.201
788	0.2
788	0.2
788	0.199
789	0.198
789	0.198
790	0.198
790	0.198
791	0.198
791	0.198
791	0.198
792	0.199
792	0.2
793	0.2
793	0.2
794	0.2
794	0.2
794	0.2
795	0.201
795	0.201
796	0.202
796	0.202
797	0.202
797	0.202
797	0.202
798	0.202
798	0.202
799	0.202
799	0.202
800	0.202
800	0.201
801	0.201
801	0.201
801	0.201
802	0.201
802	0.202
803	0.202
803	0.202
804	0.203
804	0.204
804	0.204
805	0.204
805	0.204
806	0.204
806	0.204
807	0.204
807	0.204
807	0.203
808	0.203
808	0.203
809	0.203
809	0.203
810	0.203
810	0.203
810	0.203
811	0.203
811	0.204
812	0.205
812	0.205
813	0.206
813	0.206
813	0.207
814	0.208
814	0.209
815	0.209
815	0.209
816	0.209
816	0.209
817	0.208
817	0.208
817	0.207
818	0.207
818	0.206
819	0.206
819	0.205
820	0.204
820	0.204
820	0.204
821	0.204
821	0.205
822	0.205
822	0.206
823	0.206
823	0.206
823	0.207
824	0.208
824	0.21
825	0.211
825	0.211
826	0.212
826	0.212
826	0.212
827	0.212
827	0.212
828	0.213
828	0.213
829	0.213
829	0.213
829	0.213
830	0.214
830	0.215
831	0.216
831	0.216
832	0.216
832	0.216
832	0.216
833	0.216
833	0.215
834	0.215
834	0.215
835	0.214
835	0.214
835	0.213
836	0.213
836	0.212
837	0.212
837	0.212
838	0.211
838	0.211
839	0.21
839	0.209
839	0.208
840	0.208
840	0.207
841	0.206
841	0.205
842	0.204
842	0.204
842	0.203
843	0.203
843	0.203
844	0.202
844	0.202
845	0.202
845	0.202
845	0.202
846	0.202
846	0.202
847	0.202
847	0.202
848	0.203
848	0.203
848	0.204
849	0.204
849	0.205
850	0.205
850	0.206
851	0.206
851	0.206
851	0.206
852	0.206
852	0.205
853	0.205
853	0.205
854	0.205
854	0.206
854	0.206
855	0.207
855	0.208
856	0.208
856	0.209
857	0.21
857	0.211
857	0.212
858	0.212
858	0.212
859	0.212
859	0.212
860	0.211
860	0.211
860	0.21
861	0.209
861	0.208
862	0.207
862	0.206
863	0.205
863	0.205
863	0.204
864	0.204
864	0.204
865	0.204
865	0.204
866	0.204
866	0.205
866	0.205
867	0.206
867	0.207
868	0.207
868	0.208
869	0.208
869	0.208
869	0.207
870	0.207
870	0.207
871	0.207
871	0.206
872	0.206
872	0.206
872	0.206
873	0.205
873	0.205
874	0.205
874	0.204
875	0.204
875	0.204
875	0.203
876	0.203
876	0.203
877	0.202
877	0.202
878	0.202
878	0.202
878	0.203
879	0.203
879	0.204
880	0.204
880	0.204
881	0.205
881	0.205
881	0.205
882	0.205
882	0.206
883	0.206
883	0.206
884	0.206
884	0.207
884	0.206
885	0.206
885	0.206
886	0.205
886	0.205
887	0.204
887	0.204
887	0.203
888	0.202
888	0.201
889	0.201
889	0.2
890	0.2
890	0.2
890	0.199
891	0.199
891	0.199
892	0.199
892	0.199
893	0.199
893	0.199
893	0.199
894	0.199
894	0.199
895	0.199
895	0.199
895	0.199
896	0.199
896	0.199
897	0.199
897	0.199
898	0.199
898	0.198
898	0.197
899	0.197
899	0.196
900	0.195
900	0.194
901	0.194
901	0.193
901	0.193
902	0.192
902	0.192
903	0.192
903	0.191
904	0.191
904	0.191
904	0.191
905	0.191
905	0.191
906	0.191
906	0.191
907	0.192
907	0.192
907	0.192
908	0.192
908	0.192
909	0.192
909	0.192
910	0.192
910	0.192
910	0.192
911	0.191
911	0.191
912	0.191
912	0.19
913	0.19
913	0.19
913	0.19
914	0.19
914	0.189
915	0.19
915	0.19
916	0.19
916	0.189
916	0.189
917	0.189
917	0.189
918	0.188
918	0.188
918	0.187
919	0.186
919	0.186
920	0.185
920	0.185
921	0.184
921	0.184
921	0.183
922	0.183
922	0.183
923	0.183
923	0.183
924	0.183
924	0.184
924	0.184
925	0.184
925	0.185
926	0.185
926	0.185
927	0.186
927	0.186
927	0.186
928	0.186
928	0.186
929	0.186
929	0.186
930	0.186
930	0.186
930	0.186
931	0.186
931	0.185
932	0.185
932	0.184
933	0.184
933	0.184
933	0.183
934	0.182
934	0.182
935	0.181
935	0.181
935	0.18
936	0.179
936	0.179
937	0.178
937	0.178
938	0.177
938	0.177
938	0.176
939	0.176
939	0.176
940	0.176
940	0.176
941	0.176
941	0.176
941	0.177
942	0.177
942	0.177
943	0.177
943	0.177
944	0.177
944	0.178
944	0.177
945	0.177
945	0.177
946	0.177
946	0.176
946	0.176
947	0.175
947	0.175
948	0.174
948	0.174
949	0.173
949	0.173
949	0.172
950	0.171
950	0.171
951	0.17
951	0.17
952	0.169
952	0.168
952	0.167
953	0.167
953	0.167
954	0.167
954	0.166
955	0.166
955	0.167
955	0.167
956	0.167
956	0.168
957	0.168
957	0.169
957	0.169
958	0.169
958	0.169
959	0.169
959	0.169
960	0.168
960	0.168
960	0.168
961	0.168
961	0.168
962	0.167
962	0.167
963	0.167
963	0.167
963	0.167
964	0.167
964	0.168
965	0.168
965	0.168
966	0.168
966	0.167
966	0.167
967	0.167
967	0.166
968	0.166
968	0.165
968	0.164
969	0.163
969	0.162
970	0.161
970	0.16
971	0.16
971	0.159
971	0.158
972	0.157
972	0.157
973	0.157
973	0.156
974	0.156
974	0.157
974	0.157
975	0.157
975	0.158
976	0.158
976	0.159
976	0.16
977	0.16
977	0.16
978	0.16
978	0.16
979	0.16
979	0.16
979	0.16
980	0.159
980	0.159
981	0.158
981	0.158
982	0.158
982	0.158
982	0.158
983	0.158
983	0.158
984	0.158
984	0.157
984	0.157
985	0.157
985	0.157
986	0.157
986	0.157
987	0.156
987	0.156
987	0.156
988	0.156
988	0.155
989	0.155
989	0.155
990	0.154
990	0.154
990	0.154
991	0.153
991	0.153
992	0.152
992	0.152
992	0.15
993	0.149
993	0.148
994	0.147
994	0.146
995	0.145
995	0.144
995	0.144
996	0.143
996	0.143
997	0.143
997	0.143
997	0.144
998	0.144
998	0.145
999	0.145
999	0.146
1000	0.147
1000	0.147
1000	0.148
1001	0.148
1001	0.149
1002	0.149
1002	0.148
1003	0.148
1003	0.148
1003	0.147
1004	0.147
1004	0.146
1005	0.145
1005	0.144
1005	0.144
1006	0.143
1006	0.142
1007	0.141
1007	0.141
1008	0.14
1008	0.14
1008	0.14
1009	0.14
1009	0.14
1010	0.14
1010	0.14
1010	0.14
1011	0.14
1011	0.14
1012	0.139
1012	0.139
1013	0.139
1013	0.138
1013	0.138
1014	0.137
1014	0.136
1015	0.136
1015	0.136
1016	0.135
1016	0.135
1016	0.134
1017	0.134
1017	0.134
1018	0.134
1018	0.133
1018	0.133
1019	0.133
1019	0.133
1020	0.133
1020	0.132
1021	0.133
1021	0.133
1021	0.133
1022	0.133
1022	0.133
1023	0.134
1023	0.134
1023	0.134
1024	0.135
1024	0.135
1025	0.135
1025	0.135
1026	0.135
1026	0.136
1026	0.136
1027	0.136
1027	0.136
1028	0.135
1028	0.135
1028	0.135
1029	0.136
1029	0.135
1030	0.136
1030	0.136
1031	0.136
1031	0.136
1031	0.136
1032	0.136
1032	0.136
1033	0.136
1033	0.136
1033	0.136
1034	0.136
1034	0.135
1035	0.135
1035	0.135
1036	0.135
1036	0.134
1036	0.134
1037	0.134
1037	0.133
1038	0.132
1038	0.132
1039	0.131
1039	0.131
1039	0.13
1040	0.13
1040	0.13
1041	0.13
1041	0.129
1041	0.129
1042	0.129
1042	0.129
1043	0.129
1043	0.128
1044	0.128
1044	0.128
1044	0.128
1045	0.127
1045	0.127
1046	0.127
1046	0.126
1046	0.126
1047	0.126
1047	0.126
1048	0.126
1048	0.126
1049	0.126
1049	0.126
1049	0.126
1050	0.126
1050	0.125
1051	0.125
1051	0.125
1051	0.125
1052	0.124
1052	0.123
1053	0.122
1053	0.122
1053	0.121
1054	0.12
1054	0.12
1055	0.119
1055	0.119
1056	0.118
1056	0.117
1056	0.116
1057	0.115
1057	0.115
1058	0.114
1058	0.113
1058	0.112
1059	0.111
1059	0.111
1060	0.11
1060	0.109
1061	0.109
1061	0.108
1061	0.108
1062	0.108
1062	0.108
1063	0.107
1063	0.107
1063	0.107
1064	0.106
1064	0.106
1065	0.106
1065	0.106
1066	0.106
1066	0.106
1066	0.106
1067	0.106
1067	0.106
1068	0.106
1068	0.106
1068	0.106
1069	0.105
1069	0.105
1070	0.105
1070	0.105
1071	0.104
1071	0.104
1071	0.103
1072	0.103
1072	0.103
1073	0.102
1073	0.102
1073	0.102
1074	0.102
1074	0.103
1075	0.103
1075	0.103
1076	0.103
1076	0.104
1076	0.104
1077	0.104
1077	0.104
1078	0.104
1078	0.104
1078	0.104
1079	0.103
1079	0.103
1080	0.102
1080	0.101
1080	0.1
1081	0.1
1081	0.1
1082	0.1
1082	0.1
1083	0.1
1083	0.099
1083	0.099
1084	0.099
1084	0.1
1085	0.1
1085	0.101
1085	0.101
1086	0.101
1086	0.1
1087	0.1
1087	0.1
1088	0.101
1088	0.1
1088	0.1
1089	0.099
1089	0.099
1090	0.098
1090	0.097
1090	0.096
1091	0.096
1091	0.095
1092	0.096
1092	0.096
1092	0.096
1093	0.095
1093	0.095
1094	0.095
1094	0.095
1095	0.094
1095	0.093
1095	0.093
1096	0.093
1096	0.092
1097	0.09
1097	0.09
1097	0.089
1098	0.088
1098	0.087
1099	0.085
1099	0.084
1100	0.083
1100	0.082
1100	0.081
1101	0.08
1101	0.079
1102	0.077
1102	0.076
1102	0.075
1103	0.074
1103	0.074
1104	0.074
1104	0.073
1104	0.073
1105	0.072
1105	0.069
1106	0.068
1106	0.066
1107	0.066
1107	0.064
1107	0.063
1108	0.062
1108	0.061
1109	0.06
1109	0.058
1109	0.057
1110	0.061
1110	0.06
1111	0.062
1111	0.057
