Data from reversibility-20sec_Absorbance__7153__000000000007153.txt Node

Date: Thu Dec 07 03:57:25 CET 2023
User: Marek
Spectrometer: MAYP115816
Trigger mode: 0
Integration Time (sec): 2.000000E-1
Scans to average: 10
Electric dark correction enabled: true
Nonlinearity correction enabled: true
Boxcar width: 5
XAxis mode: Wavelengths
Number of Pixels in Spectrum: 2068
>>>>>Begin Spectral Data<<<<<
199	-0.069
199	-0.058
200	0
200	0.044
201	0.071
201	0.086
202	0.094
202	0.1
203	0.106
203	0.109
204	0.122
204	0.134
205	0.147
205	0.154
205	0.154
206	0.154
206	0.154
207	0.155
207	0.156
208	0.157
208	0.156
209	0.158
209	0.156
210	0.158
210	0.156
211	0.157
211	0.161
212	0.159
212	0.162
213	0.166
213	0.168
213	0.167
214	0.17
214	0.169
215	0.17
215	0.171
216	0.171
216	0.169
217	0.173
217	0.173
218	0.173
218	0.174
219	0.18
219	0.182
220	0.187
220	0.186
221	0.189
221	0.19
221	0.196
222	0.199
222	0.206
223	0.211
223	0.217
224	0.22
224	0.226
225	0.235
225	0.245
226	0.253
226	0.264
227	0.272
227	0.284
228	0.297
228	0.313
229	0.329
229	0.354
229	0.374
230	0.398
230	0.43
231	0.461
231	0.5
232	0.54
232	0.583
233	0.624
233	0.669
234	0.718
234	0.773
235	0.827
235	0.881
236	0.929
236	0.983
236	1.034
237	1.083
237	1.129
238	1.18
238	1.227
239	1.273
239	1.31
240	1.351
240	1.386
241	1.421
241	1.452
242	1.483
242	1.516
243	1.547
243	1.572
243	1.595
244	1.616
244	1.638
245	1.652
245	1.672
246	1.691
246	1.708
247	1.719
247	1.731
248	1.743
248	1.753
249	1.761
249	1.768
250	1.775
250	1.786
250	1.788
251	1.793
251	1.796
252	1.8
252	1.798
253	1.797
253	1.796
254	1.797
254	1.797
255	1.795
255	1.794
256	1.793
256	1.791
257	1.79
257	1.789
258	1.79
258	1.792
258	1.792
259	1.791
259	1.789
260	1.787
260	1.787
261	1.787
261	1.792
262	1.796
262	1.797
263	1.801
263	1.801
264	1.802
264	1.805
265	1.808
265	1.809
265	1.81
266	1.811
266	1.808
267	1.805
267	1.805
268	1.804
268	1.804
269	1.804
269	1.802
270	1.802
270	1.802
271	1.8
271	1.799
272	1.796
272	1.794
272	1.79
273	1.784
273	1.777
274	1.769
274	1.763
275	1.755
275	1.749
276	1.74
276	1.731
277	1.722
277	1.711
278	1.7
278	1.688
278	1.673
279	1.656
279	1.634
280	1.606
280	1.572
281	1.534
281	1.492
282	1.446
282	1.4
283	1.355
283	1.312
284	1.27
284	1.23
285	1.192
285	1.158
285	1.128
286	1.101
286	1.079
287	1.059
287	1.042
288	1.028
288	1.015
289	1.005
289	0.996
290	0.988
290	0.982
291	0.976
291	0.971
292	0.966
292	0.961
292	0.957
293	0.954
293	0.95
294	0.947
294	0.944
295	0.941
295	0.938
296	0.935
296	0.932
297	0.929
297	0.926
298	0.924
298	0.921
298	0.918
299	0.915
299	0.912
300	0.91
300	0.907
301	0.905
301	0.902
302	0.9
302	0.897
303	0.895
303	0.893
304	0.89
304	0.888
305	0.886
305	0.884
305	0.881
306	0.879
306	0.877
307	0.874
307	0.872
308	0.87
308	0.868
309	0.865
309	0.862
310	0.859
310	0.857
311	0.854
311	0.851
311	0.847
312	0.844
312	0.84
313	0.837
313	0.833
314	0.829
314	0.825
315	0.821
315	0.816
316	0.812
316	0.808
317	0.803
317	0.798
318	0.794
318	0.789
318	0.783
319	0.778
319	0.773
320	0.767
320	0.761
321	0.755
321	0.749
322	0.743
322	0.736
323	0.73
323	0.723
324	0.717
324	0.71
324	0.703
325	0.697
325	0.69
326	0.683
326	0.676
327	0.669
327	0.662
328	0.655
328	0.648
329	0.641
329	0.633
330	0.626
330	0.619
330	0.612
331	0.605
331	0.598
332	0.591
332	0.584
333	0.577
333	0.57
334	0.562
334	0.556
335	0.549
335	0.542
336	0.535
336	0.528
336	0.522
337	0.515
337	0.509
338	0.503
338	0.496
339	0.49
339	0.484
340	0.479
340	0.473
341	0.467
341	0.461
342	0.456
342	0.45
342	0.445
343	0.44
343	0.434
344	0.429
344	0.424
345	0.419
345	0.415
346	0.41
346	0.406
347	0.402
347	0.397
348	0.393
348	0.389
348	0.385
349	0.382
349	0.378
350	0.374
350	0.371
351	0.368
351	0.364
352	0.361
352	0.358
353	0.355
353	0.352
354	0.35
354	0.347
354	0.344
355	0.341
355	0.338
356	0.335
356	0.332
357	0.329
357	0.327
358	0.324
358	0.321
359	0.319
359	0.317
360	0.315
360	0.313
360	0.311
361	0.31
361	0.308
362	0.307
362	0.305
363	0.303
363	0.302
364	0.3
364	0.298
365	0.296
365	0.294
366	0.292
366	0.29
366	0.289
367	0.287
367	0.285
368	0.284
368	0.282
369	0.281
369	0.279
370	0.278
370	0.277
371	0.276
371	0.274
372	0.273
372	0.272
372	0.271
373	0.27
373	0.269
374	0.269
374	0.268
375	0.267
375	0.266
376	0.265
376	0.264
377	0.263
377	0.262
378	0.261
378	0.261
378	0.26
379	0.259
379	0.258
380	0.258
380	0.257
381	0.256
381	0.256
382	0.255
382	0.255
383	0.255
383	0.254
383	0.254
384	0.253
384	0.253
385	0.252
385	0.252
386	0.252
386	0.251
387	0.251
387	0.25
388	0.25
388	0.25
389	0.249
389	0.249
389	0.249
390	0.248
390	0.248
391	0.248
391	0.247
392	0.247
392	0.247
393	0.247
393	0.246
394	0.246
394	0.246
394	0.245
395	0.245
395	0.245
396	0.244
396	0.244
397	0.244
397	0.244
398	0.243
398	0.243
399	0.243
399	0.242
400	0.242
400	0.242
400	0.242
401	0.242
401	0.241
402	0.241
402	0.241
403	0.241
403	0.24
404	0.24
404	0.24
405	0.24
405	0.24
405	0.24
406	0.239
406	0.239
407	0.239
407	0.239
408	0.238
408	0.238
409	0.238
409	0.237
410	0.237
410	0.237
411	0.237
411	0.237
411	0.236
412	0.236
412	0.236
413	0.236
413	0.235
414	0.235
414	0.235
415	0.235
415	0.234
416	0.234
416	0.234
416	0.233
417	0.233
417	0.233
418	0.232
418	0.232
419	0.232
419	0.231
420	0.231
420	0.23
421	0.23
421	0.23
421	0.229
422	0.229
422	0.228
423	0.228
423	0.228
424	0.227
424	0.227
425	0.227
425	0.227
426	0.226
426	0.226
427	0.226
427	0.225
427	0.225
428	0.225
428	0.224
429	0.224
429	0.223
430	0.223
430	0.223
431	0.223
431	0.222
432	0.222
432	0.222
432	0.222
433	0.222
433	0.221
434	0.221
434	0.221
435	0.221
435	0.221
436	0.221
436	0.221
437	0.22
437	0.22
437	0.22
438	0.219
438	0.219
439	0.219
439	0.219
440	0.218
440	0.218
441	0.218
441	0.217
442	0.217
442	0.217
442	0.217
443	0.216
443	0.216
444	0.216
444	0.216
445	0.216
445	0.216
446	0.216
446	0.215
447	0.215
447	0.215
447	0.215
448	0.215
448	0.214
449	0.214
449	0.214
450	0.214
450	0.213
451	0.213
451	0.213
452	0.213
452	0.213
452	0.212
453	0.212
453	0.212
454	0.212
454	0.211
455	0.211
455	0.211
456	0.21
456	0.21
457	0.21
457	0.209
458	0.209
458	0.209
458	0.209
459	0.208
459	0.208
460	0.208
460	0.208
461	0.208
461	0.208
462	0.208
462	0.207
463	0.207
463	0.207
463	0.207
464	0.206
464	0.206
465	0.206
465	0.206
466	0.205
466	0.205
467	0.205
467	0.205
467	0.205
468	0.205
468	0.205
469	0.205
469	0.205
470	0.205
470	0.205
471	0.205
471	0.205
472	0.205
472	0.205
472	0.205
473	0.204
473	0.204
474	0.204
474	0.204
475	0.204
475	0.203
476	0.203
476	0.203
477	0.203
477	0.203
477	0.203
478	0.203
478	0.203
479	0.203
479	0.202
480	0.202
480	0.202
481	0.202
481	0.202
482	0.202
482	0.202
482	0.202
483	0.203
483	0.203
484	0.203
484	0.203
485	0.203
485	0.202
486	0.202
486	0.202
487	0.202
487	0.202
487	0.202
488	0.202
488	0.202
489	0.202
489	0.202
490	0.203
490	0.203
491	0.204
491	0.204
492	0.204
492	0.205
492	0.205
493	0.206
493	0.206
494	0.206
494	0.206
495	0.206
495	0.207
496	0.207
496	0.207
496	0.207
497	0.208
497	0.207
498	0.208
498	0.208
499	0.208
499	0.209
500	0.209
500	0.209
501	0.21
501	0.21
501	0.21
502	0.21
502	0.21
503	0.211
503	0.211
504	0.211
504	0.212
505	0.212
505	0.212
506	0.213
506	0.213
506	0.213
507	0.214
507	0.214
508	0.214
508	0.214
509	0.215
509	0.215
510	0.215
510	0.215
511	0.216
511	0.216
511	0.216
512	0.217
512	0.217
513	0.217
513	0.218
514	0.218
514	0.219
515	0.219
515	0.219
515	0.22
516	0.22
516	0.22
517	0.221
517	0.221
518	0.221
518	0.222
519	0.222
519	0.222
520	0.223
520	0.223
520	0.223
521	0.223
521	0.223
522	0.223
522	0.223
523	0.224
523	0.224
524	0.224
524	0.224
524	0.224
525	0.225
525	0.225
526	0.225
526	0.225
527	0.225
527	0.225
528	0.225
528	0.225
529	0.225
529	0.225
529	0.225
530	0.225
530	0.225
531	0.225
531	0.225
532	0.226
532	0.225
533	0.225
533	0.225
533	0.226
534	0.225
534	0.226
535	0.226
535	0.226
536	0.225
536	0.225
537	0.225
537	0.225
538	0.225
538	0.225
538	0.225
539	0.225
539	0.225
540	0.225
540	0.225
541	0.225
541	0.225
542	0.225
542	0.225
542	0.225
543	0.225
543	0.225
544	0.225
544	0.225
545	0.225
545	0.225
546	0.225
546	0.224
547	0.224
547	0.223
547	0.223
548	0.223
548	0.223
549	0.223
549	0.222
550	0.222
550	0.222
551	0.222
551	0.222
551	0.222
552	0.221
552	0.221
553	0.221
553	0.221
554	0.22
554	0.22
555	0.219
555	0.219
556	0.218
556	0.218
556	0.218
557	0.218
557	0.218
558	0.218
558	0.218
559	0.219
559	0.219
560	0.219
560	0.219
560	0.219
561	0.219
561	0.219
562	0.218
562	0.217
563	0.216
563	0.216
564	0.215
564	0.215
564	0.214
565	0.214
565	0.214
566	0.213
566	0.213
567	0.213
567	0.213
568	0.213
568	0.213
568	0.213
569	0.213
569	0.212
570	0.212
570	0.211
571	0.21
571	0.21
572	0.209
572	0.209
573	0.209
573	0.208
573	0.208
574	0.207
574	0.208
575	0.208
575	0.208
576	0.208
576	0.207
577	0.206
577	0.206
577	0.205
578	0.205
578	0.205
579	0.205
579	0.205
580	0.205
580	0.204
581	0.204
581	0.204
581	0.204
582	0.204
582	0.204
583	0.204
583	0.204
584	0.203
584	0.202
585	0.202
585	0.202
585	0.202
586	0.202
586	0.201
587	0.201
587	0.2
588	0.2
588	0.199
589	0.199
589	0.199
590	0.199
590	0.199
590	0.2
591	0.2
591	0.199
592	0.199
592	0.198
593	0.198
593	0.198
594	0.197
594	0.197
594	0.196
595	0.196
595	0.195
596	0.195
596	0.195
597	0.196
597	0.196
598	0.196
598	0.196
598	0.196
599	0.196
599	0.196
600	0.196
600	0.195
601	0.195
601	0.195
602	0.194
602	0.194
602	0.193
603	0.193
603	0.193
604	0.193
604	0.193
605	0.193
605	0.193
606	0.193
606	0.192
606	0.192
607	0.191
607	0.191
608	0.191
608	0.19
609	0.189
609	0.189
610	0.189
610	0.188
610	0.189
611	0.189
611	0.189
612	0.189
612	0.189
613	0.189
613	0.189
614	0.189
614	0.189
614	0.189
615	0.189
615	0.189
616	0.189
616	0.189
617	0.189
617	0.189
618	0.189
618	0.189
618	0.189
619	0.189
619	0.189
620	0.189
620	0.189
621	0.188
621	0.188
622	0.187
622	0.187
622	0.187
623	0.186
623	0.186
624	0.186
624	0.185
625	0.185
625	0.185
626	0.185
626	0.185
626	0.185
627	0.185
627	0.185
628	0.185
628	0.185
629	0.185
629	0.185
630	0.185
630	0.185
630	0.185
631	0.185
631	0.184
632	0.184
632	0.184
633	0.184
633	0.184
634	0.184
634	0.184
634	0.184
635	0.183
635	0.183
636	0.183
636	0.183
637	0.182
637	0.182
638	0.182
638	0.182
638	0.181
639	0.181
639	0.18
640	0.18
640	0.18
641	0.18
641	0.18
642	0.18
642	0.18
642	0.18
643	0.18
643	0.181
644	0.181
644	0.181
645	0.181
645	0.182
646	0.182
646	0.182
646	0.182
647	0.182
647	0.182
648	0.181
648	0.181
649	0.181
649	0.18
650	0.18
650	0.18
650	0.18
651	0.18
651	0.18
652	0.18
652	0.181
653	0.181
653	0.183
653	0.187
654	0.147
654	0.118
655	0.119
655	0.119
656	0.119
656	0.12
657	0.12
657	0.12
657	0.12
658	0.119
658	0.11
659	0.138
659	0.177
660	0.182
660	0.182
661	0.181
661	0.181
661	0.18
662	0.18
662	0.18
663	0.18
663	0.179
664	0.179
664	0.179
665	0.179
665	0.179
665	0.179
666	0.179
666	0.179
667	0.179
667	0.179
668	0.179
668	0.179
669	0.18
669	0.18
669	0.18
670	0.181
670	0.18
671	0.18
671	0.18
672	0.179
672	0.179
672	0.178
673	0.178
673	0.178
674	0.178
674	0.178
675	0.177
675	0.177
676	0.178
676	0.178
676	0.178
677	0.179
677	0.179
678	0.179
678	0.178
679	0.178
679	0.178
680	0.178
680	0.178
680	0.177
681	0.177
681	0.178
682	0.178
682	0.178
683	0.178
683	0.178
684	0.179
684	0.179
684	0.179
685	0.179
685	0.179
686	0.179
686	0.179
687	0.179
687	0.18
687	0.18
688	0.18
688	0.18
689	0.181
689	0.181
690	0.181
690	0.181
691	0.181
691	0.181
691	0.181
692	0.181
692	0.181
693	0.182
693	0.182
694	0.182
694	0.182
695	0.183
695	0.184
695	0.184
696	0.184
696	0.184
697	0.184
697	0.184
698	0.184
698	0.183
698	0.183
699	0.183
699	0.182
700	0.182
700	0.182
701	0.181
701	0.181
702	0.181
702	0.18
702	0.18
703	0.18
703	0.179
704	0.179
704	0.179
705	0.179
705	0.179
705	0.178
706	0.178
706	0.179
707	0.179
707	0.179
708	0.179
708	0.179
709	0.179
709	0.179
709	0.179
710	0.179
710	0.18
711	0.181
711	0.181
712	0.182
712	0.182
713	0.182
713	0.183
713	0.183
714	0.183
714	0.184
715	0.183
715	0.183
716	0.182
716	0.182
716	0.181
717	0.18
717	0.179
718	0.178
718	0.178
719	0.178
719	0.178
720	0.179
720	0.18
720	0.181
721	0.181
721	0.183
722	0.184
722	0.184
723	0.185
723	0.185
723	0.185
724	0.185
724	0.184
725	0.184
725	0.183
726	0.182
726	0.181
727	0.18
727	0.18
727	0.18
728	0.179
728	0.179
729	0.18
729	0.18
730	0.18
730	0.18
730	0.181
731	0.181
731	0.182
732	0.182
732	0.183
733	0.183
733	0.184
734	0.184
734	0.184
734	0.185
735	0.185
735	0.185
736	0.185
736	0.186
737	0.185
737	0.186
737	0.185
738	0.185
738	0.184
739	0.184
739	0.184
740	0.184
740	0.184
741	0.184
741	0.184
741	0.184
742	0.185
742	0.186
743	0.187
743	0.187
744	0.188
744	0.189
744	0.189
745	0.189
745	0.189
746	0.189
746	0.189
747	0.189
747	0.188
748	0.188
748	0.188
748	0.188
749	0.187
749	0.188
750	0.188
750	0.188
751	0.188
751	0.189
751	0.189
752	0.189
752	0.189
753	0.189
753	0.188
754	0.188
754	0.188
754	0.187
755	0.187
755	0.187
756	0.187
756	0.186
757	0.185
757	0.185
758	0.186
758	0.186
758	0.186
759	0.186
759	0.186
760	0.186
760	0.186
761	0.186
761	0.187
761	0.187
762	0.187
762	0.188
763	0.188
763	0.187
764	0.187
764	0.188
764	0.188
765	0.188
765	0.188
766	0.188
766	0.188
767	0.187
767	0.187
768	0.186
768	0.186
768	0.186
769	0.187
769	0.187
770	0.187
770	0.188
771	0.188
771	0.188
771	0.189
772	0.19
772	0.19
773	0.19
773	0.19
774	0.19
774	0.191
775	0.191
775	0.191
775	0.191
776	0.191
776	0.192
777	0.192
777	0.193
778	0.193
778	0.193
778	0.193
779	0.194
779	0.194
780	0.193
780	0.192
781	0.192
781	0.191
781	0.191
782	0.191
782	0.191
783	0.191
783	0.191
784	0.191
784	0.192
784	0.192
785	0.193
785	0.193
786	0.193
786	0.194
787	0.194
787	0.194
788	0.193
788	0.193
788	0.192
789	0.192
789	0.192
790	0.192
790	0.192
791	0.192
791	0.192
791	0.192
792	0.193
792	0.193
793	0.193
793	0.193
794	0.193
794	0.193
794	0.193
795	0.193
795	0.193
796	0.194
796	0.194
797	0.193
797	0.193
797	0.194
798	0.194
798	0.194
799	0.194
799	0.194
800	0.194
800	0.194
801	0.194
801	0.194
801	0.194
802	0.195
802	0.195
803	0.195
803	0.196
804	0.196
804	0.197
804	0.197
805	0.197
805	0.197
806	0.197
806	0.197
807	0.197
807	0.197
807	0.197
808	0.197
808	0.197
809	0.197
809	0.197
810	0.196
810	0.196
810	0.196
811	0.196
811	0.197
812	0.198
812	0.198
813	0.198
813	0.199
813	0.2
814	0.2
814	0.201
815	0.202
815	0.202
816	0.202
816	0.201
817	0.201
817	0.201
817	0.2
818	0.2
818	0.2
819	0.199
819	0.199
820	0.198
820	0.198
820	0.198
821	0.198
821	0.198
822	0.198
822	0.198
823	0.199
823	0.199
823	0.2
824	0.201
824	0.202
825	0.203
825	0.204
826	0.205
826	0.205
826	0.206
827	0.206
827	0.207
828	0.207
828	0.208
829	0.208
829	0.208
829	0.208
830	0.208
830	0.209
831	0.209
831	0.209
832	0.209
832	0.208
832	0.208
833	0.208
833	0.208
834	0.208
834	0.207
835	0.207
835	0.206
835	0.206
836	0.206
836	0.205
837	0.205
837	0.204
838	0.203
838	0.202
839	0.202
839	0.201
839	0.2
840	0.199
840	0.198
841	0.198
841	0.197
842	0.196
842	0.196
842	0.196
843	0.196
843	0.195
844	0.195
844	0.195
845	0.195
845	0.195
845	0.196
846	0.196
846	0.196
847	0.197
847	0.197
848	0.198
848	0.198
848	0.198
849	0.198
849	0.198
850	0.198
850	0.197
851	0.197
851	0.197
851	0.196
852	0.196
852	0.195
853	0.195
853	0.195
854	0.196
854	0.196
854	0.197
855	0.198
855	0.199
856	0.2
856	0.201
857	0.202
857	0.203
857	0.204
858	0.204
858	0.205
859	0.205
859	0.205
860	0.205
860	0.205
860	0.205
861	0.205
861	0.204
862	0.203
862	0.202
863	0.202
863	0.201
863	0.201
864	0.201
864	0.2
865	0.201
865	0.201
866	0.2
866	0.2
866	0.2
867	0.201
867	0.201
868	0.201
868	0.201
869	0.201
869	0.2
869	0.199
870	0.199
870	0.198
871	0.198
871	0.198
872	0.198
872	0.197
872	0.197
873	0.197
873	0.197
874	0.196
874	0.196
875	0.196
875	0.196
875	0.195
876	0.195
876	0.195
877	0.195
877	0.195
878	0.194
878	0.195
878	0.195
879	0.195
879	0.195
880	0.195
880	0.196
881	0.196
881	0.196
881	0.196
882	0.196
882	0.196
883	0.197
883	0.197
884	0.197
884	0.198
884	0.198
885	0.198
885	0.198
886	0.197
886	0.197
887	0.197
887	0.196
887	0.196
888	0.195
888	0.194
889	0.194
889	0.193
890	0.193
890	0.194
890	0.194
891	0.194
891	0.194
892	0.194
892	0.194
893	0.194
893	0.194
893	0.194
894	0.194
894	0.193
895	0.193
895	0.192
895	0.192
896	0.192
896	0.192
897	0.191
897	0.191
898	0.191
898	0.19
898	0.19
899	0.189
899	0.189
900	0.189
900	0.188
901	0.188
901	0.188
901	0.188
902	0.187
902	0.187
903	0.187
903	0.187
904	0.187
904	0.187
904	0.187
905	0.187
905	0.187
906	0.186
906	0.186
907	0.187
907	0.187
907	0.187
908	0.186
908	0.186
909	0.186
909	0.186
910	0.185
910	0.185
910	0.185
911	0.184
911	0.184
912	0.183
912	0.183
913	0.182
913	0.181
913	0.181
914	0.181
914	0.18
915	0.18
915	0.18
916	0.18
916	0.18
916	0.18
917	0.18
917	0.18
918	0.18
918	0.18
918	0.18
919	0.18
919	0.179
920	0.179
920	0.179
921	0.179
921	0.178
921	0.178
922	0.178
922	0.178
923	0.178
923	0.178
924	0.178
924	0.178
924	0.178
925	0.178
925	0.178
926	0.178
926	0.178
927	0.178
927	0.178
927	0.178
928	0.178
928	0.179
929	0.179
929	0.179
930	0.179
930	0.179
930	0.179
931	0.178
931	0.178
932	0.178
932	0.177
933	0.177
933	0.177
933	0.176
934	0.176
934	0.175
935	0.175
935	0.175
935	0.174
936	0.174
936	0.173
937	0.173
937	0.172
938	0.172
938	0.171
938	0.17
939	0.169
939	0.169
940	0.168
940	0.168
941	0.168
941	0.168
941	0.168
942	0.168
942	0.168
943	0.168
943	0.168
944	0.169
944	0.169
944	0.169
945	0.169
945	0.168
946	0.168
946	0.168
946	0.168
947	0.167
947	0.167
948	0.167
948	0.167
949	0.166
949	0.165
949	0.165
950	0.164
950	0.164
951	0.164
951	0.163
952	0.162
952	0.161
952	0.161
953	0.16
953	0.16
954	0.16
954	0.159
955	0.16
955	0.16
955	0.16
956	0.16
956	0.161
957	0.162
957	0.163
957	0.163
958	0.164
958	0.164
959	0.165
959	0.165
960	0.165
960	0.165
960	0.165
961	0.164
961	0.164
962	0.164
962	0.163
963	0.163
963	0.162
963	0.162
964	0.162
964	0.162
965	0.161
965	0.161
966	0.161
966	0.161
966	0.161
967	0.16
967	0.16
968	0.16
968	0.16
968	0.16
969	0.159
969	0.158
970	0.157
970	0.156
971	0.156
971	0.155
971	0.154
972	0.153
972	0.152
973	0.152
973	0.151
974	0.151
974	0.151
974	0.151
975	0.152
975	0.152
976	0.152
976	0.153
976	0.153
977	0.153
977	0.154
978	0.154
978	0.154
979	0.154
979	0.154
979	0.154
980	0.154
980	0.154
981	0.154
981	0.154
982	0.154
982	0.154
982	0.154
983	0.154
983	0.154
984	0.154
984	0.154
984	0.153
985	0.153
985	0.153
986	0.152
986	0.152
987	0.152
987	0.151
987	0.151
988	0.151
988	0.15
989	0.15
989	0.149
990	0.149
990	0.148
990	0.148
991	0.148
991	0.147
992	0.147
992	0.146
992	0.145
993	0.144
993	0.143
994	0.142
994	0.141
995	0.141
995	0.14
995	0.14
996	0.14
996	0.14
997	0.14
997	0.14
997	0.141
998	0.141
998	0.142
999	0.143
999	0.143
1000	0.144
1000	0.145
1000	0.145
1001	0.146
1001	0.146
1002	0.146
1002	0.146
1003	0.146
1003	0.146
1003	0.145
1004	0.145
1004	0.144
1005	0.143
1005	0.143
1005	0.142
1006	0.141
1006	0.141
1007	0.14
1007	0.14
1008	0.14
1008	0.139
1008	0.139
1009	0.139
1009	0.139
1010	0.139
1010	0.139
1010	0.138
1011	0.138
1011	0.137
1012	0.137
1012	0.136
1013	0.135
1013	0.135
1013	0.134
1014	0.133
1014	0.133
1015	0.132
1015	0.132
1016	0.132
1016	0.132
1016	0.131
1017	0.131
1017	0.131
1018	0.131
1018	0.13
1018	0.13
1019	0.13
1019	0.13
1020	0.13
1020	0.13
1021	0.131
1021	0.131
1021	0.131
1022	0.131
1022	0.131
1023	0.132
1023	0.132
1023	0.132
1024	0.132
1024	0.132
1025	0.132
1025	0.132
1026	0.132
1026	0.132
1026	0.132
1027	0.132
1027	0.132
1028	0.132
1028	0.133
1028	0.133
1029	0.133
1029	0.133
1030	0.133
1030	0.133
1031	0.133
1031	0.133
1031	0.132
1032	0.132
1032	0.132
1033	0.132
1033	0.132
1033	0.132
1034	0.132
1034	0.131
1035	0.131
1035	0.131
1036	0.131
1036	0.131
1036	0.131
1037	0.13
1037	0.13
1038	0.129
1038	0.129
1039	0.129
1039	0.129
1039	0.129
1040	0.128
1040	0.128
1041	0.128
1041	0.128
1041	0.127
1042	0.127
1042	0.127
1043	0.127
1043	0.126
1044	0.126
1044	0.126
1044	0.126
1045	0.125
1045	0.125
1046	0.124
1046	0.124
1046	0.124
1047	0.123
1047	0.123
1048	0.123
1048	0.122
1049	0.122
1049	0.122
1049	0.122
1050	0.122
1050	0.121
1051	0.121
1051	0.121
1051	0.12
1052	0.12
1052	0.12
1053	0.119
1053	0.118
1053	0.118
1054	0.117
1054	0.117
1055	0.116
1055	0.116
1056	0.115
1056	0.114
1056	0.114
1057	0.113
1057	0.112
1058	0.112
1058	0.11
1058	0.11
1059	0.109
1059	0.108
1060	0.108
1060	0.107
1061	0.107
1061	0.106
1061	0.106
1062	0.106
1062	0.106
1063	0.106
1063	0.106
1063	0.106
1064	0.105
1064	0.105
1065	0.105
1065	0.104
1066	0.105
1066	0.104
1066	0.104
1067	0.104
1067	0.104
1068	0.104
1068	0.104
1068	0.104
1069	0.104
1069	0.104
1070	0.104
1070	0.104
1071	0.104
1071	0.104
1071	0.103
1072	0.103
1072	0.103
1073	0.103
1073	0.102
1073	0.102
1074	0.102
1074	0.103
1075	0.103
1075	0.103
1076	0.104
1076	0.104
1076	0.105
1077	0.105
1077	0.105
1078	0.105
1078	0.105
1078	0.105
1079	0.104
1079	0.104
1080	0.103
1080	0.102
1080	0.102
1081	0.101
1081	0.101
1082	0.101
1082	0.101
1083	0.101
1083	0.101
1083	0.101
1084	0.102
1084	0.102
1085	0.102
1085	0.102
1085	0.103
1086	0.104
1086	0.103
1087	0.103
1087	0.103
1088	0.102
1088	0.102
1088	0.103
1089	0.102
1089	0.101
1090	0.1
1090	0.098
1090	0.097
1091	0.096
1091	0.096
1092	0.096
1092	0.097
1092	0.096
1093	0.096
1093	0.096
1094	0.096
1094	0.097
1095	0.097
1095	0.096
1095	0.097
1096	0.096
1096	0.095
1097	0.094
1097	0.093
1097	0.092
1098	0.091
1098	0.09
1099	0.09
1099	0.088
1100	0.087
1100	0.086
1100	0.085
1101	0.084
1101	0.084
1102	0.084
1102	0.082
1102	0.081
1103	0.08
1103	0.08
1104	0.079
1104	0.079
1104	0.078
1105	0.077
1105	0.075
1106	0.073
1106	0.071
1107	0.07
1107	0.071
1107	0.071
1108	0.07
1108	0.069
1109	0.067
1109	0.067
1109	0.067
1110	0.069
1110	0.067
1111	0.067
1111	0.068
