Data from reversibility-20sec_Absorbance__5051__000000000005051.txt Node

Date: Wed Dec 06 16:16:46 CET 2023
User: Marek
Spectrometer: MAYP115816
Trigger mode: 0
Integration Time (sec): 2.000000E-1
Scans to average: 10
Electric dark correction enabled: true
Nonlinearity correction enabled: true
Boxcar width: 5
XAxis mode: Wavelengths
Number of Pixels in Spectrum: 2068
>>>>>Begin Spectral Data<<<<<
199	-0.182
199	-0.151
200	-0.088
200	-0.034
201	-0.004
201	0.019
202	0.033
202	0.044
203	0.051
203	0.055
204	0.069
204	0.084
205	0.098
205	0.105
205	0.105
206	0.105
206	0.103
207	0.105
207	0.103
208	0.106
208	0.106
209	0.109
209	0.104
210	0.106
210	0.107
211	0.11
211	0.113
212	0.11
212	0.111
213	0.116
213	0.113
213	0.112
214	0.114
214	0.118
215	0.117
215	0.116
216	0.115
216	0.114
217	0.121
217	0.123
218	0.118
218	0.124
219	0.127
219	0.128
220	0.131
220	0.129
221	0.128
221	0.134
221	0.137
222	0.142
222	0.143
223	0.15
223	0.152
224	0.158
224	0.166
225	0.175
225	0.187
226	0.197
226	0.205
227	0.213
227	0.223
228	0.241
228	0.256
229	0.271
229	0.295
229	0.317
230	0.339
230	0.368
231	0.403
231	0.442
232	0.481
232	0.523
233	0.565
233	0.613
234	0.665
234	0.717
235	0.771
235	0.826
236	0.877
236	0.929
236	0.98
237	1.028
237	1.075
238	1.125
238	1.172
239	1.221
239	1.263
240	1.3
240	1.337
241	1.37
241	1.404
242	1.434
242	1.472
243	1.504
243	1.528
243	1.552
244	1.572
244	1.593
245	1.611
245	1.633
246	1.655
246	1.671
247	1.683
247	1.695
248	1.707
248	1.719
249	1.73
249	1.738
250	1.745
250	1.753
250	1.755
251	1.757
251	1.759
252	1.765
252	1.765
253	1.766
253	1.764
254	1.762
254	1.762
255	1.759
255	1.758
256	1.758
256	1.756
257	1.756
257	1.753
258	1.752
258	1.752
258	1.751
259	1.752
259	1.752
260	1.753
260	1.756
261	1.756
261	1.761
262	1.764
262	1.767
263	1.771
263	1.771
264	1.773
264	1.774
265	1.775
265	1.776
265	1.775
266	1.775
266	1.775
267	1.774
267	1.774
268	1.773
268	1.775
269	1.778
269	1.777
270	1.776
270	1.775
271	1.773
271	1.773
272	1.77
272	1.767
272	1.764
273	1.758
273	1.751
274	1.743
274	1.737
275	1.73
275	1.723
276	1.715
276	1.707
277	1.698
277	1.69
278	1.678
278	1.666
278	1.652
279	1.636
279	1.615
280	1.59
280	1.559
281	1.524
281	1.484
282	1.443
282	1.4
283	1.358
283	1.316
284	1.277
284	1.239
285	1.203
285	1.171
285	1.142
286	1.116
286	1.094
287	1.075
287	1.058
288	1.044
288	1.033
289	1.023
289	1.014
290	1.007
290	1
291	0.994
291	0.989
292	0.984
292	0.98
292	0.976
293	0.972
293	0.969
294	0.966
294	0.963
295	0.96
295	0.957
296	0.955
296	0.952
297	0.949
297	0.947
298	0.944
298	0.941
298	0.939
299	0.936
299	0.933
300	0.93
300	0.928
301	0.925
301	0.923
302	0.92
302	0.918
303	0.916
303	0.913
304	0.911
304	0.909
305	0.907
305	0.905
305	0.902
306	0.9
306	0.898
307	0.896
307	0.893
308	0.89
308	0.888
309	0.885
309	0.883
310	0.88
310	0.877
311	0.874
311	0.871
311	0.868
312	0.865
312	0.861
313	0.858
313	0.854
314	0.851
314	0.847
315	0.843
315	0.839
316	0.835
316	0.83
317	0.826
317	0.821
318	0.816
318	0.811
318	0.806
319	0.801
319	0.796
320	0.791
320	0.785
321	0.779
321	0.773
322	0.768
322	0.761
323	0.755
323	0.749
324	0.743
324	0.736
324	0.729
325	0.723
325	0.716
326	0.709
326	0.703
327	0.696
327	0.689
328	0.682
328	0.676
329	0.669
329	0.662
330	0.655
330	0.648
330	0.641
331	0.635
331	0.628
332	0.621
332	0.614
333	0.607
333	0.6
334	0.593
334	0.587
335	0.58
335	0.573
336	0.567
336	0.56
336	0.554
337	0.548
337	0.542
338	0.535
338	0.529
339	0.524
339	0.518
340	0.512
340	0.507
341	0.501
341	0.496
342	0.49
342	0.485
342	0.48
343	0.475
343	0.47
344	0.465
344	0.46
345	0.455
345	0.451
346	0.446
346	0.442
347	0.437
347	0.433
348	0.429
348	0.425
348	0.422
349	0.418
349	0.414
350	0.411
350	0.407
351	0.404
351	0.401
352	0.398
352	0.394
353	0.392
353	0.389
354	0.386
354	0.383
354	0.38
355	0.377
355	0.375
356	0.372
356	0.369
357	0.366
357	0.363
358	0.361
358	0.358
359	0.356
359	0.354
360	0.352
360	0.35
360	0.348
361	0.346
361	0.344
362	0.343
362	0.341
363	0.339
363	0.338
364	0.336
364	0.334
365	0.332
365	0.33
366	0.329
366	0.327
366	0.325
367	0.324
367	0.322
368	0.321
368	0.319
369	0.318
369	0.316
370	0.315
370	0.314
371	0.312
371	0.311
372	0.31
372	0.309
372	0.308
373	0.307
373	0.306
374	0.305
374	0.304
375	0.303
375	0.302
376	0.301
376	0.3
377	0.299
377	0.298
378	0.298
378	0.297
378	0.296
379	0.295
379	0.294
380	0.294
380	0.293
381	0.292
381	0.292
382	0.291
382	0.291
383	0.29
383	0.29
383	0.289
384	0.289
384	0.288
385	0.288
385	0.287
386	0.287
386	0.287
387	0.286
387	0.286
388	0.285
388	0.285
389	0.284
389	0.284
389	0.284
390	0.283
390	0.283
391	0.282
391	0.282
392	0.282
392	0.281
393	0.281
393	0.28
394	0.28
394	0.28
394	0.28
395	0.279
395	0.279
396	0.279
396	0.278
397	0.278
397	0.277
398	0.277
398	0.277
399	0.277
399	0.276
400	0.276
400	0.275
400	0.275
401	0.275
401	0.275
402	0.275
402	0.275
403	0.274
403	0.274
404	0.274
404	0.274
405	0.274
405	0.273
405	0.273
406	0.273
406	0.272
407	0.272
407	0.272
408	0.272
408	0.271
409	0.271
409	0.271
410	0.27
410	0.27
411	0.27
411	0.27
411	0.269
412	0.269
412	0.269
413	0.268
413	0.268
414	0.268
414	0.267
415	0.267
415	0.267
416	0.266
416	0.266
416	0.265
417	0.265
417	0.265
418	0.264
418	0.264
419	0.264
419	0.263
420	0.263
420	0.263
421	0.263
421	0.262
421	0.262
422	0.262
422	0.261
423	0.261
423	0.261
424	0.26
424	0.26
425	0.26
425	0.259
426	0.259
426	0.259
427	0.258
427	0.258
427	0.258
428	0.257
428	0.257
429	0.257
429	0.257
430	0.256
430	0.256
431	0.256
431	0.256
432	0.256
432	0.255
432	0.255
433	0.255
433	0.255
434	0.254
434	0.254
435	0.254
435	0.254
436	0.254
436	0.253
437	0.253
437	0.253
437	0.253
438	0.253
438	0.253
439	0.252
439	0.252
440	0.252
440	0.252
441	0.251
441	0.251
442	0.251
442	0.251
442	0.251
443	0.25
443	0.25
444	0.25
444	0.25
445	0.25
445	0.249
446	0.249
446	0.249
447	0.249
447	0.249
447	0.248
448	0.248
448	0.248
449	0.248
449	0.248
450	0.248
450	0.248
451	0.247
451	0.247
452	0.247
452	0.247
452	0.247
453	0.247
453	0.247
454	0.246
454	0.246
455	0.246
455	0.246
456	0.245
456	0.245
457	0.245
457	0.245
458	0.245
458	0.244
458	0.244
459	0.244
459	0.244
460	0.243
460	0.243
461	0.243
461	0.242
462	0.242
462	0.242
463	0.242
463	0.242
463	0.242
464	0.242
464	0.241
465	0.241
465	0.241
466	0.241
466	0.241
467	0.241
467	0.241
467	0.241
468	0.241
468	0.241
469	0.241
469	0.241
470	0.241
470	0.241
471	0.241
471	0.241
472	0.241
472	0.241
472	0.241
473	0.241
473	0.241
474	0.241
474	0.241
475	0.241
475	0.241
476	0.241
476	0.241
477	0.241
477	0.241
477	0.241
478	0.241
478	0.241
479	0.241
479	0.241
480	0.241
480	0.241
481	0.241
481	0.241
482	0.241
482	0.242
482	0.242
483	0.242
483	0.242
484	0.243
484	0.243
485	0.242
485	0.243
486	0.243
486	0.243
487	0.243
487	0.243
487	0.244
488	0.244
488	0.244
489	0.244
489	0.245
490	0.246
490	0.246
491	0.247
491	0.248
492	0.248
492	0.248
492	0.249
493	0.249
493	0.25
494	0.25
494	0.25
495	0.25
495	0.251
496	0.251
496	0.252
496	0.253
497	0.253
497	0.254
498	0.254
498	0.255
499	0.255
499	0.256
500	0.257
500	0.257
501	0.258
501	0.258
501	0.258
502	0.259
502	0.259
503	0.259
503	0.26
504	0.261
504	0.261
505	0.261
505	0.262
506	0.262
506	0.263
506	0.263
507	0.264
507	0.264
508	0.265
508	0.265
509	0.266
509	0.266
510	0.267
510	0.267
511	0.268
511	0.269
511	0.27
512	0.27
512	0.271
513	0.272
513	0.272
514	0.273
514	0.273
515	0.274
515	0.274
515	0.275
516	0.275
516	0.275
517	0.276
517	0.276
518	0.276
518	0.276
519	0.277
519	0.277
520	0.277
520	0.277
520	0.277
521	0.277
521	0.277
522	0.278
522	0.278
523	0.278
523	0.278
524	0.278
524	0.278
524	0.279
525	0.279
525	0.279
526	0.279
526	0.279
527	0.279
527	0.279
528	0.279
528	0.279
529	0.279
529	0.279
529	0.278
530	0.278
530	0.278
531	0.278
531	0.277
532	0.277
532	0.277
533	0.276
533	0.276
533	0.276
534	0.276
534	0.275
535	0.275
535	0.275
536	0.275
536	0.274
537	0.274
537	0.274
538	0.274
538	0.274
538	0.273
539	0.273
539	0.273
540	0.273
540	0.272
541	0.272
541	0.271
542	0.271
542	0.271
542	0.27
543	0.269
543	0.269
544	0.268
544	0.268
545	0.267
545	0.267
546	0.267
546	0.266
547	0.265
547	0.264
547	0.264
548	0.263
548	0.263
549	0.262
549	0.261
550	0.261
550	0.26
551	0.26
551	0.259
551	0.259
552	0.258
552	0.258
553	0.257
553	0.256
554	0.256
554	0.255
555	0.254
555	0.253
556	0.253
556	0.252
556	0.252
557	0.252
557	0.252
558	0.252
558	0.252
559	0.252
559	0.252
560	0.251
560	0.251
560	0.25
561	0.25
561	0.25
562	0.248
562	0.247
563	0.246
563	0.246
564	0.245
564	0.244
564	0.244
565	0.243
565	0.243
566	0.242
566	0.242
567	0.242
567	0.241
568	0.241
568	0.24
568	0.24
569	0.24
569	0.239
570	0.238
570	0.237
571	0.236
571	0.236
572	0.235
572	0.234
573	0.234
573	0.233
573	0.233
574	0.232
574	0.232
575	0.232
575	0.232
576	0.232
576	0.231
577	0.23
577	0.23
577	0.23
578	0.229
578	0.229
579	0.229
579	0.229
580	0.228
580	0.227
581	0.226
581	0.226
581	0.226
582	0.226
582	0.226
583	0.226
583	0.225
584	0.224
584	0.223
585	0.223
585	0.222
585	0.222
586	0.222
586	0.221
587	0.22
587	0.22
588	0.219
588	0.218
589	0.218
589	0.218
590	0.218
590	0.218
590	0.219
591	0.219
591	0.218
592	0.218
592	0.217
593	0.217
593	0.217
594	0.216
594	0.215
594	0.215
595	0.215
595	0.214
596	0.213
596	0.213
597	0.214
597	0.214
598	0.214
598	0.213
598	0.213
599	0.213
599	0.213
600	0.212
600	0.212
601	0.212
601	0.212
602	0.211
602	0.211
602	0.21
603	0.21
603	0.21
604	0.21
604	0.21
605	0.21
605	0.21
606	0.209
606	0.208
606	0.208
607	0.208
607	0.207
608	0.207
608	0.206
609	0.206
609	0.206
610	0.205
610	0.205
610	0.205
611	0.205
611	0.205
612	0.205
612	0.205
613	0.205
613	0.205
614	0.204
614	0.204
614	0.203
615	0.203
615	0.203
616	0.202
616	0.202
617	0.202
617	0.201
618	0.201
618	0.201
618	0.201
619	0.201
619	0.201
620	0.202
620	0.201
621	0.201
621	0.201
622	0.2
622	0.2
622	0.2
623	0.199
623	0.199
624	0.198
624	0.198
625	0.197
625	0.197
626	0.197
626	0.196
626	0.196
627	0.196
627	0.196
628	0.195
628	0.195
629	0.195
629	0.195
630	0.195
630	0.194
630	0.195
631	0.195
631	0.195
632	0.195
632	0.195
633	0.195
633	0.195
634	0.195
634	0.195
634	0.195
635	0.194
635	0.194
636	0.194
636	0.194
637	0.193
637	0.193
638	0.193
638	0.193
638	0.192
639	0.192
639	0.192
640	0.192
640	0.192
641	0.192
641	0.192
642	0.192
642	0.193
642	0.193
643	0.193
643	0.194
644	0.194
644	0.193
645	0.193
645	0.193
646	0.193
646	0.193
646	0.192
647	0.192
647	0.192
648	0.191
648	0.19
649	0.19
649	0.19
650	0.19
650	0.19
650	0.19
651	0.19
651	0.19
652	0.19
652	0.189
653	0.19
653	0.191
653	0.198
654	0.155
654	0.124
655	0.124
655	0.125
656	0.125
656	0.125
657	0.126
657	0.126
657	0.126
658	0.125
658	0.115
659	0.145
659	0.186
660	0.191
660	0.191
661	0.191
661	0.191
661	0.19
662	0.19
662	0.19
663	0.19
663	0.19
664	0.19
664	0.19
665	0.19
665	0.19
665	0.19
666	0.191
666	0.191
667	0.191
667	0.191
668	0.192
668	0.192
669	0.192
669	0.192
669	0.193
670	0.193
670	0.193
671	0.192
671	0.192
672	0.191
672	0.191
672	0.19
673	0.19
673	0.19
674	0.189
674	0.189
675	0.188
675	0.189
676	0.189
676	0.189
676	0.189
677	0.189
677	0.189
678	0.188
678	0.188
679	0.188
679	0.188
680	0.188
680	0.188
680	0.188
681	0.188
681	0.188
682	0.189
682	0.189
683	0.19
683	0.19
684	0.19
684	0.19
684	0.19
685	0.19
685	0.19
686	0.19
686	0.19
687	0.19
687	0.19
687	0.19
688	0.19
688	0.189
689	0.19
689	0.19
690	0.19
690	0.19
691	0.19
691	0.19
691	0.19
692	0.19
692	0.19
693	0.19
693	0.19
694	0.19
694	0.189
695	0.19
695	0.191
695	0.192
696	0.192
696	0.192
697	0.192
697	0.193
698	0.193
698	0.193
698	0.193
699	0.194
699	0.193
700	0.193
700	0.193
701	0.193
701	0.192
702	0.192
702	0.191
702	0.191
703	0.191
703	0.191
704	0.19
704	0.191
705	0.191
705	0.191
705	0.192
706	0.192
706	0.193
707	0.193
707	0.194
708	0.194
708	0.195
709	0.195
709	0.195
709	0.195
710	0.195
710	0.195
711	0.195
711	0.195
712	0.195
712	0.195
713	0.194
713	0.194
713	0.194
714	0.193
714	0.193
715	0.192
715	0.192
716	0.191
716	0.191
716	0.19
717	0.19
717	0.189
718	0.189
718	0.189
719	0.19
719	0.19
720	0.19
720	0.191
720	0.191
721	0.192
721	0.193
722	0.194
722	0.194
723	0.195
723	0.195
723	0.195
724	0.195
724	0.195
725	0.195
725	0.194
726	0.194
726	0.193
727	0.193
727	0.193
727	0.193
728	0.192
728	0.192
729	0.193
729	0.193
730	0.193
730	0.193
730	0.194
731	0.194
731	0.195
732	0.195
732	0.196
733	0.196
733	0.196
734	0.197
734	0.197
734	0.198
735	0.199
735	0.199
736	0.199
736	0.199
737	0.2
737	0.2
737	0.2
738	0.199
738	0.198
739	0.197
739	0.197
740	0.196
740	0.196
741	0.196
741	0.196
741	0.196
742	0.196
742	0.197
743	0.198
743	0.199
744	0.2
744	0.201
744	0.201
745	0.201
745	0.201
746	0.201
746	0.201
747	0.201
747	0.2
748	0.2
748	0.199
748	0.199
749	0.198
749	0.198
750	0.198
750	0.197
751	0.197
751	0.197
751	0.197
752	0.197
752	0.197
753	0.196
753	0.196
754	0.196
754	0.196
754	0.197
755	0.197
755	0.198
756	0.197
756	0.197
757	0.197
757	0.197
758	0.198
758	0.198
758	0.198
759	0.199
759	0.199
760	0.199
760	0.199
761	0.199
761	0.2
761	0.201
762	0.201
762	0.201
763	0.202
763	0.201
764	0.201
764	0.201
764	0.201
765	0.201
765	0.201
766	0.201
766	0.201
767	0.201
767	0.2
768	0.199
768	0.199
768	0.199
769	0.2
769	0.2
770	0.2
770	0.2
771	0.201
771	0.201
771	0.202
772	0.202
772	0.203
773	0.203
773	0.203
774	0.203
774	0.203
775	0.203
775	0.203
775	0.203
776	0.202
776	0.202
777	0.202
777	0.202
778	0.202
778	0.202
778	0.202
779	0.202
779	0.202
780	0.202
780	0.202
781	0.202
781	0.202
781	0.202
782	0.203
782	0.203
783	0.204
783	0.205
784	0.205
784	0.205
784	0.206
785	0.207
785	0.207
786	0.208
786	0.208
787	0.209
787	0.209
788	0.208
788	0.208
788	0.208
789	0.207
789	0.207
790	0.206
790	0.206
791	0.205
791	0.204
791	0.203
792	0.204
792	0.203
793	0.203
793	0.203
794	0.202
794	0.202
794	0.202
795	0.202
795	0.203
796	0.203
796	0.203
797	0.203
797	0.203
797	0.204
798	0.204
798	0.205
799	0.205
799	0.205
800	0.205
800	0.204
801	0.204
801	0.204
801	0.204
802	0.204
802	0.204
803	0.204
803	0.204
804	0.205
804	0.205
804	0.206
805	0.206
805	0.206
806	0.206
806	0.206
807	0.206
807	0.207
807	0.207
808	0.207
808	0.207
809	0.207
809	0.207
810	0.207
810	0.207
810	0.207
811	0.207
811	0.208
812	0.208
812	0.208
813	0.208
813	0.208
813	0.208
814	0.209
814	0.209
815	0.21
815	0.21
816	0.21
816	0.21
817	0.21
817	0.21
817	0.21
818	0.21
818	0.21
819	0.21
819	0.209
820	0.208
820	0.208
820	0.208
821	0.209
821	0.209
822	0.209
822	0.209
823	0.209
823	0.209
823	0.209
824	0.21
824	0.211
825	0.211
825	0.212
826	0.212
826	0.211
826	0.212
827	0.212
827	0.213
828	0.213
828	0.213
829	0.213
829	0.213
829	0.212
830	0.212
830	0.212
831	0.213
831	0.213
832	0.212
832	0.212
832	0.212
833	0.212
833	0.211
834	0.211
834	0.211
835	0.211
835	0.21
835	0.21
836	0.21
836	0.21
837	0.21
837	0.209
838	0.209
838	0.208
839	0.208
839	0.207
839	0.206
840	0.206
840	0.205
841	0.204
841	0.203
842	0.202
842	0.202
842	0.201
843	0.201
843	0.2
844	0.199
844	0.199
845	0.198
845	0.197
845	0.197
846	0.197
846	0.196
847	0.196
847	0.196
848	0.196
848	0.197
848	0.197
849	0.198
849	0.198
850	0.199
850	0.199
851	0.2
851	0.201
851	0.201
852	0.201
852	0.202
853	0.202
853	0.202
854	0.203
854	0.203
854	0.204
855	0.205
855	0.205
856	0.205
856	0.206
857	0.206
857	0.206
857	0.205
858	0.205
858	0.204
859	0.203
859	0.202
860	0.201
860	0.201
860	0.2
861	0.199
861	0.199
862	0.199
862	0.198
863	0.198
863	0.198
863	0.198
864	0.197
864	0.197
865	0.198
865	0.198
866	0.197
866	0.197
866	0.197
867	0.198
867	0.198
868	0.198
868	0.198
869	0.199
869	0.199
869	0.198
870	0.198
870	0.198
871	0.198
871	0.198
872	0.198
872	0.197
872	0.197
873	0.197
873	0.197
874	0.197
874	0.197
875	0.197
875	0.197
875	0.197
876	0.197
876	0.197
877	0.197
877	0.197
878	0.197
878	0.197
878	0.197
879	0.197
879	0.196
880	0.196
880	0.195
881	0.195
881	0.194
881	0.194
882	0.193
882	0.193
883	0.192
883	0.192
884	0.192
884	0.192
884	0.192
885	0.192
885	0.192
886	0.192
886	0.191
887	0.191
887	0.19
887	0.189
888	0.188
888	0.187
889	0.186
889	0.186
890	0.185
890	0.185
890	0.185
891	0.184
891	0.184
892	0.184
892	0.183
893	0.183
893	0.183
893	0.182
894	0.182
894	0.181
895	0.18
895	0.18
895	0.18
896	0.18
896	0.18
897	0.181
897	0.181
898	0.181
898	0.182
898	0.182
899	0.183
899	0.183
900	0.183
900	0.183
901	0.183
901	0.183
901	0.183
902	0.182
902	0.182
903	0.181
903	0.181
904	0.18
904	0.179
904	0.179
905	0.178
905	0.177
906	0.177
906	0.177
907	0.177
907	0.177
907	0.177
908	0.177
908	0.176
909	0.176
909	0.176
910	0.175
910	0.175
910	0.174
911	0.174
911	0.173
912	0.173
912	0.173
913	0.173
913	0.173
913	0.173
914	0.173
914	0.173
915	0.174
915	0.174
916	0.174
916	0.174
916	0.174
917	0.173
917	0.173
918	0.172
918	0.172
918	0.171
919	0.171
919	0.171
920	0.17
920	0.17
921	0.17
921	0.17
921	0.17
922	0.17
922	0.171
923	0.171
923	0.171
924	0.172
924	0.172
924	0.173
925	0.173
925	0.173
926	0.174
926	0.174
927	0.174
927	0.173
927	0.173
928	0.172
928	0.171
929	0.171
929	0.17
930	0.169
930	0.168
930	0.167
931	0.166
931	0.166
932	0.165
932	0.165
933	0.165
933	0.164
933	0.164
934	0.163
934	0.163
935	0.163
935	0.162
935	0.162
936	0.161
936	0.161
937	0.16
937	0.16
938	0.159
938	0.159
938	0.159
939	0.159
939	0.158
940	0.158
940	0.158
941	0.158
941	0.157
941	0.157
942	0.157
942	0.157
943	0.157
943	0.156
944	0.156
944	0.156
944	0.156
945	0.156
945	0.156
946	0.156
946	0.156
946	0.156
947	0.156
947	0.156
948	0.156
948	0.156
949	0.155
949	0.155
949	0.154
950	0.154
950	0.154
951	0.154
951	0.153
952	0.152
952	0.151
952	0.151
953	0.15
953	0.149
954	0.148
954	0.147
955	0.147
955	0.146
955	0.145
956	0.145
956	0.145
957	0.145
957	0.144
957	0.144
958	0.144
958	0.144
959	0.144
959	0.144
960	0.143
960	0.143
960	0.143
961	0.143
961	0.143
962	0.143
962	0.143
963	0.143
963	0.143
963	0.143
964	0.143
964	0.144
965	0.144
965	0.144
966	0.144
966	0.144
966	0.144
967	0.143
967	0.143
968	0.143
968	0.143
968	0.142
969	0.142
969	0.141
970	0.14
970	0.139
971	0.139
971	0.138
971	0.137
972	0.137
972	0.136
973	0.136
973	0.135
974	0.135
974	0.135
974	0.135
975	0.135
975	0.135
976	0.135
976	0.135
976	0.135
977	0.135
977	0.134
978	0.134
978	0.133
979	0.133
979	0.132
979	0.131
980	0.131
980	0.13
981	0.129
981	0.128
982	0.128
982	0.127
982	0.127
983	0.127
983	0.127
984	0.127
984	0.127
984	0.126
985	0.127
985	0.127
986	0.127
986	0.127
987	0.127
987	0.126
987	0.127
988	0.127
988	0.127
989	0.127
989	0.127
990	0.127
990	0.127
990	0.127
991	0.127
991	0.127
992	0.127
992	0.126
992	0.125
993	0.124
993	0.123
994	0.122
994	0.121
995	0.121
995	0.12
995	0.119
996	0.119
996	0.119
997	0.119
997	0.119
997	0.12
998	0.12
998	0.121
999	0.121
999	0.122
1000	0.123
1000	0.123
1000	0.123
1001	0.123
1001	0.123
1002	0.123
1002	0.122
1003	0.122
1003	0.121
1003	0.12
1004	0.119
1004	0.118
1005	0.118
1005	0.117
1005	0.116
1006	0.115
1006	0.115
1007	0.115
1007	0.114
1008	0.114
1008	0.114
1008	0.114
1009	0.114
1009	0.114
1010	0.114
1010	0.114
1010	0.114
1011	0.113
1011	0.113
1012	0.113
1012	0.112
1013	0.112
1013	0.111
1013	0.111
1014	0.11
1014	0.11
1015	0.11
1015	0.11
1016	0.11
1016	0.11
1016	0.11
1017	0.11
1017	0.109
1018	0.11
1018	0.109
1018	0.109
1019	0.109
1019	0.109
1020	0.109
1020	0.109
1021	0.109
1021	0.109
1021	0.109
1022	0.11
1022	0.11
1023	0.11
1023	0.11
1023	0.11
1024	0.11
1024	0.11
1025	0.11
1025	0.11
1026	0.11
1026	0.11
1026	0.11
1027	0.109
1027	0.109
1028	0.109
1028	0.109
1028	0.109
1029	0.109
1029	0.109
1030	0.11
1030	0.11
1031	0.11
1031	0.11
1031	0.11
1032	0.11
1032	0.11
1033	0.11
1033	0.11
1033	0.11
1034	0.11
1034	0.109
1035	0.109
1035	0.108
1036	0.108
1036	0.107
1036	0.107
1037	0.107
1037	0.106
1038	0.106
1038	0.106
1039	0.106
1039	0.106
1039	0.106
1040	0.106
1040	0.106
1041	0.106
1041	0.106
1041	0.106
1042	0.106
1042	0.106
1043	0.106
1043	0.106
1044	0.105
1044	0.105
1044	0.106
1045	0.106
1045	0.106
1046	0.106
1046	0.106
1046	0.106
1047	0.106
1047	0.106
1048	0.106
1048	0.106
1049	0.106
1049	0.106
1049	0.106
1050	0.105
1050	0.104
1051	0.104
1051	0.103
1051	0.103
1052	0.102
1052	0.102
1053	0.101
1053	0.1
1053	0.099
1054	0.098
1054	0.098
1055	0.098
1055	0.097
1056	0.096
1056	0.096
1056	0.095
1057	0.094
1057	0.093
1058	0.093
1058	0.092
1058	0.091
1059	0.091
1059	0.09
1060	0.089
1060	0.088
1061	0.088
1061	0.088
1061	0.088
1062	0.087
1062	0.087
1063	0.087
1063	0.087
1063	0.086
1064	0.086
1064	0.086
1065	0.086
1065	0.085
1066	0.085
1066	0.085
1066	0.085
1067	0.084
1067	0.084
1068	0.084
1068	0.084
1068	0.084
1069	0.083
1069	0.083
1070	0.083
1070	0.082
1071	0.082
1071	0.082
1071	0.082
1072	0.081
1072	0.081
1073	0.081
1073	0.08
1073	0.08
1074	0.081
1074	0.081
1075	0.081
1075	0.082
1076	0.082
1076	0.083
1076	0.083
1077	0.083
1077	0.083
1078	0.083
1078	0.083
1078	0.083
1079	0.083
1079	0.083
1080	0.082
1080	0.082
1080	0.081
1081	0.081
1081	0.081
1082	0.081
1082	0.081
1083	0.081
1083	0.08
1083	0.08
1084	0.08
1084	0.08
1085	0.08
1085	0.08
1085	0.08
1086	0.08
1086	0.08
1087	0.08
1087	0.08
1088	0.08
1088	0.08
1088	0.08
1089	0.079
1089	0.079
1090	0.078
1090	0.077
1090	0.076
1091	0.075
1091	0.075
1092	0.074
1092	0.074
1092	0.074
1093	0.072
1093	0.072
1094	0.072
1094	0.071
1095	0.071
1095	0.072
1095	0.072
1096	0.071
1096	0.071
1097	0.07
1097	0.069
1097	0.07
1098	0.07
1098	0.068
1099	0.068
1099	0.066
1100	0.065
1100	0.062
1100	0.061
1101	0.06
1101	0.058
1102	0.057
1102	0.055
1102	0.053
1103	0.053
1103	0.052
1104	0.052
1104	0.051
1104	0.05
1105	0.049
1105	0.047
1106	0.045
1106	0.044
1107	0.043
1107	0.042
1107	0.042
1108	0.04
1108	0.039
1109	0.038
1109	0.037
1109	0.038
1110	0.038
1110	0.039
1111	0.038
1111	0.037
