Data from reversibility-20sec_Absorbance__1954__000000000001954.txt Node

Date: Tue Dec 05 23:04:25 CET 2023
User: Marek
Spectrometer: MAYP115816
Trigger mode: 0
Integration Time (sec): 2.000000E-1
Scans to average: 10
Electric dark correction enabled: true
Nonlinearity correction enabled: true
Boxcar width: 5
XAxis mode: Wavelengths
Number of Pixels in Spectrum: 2068
>>>>>Begin Spectral Data<<<<<
199	-0.178
199	-0.154
200	-0.089
200	-0.032
201	-0.004
201	0.016
202	0.031
202	0.04
203	0.047
203	0.048
204	0.06
204	0.072
205	0.085
205	0.093
205	0.09
206	0.09
206	0.088
207	0.091
207	0.089
208	0.089
208	0.089
209	0.091
209	0.089
210	0.089
210	0.088
211	0.087
211	0.088
212	0.088
212	0.087
213	0.089
213	0.088
213	0.09
214	0.093
214	0.094
215	0.098
215	0.096
216	0.097
216	0.097
217	0.101
217	0.104
218	0.107
218	0.114
219	0.119
219	0.121
220	0.125
220	0.123
221	0.125
221	0.126
221	0.132
222	0.134
222	0.136
223	0.139
223	0.141
224	0.145
224	0.154
225	0.161
225	0.171
226	0.181
226	0.194
227	0.204
227	0.214
228	0.227
228	0.243
229	0.26
229	0.284
229	0.305
230	0.331
230	0.36
231	0.393
231	0.43
232	0.467
232	0.512
233	0.559
233	0.606
234	0.656
234	0.708
235	0.763
235	0.815
236	0.87
236	0.925
236	0.978
237	1.033
237	1.085
238	1.134
238	1.182
239	1.23
239	1.275
240	1.315
240	1.355
241	1.394
241	1.431
242	1.467
242	1.503
243	1.536
243	1.567
243	1.599
244	1.624
244	1.651
245	1.672
245	1.7
246	1.721
246	1.739
247	1.755
247	1.773
248	1.791
248	1.807
249	1.819
249	1.83
250	1.841
250	1.851
250	1.857
251	1.866
251	1.869
252	1.877
252	1.878
253	1.88
253	1.877
254	1.877
254	1.88
255	1.878
255	1.881
256	1.883
256	1.881
257	1.886
257	1.887
258	1.889
258	1.89
258	1.895
259	1.898
259	1.9
260	1.901
260	1.904
261	1.906
261	1.913
262	1.917
262	1.919
263	1.928
263	1.932
264	1.933
264	1.936
265	1.939
265	1.943
265	1.948
266	1.949
266	1.951
267	1.949
267	1.951
268	1.948
268	1.95
269	1.956
269	1.956
270	1.959
270	1.958
271	1.955
271	1.956
272	1.952
272	1.951
272	1.947
273	1.94
273	1.931
274	1.922
274	1.914
275	1.905
275	1.898
276	1.89
276	1.881
277	1.874
277	1.863
278	1.851
278	1.839
278	1.824
279	1.806
279	1.781
280	1.75
280	1.714
281	1.671
281	1.625
282	1.577
282	1.529
283	1.482
283	1.438
284	1.395
284	1.354
285	1.316
285	1.282
285	1.252
286	1.225
286	1.201
287	1.181
287	1.164
288	1.15
288	1.137
289	1.127
289	1.117
290	1.11
290	1.103
291	1.097
291	1.092
292	1.088
292	1.084
292	1.08
293	1.077
293	1.073
294	1.07
294	1.067
295	1.064
295	1.061
296	1.058
296	1.055
297	1.052
297	1.049
298	1.047
298	1.044
298	1.041
299	1.039
299	1.036
300	1.034
300	1.031
301	1.029
301	1.027
302	1.024
302	1.022
303	1.02
303	1.018
304	1.016
304	1.014
305	1.012
305	1.009
305	1.007
306	1.005
306	1.002
307	1
307	0.997
308	0.995
308	0.993
309	0.99
309	0.987
310	0.984
310	0.982
311	0.979
311	0.976
311	0.973
312	0.969
312	0.965
313	0.962
313	0.958
314	0.954
314	0.95
315	0.945
315	0.941
316	0.936
316	0.932
317	0.927
317	0.922
318	0.917
318	0.911
318	0.906
319	0.901
319	0.895
320	0.89
320	0.884
321	0.878
321	0.872
322	0.865
322	0.859
323	0.853
323	0.846
324	0.84
324	0.833
324	0.826
325	0.819
325	0.812
326	0.805
326	0.798
327	0.791
327	0.784
328	0.777
328	0.77
329	0.763
329	0.756
330	0.749
330	0.742
330	0.734
331	0.727
331	0.72
332	0.713
332	0.705
333	0.698
333	0.691
334	0.684
334	0.677
335	0.67
335	0.663
336	0.656
336	0.65
336	0.643
337	0.636
337	0.63
338	0.624
338	0.617
339	0.611
339	0.605
340	0.599
340	0.593
341	0.587
341	0.581
342	0.576
342	0.57
342	0.565
343	0.559
343	0.554
344	0.549
344	0.544
345	0.54
345	0.535
346	0.53
346	0.526
347	0.521
347	0.517
348	0.513
348	0.509
348	0.505
349	0.501
349	0.497
350	0.493
350	0.49
351	0.486
351	0.482
352	0.479
352	0.476
353	0.473
353	0.47
354	0.467
354	0.464
354	0.461
355	0.458
355	0.455
356	0.452
356	0.45
357	0.447
357	0.444
358	0.441
358	0.438
359	0.435
359	0.433
360	0.431
360	0.429
360	0.426
361	0.424
361	0.422
362	0.42
362	0.418
363	0.416
363	0.415
364	0.413
364	0.411
365	0.409
365	0.407
366	0.405
366	0.403
366	0.402
367	0.4
367	0.398
368	0.396
368	0.395
369	0.393
369	0.392
370	0.39
370	0.388
371	0.387
371	0.386
372	0.384
372	0.383
372	0.381
373	0.38
373	0.379
374	0.378
374	0.377
375	0.376
375	0.375
376	0.374
376	0.373
377	0.372
377	0.371
378	0.37
378	0.369
378	0.368
379	0.367
379	0.366
380	0.365
380	0.364
381	0.363
381	0.362
382	0.361
382	0.361
383	0.36
383	0.359
383	0.359
384	0.358
384	0.357
385	0.356
385	0.356
386	0.355
386	0.354
387	0.354
387	0.353
388	0.353
388	0.352
389	0.352
389	0.351
389	0.351
390	0.35
390	0.35
391	0.349
391	0.349
392	0.348
392	0.348
393	0.347
393	0.347
394	0.346
394	0.346
394	0.345
395	0.345
395	0.344
396	0.344
396	0.343
397	0.342
397	0.342
398	0.341
398	0.341
399	0.34
399	0.34
400	0.339
400	0.339
400	0.338
401	0.338
401	0.338
402	0.338
402	0.337
403	0.337
403	0.337
404	0.336
404	0.336
405	0.336
405	0.335
405	0.335
406	0.334
406	0.334
407	0.334
407	0.333
408	0.333
408	0.332
409	0.332
409	0.331
410	0.331
410	0.331
411	0.33
411	0.33
411	0.33
412	0.329
412	0.329
413	0.328
413	0.328
414	0.328
414	0.327
415	0.327
415	0.327
416	0.326
416	0.326
416	0.325
417	0.325
417	0.325
418	0.324
418	0.324
419	0.323
419	0.323
420	0.323
420	0.322
421	0.322
421	0.322
421	0.321
422	0.321
422	0.321
423	0.32
423	0.32
424	0.32
424	0.319
425	0.319
425	0.319
426	0.318
426	0.318
427	0.318
427	0.317
427	0.317
428	0.317
428	0.316
429	0.316
429	0.315
430	0.315
430	0.314
431	0.314
431	0.314
432	0.314
432	0.314
432	0.313
433	0.313
433	0.312
434	0.312
434	0.312
435	0.312
435	0.312
436	0.312
436	0.311
437	0.311
437	0.311
437	0.31
438	0.31
438	0.31
439	0.31
439	0.31
440	0.309
440	0.309
441	0.309
441	0.309
442	0.309
442	0.308
442	0.308
443	0.308
443	0.308
444	0.308
444	0.308
445	0.308
445	0.308
446	0.307
446	0.307
447	0.307
447	0.306
447	0.306
448	0.306
448	0.306
449	0.306
449	0.306
450	0.306
450	0.305
451	0.305
451	0.305
452	0.305
452	0.305
452	0.305
453	0.304
453	0.304
454	0.304
454	0.304
455	0.303
455	0.303
456	0.303
456	0.303
457	0.302
457	0.302
458	0.302
458	0.302
458	0.302
459	0.301
459	0.301
460	0.301
460	0.301
461	0.301
461	0.301
462	0.3
462	0.3
463	0.3
463	0.3
463	0.3
464	0.3
464	0.299
465	0.299
465	0.299
466	0.299
466	0.299
467	0.299
467	0.299
467	0.299
468	0.298
468	0.298
469	0.299
469	0.299
470	0.299
470	0.299
471	0.299
471	0.299
472	0.3
472	0.3
472	0.3
473	0.3
473	0.3
474	0.3
474	0.3
475	0.3
475	0.3
476	0.3
476	0.3
477	0.3
477	0.301
477	0.301
478	0.301
478	0.302
479	0.302
479	0.302
480	0.302
480	0.302
481	0.303
481	0.303
482	0.303
482	0.303
482	0.303
483	0.304
483	0.304
484	0.305
484	0.305
485	0.305
485	0.305
486	0.306
486	0.306
487	0.306
487	0.307
487	0.307
488	0.307
488	0.307
489	0.308
489	0.309
490	0.31
490	0.311
491	0.312
491	0.312
492	0.313
492	0.314
492	0.315
493	0.316
493	0.316
494	0.317
494	0.318
495	0.318
495	0.319
496	0.32
496	0.321
496	0.321
497	0.322
497	0.323
498	0.323
498	0.324
499	0.325
499	0.325
500	0.326
500	0.327
501	0.328
501	0.329
501	0.329
502	0.33
502	0.33
503	0.331
503	0.332
504	0.333
504	0.333
505	0.334
505	0.335
506	0.335
506	0.336
506	0.337
507	0.337
507	0.338
508	0.339
508	0.34
509	0.341
509	0.342
510	0.343
510	0.343
511	0.344
511	0.345
511	0.346
512	0.347
512	0.347
513	0.348
513	0.348
514	0.349
514	0.35
515	0.35
515	0.35
515	0.351
516	0.351
516	0.352
517	0.352
517	0.353
518	0.353
518	0.353
519	0.353
519	0.354
520	0.354
520	0.354
520	0.354
521	0.354
521	0.354
522	0.354
522	0.354
523	0.354
523	0.354
524	0.355
524	0.355
524	0.355
525	0.355
525	0.355
526	0.355
526	0.355
527	0.356
527	0.355
528	0.355
528	0.355
529	0.354
529	0.354
529	0.353
530	0.353
530	0.352
531	0.352
531	0.351
532	0.35
532	0.35
533	0.35
533	0.349
533	0.349
534	0.348
534	0.348
535	0.347
535	0.347
536	0.346
536	0.346
537	0.346
537	0.345
538	0.344
538	0.343
538	0.342
539	0.342
539	0.341
540	0.34
540	0.339
541	0.338
541	0.338
542	0.337
542	0.336
542	0.335
543	0.334
543	0.333
544	0.332
544	0.331
545	0.331
545	0.33
546	0.329
546	0.328
547	0.327
547	0.326
547	0.325
548	0.324
548	0.323
549	0.322
549	0.321
550	0.321
550	0.32
551	0.319
551	0.318
551	0.317
552	0.316
552	0.315
553	0.314
553	0.313
554	0.312
554	0.311
555	0.309
555	0.308
556	0.307
556	0.306
556	0.305
557	0.304
557	0.304
558	0.304
558	0.303
559	0.302
559	0.301
560	0.301
560	0.3
560	0.299
561	0.299
561	0.298
562	0.297
562	0.295
563	0.294
563	0.293
564	0.292
564	0.291
564	0.29
565	0.29
565	0.289
566	0.288
566	0.288
567	0.287
567	0.287
568	0.286
568	0.286
568	0.285
569	0.285
569	0.284
570	0.283
570	0.282
571	0.281
571	0.28
572	0.279
572	0.278
573	0.278
573	0.277
573	0.275
574	0.274
574	0.274
575	0.273
575	0.273
576	0.272
576	0.271
577	0.27
577	0.27
577	0.269
578	0.268
578	0.268
579	0.268
579	0.267
580	0.266
580	0.265
581	0.264
581	0.263
581	0.263
582	0.263
582	0.263
583	0.263
583	0.262
584	0.261
584	0.259
585	0.259
585	0.258
585	0.258
586	0.257
586	0.256
587	0.255
587	0.254
588	0.253
588	0.252
589	0.252
589	0.252
590	0.252
590	0.252
590	0.252
591	0.252
591	0.251
592	0.251
592	0.25
593	0.249
593	0.249
594	0.248
594	0.247
594	0.246
595	0.246
595	0.245
596	0.244
596	0.244
597	0.244
597	0.244
598	0.244
598	0.243
598	0.243
599	0.243
599	0.242
600	0.241
600	0.241
601	0.24
601	0.24
602	0.239
602	0.238
602	0.238
603	0.237
603	0.237
604	0.237
604	0.237
605	0.237
605	0.237
606	0.236
606	0.235
606	0.235
607	0.235
607	0.235
608	0.234
608	0.233
609	0.233
609	0.232
610	0.232
610	0.231
610	0.231
611	0.231
611	0.231
612	0.231
612	0.231
613	0.231
613	0.231
614	0.231
614	0.23
614	0.23
615	0.23
615	0.229
616	0.229
616	0.229
617	0.229
617	0.228
618	0.228
618	0.228
618	0.228
619	0.228
619	0.228
620	0.228
620	0.227
621	0.227
621	0.226
622	0.225
622	0.225
622	0.224
623	0.224
623	0.223
624	0.223
624	0.222
625	0.222
625	0.222
626	0.221
626	0.221
626	0.221
627	0.221
627	0.22
628	0.22
628	0.22
629	0.219
629	0.219
630	0.219
630	0.218
630	0.218
631	0.218
631	0.218
632	0.218
632	0.218
633	0.218
633	0.218
634	0.218
634	0.218
634	0.218
635	0.217
635	0.217
636	0.217
636	0.217
637	0.216
637	0.216
638	0.216
638	0.215
638	0.215
639	0.215
639	0.214
640	0.214
640	0.214
641	0.213
641	0.213
642	0.213
642	0.213
642	0.213
643	0.213
643	0.213
644	0.213
644	0.212
645	0.212
645	0.212
646	0.212
646	0.212
646	0.212
647	0.212
647	0.211
648	0.211
648	0.211
649	0.21
649	0.211
650	0.211
650	0.211
650	0.211
651	0.211
651	0.211
652	0.211
652	0.211
653	0.211
653	0.213
653	0.22
654	0.172
654	0.136
655	0.138
655	0.138
656	0.139
656	0.139
657	0.139
657	0.14
657	0.14
658	0.138
658	0.126
659	0.16
659	0.207
660	0.211
660	0.211
661	0.21
661	0.21
661	0.209
662	0.209
662	0.208
663	0.207
663	0.207
664	0.206
664	0.206
665	0.206
665	0.206
665	0.206
666	0.206
666	0.207
667	0.207
667	0.208
668	0.208
668	0.208
669	0.208
669	0.208
669	0.209
670	0.209
670	0.209
671	0.208
671	0.208
672	0.207
672	0.207
672	0.207
673	0.207
673	0.207
674	0.207
674	0.206
675	0.206
675	0.206
676	0.206
676	0.206
676	0.206
677	0.206
677	0.206
678	0.206
678	0.205
679	0.205
679	0.205
680	0.205
680	0.205
680	0.205
681	0.206
681	0.206
682	0.207
682	0.208
683	0.208
683	0.209
684	0.21
684	0.21
684	0.21
685	0.21
685	0.21
686	0.21
686	0.21
687	0.21
687	0.209
687	0.209
688	0.209
688	0.209
689	0.209
689	0.21
690	0.21
690	0.209
691	0.209
691	0.21
691	0.21
692	0.211
692	0.211
693	0.211
693	0.212
694	0.211
694	0.211
695	0.212
695	0.213
695	0.213
696	0.213
696	0.212
697	0.212
697	0.212
698	0.212
698	0.212
698	0.212
699	0.212
699	0.211
700	0.211
700	0.212
701	0.212
701	0.212
702	0.212
702	0.212
702	0.212
703	0.212
703	0.212
704	0.212
704	0.212
705	0.212
705	0.211
705	0.211
706	0.211
706	0.21
707	0.21
707	0.21
708	0.21
708	0.21
709	0.21
709	0.21
709	0.209
710	0.209
710	0.209
711	0.209
711	0.209
712	0.209
712	0.208
713	0.209
713	0.209
713	0.209
714	0.209
714	0.21
715	0.21
715	0.21
716	0.209
716	0.209
716	0.209
717	0.208
717	0.208
718	0.207
718	0.207
719	0.206
719	0.206
720	0.207
720	0.207
720	0.208
721	0.208
721	0.209
722	0.209
722	0.209
723	0.21
723	0.21
723	0.21
724	0.21
724	0.21
725	0.21
725	0.209
726	0.209
726	0.208
727	0.208
727	0.208
727	0.208
728	0.208
728	0.207
729	0.208
729	0.208
730	0.208
730	0.208
730	0.209
731	0.21
731	0.21
732	0.211
732	0.211
733	0.211
733	0.211
734	0.211
734	0.211
734	0.211
735	0.211
735	0.211
736	0.21
736	0.209
737	0.209
737	0.209
737	0.209
738	0.208
738	0.207
739	0.207
739	0.206
740	0.206
740	0.205
741	0.206
741	0.205
741	0.205
742	0.205
742	0.205
743	0.206
743	0.207
744	0.208
744	0.208
744	0.209
745	0.209
745	0.209
746	0.21
746	0.21
747	0.211
747	0.211
748	0.211
748	0.212
748	0.212
749	0.212
749	0.212
750	0.212
750	0.211
751	0.211
751	0.211
751	0.211
752	0.21
752	0.209
753	0.209
753	0.209
754	0.209
754	0.208
754	0.209
755	0.209
755	0.209
756	0.209
756	0.208
757	0.207
757	0.207
758	0.207
758	0.207
758	0.207
759	0.207
759	0.207
760	0.207
760	0.207
761	0.208
761	0.209
761	0.209
762	0.21
762	0.211
763	0.212
763	0.212
764	0.212
764	0.212
764	0.212
765	0.212
765	0.212
766	0.212
766	0.212
767	0.212
767	0.211
768	0.21
768	0.21
768	0.209
769	0.209
769	0.209
770	0.209
770	0.209
771	0.209
771	0.209
771	0.209
772	0.21
772	0.21
773	0.21
773	0.211
774	0.211
774	0.211
775	0.211
775	0.211
775	0.211
776	0.211
776	0.211
777	0.211
777	0.211
778	0.211
778	0.21
778	0.21
779	0.211
779	0.21
780	0.21
780	0.21
781	0.21
781	0.21
781	0.21
782	0.21
782	0.21
783	0.21
783	0.21
784	0.21
784	0.21
784	0.21
785	0.21
785	0.21
786	0.21
786	0.211
787	0.211
787	0.211
788	0.211
788	0.211
788	0.211
789	0.211
789	0.211
790	0.211
790	0.211
791	0.211
791	0.211
791	0.212
792	0.212
792	0.212
793	0.212
793	0.213
794	0.213
794	0.213
794	0.213
795	0.213
795	0.213
796	0.214
796	0.214
797	0.213
797	0.213
797	0.213
798	0.213
798	0.213
799	0.212
799	0.212
800	0.211
800	0.21
801	0.21
801	0.21
801	0.21
802	0.21
802	0.211
803	0.211
803	0.212
804	0.213
804	0.213
804	0.214
805	0.214
805	0.214
806	0.214
806	0.213
807	0.213
807	0.212
807	0.212
808	0.211
808	0.211
809	0.21
809	0.21
810	0.209
810	0.209
810	0.209
811	0.209
811	0.209
812	0.21
812	0.21
813	0.211
813	0.211
813	0.212
814	0.212
814	0.212
815	0.212
815	0.213
816	0.212
816	0.212
817	0.211
817	0.211
817	0.211
818	0.211
818	0.21
819	0.21
819	0.209
820	0.208
820	0.208
820	0.208
821	0.208
821	0.207
822	0.207
822	0.207
823	0.207
823	0.206
823	0.207
824	0.207
824	0.208
825	0.208
825	0.208
826	0.208
826	0.207
826	0.207
827	0.207
827	0.206
828	0.206
828	0.206
829	0.206
829	0.205
829	0.205
830	0.205
830	0.205
831	0.206
831	0.206
832	0.206
832	0.206
832	0.206
833	0.206
833	0.206
834	0.206
834	0.205
835	0.205
835	0.205
835	0.205
836	0.205
836	0.205
837	0.205
837	0.205
838	0.205
838	0.204
839	0.204
839	0.203
839	0.202
840	0.201
840	0.2
841	0.199
841	0.198
842	0.197
842	0.196
842	0.196
843	0.195
843	0.195
844	0.194
844	0.194
845	0.194
845	0.194
845	0.194
846	0.194
846	0.194
847	0.194
847	0.194
848	0.194
848	0.195
848	0.196
849	0.196
849	0.196
850	0.196
850	0.196
851	0.197
851	0.196
851	0.196
852	0.195
852	0.194
853	0.193
853	0.192
854	0.192
854	0.191
854	0.191
855	0.191
855	0.191
856	0.191
856	0.191
857	0.191
857	0.191
857	0.191
858	0.191
858	0.19
859	0.189
859	0.188
860	0.187
860	0.186
860	0.185
861	0.184
861	0.183
862	0.181
862	0.18
863	0.18
863	0.18
863	0.18
864	0.18
864	0.179
865	0.18
865	0.18
866	0.18
866	0.179
866	0.179
867	0.179
867	0.179
868	0.179
868	0.178
869	0.178
869	0.178
869	0.177
870	0.177
870	0.177
871	0.178
871	0.178
872	0.179
872	0.179
872	0.179
873	0.179
873	0.179
874	0.178
874	0.178
875	0.178
875	0.177
875	0.176
876	0.176
876	0.176
877	0.175
877	0.175
878	0.175
878	0.176
878	0.176
879	0.177
879	0.177
880	0.178
880	0.178
881	0.177
881	0.177
881	0.176
882	0.176
882	0.175
883	0.174
883	0.173
884	0.171
884	0.17
884	0.17
885	0.169
885	0.168
886	0.168
886	0.168
887	0.167
887	0.167
887	0.166
888	0.166
888	0.165
889	0.165
889	0.165
890	0.164
890	0.164
890	0.164
891	0.164
891	0.165
892	0.165
892	0.165
893	0.166
893	0.166
893	0.167
894	0.167
894	0.167
895	0.167
895	0.167
895	0.167
896	0.167
896	0.167
897	0.166
897	0.165
898	0.164
898	0.163
898	0.163
899	0.162
899	0.161
900	0.161
900	0.16
901	0.16
901	0.159
901	0.159
902	0.159
902	0.158
903	0.158
903	0.158
904	0.157
904	0.157
904	0.156
905	0.156
905	0.156
906	0.155
906	0.155
907	0.155
907	0.156
907	0.156
908	0.155
908	0.155
909	0.155
909	0.155
910	0.155
910	0.155
910	0.155
911	0.154
911	0.154
912	0.154
912	0.154
913	0.154
913	0.153
913	0.153
914	0.153
914	0.153
915	0.152
915	0.152
916	0.151
916	0.151
916	0.15
917	0.149
917	0.148
918	0.147
918	0.145
918	0.144
919	0.144
919	0.143
920	0.142
920	0.141
921	0.141
921	0.141
921	0.141
922	0.141
922	0.141
923	0.141
923	0.142
924	0.142
924	0.143
924	0.143
925	0.143
925	0.143
926	0.143
926	0.143
927	0.143
927	0.142
927	0.142
928	0.141
928	0.141
929	0.14
929	0.14
930	0.139
930	0.139
930	0.138
931	0.138
931	0.137
932	0.137
932	0.136
933	0.136
933	0.136
933	0.135
934	0.134
934	0.134
935	0.133
935	0.133
935	0.133
936	0.133
936	0.132
937	0.133
937	0.133
938	0.133
938	0.133
938	0.133
939	0.133
939	0.133
940	0.133
940	0.133
941	0.133
941	0.133
941	0.133
942	0.133
942	0.133
943	0.133
943	0.133
944	0.133
944	0.133
944	0.134
945	0.133
945	0.133
946	0.133
946	0.133
946	0.132
947	0.132
947	0.132
948	0.132
948	0.132
949	0.131
949	0.131
949	0.13
950	0.13
950	0.13
951	0.13
951	0.129
952	0.129
952	0.128
952	0.128
953	0.128
953	0.127
954	0.127
954	0.126
955	0.125
955	0.124
955	0.124
956	0.124
956	0.123
957	0.123
957	0.123
957	0.123
958	0.123
958	0.123
959	0.123
959	0.123
960	0.124
960	0.124
960	0.124
961	0.123
961	0.123
962	0.123
962	0.123
963	0.123
963	0.122
963	0.122
964	0.122
964	0.122
965	0.121
965	0.121
966	0.121
966	0.121
966	0.121
967	0.121
967	0.121
968	0.121
968	0.121
968	0.121
969	0.12
969	0.12
970	0.12
970	0.119
971	0.119
971	0.118
971	0.118
972	0.118
972	0.118
973	0.117
973	0.118
974	0.117
974	0.118
974	0.118
975	0.118
975	0.118
976	0.118
976	0.119
976	0.119
977	0.119
977	0.119
978	0.119
978	0.119
979	0.119
979	0.118
979	0.118
980	0.118
980	0.117
981	0.117
981	0.116
982	0.116
982	0.115
982	0.115
983	0.114
983	0.113
984	0.112
984	0.111
984	0.11
985	0.109
985	0.108
986	0.107
986	0.106
987	0.106
987	0.105
987	0.104
988	0.103
988	0.103
989	0.102
989	0.102
990	0.102
990	0.101
990	0.101
991	0.101
991	0.101
992	0.101
992	0.1
992	0.1
993	0.1
993	0.1
994	0.1
994	0.101
995	0.101
995	0.101
995	0.101
996	0.102
996	0.102
997	0.103
997	0.103
997	0.104
998	0.105
998	0.105
999	0.106
999	0.107
1000	0.108
1000	0.109
1000	0.11
1001	0.11
1001	0.111
1002	0.111
1002	0.111
1003	0.111
1003	0.111
1003	0.111
1004	0.11
1004	0.109
1005	0.108
1005	0.108
1005	0.107
1006	0.106
1006	0.105
1007	0.105
1007	0.104
1008	0.104
1008	0.103
1008	0.103
1009	0.103
1009	0.103
1010	0.103
1010	0.103
1010	0.103
1011	0.102
1011	0.102
1012	0.102
1012	0.102
1013	0.102
1013	0.102
1013	0.101
1014	0.101
1014	0.101
1015	0.101
1015	0.101
1016	0.1
1016	0.1
1016	0.1
1017	0.099
1017	0.099
1018	0.098
1018	0.098
1018	0.098
1019	0.097
1019	0.097
1020	0.097
1020	0.096
1021	0.096
1021	0.097
1021	0.097
1022	0.097
1022	0.096
1023	0.097
1023	0.097
1023	0.097
1024	0.097
1024	0.096
1025	0.096
1025	0.095
1026	0.095
1026	0.094
1026	0.093
1027	0.093
1027	0.092
1028	0.092
1028	0.091
1028	0.09
1029	0.09
1029	0.09
1030	0.09
1030	0.09
1031	0.09
1031	0.091
1031	0.091
1032	0.091
1032	0.091
1033	0.092
1033	0.092
1033	0.092
1034	0.092
1034	0.092
1035	0.092
1035	0.092
1036	0.092
1036	0.092
1036	0.092
1037	0.092
1037	0.092
1038	0.092
1038	0.092
1039	0.092
1039	0.092
1039	0.092
1040	0.092
1040	0.092
1041	0.092
1041	0.092
1041	0.092
1042	0.092
1042	0.091
1043	0.091
1043	0.091
1044	0.091
1044	0.09
1044	0.09
1045	0.09
1045	0.09
1046	0.091
1046	0.091
1046	0.091
1047	0.092
1047	0.092
1048	0.093
1048	0.093
1049	0.093
1049	0.093
1049	0.093
1050	0.093
1050	0.093
1051	0.092
1051	0.092
1051	0.091
1052	0.09
1052	0.089
1053	0.088
1053	0.087
1053	0.086
1054	0.085
1054	0.085
1055	0.084
1055	0.084
1056	0.083
1056	0.082
1056	0.082
1057	0.081
1057	0.081
1058	0.08
1058	0.08
1058	0.079
1059	0.078
1059	0.078
1060	0.077
1060	0.076
1061	0.076
1061	0.075
1061	0.075
1062	0.074
1062	0.074
1063	0.074
1063	0.074
1063	0.074
1064	0.074
1064	0.074
1065	0.074
1065	0.074
1066	0.075
1066	0.075
1066	0.075
1067	0.074
1067	0.074
1068	0.074
1068	0.074
1068	0.074
1069	0.073
1069	0.072
1070	0.072
1070	0.071
1071	0.07
1071	0.07
1071	0.069
1072	0.068
1072	0.068
1073	0.067
1073	0.066
1073	0.065
1074	0.066
1074	0.066
1075	0.065
1075	0.065
1076	0.066
1076	0.066
1076	0.066
1077	0.066
1077	0.066
1078	0.066
1078	0.067
1078	0.067
1079	0.066
1079	0.067
1080	0.066
1080	0.067
1080	0.067
1081	0.067
1081	0.067
1082	0.067
1082	0.068
1083	0.068
1083	0.067
1083	0.067
1084	0.067
1084	0.068
1085	0.067
1085	0.067
1085	0.067
1086	0.067
1086	0.066
1087	0.065
1087	0.064
1088	0.064
1088	0.064
1088	0.064
1089	0.063
1089	0.062
1090	0.061
1090	0.061
1090	0.06
1091	0.059
1091	0.059
1092	0.06
1092	0.06
1092	0.06
1093	0.059
1093	0.059
1094	0.059
1094	0.059
1095	0.058
1095	0.058
1095	0.057
1096	0.056
1096	0.055
1097	0.054
1097	0.053
1097	0.053
1098	0.052
1098	0.051
1099	0.05
1099	0.049
1100	0.048
1100	0.047
1100	0.046
1101	0.045
1101	0.044
1102	0.044
1102	0.042
1102	0.041
1103	0.039
1103	0.039
1104	0.039
1104	0.039
1104	0.038
1105	0.036
1105	0.035
1106	0.033
1106	0.032
1107	0.031
1107	0.03
1107	0.03
1108	0.029
1108	0.027
1109	0.025
1109	0.025
1109	0.025
1110	0.028
1110	0.026
1111	0.026
1111	0.031
