Data from reversibility-20sec_Absorbance__2720__000000000002720.txt Node

Date: Wed Dec 06 03:19:46 CET 2023
User: Marek
Spectrometer: MAYP115816
Trigger mode: 0
Integration Time (sec): 2.000000E-1
Scans to average: 10
Electric dark correction enabled: true
Nonlinearity correction enabled: true
Boxcar width: 5
XAxis mode: Wavelengths
Number of Pixels in Spectrum: 2068
>>>>>Begin Spectral Data<<<<<
199	-0.188
199	-0.147
200	-0.074
200	-0.024
201	0.006
201	0.019
202	0.033
202	0.043
203	0.052
203	0.056
204	0.071
204	0.087
205	0.099
205	0.103
205	0.101
206	0.104
206	0.105
207	0.107
207	0.108
208	0.107
208	0.104
209	0.105
209	0.104
210	0.104
210	0.106
211	0.108
211	0.107
212	0.106
212	0.108
213	0.107
213	0.109
213	0.111
214	0.116
214	0.116
215	0.117
215	0.117
216	0.119
216	0.117
217	0.12
217	0.121
218	0.121
218	0.124
219	0.129
219	0.128
220	0.131
220	0.13
221	0.13
221	0.134
221	0.141
222	0.147
222	0.152
223	0.162
223	0.164
224	0.167
224	0.176
225	0.186
225	0.197
226	0.207
226	0.217
227	0.227
227	0.238
228	0.256
228	0.265
229	0.284
229	0.309
229	0.333
230	0.356
230	0.384
231	0.416
231	0.454
232	0.492
232	0.535
233	0.578
233	0.63
234	0.68
234	0.732
235	0.783
235	0.839
236	0.895
236	0.95
236	1.002
237	1.058
237	1.106
238	1.154
238	1.202
239	1.252
239	1.299
240	1.342
240	1.383
241	1.422
241	1.461
242	1.494
242	1.529
243	1.563
243	1.593
243	1.622
244	1.648
244	1.671
245	1.693
245	1.718
246	1.741
246	1.759
247	1.775
247	1.792
248	1.807
248	1.825
249	1.839
249	1.85
250	1.861
250	1.871
250	1.877
251	1.883
251	1.89
252	1.899
252	1.903
253	1.91
253	1.909
254	1.912
254	1.916
255	1.916
255	1.918
256	1.92
256	1.921
257	1.921
257	1.919
258	1.921
258	1.92
258	1.922
259	1.921
259	1.921
260	1.922
260	1.926
261	1.928
261	1.933
262	1.937
262	1.941
263	1.947
263	1.951
264	1.953
264	1.957
265	1.959
265	1.96
265	1.961
266	1.962
266	1.962
267	1.96
267	1.963
268	1.962
268	1.964
269	1.969
269	1.967
270	1.967
270	1.967
271	1.965
271	1.966
272	1.965
272	1.964
272	1.96
273	1.954
273	1.947
274	1.94
274	1.934
275	1.928
275	1.923
276	1.915
276	1.907
277	1.9
277	1.889
278	1.879
278	1.868
278	1.854
279	1.839
279	1.819
280	1.794
280	1.763
281	1.727
281	1.686
282	1.644
282	1.601
283	1.558
283	1.515
284	1.474
284	1.434
285	1.397
285	1.362
285	1.332
286	1.305
286	1.281
287	1.259
287	1.241
288	1.225
288	1.212
289	1.2
289	1.19
290	1.182
290	1.174
291	1.166
291	1.16
292	1.155
292	1.15
292	1.145
293	1.141
293	1.137
294	1.133
294	1.129
295	1.125
295	1.122
296	1.119
296	1.115
297	1.112
297	1.108
298	1.105
298	1.102
298	1.099
299	1.096
299	1.093
300	1.089
300	1.086
301	1.083
301	1.08
302	1.078
302	1.075
303	1.072
303	1.069
304	1.067
304	1.063
305	1.061
305	1.058
305	1.055
306	1.053
306	1.05
307	1.047
307	1.044
308	1.041
308	1.038
309	1.035
309	1.032
310	1.029
310	1.026
311	1.023
311	1.019
311	1.015
312	1.012
312	1.008
313	1.004
313	1
314	0.996
314	0.991
315	0.987
315	0.982
316	0.978
316	0.973
317	0.969
317	0.963
318	0.958
318	0.953
318	0.947
319	0.942
319	0.936
320	0.93
320	0.924
321	0.918
321	0.911
322	0.905
322	0.898
323	0.892
323	0.885
324	0.879
324	0.872
324	0.865
325	0.858
325	0.851
326	0.844
326	0.837
327	0.829
327	0.823
328	0.815
328	0.808
329	0.801
329	0.794
330	0.787
330	0.78
330	0.773
331	0.765
331	0.758
332	0.751
332	0.744
333	0.737
333	0.73
334	0.723
334	0.716
335	0.71
335	0.703
336	0.696
336	0.689
336	0.683
337	0.676
337	0.67
338	0.663
338	0.657
339	0.651
339	0.645
340	0.639
340	0.633
341	0.627
341	0.621
342	0.616
342	0.61
342	0.605
343	0.6
343	0.594
344	0.589
344	0.584
345	0.579
345	0.575
346	0.57
346	0.566
347	0.561
347	0.557
348	0.552
348	0.548
348	0.544
349	0.54
349	0.537
350	0.533
350	0.529
351	0.526
351	0.522
352	0.519
352	0.516
353	0.513
353	0.51
354	0.507
354	0.503
354	0.501
355	0.498
355	0.495
356	0.492
356	0.489
357	0.486
357	0.484
358	0.481
358	0.478
359	0.475
359	0.473
360	0.47
360	0.468
360	0.466
361	0.463
361	0.461
362	0.459
362	0.457
363	0.455
363	0.453
364	0.451
364	0.449
365	0.447
365	0.445
366	0.443
366	0.441
366	0.44
367	0.438
367	0.436
368	0.434
368	0.432
369	0.43
369	0.429
370	0.427
370	0.426
371	0.424
371	0.423
372	0.421
372	0.42
372	0.418
373	0.417
373	0.416
374	0.415
374	0.413
375	0.412
375	0.411
376	0.41
376	0.408
377	0.407
377	0.406
378	0.405
378	0.404
378	0.403
379	0.401
379	0.4
380	0.399
380	0.398
381	0.397
381	0.396
382	0.395
382	0.395
383	0.394
383	0.393
383	0.392
384	0.391
384	0.391
385	0.39
385	0.389
386	0.388
386	0.388
387	0.387
387	0.386
388	0.385
388	0.385
389	0.384
389	0.383
389	0.383
390	0.382
390	0.382
391	0.381
391	0.38
392	0.38
392	0.379
393	0.378
393	0.378
394	0.377
394	0.377
394	0.376
395	0.375
395	0.375
396	0.374
396	0.374
397	0.373
397	0.372
398	0.372
398	0.372
399	0.371
399	0.371
400	0.37
400	0.369
400	0.369
401	0.368
401	0.368
402	0.367
402	0.367
403	0.366
403	0.366
404	0.365
404	0.365
405	0.364
405	0.364
405	0.364
406	0.363
406	0.362
407	0.362
407	0.361
408	0.361
408	0.36
409	0.36
409	0.359
410	0.359
410	0.358
411	0.358
411	0.358
411	0.358
412	0.358
412	0.357
413	0.356
413	0.356
414	0.356
414	0.356
415	0.355
415	0.355
416	0.354
416	0.354
416	0.353
417	0.353
417	0.353
418	0.352
418	0.352
419	0.351
419	0.351
420	0.35
420	0.35
421	0.35
421	0.349
421	0.349
422	0.348
422	0.348
423	0.347
423	0.347
424	0.346
424	0.346
425	0.346
425	0.345
426	0.345
426	0.345
427	0.344
427	0.344
427	0.344
428	0.343
428	0.343
429	0.343
429	0.343
430	0.342
430	0.342
431	0.342
431	0.342
432	0.342
432	0.342
432	0.341
433	0.341
433	0.341
434	0.341
434	0.341
435	0.341
435	0.34
436	0.34
436	0.34
437	0.34
437	0.339
437	0.339
438	0.339
438	0.339
439	0.338
439	0.338
440	0.338
440	0.338
441	0.337
441	0.337
442	0.337
442	0.337
442	0.337
443	0.336
443	0.336
444	0.336
444	0.336
445	0.336
445	0.336
446	0.336
446	0.336
447	0.335
447	0.335
447	0.335
448	0.335
448	0.335
449	0.335
449	0.335
450	0.335
450	0.335
451	0.335
451	0.335
452	0.335
452	0.335
452	0.335
453	0.335
453	0.335
454	0.335
454	0.335
455	0.334
455	0.334
456	0.334
456	0.334
457	0.335
457	0.334
458	0.334
458	0.334
458	0.334
459	0.334
459	0.334
460	0.335
460	0.335
461	0.335
461	0.335
462	0.335
462	0.335
463	0.335
463	0.335
463	0.335
464	0.335
464	0.335
465	0.335
465	0.335
466	0.335
466	0.336
467	0.336
467	0.336
467	0.336
468	0.336
468	0.337
469	0.337
469	0.338
470	0.339
470	0.339
471	0.339
471	0.34
472	0.34
472	0.341
472	0.341
473	0.342
473	0.342
474	0.342
474	0.342
475	0.343
475	0.343
476	0.344
476	0.344
477	0.345
477	0.345
477	0.346
478	0.346
478	0.347
479	0.348
479	0.349
480	0.349
480	0.35
481	0.351
481	0.351
482	0.352
482	0.353
482	0.354
483	0.355
483	0.356
484	0.356
484	0.357
485	0.358
485	0.358
486	0.359
486	0.36
487	0.361
487	0.362
487	0.363
488	0.364
488	0.364
489	0.366
489	0.367
490	0.369
490	0.37
491	0.372
491	0.374
492	0.375
492	0.376
492	0.378
493	0.379
493	0.38
494	0.382
494	0.384
495	0.385
495	0.386
496	0.387
496	0.389
496	0.391
497	0.392
497	0.393
498	0.394
498	0.396
499	0.397
499	0.399
500	0.401
500	0.403
501	0.404
501	0.405
501	0.406
502	0.408
502	0.409
503	0.411
503	0.413
504	0.414
504	0.415
505	0.417
505	0.418
506	0.419
506	0.421
506	0.422
507	0.423
507	0.425
508	0.426
508	0.427
509	0.428
509	0.429
510	0.431
510	0.432
511	0.433
511	0.435
511	0.436
512	0.438
512	0.439
513	0.44
513	0.441
514	0.442
514	0.443
515	0.444
515	0.445
515	0.445
516	0.446
516	0.446
517	0.447
517	0.447
518	0.448
518	0.448
519	0.449
519	0.449
520	0.449
520	0.449
520	0.45
521	0.449
521	0.449
522	0.449
522	0.449
523	0.449
523	0.449
524	0.449
524	0.448
524	0.448
525	0.448
525	0.447
526	0.446
526	0.446
527	0.445
527	0.444
528	0.444
528	0.443
529	0.442
529	0.441
529	0.44
530	0.439
530	0.437
531	0.436
531	0.435
532	0.433
532	0.432
533	0.43
533	0.429
533	0.427
534	0.425
534	0.424
535	0.422
535	0.42
536	0.418
536	0.416
537	0.415
537	0.413
538	0.411
538	0.408
538	0.406
539	0.404
539	0.402
540	0.4
540	0.398
541	0.396
541	0.394
542	0.392
542	0.389
542	0.387
543	0.385
543	0.383
544	0.381
544	0.378
545	0.376
545	0.374
546	0.372
546	0.369
547	0.366
547	0.364
547	0.361
548	0.359
548	0.356
549	0.354
549	0.351
550	0.349
550	0.346
551	0.344
551	0.341
551	0.339
552	0.336
552	0.334
553	0.332
553	0.33
554	0.328
554	0.326
555	0.323
555	0.32
556	0.318
556	0.315
556	0.313
557	0.312
557	0.31
558	0.308
558	0.305
559	0.303
559	0.301
560	0.299
560	0.297
560	0.295
561	0.293
561	0.291
562	0.289
562	0.286
563	0.284
563	0.281
564	0.279
564	0.277
564	0.275
565	0.273
565	0.272
566	0.269
566	0.267
567	0.266
567	0.264
568	0.262
568	0.26
568	0.258
569	0.257
569	0.255
570	0.252
570	0.25
571	0.249
571	0.247
572	0.246
572	0.244
573	0.242
573	0.241
573	0.239
574	0.238
574	0.237
575	0.236
575	0.235
576	0.233
576	0.232
577	0.23
577	0.228
577	0.227
578	0.226
578	0.224
579	0.224
579	0.222
580	0.221
580	0.218
581	0.217
581	0.215
581	0.215
582	0.214
582	0.213
583	0.212
583	0.211
584	0.209
584	0.207
585	0.206
585	0.205
585	0.204
586	0.202
586	0.201
587	0.2
587	0.199
588	0.197
588	0.196
589	0.195
589	0.195
590	0.194
590	0.193
590	0.193
591	0.192
591	0.19
592	0.189
592	0.188
593	0.187
593	0.186
594	0.185
594	0.183
594	0.182
595	0.182
595	0.18
596	0.179
596	0.179
597	0.179
597	0.179
598	0.178
598	0.177
598	0.177
599	0.176
599	0.175
600	0.174
600	0.173
601	0.173
601	0.172
602	0.171
602	0.17
602	0.169
603	0.168
603	0.168
604	0.167
604	0.167
605	0.166
605	0.166
606	0.165
606	0.164
606	0.163
607	0.163
607	0.162
608	0.161
608	0.16
609	0.16
609	0.159
610	0.158
610	0.157
610	0.157
611	0.157
611	0.156
612	0.156
612	0.156
613	0.156
613	0.156
614	0.155
614	0.154
614	0.154
615	0.154
615	0.153
616	0.153
616	0.152
617	0.151
617	0.151
618	0.15
618	0.15
618	0.149
619	0.149
619	0.149
620	0.149
620	0.149
621	0.148
621	0.147
622	0.147
622	0.146
622	0.145
623	0.145
623	0.144
624	0.144
624	0.143
625	0.142
625	0.141
626	0.141
626	0.14
626	0.14
627	0.14
627	0.139
628	0.139
628	0.139
629	0.139
629	0.138
630	0.138
630	0.138
630	0.137
631	0.137
631	0.137
632	0.137
632	0.136
633	0.136
633	0.135
634	0.135
634	0.135
634	0.135
635	0.135
635	0.134
636	0.134
636	0.134
637	0.133
637	0.133
638	0.132
638	0.132
638	0.131
639	0.13
639	0.129
640	0.129
640	0.128
641	0.128
641	0.128
642	0.127
642	0.127
642	0.127
643	0.127
643	0.128
644	0.128
644	0.128
645	0.128
645	0.128
646	0.127
646	0.127
646	0.127
647	0.127
647	0.126
648	0.126
648	0.125
649	0.125
649	0.125
650	0.125
650	0.124
650	0.124
651	0.124
651	0.124
652	0.123
652	0.123
653	0.124
653	0.125
653	0.131
654	0.104
654	0.085
655	0.083
655	0.083
656	0.083
656	0.083
657	0.084
657	0.084
657	0.084
658	0.083
658	0.074
659	0.093
659	0.117
660	0.122
660	0.122
661	0.122
661	0.121
661	0.12
662	0.119
662	0.119
663	0.118
663	0.117
664	0.117
664	0.116
665	0.116
665	0.116
665	0.116
666	0.116
666	0.116
667	0.117
667	0.117
668	0.117
668	0.118
669	0.118
669	0.118
669	0.118
670	0.119
670	0.118
671	0.118
671	0.117
672	0.117
672	0.116
672	0.115
673	0.115
673	0.115
674	0.114
674	0.113
675	0.113
675	0.113
676	0.113
676	0.113
676	0.113
677	0.113
677	0.113
678	0.113
678	0.113
679	0.112
679	0.112
680	0.113
680	0.112
680	0.112
681	0.112
681	0.111
682	0.111
682	0.111
683	0.112
683	0.112
684	0.112
684	0.112
684	0.111
685	0.111
685	0.111
686	0.111
686	0.111
687	0.11
687	0.11
687	0.11
688	0.11
688	0.11
689	0.11
689	0.11
690	0.11
690	0.11
691	0.11
691	0.11
691	0.109
692	0.109
692	0.109
693	0.109
693	0.109
694	0.108
694	0.108
695	0.108
695	0.109
695	0.108
696	0.108
696	0.108
697	0.108
697	0.107
698	0.107
698	0.106
698	0.107
699	0.107
699	0.106
700	0.106
700	0.106
701	0.106
701	0.105
702	0.105
702	0.105
702	0.105
703	0.105
703	0.104
704	0.104
704	0.104
705	0.104
705	0.104
705	0.103
706	0.103
706	0.103
707	0.103
707	0.103
708	0.102
708	0.102
709	0.102
709	0.102
709	0.101
710	0.101
710	0.101
711	0.101
711	0.101
712	0.1
712	0.1
713	0.1
713	0.1
713	0.1
714	0.1
714	0.099
715	0.099
715	0.099
716	0.098
716	0.098
716	0.097
717	0.097
717	0.096
718	0.096
718	0.096
719	0.096
719	0.096
720	0.096
720	0.096
720	0.096
721	0.096
721	0.096
722	0.096
722	0.096
723	0.096
723	0.096
723	0.096
724	0.096
724	0.096
725	0.095
725	0.094
726	0.094
726	0.093
727	0.093
727	0.092
727	0.092
728	0.092
728	0.091
729	0.092
729	0.092
730	0.092
730	0.092
730	0.093
731	0.093
731	0.093
732	0.094
732	0.094
733	0.094
733	0.094
734	0.093
734	0.093
734	0.093
735	0.093
735	0.092
736	0.091
736	0.09
737	0.09
737	0.089
737	0.088
738	0.087
738	0.086
739	0.086
739	0.086
740	0.086
740	0.086
741	0.086
741	0.086
741	0.086
742	0.086
742	0.087
743	0.088
743	0.088
744	0.088
744	0.088
744	0.088
745	0.087
745	0.087
746	0.087
746	0.086
747	0.086
747	0.086
748	0.086
748	0.086
748	0.086
749	0.086
749	0.086
750	0.087
750	0.087
751	0.087
751	0.087
751	0.087
752	0.087
752	0.087
753	0.086
753	0.085
754	0.085
754	0.084
754	0.084
755	0.083
755	0.083
756	0.082
756	0.081
757	0.08
757	0.08
758	0.08
758	0.08
758	0.08
759	0.08
759	0.08
760	0.08
760	0.08
761	0.08
761	0.081
761	0.081
762	0.081
762	0.082
763	0.082
763	0.081
764	0.081
764	0.081
764	0.081
765	0.081
765	0.081
766	0.081
766	0.08
767	0.08
767	0.079
768	0.079
768	0.078
768	0.078
769	0.078
769	0.078
770	0.077
770	0.077
771	0.077
771	0.077
771	0.077
772	0.077
772	0.078
773	0.078
773	0.078
774	0.078
774	0.078
775	0.079
775	0.079
775	0.079
776	0.079
776	0.079
777	0.079
777	0.079
778	0.078
778	0.078
778	0.077
779	0.076
779	0.076
780	0.075
780	0.074
781	0.074
781	0.073
781	0.073
782	0.073
782	0.073
783	0.073
783	0.073
784	0.073
784	0.073
784	0.074
785	0.074
785	0.074
786	0.074
786	0.073
787	0.074
787	0.073
788	0.073
788	0.073
788	0.072
789	0.072
789	0.072
790	0.072
790	0.072
791	0.071
791	0.071
791	0.071
792	0.071
792	0.071
793	0.071
793	0.071
794	0.07
794	0.07
794	0.07
795	0.07
795	0.07
796	0.07
796	0.07
797	0.069
797	0.069
797	0.07
798	0.07
798	0.07
799	0.07
799	0.07
800	0.069
800	0.069
801	0.068
801	0.068
801	0.067
802	0.067
802	0.067
803	0.067
803	0.067
804	0.067
804	0.067
804	0.067
805	0.067
805	0.068
806	0.068
806	0.068
807	0.068
807	0.068
807	0.068
808	0.068
808	0.068
809	0.068
809	0.068
810	0.068
810	0.068
810	0.068
811	0.068
811	0.069
812	0.069
812	0.069
813	0.07
813	0.07
813	0.07
814	0.071
814	0.071
815	0.071
815	0.071
816	0.07
816	0.07
817	0.069
817	0.069
817	0.069
818	0.069
818	0.068
819	0.068
819	0.067
820	0.067
820	0.066
820	0.066
821	0.066
821	0.065
822	0.065
822	0.065
823	0.065
823	0.065
823	0.066
824	0.066
824	0.068
825	0.069
825	0.069
826	0.07
826	0.07
826	0.07
827	0.07
827	0.07
828	0.07
828	0.069
829	0.068
829	0.068
829	0.067
830	0.067
830	0.067
831	0.068
831	0.068
832	0.068
832	0.068
832	0.068
833	0.069
833	0.068
834	0.068
834	0.068
835	0.068
835	0.067
835	0.067
836	0.067
836	0.067
837	0.067
837	0.067
838	0.066
838	0.066
839	0.066
839	0.065
839	0.065
840	0.064
840	0.063
841	0.062
841	0.061
842	0.061
842	0.06
842	0.059
843	0.059
843	0.059
844	0.059
844	0.059
845	0.059
845	0.06
845	0.06
846	0.06
846	0.061
847	0.061
847	0.062
848	0.062
848	0.062
848	0.062
849	0.062
849	0.062
850	0.062
850	0.062
851	0.061
851	0.061
851	0.06
852	0.06
852	0.059
853	0.059
853	0.059
854	0.059
854	0.059
854	0.06
855	0.061
855	0.062
856	0.063
856	0.063
857	0.064
857	0.065
857	0.065
858	0.066
858	0.065
859	0.065
859	0.065
860	0.064
860	0.063
860	0.062
861	0.062
861	0.061
862	0.06
862	0.059
863	0.059
863	0.058
863	0.058
864	0.057
864	0.057
865	0.057
865	0.057
866	0.057
866	0.057
866	0.057
867	0.057
867	0.057
868	0.057
868	0.057
869	0.057
869	0.057
869	0.057
870	0.056
870	0.056
871	0.056
871	0.056
872	0.056
872	0.055
872	0.055
873	0.055
873	0.055
874	0.055
874	0.054
875	0.054
875	0.054
875	0.054
876	0.054
876	0.054
877	0.054
877	0.055
878	0.055
878	0.056
878	0.056
879	0.057
879	0.058
880	0.058
880	0.059
881	0.059
881	0.06
881	0.06
882	0.06
882	0.059
883	0.059
883	0.059
884	0.059
884	0.058
884	0.058
885	0.057
885	0.057
886	0.056
886	0.056
887	0.055
887	0.055
887	0.054
888	0.054
888	0.053
889	0.053
889	0.053
890	0.052
890	0.052
890	0.052
891	0.052
891	0.052
892	0.053
892	0.053
893	0.053
893	0.054
893	0.054
894	0.054
894	0.054
895	0.054
895	0.055
895	0.055
896	0.055
896	0.055
897	0.054
897	0.054
898	0.053
898	0.053
898	0.053
899	0.052
899	0.052
900	0.052
900	0.052
901	0.052
901	0.052
901	0.052
902	0.052
902	0.052
903	0.052
903	0.052
904	0.052
904	0.052
904	0.052
905	0.052
905	0.052
906	0.052
906	0.053
907	0.053
907	0.054
907	0.054
908	0.054
908	0.055
909	0.055
909	0.055
910	0.055
910	0.055
910	0.054
911	0.054
911	0.054
912	0.054
912	0.054
913	0.054
913	0.054
913	0.054
914	0.054
914	0.054
915	0.054
915	0.054
916	0.054
916	0.054
916	0.053
917	0.053
917	0.053
918	0.052
918	0.052
918	0.052
919	0.051
919	0.051
920	0.051
920	0.05
921	0.05
921	0.05
921	0.049
922	0.049
922	0.048
923	0.048
923	0.048
924	0.048
924	0.048
924	0.048
925	0.048
925	0.048
926	0.048
926	0.049
927	0.049
927	0.049
927	0.049
928	0.05
928	0.05
929	0.051
929	0.051
930	0.051
930	0.052
930	0.052
931	0.052
931	0.053
932	0.053
932	0.054
933	0.054
933	0.054
933	0.054
934	0.053
934	0.053
935	0.053
935	0.053
935	0.052
936	0.051
936	0.051
937	0.051
937	0.05
938	0.05
938	0.05
938	0.05
939	0.049
939	0.049
940	0.049
940	0.049
941	0.05
941	0.05
941	0.05
942	0.05
942	0.05
943	0.051
943	0.051
944	0.051
944	0.052
944	0.052
945	0.053
945	0.053
946	0.053
946	0.054
946	0.054
947	0.055
947	0.055
948	0.055
948	0.055
949	0.055
949	0.055
949	0.055
950	0.055
950	0.055
951	0.054
951	0.053
952	0.053
952	0.052
952	0.051
953	0.05
953	0.049
954	0.049
954	0.048
955	0.047
955	0.046
955	0.046
956	0.046
956	0.046
957	0.046
957	0.046
957	0.046
958	0.047
958	0.047
959	0.047
959	0.047
960	0.048
960	0.048
960	0.048
961	0.048
961	0.048
962	0.048
962	0.048
963	0.048
963	0.049
963	0.049
964	0.049
964	0.049
965	0.05
965	0.05
966	0.051
966	0.051
966	0.052
967	0.053
967	0.053
968	0.054
968	0.055
968	0.055
969	0.055
969	0.055
970	0.056
970	0.055
971	0.055
971	0.055
971	0.055
972	0.055
972	0.055
973	0.055
973	0.054
974	0.054
974	0.055
974	0.055
975	0.055
975	0.055
976	0.055
976	0.055
976	0.055
977	0.055
977	0.055
978	0.055
978	0.055
979	0.055
979	0.055
979	0.055
980	0.055
980	0.054
981	0.054
981	0.054
982	0.054
982	0.054
982	0.054
983	0.054
983	0.054
984	0.053
984	0.053
984	0.053
985	0.052
985	0.052
986	0.051
986	0.051
987	0.05
987	0.05
987	0.049
988	0.049
988	0.048
989	0.048
989	0.047
990	0.046
990	0.046
990	0.045
991	0.045
991	0.044
992	0.044
992	0.043
992	0.042
993	0.042
993	0.041
994	0.041
994	0.041
995	0.04
995	0.04
995	0.041
996	0.041
996	0.041
997	0.042
997	0.043
997	0.044
998	0.045
998	0.046
999	0.046
999	0.047
1000	0.048
1000	0.049
1000	0.049
1001	0.049
1001	0.049
1002	0.049
1002	0.048
1003	0.047
1003	0.047
1003	0.046
1004	0.045
1004	0.043
1005	0.042
1005	0.042
1005	0.041
1006	0.04
1006	0.039
1007	0.039
1007	0.039
1008	0.039
1008	0.039
1008	0.039
1009	0.04
1009	0.04
1010	0.04
1010	0.041
1010	0.041
1011	0.042
1011	0.041
1012	0.042
1012	0.042
1013	0.042
1013	0.042
1013	0.042
1014	0.042
1014	0.042
1015	0.042
1015	0.042
1016	0.042
1016	0.042
1016	0.042
1017	0.042
1017	0.042
1018	0.042
1018	0.042
1018	0.042
1019	0.042
1019	0.041
1020	0.041
1020	0.041
1021	0.042
1021	0.042
1021	0.042
1022	0.042
1022	0.042
1023	0.042
1023	0.043
1023	0.043
1024	0.043
1024	0.043
1025	0.043
1025	0.043
1026	0.042
1026	0.042
1026	0.042
1027	0.042
1027	0.041
1028	0.041
1028	0.041
1028	0.04
1029	0.04
1029	0.04
1030	0.04
1030	0.041
1031	0.041
1031	0.041
1031	0.041
1032	0.041
1032	0.042
1033	0.042
1033	0.042
1033	0.042
1034	0.042
1034	0.041
1035	0.041
1035	0.041
1036	0.04
1036	0.04
1036	0.04
1037	0.04
1037	0.04
1038	0.04
1038	0.04
1039	0.04
1039	0.04
1039	0.04
1040	0.041
1040	0.041
1041	0.042
1041	0.042
1041	0.042
1042	0.043
1042	0.043
1043	0.044
1043	0.044
1044	0.044
1044	0.045
1044	0.045
1045	0.045
1045	0.046
1046	0.046
1046	0.047
1046	0.047
1047	0.048
1047	0.048
1048	0.049
1048	0.049
1049	0.05
1049	0.05
1049	0.051
1050	0.051
1050	0.051
1051	0.051
1051	0.051
1051	0.051
1052	0.051
1052	0.051
1053	0.05
1053	0.05
1053	0.049
1054	0.049
1054	0.048
1055	0.048
1055	0.047
1056	0.047
1056	0.046
1056	0.045
1057	0.044
1057	0.043
1058	0.042
1058	0.041
1058	0.04
1059	0.04
1059	0.039
1060	0.038
1060	0.037
1061	0.037
1061	0.037
1061	0.037
1062	0.036
1062	0.036
1063	0.036
1063	0.036
1063	0.036
1064	0.035
1064	0.035
1065	0.035
1065	0.035
1066	0.035
1066	0.034
1066	0.034
1067	0.034
1067	0.034
1068	0.034
1068	0.034
1068	0.034
1069	0.034
1069	0.033
1070	0.033
1070	0.032
1071	0.032
1071	0.031
1071	0.031
1072	0.031
1072	0.031
1073	0.03
1073	0.03
1073	0.03
1074	0.03
1074	0.03
1075	0.03
1075	0.03
1076	0.03
1076	0.031
1076	0.031
1077	0.032
1077	0.032
1078	0.032
1078	0.033
1078	0.032
1079	0.032
1079	0.033
1080	0.032
1080	0.033
1080	0.033
1081	0.033
1081	0.033
1082	0.034
1082	0.034
1083	0.034
1083	0.034
1083	0.034
1084	0.034
1084	0.035
1085	0.035
1085	0.035
1085	0.035
1086	0.034
1086	0.034
1087	0.033
1087	0.033
1088	0.033
1088	0.032
1088	0.032
1089	0.032
1089	0.031
1090	0.03
1090	0.03
1090	0.029
1091	0.029
1091	0.028
1092	0.028
1092	0.028
1092	0.028
1093	0.027
1093	0.028
1094	0.028
1094	0.027
1095	0.027
1095	0.028
1095	0.027
1096	0.027
1096	0.026
1097	0.027
1097	0.026
1097	0.026
1098	0.026
1098	0.025
1099	0.024
1099	0.024
1100	0.024
1100	0.024
1100	0.023
1101	0.023
1101	0.023
1102	0.022
1102	0.021
1102	0.021
1103	0.02
1103	0.021
1104	0.02
1104	0.019
1104	0.018
1105	0.018
1105	0.016
1106	0.014
1106	0.014
1107	0.013
1107	0.013
1107	0.013
1108	0.012
1108	0.011
1109	0.01
1109	0.01
1109	0.01
1110	0.012
1110	0.012
1111	0.01
1111	0.013
