Data from reversibility-20sec_Absorbance__4497__000000000004497.txt Node

Date: Wed Dec 06 13:12:05 CET 2023
User: Marek
Spectrometer: MAYP115816
Trigger mode: 0
Integration Time (sec): 2.000000E-1
Scans to average: 10
Electric dark correction enabled: true
Nonlinearity correction enabled: true
Boxcar width: 5
XAxis mode: Wavelengths
Number of Pixels in Spectrum: 2068
>>>>>Begin Spectral Data<<<<<
199	-0.202
199	-0.163
200	-0.09
200	-0.029
201	0.003
201	0.021
202	0.035
202	0.045
203	0.054
203	0.056
204	0.073
204	0.089
205	0.103
205	0.11
205	0.106
206	0.106
206	0.108
207	0.108
207	0.107
208	0.106
208	0.107
209	0.107
209	0.103
210	0.104
210	0.101
211	0.103
211	0.106
212	0.101
212	0.104
213	0.106
213	0.109
213	0.108
214	0.111
214	0.114
215	0.115
215	0.118
216	0.12
216	0.119
217	0.121
217	0.121
218	0.12
218	0.125
219	0.132
219	0.133
220	0.133
220	0.133
221	0.133
221	0.133
221	0.136
222	0.144
222	0.148
223	0.154
223	0.154
224	0.159
224	0.166
225	0.175
225	0.186
226	0.194
226	0.206
227	0.216
227	0.221
228	0.239
228	0.253
229	0.272
229	0.296
229	0.319
230	0.346
230	0.374
231	0.408
231	0.443
232	0.481
232	0.53
233	0.573
233	0.622
234	0.672
234	0.721
235	0.775
235	0.827
236	0.879
236	0.931
236	0.984
237	1.035
237	1.082
238	1.13
238	1.176
239	1.224
239	1.266
240	1.305
240	1.343
241	1.378
241	1.41
242	1.442
242	1.476
243	1.507
243	1.529
243	1.553
244	1.573
244	1.594
245	1.614
245	1.637
246	1.657
246	1.677
247	1.69
247	1.703
248	1.717
248	1.733
249	1.743
249	1.75
250	1.761
250	1.768
250	1.772
251	1.774
251	1.775
252	1.781
252	1.783
253	1.782
253	1.778
254	1.778
254	1.78
255	1.775
255	1.774
256	1.772
256	1.772
257	1.771
257	1.769
258	1.769
258	1.768
258	1.769
259	1.77
259	1.769
260	1.769
260	1.772
261	1.772
261	1.775
262	1.777
262	1.778
263	1.78
263	1.781
264	1.782
264	1.783
265	1.784
265	1.786
265	1.785
266	1.784
266	1.785
267	1.784
267	1.786
268	1.785
268	1.787
269	1.789
269	1.79
270	1.789
270	1.788
271	1.786
271	1.787
272	1.784
272	1.781
272	1.776
273	1.77
273	1.764
274	1.757
274	1.751
275	1.745
275	1.739
276	1.732
276	1.723
277	1.715
277	1.706
278	1.696
278	1.684
278	1.669
279	1.652
279	1.631
280	1.607
280	1.576
281	1.54
281	1.5
282	1.458
282	1.416
283	1.374
283	1.333
284	1.294
284	1.256
285	1.221
285	1.188
285	1.159
286	1.134
286	1.113
287	1.094
287	1.077
288	1.064
288	1.052
289	1.042
289	1.033
290	1.026
290	1.019
291	1.014
291	1.009
292	1.004
292	1
292	0.996
293	0.993
293	0.989
294	0.986
294	0.983
295	0.981
295	0.978
296	0.975
296	0.971
297	0.969
297	0.966
298	0.963
298	0.961
298	0.958
299	0.955
299	0.953
300	0.95
300	0.947
301	0.944
301	0.942
302	0.94
302	0.937
303	0.935
303	0.933
304	0.93
304	0.928
305	0.926
305	0.924
305	0.921
306	0.919
306	0.917
307	0.914
307	0.912
308	0.91
308	0.907
309	0.904
309	0.902
310	0.899
310	0.896
311	0.893
311	0.89
311	0.887
312	0.884
312	0.881
313	0.877
313	0.873
314	0.869
314	0.866
315	0.862
315	0.857
316	0.853
316	0.849
317	0.844
317	0.839
318	0.834
318	0.83
318	0.825
319	0.819
319	0.814
320	0.809
320	0.803
321	0.797
321	0.791
322	0.785
322	0.779
323	0.773
323	0.767
324	0.76
324	0.754
324	0.747
325	0.741
325	0.734
326	0.727
326	0.721
327	0.714
327	0.707
328	0.7
328	0.694
329	0.687
329	0.68
330	0.673
330	0.666
330	0.659
331	0.652
331	0.646
332	0.639
332	0.632
333	0.625
333	0.619
334	0.612
334	0.605
335	0.598
335	0.592
336	0.585
336	0.579
336	0.572
337	0.566
337	0.56
338	0.553
338	0.547
339	0.542
339	0.536
340	0.53
340	0.524
341	0.519
341	0.513
342	0.508
342	0.502
342	0.497
343	0.492
343	0.487
344	0.482
344	0.478
345	0.473
345	0.468
346	0.464
346	0.46
347	0.456
347	0.452
348	0.448
348	0.444
348	0.44
349	0.437
349	0.433
350	0.429
350	0.426
351	0.422
351	0.419
352	0.416
352	0.413
353	0.41
353	0.407
354	0.404
354	0.401
354	0.398
355	0.395
355	0.393
356	0.39
356	0.387
357	0.385
357	0.382
358	0.379
358	0.377
359	0.374
359	0.372
360	0.37
360	0.368
360	0.367
361	0.365
361	0.363
362	0.361
362	0.36
363	0.358
363	0.356
364	0.354
364	0.352
365	0.35
365	0.349
366	0.347
366	0.345
366	0.343
367	0.342
367	0.34
368	0.339
368	0.337
369	0.336
369	0.334
370	0.333
370	0.331
371	0.33
371	0.329
372	0.328
372	0.326
372	0.325
373	0.324
373	0.323
374	0.322
374	0.321
375	0.32
375	0.319
376	0.318
376	0.318
377	0.317
377	0.316
378	0.314
378	0.314
378	0.313
379	0.312
379	0.311
380	0.31
380	0.31
381	0.309
381	0.308
382	0.308
382	0.307
383	0.307
383	0.306
383	0.306
384	0.305
384	0.305
385	0.304
385	0.304
386	0.303
386	0.303
387	0.302
387	0.302
388	0.301
388	0.301
389	0.3
389	0.3
389	0.299
390	0.299
390	0.299
391	0.298
391	0.298
392	0.297
392	0.297
393	0.297
393	0.296
394	0.296
394	0.296
394	0.295
395	0.295
395	0.295
396	0.294
396	0.294
397	0.293
397	0.293
398	0.292
398	0.292
399	0.291
399	0.291
400	0.291
400	0.29
400	0.29
401	0.29
401	0.29
402	0.289
402	0.289
403	0.289
403	0.289
404	0.288
404	0.288
405	0.288
405	0.288
405	0.287
406	0.287
406	0.287
407	0.286
407	0.286
408	0.286
408	0.285
409	0.285
409	0.285
410	0.284
410	0.284
411	0.284
411	0.284
411	0.284
412	0.283
412	0.283
413	0.282
413	0.282
414	0.282
414	0.281
415	0.281
415	0.281
416	0.28
416	0.28
416	0.279
417	0.279
417	0.279
418	0.279
418	0.279
419	0.278
419	0.278
420	0.277
420	0.277
421	0.277
421	0.276
421	0.276
422	0.276
422	0.275
423	0.275
423	0.274
424	0.274
424	0.274
425	0.273
425	0.273
426	0.273
426	0.272
427	0.272
427	0.272
427	0.272
428	0.272
428	0.271
429	0.271
429	0.271
430	0.271
430	0.271
431	0.27
431	0.27
432	0.27
432	0.27
432	0.269
433	0.269
433	0.269
434	0.269
434	0.268
435	0.268
435	0.268
436	0.268
436	0.268
437	0.267
437	0.267
437	0.267
438	0.267
438	0.267
439	0.267
439	0.266
440	0.266
440	0.266
441	0.266
441	0.266
442	0.266
442	0.265
442	0.265
443	0.265
443	0.265
444	0.265
444	0.265
445	0.264
445	0.264
446	0.264
446	0.264
447	0.263
447	0.263
447	0.263
448	0.263
448	0.263
449	0.263
449	0.262
450	0.262
450	0.262
451	0.262
451	0.262
452	0.262
452	0.262
452	0.262
453	0.261
453	0.261
454	0.261
454	0.261
455	0.26
455	0.26
456	0.26
456	0.26
457	0.259
457	0.259
458	0.259
458	0.259
458	0.258
459	0.258
459	0.258
460	0.258
460	0.258
461	0.258
461	0.257
462	0.257
462	0.257
463	0.257
463	0.257
463	0.257
464	0.257
464	0.257
465	0.257
465	0.257
466	0.257
466	0.257
467	0.257
467	0.257
467	0.256
468	0.256
468	0.256
469	0.256
469	0.256
470	0.257
470	0.257
471	0.257
471	0.257
472	0.257
472	0.257
472	0.258
473	0.258
473	0.258
474	0.258
474	0.257
475	0.258
475	0.258
476	0.258
476	0.258
477	0.258
477	0.258
477	0.258
478	0.259
478	0.259
479	0.259
479	0.259
480	0.259
480	0.26
481	0.26
481	0.26
482	0.26
482	0.26
482	0.26
483	0.261
483	0.261
484	0.262
484	0.262
485	0.262
485	0.262
486	0.262
486	0.263
487	0.263
487	0.263
487	0.264
488	0.264
488	0.264
489	0.264
489	0.265
490	0.266
490	0.266
491	0.267
491	0.267
492	0.268
492	0.269
492	0.27
493	0.27
493	0.271
494	0.271
494	0.272
495	0.273
495	0.273
496	0.274
496	0.275
496	0.276
497	0.276
497	0.276
498	0.277
498	0.278
499	0.278
499	0.279
500	0.28
500	0.281
501	0.281
501	0.282
501	0.282
502	0.283
502	0.284
503	0.285
503	0.285
504	0.286
504	0.287
505	0.288
505	0.288
506	0.289
506	0.289
506	0.29
507	0.291
507	0.291
508	0.292
508	0.293
509	0.293
509	0.294
510	0.294
510	0.295
511	0.296
511	0.297
511	0.297
512	0.298
512	0.299
513	0.299
513	0.3
514	0.3
514	0.301
515	0.302
515	0.302
515	0.302
516	0.303
516	0.303
517	0.304
517	0.304
518	0.305
518	0.305
519	0.305
519	0.306
520	0.306
520	0.306
520	0.307
521	0.307
521	0.307
522	0.307
522	0.307
523	0.307
523	0.307
524	0.307
524	0.307
524	0.308
525	0.308
525	0.308
526	0.308
526	0.308
527	0.308
527	0.307
528	0.307
528	0.307
529	0.307
529	0.306
529	0.306
530	0.306
530	0.305
531	0.305
531	0.305
532	0.304
532	0.303
533	0.303
533	0.302
533	0.302
534	0.301
534	0.301
535	0.3
535	0.3
536	0.299
536	0.299
537	0.298
537	0.298
538	0.297
538	0.296
538	0.296
539	0.295
539	0.295
540	0.294
540	0.293
541	0.292
541	0.291
542	0.29
542	0.29
542	0.289
543	0.288
543	0.288
544	0.287
544	0.286
545	0.286
545	0.286
546	0.285
546	0.285
547	0.284
547	0.283
547	0.282
548	0.281
548	0.28
549	0.279
549	0.279
550	0.278
550	0.277
551	0.276
551	0.275
551	0.274
552	0.273
552	0.273
553	0.272
553	0.271
554	0.27
554	0.269
555	0.268
555	0.267
556	0.266
556	0.265
556	0.264
557	0.264
557	0.263
558	0.262
558	0.262
559	0.261
559	0.261
560	0.26
560	0.26
560	0.259
561	0.259
561	0.258
562	0.257
562	0.256
563	0.254
563	0.253
564	0.252
564	0.251
564	0.251
565	0.25
565	0.25
566	0.249
566	0.248
567	0.247
567	0.247
568	0.247
568	0.246
568	0.246
569	0.245
569	0.245
570	0.243
570	0.242
571	0.241
571	0.241
572	0.24
572	0.239
573	0.239
573	0.238
573	0.237
574	0.236
574	0.236
575	0.236
575	0.236
576	0.235
576	0.234
577	0.233
577	0.232
577	0.232
578	0.231
578	0.23
579	0.23
579	0.23
580	0.229
580	0.227
581	0.226
581	0.226
581	0.226
582	0.226
582	0.226
583	0.226
583	0.225
584	0.224
584	0.223
585	0.222
585	0.222
585	0.222
586	0.221
586	0.221
587	0.22
587	0.219
588	0.218
588	0.218
589	0.217
589	0.217
590	0.217
590	0.217
590	0.217
591	0.217
591	0.216
592	0.215
592	0.215
593	0.214
593	0.213
594	0.213
594	0.212
594	0.211
595	0.211
595	0.21
596	0.209
596	0.209
597	0.21
597	0.21
598	0.21
598	0.21
598	0.21
599	0.21
599	0.21
600	0.209
600	0.209
601	0.208
601	0.208
602	0.207
602	0.206
602	0.206
603	0.206
603	0.206
604	0.206
604	0.206
605	0.205
605	0.205
606	0.205
606	0.204
606	0.203
607	0.203
607	0.202
608	0.202
608	0.201
609	0.2
609	0.2
610	0.199
610	0.199
610	0.199
611	0.199
611	0.199
612	0.198
612	0.199
613	0.198
613	0.198
614	0.198
614	0.197
614	0.197
615	0.197
615	0.197
616	0.197
616	0.197
617	0.196
617	0.196
618	0.195
618	0.195
618	0.195
619	0.195
619	0.195
620	0.195
620	0.194
621	0.194
621	0.193
622	0.193
622	0.193
622	0.192
623	0.192
623	0.191
624	0.191
624	0.191
625	0.19
625	0.19
626	0.19
626	0.19
626	0.19
627	0.19
627	0.19
628	0.19
628	0.189
629	0.189
629	0.189
630	0.188
630	0.188
630	0.188
631	0.188
631	0.187
632	0.187
632	0.186
633	0.186
633	0.186
634	0.187
634	0.187
634	0.186
635	0.186
635	0.186
636	0.185
636	0.185
637	0.185
637	0.185
638	0.184
638	0.184
638	0.184
639	0.183
639	0.183
640	0.183
640	0.183
641	0.183
641	0.183
642	0.182
642	0.183
642	0.183
643	0.183
643	0.183
644	0.183
644	0.183
645	0.182
645	0.182
646	0.182
646	0.182
646	0.182
647	0.182
647	0.181
648	0.181
648	0.181
649	0.18
649	0.18
650	0.18
650	0.18
650	0.18
651	0.18
651	0.18
652	0.179
652	0.179
653	0.18
653	0.181
653	0.188
654	0.148
654	0.119
655	0.119
655	0.119
656	0.12
656	0.12
657	0.12
657	0.121
657	0.12
658	0.119
658	0.108
659	0.136
659	0.175
660	0.18
660	0.18
661	0.18
661	0.18
661	0.179
662	0.179
662	0.18
663	0.18
663	0.18
664	0.18
664	0.18
665	0.18
665	0.18
665	0.18
666	0.18
666	0.18
667	0.18
667	0.18
668	0.18
668	0.18
669	0.18
669	0.18
669	0.18
670	0.18
670	0.18
671	0.18
671	0.18
672	0.179
672	0.179
672	0.179
673	0.178
673	0.179
674	0.179
674	0.178
675	0.178
675	0.178
676	0.178
676	0.178
676	0.178
677	0.178
677	0.178
678	0.178
678	0.177
679	0.177
679	0.177
680	0.176
680	0.176
680	0.176
681	0.176
681	0.176
682	0.177
682	0.177
683	0.178
683	0.178
684	0.179
684	0.179
684	0.179
685	0.179
685	0.18
686	0.18
686	0.18
687	0.18
687	0.18
687	0.179
688	0.179
688	0.179
689	0.179
689	0.179
690	0.179
690	0.179
691	0.179
691	0.179
691	0.179
692	0.179
692	0.179
693	0.179
693	0.179
694	0.179
694	0.179
695	0.18
695	0.181
695	0.181
696	0.181
696	0.181
697	0.181
697	0.181
698	0.181
698	0.18
698	0.18
699	0.181
699	0.18
700	0.179
700	0.179
701	0.179
701	0.179
702	0.179
702	0.179
702	0.179
703	0.179
703	0.178
704	0.178
704	0.178
705	0.178
705	0.178
705	0.178
706	0.178
706	0.178
707	0.178
707	0.178
708	0.178
708	0.179
709	0.179
709	0.179
709	0.179
710	0.179
710	0.179
711	0.18
711	0.18
712	0.18
712	0.181
713	0.181
713	0.182
713	0.181
714	0.181
714	0.181
715	0.181
715	0.181
716	0.18
716	0.18
716	0.179
717	0.178
717	0.178
718	0.177
718	0.177
719	0.177
719	0.177
720	0.178
720	0.178
720	0.179
721	0.179
721	0.18
722	0.181
722	0.181
723	0.182
723	0.182
723	0.182
724	0.182
724	0.182
725	0.181
725	0.18
726	0.18
726	0.179
727	0.178
727	0.178
727	0.178
728	0.178
728	0.178
729	0.178
729	0.178
730	0.179
730	0.179
730	0.18
731	0.18
731	0.181
732	0.181
732	0.182
733	0.182
733	0.182
734	0.182
734	0.182
734	0.183
735	0.183
735	0.183
736	0.182
736	0.182
737	0.182
737	0.182
737	0.182
738	0.181
738	0.18
739	0.179
739	0.179
740	0.178
740	0.179
741	0.179
741	0.179
741	0.179
742	0.179
742	0.18
743	0.181
743	0.182
744	0.183
744	0.183
744	0.184
745	0.184
745	0.184
746	0.184
746	0.184
747	0.184
747	0.184
748	0.184
748	0.184
748	0.184
749	0.184
749	0.184
750	0.184
750	0.184
751	0.184
751	0.184
751	0.184
752	0.184
752	0.183
753	0.183
753	0.183
754	0.183
754	0.183
754	0.183
755	0.183
755	0.183
756	0.183
756	0.182
757	0.182
757	0.183
758	0.183
758	0.183
758	0.183
759	0.184
759	0.183
760	0.183
760	0.183
761	0.183
761	0.183
761	0.184
762	0.184
762	0.184
763	0.184
763	0.184
764	0.184
764	0.184
764	0.184
765	0.184
765	0.183
766	0.183
766	0.183
767	0.183
767	0.182
768	0.181
768	0.181
768	0.182
769	0.182
769	0.182
770	0.183
770	0.183
771	0.183
771	0.184
771	0.184
772	0.185
772	0.186
773	0.186
773	0.186
774	0.186
774	0.185
775	0.185
775	0.185
775	0.185
776	0.184
776	0.184
777	0.184
777	0.184
778	0.184
778	0.184
778	0.184
779	0.184
779	0.184
780	0.184
780	0.183
781	0.184
781	0.183
781	0.184
782	0.184
782	0.184
783	0.184
783	0.185
784	0.185
784	0.185
784	0.186
785	0.186
785	0.186
786	0.186
786	0.186
787	0.186
787	0.186
788	0.186
788	0.185
788	0.185
789	0.185
789	0.185
790	0.185
790	0.185
791	0.185
791	0.185
791	0.185
792	0.186
792	0.187
793	0.187
793	0.187
794	0.187
794	0.186
794	0.186
795	0.186
795	0.186
796	0.186
796	0.186
797	0.185
797	0.185
797	0.185
798	0.185
798	0.185
799	0.185
799	0.185
800	0.185
800	0.185
801	0.185
801	0.185
801	0.185
802	0.186
802	0.186
803	0.186
803	0.187
804	0.187
804	0.188
804	0.188
805	0.188
805	0.187
806	0.187
806	0.187
807	0.187
807	0.187
807	0.187
808	0.187
808	0.187
809	0.187
809	0.187
810	0.187
810	0.187
810	0.187
811	0.187
811	0.188
812	0.188
812	0.188
813	0.188
813	0.189
813	0.189
814	0.189
814	0.19
815	0.19
815	0.19
816	0.19
816	0.189
817	0.188
817	0.188
817	0.187
818	0.186
818	0.186
819	0.185
819	0.184
820	0.184
820	0.183
820	0.183
821	0.183
821	0.184
822	0.184
822	0.185
823	0.185
823	0.186
823	0.186
824	0.188
824	0.189
825	0.19
825	0.19
826	0.191
826	0.19
826	0.191
827	0.191
827	0.191
828	0.191
828	0.19
829	0.19
829	0.19
829	0.19
830	0.19
830	0.189
831	0.19
831	0.19
832	0.189
832	0.189
832	0.189
833	0.189
833	0.189
834	0.188
834	0.188
835	0.188
835	0.188
835	0.188
836	0.188
836	0.187
837	0.187
837	0.187
838	0.186
838	0.186
839	0.185
839	0.184
839	0.183
840	0.182
840	0.181
841	0.18
841	0.179
842	0.178
842	0.178
842	0.177
843	0.176
843	0.176
844	0.175
844	0.175
845	0.175
845	0.174
845	0.174
846	0.174
846	0.174
847	0.174
847	0.174
848	0.174
848	0.174
848	0.174
849	0.174
849	0.174
850	0.173
850	0.173
851	0.173
851	0.173
851	0.173
852	0.172
852	0.171
853	0.171
853	0.17
854	0.17
854	0.17
854	0.17
855	0.171
855	0.171
856	0.171
856	0.172
857	0.173
857	0.173
857	0.174
858	0.174
858	0.175
859	0.175
859	0.175
860	0.175
860	0.175
860	0.174
861	0.174
861	0.174
862	0.173
862	0.172
863	0.171
863	0.171
863	0.17
864	0.17
864	0.169
865	0.169
865	0.169
866	0.168
866	0.168
866	0.168
867	0.169
867	0.169
868	0.169
868	0.17
869	0.17
869	0.17
869	0.169
870	0.169
870	0.169
871	0.169
871	0.169
872	0.169
872	0.169
872	0.168
873	0.168
873	0.167
874	0.166
874	0.166
875	0.166
875	0.166
875	0.165
876	0.165
876	0.165
877	0.165
877	0.165
878	0.165
878	0.165
878	0.166
879	0.166
879	0.166
880	0.166
880	0.166
881	0.166
881	0.166
881	0.166
882	0.165
882	0.165
883	0.165
883	0.164
884	0.164
884	0.163
884	0.163
885	0.162
885	0.161
886	0.16
886	0.159
887	0.158
887	0.157
887	0.156
888	0.155
888	0.154
889	0.154
889	0.153
890	0.153
890	0.153
890	0.153
891	0.153
891	0.154
892	0.154
892	0.154
893	0.154
893	0.154
893	0.155
894	0.155
894	0.155
895	0.154
895	0.154
895	0.154
896	0.155
896	0.155
897	0.155
897	0.154
898	0.154
898	0.153
898	0.153
899	0.152
899	0.152
900	0.152
900	0.151
901	0.151
901	0.15
901	0.15
902	0.149
902	0.149
903	0.149
903	0.149
904	0.148
904	0.147
904	0.147
905	0.146
905	0.145
906	0.144
906	0.143
907	0.143
907	0.142
907	0.142
908	0.142
908	0.141
909	0.141
909	0.141
910	0.141
910	0.141
910	0.141
911	0.14
911	0.14
912	0.14
912	0.14
913	0.139
913	0.139
913	0.139
914	0.139
914	0.139
915	0.139
915	0.139
916	0.139
916	0.139
916	0.139
917	0.139
917	0.139
918	0.139
918	0.138
918	0.138
919	0.138
919	0.137
920	0.137
920	0.137
921	0.136
921	0.136
921	0.135
922	0.135
922	0.134
923	0.134
923	0.134
924	0.134
924	0.134
924	0.134
925	0.134
925	0.134
926	0.134
926	0.134
927	0.134
927	0.134
927	0.134
928	0.133
928	0.133
929	0.133
929	0.133
930	0.132
930	0.132
930	0.131
931	0.131
931	0.131
932	0.13
932	0.13
933	0.129
933	0.129
933	0.128
934	0.128
934	0.127
935	0.127
935	0.126
935	0.126
936	0.125
936	0.125
937	0.125
937	0.124
938	0.123
938	0.123
938	0.123
939	0.122
939	0.122
940	0.122
940	0.122
941	0.123
941	0.123
941	0.123
942	0.124
942	0.124
943	0.124
943	0.124
944	0.125
944	0.125
944	0.125
945	0.125
945	0.125
946	0.124
946	0.124
946	0.124
947	0.123
947	0.122
948	0.121
948	0.12
949	0.119
949	0.118
949	0.116
950	0.115
950	0.114
951	0.113
951	0.113
952	0.112
952	0.111
952	0.111
953	0.11
953	0.11
954	0.11
954	0.11
955	0.11
955	0.11
955	0.11
956	0.11
956	0.11
957	0.111
957	0.111
957	0.111
958	0.111
958	0.111
959	0.111
959	0.111
960	0.11
960	0.11
960	0.11
961	0.11
961	0.11
962	0.11
962	0.11
963	0.11
963	0.11
963	0.11
964	0.11
964	0.11
965	0.11
965	0.11
966	0.11
966	0.11
966	0.11
967	0.11
967	0.11
968	0.111
968	0.111
968	0.11
969	0.11
969	0.11
970	0.109
970	0.108
971	0.108
971	0.107
971	0.106
972	0.105
972	0.103
973	0.103
973	0.102
974	0.102
974	0.102
974	0.102
975	0.102
975	0.103
976	0.104
976	0.105
976	0.105
977	0.106
977	0.107
978	0.108
978	0.108
979	0.108
979	0.109
979	0.109
980	0.109
980	0.109
981	0.108
981	0.108
982	0.108
982	0.107
982	0.107
983	0.106
983	0.106
984	0.105
984	0.105
984	0.104
985	0.104
985	0.103
986	0.103
986	0.102
987	0.102
987	0.101
987	0.101
988	0.1
988	0.1
989	0.1
989	0.1
990	0.1
990	0.099
990	0.099
991	0.099
991	0.099
992	0.099
992	0.098
992	0.097
993	0.097
993	0.096
994	0.095
994	0.094
995	0.093
995	0.093
995	0.092
996	0.092
996	0.092
997	0.093
997	0.093
997	0.093
998	0.094
998	0.095
999	0.096
999	0.097
1000	0.097
1000	0.098
1000	0.098
1001	0.098
1001	0.099
1002	0.098
1002	0.098
1003	0.098
1003	0.097
1003	0.096
1004	0.095
1004	0.094
1005	0.094
1005	0.093
1005	0.092
1006	0.091
1006	0.091
1007	0.09
1007	0.09
1008	0.09
1008	0.089
1008	0.089
1009	0.089
1009	0.089
1010	0.088
1010	0.088
1010	0.088
1011	0.087
1011	0.087
1012	0.086
1012	0.086
1013	0.086
1013	0.085
1013	0.084
1014	0.084
1014	0.083
1015	0.083
1015	0.083
1016	0.082
1016	0.082
1016	0.081
1017	0.081
1017	0.08
1018	0.08
1018	0.08
1018	0.08
1019	0.08
1019	0.079
1020	0.079
1020	0.08
1021	0.08
1021	0.081
1021	0.081
1022	0.082
1022	0.082
1023	0.083
1023	0.084
1023	0.085
1024	0.085
1024	0.086
1025	0.086
1025	0.087
1026	0.087
1026	0.087
1026	0.087
1027	0.087
1027	0.087
1028	0.087
1028	0.087
1028	0.087
1029	0.087
1029	0.087
1030	0.087
1030	0.087
1031	0.087
1031	0.088
1031	0.088
1032	0.088
1032	0.088
1033	0.088
1033	0.088
1033	0.088
1034	0.089
1034	0.088
1035	0.088
1035	0.088
1036	0.088
1036	0.088
1036	0.088
1037	0.087
1037	0.087
1038	0.086
1038	0.085
1039	0.085
1039	0.085
1039	0.084
1040	0.084
1040	0.084
1041	0.083
1041	0.083
1041	0.082
1042	0.082
1042	0.082
1043	0.081
1043	0.081
1044	0.08
1044	0.08
1044	0.079
1045	0.079
1045	0.078
1046	0.078
1046	0.078
1046	0.078
1047	0.078
1047	0.078
1048	0.078
1048	0.078
1049	0.078
1049	0.078
1049	0.078
1050	0.078
1050	0.077
1051	0.076
1051	0.076
1051	0.076
1052	0.075
1052	0.075
1053	0.074
1053	0.073
1053	0.073
1054	0.072
1054	0.072
1055	0.071
1055	0.071
1056	0.07
1056	0.07
1056	0.069
1057	0.068
1057	0.067
1058	0.066
1058	0.065
1058	0.064
1059	0.063
1059	0.062
1060	0.062
1060	0.061
1061	0.061
1061	0.06
1061	0.06
1062	0.06
1062	0.06
1063	0.06
1063	0.06
1063	0.06
1064	0.06
1064	0.06
1065	0.06
1065	0.06
1066	0.06
1066	0.06
1066	0.06
1067	0.059
1067	0.059
1068	0.059
1068	0.059
1068	0.059
1069	0.058
1069	0.058
1070	0.058
1070	0.058
1071	0.057
1071	0.057
1071	0.057
1072	0.057
1072	0.056
1073	0.056
1073	0.056
1073	0.056
1074	0.056
1074	0.057
1075	0.056
1075	0.056
1076	0.056
1076	0.057
1076	0.057
1077	0.057
1077	0.057
1078	0.057
1078	0.058
1078	0.058
1079	0.057
1079	0.057
1080	0.057
1080	0.057
1080	0.057
1081	0.057
1081	0.057
1082	0.057
1082	0.058
1083	0.058
1083	0.058
1083	0.058
1084	0.058
1084	0.059
1085	0.059
1085	0.059
1085	0.059
1086	0.06
1086	0.059
1087	0.059
1087	0.059
1088	0.059
1088	0.059
1088	0.059
1089	0.058
1089	0.057
1090	0.057
1090	0.056
1090	0.055
1091	0.055
1091	0.055
1092	0.055
1092	0.055
1092	0.055
1093	0.054
1093	0.055
1094	0.055
1094	0.055
1095	0.055
1095	0.055
1095	0.054
1096	0.054
1096	0.052
1097	0.052
1097	0.051
1097	0.05
1098	0.048
1098	0.047
1099	0.046
1099	0.044
1100	0.043
1100	0.041
1100	0.04
1101	0.039
1101	0.037
1102	0.037
1102	0.035
1102	0.034
1103	0.033
1103	0.033
1104	0.032
1104	0.032
1104	0.032
1105	0.031
1105	0.029
1106	0.029
1106	0.028
1107	0.028
1107	0.028
1107	0.028
1108	0.027
1108	0.025
1109	0.024
1109	0.023
1109	0.024
1110	0.026
1110	0.026
1111	0.025
1111	0.025
