Data from reversibility-20sec_Absorbance__2524__000000000002524.txt Node

Date: Wed Dec 06 02:14:26 CET 2023
User: Marek
Spectrometer: MAYP115816
Trigger mode: 0
Integration Time (sec): 2.000000E-1
Scans to average: 10
Electric dark correction enabled: true
Nonlinearity correction enabled: true
Boxcar width: 5
XAxis mode: Wavelengths
Number of Pixels in Spectrum: 2068
>>>>>Begin Spectral Data<<<<<
199	-0.178
199	-0.146
200	-0.082
200	-0.028
201	0.002
201	0.02
202	0.035
202	0.044
203	0.052
203	0.054
204	0.07
204	0.081
205	0.091
205	0.096
205	0.093
206	0.091
206	0.089
207	0.089
207	0.087
208	0.084
208	0.084
209	0.084
209	0.082
210	0.085
210	0.085
211	0.088
211	0.09
212	0.088
212	0.091
213	0.097
213	0.1
213	0.099
214	0.104
214	0.107
215	0.107
215	0.106
216	0.107
216	0.106
217	0.111
217	0.113
218	0.111
218	0.114
219	0.12
219	0.12
220	0.121
220	0.121
221	0.123
221	0.127
221	0.134
222	0.139
222	0.142
223	0.147
223	0.152
224	0.158
224	0.167
225	0.178
225	0.192
226	0.201
226	0.21
227	0.22
227	0.229
228	0.246
228	0.261
229	0.275
229	0.298
229	0.318
230	0.343
230	0.37
231	0.404
231	0.445
232	0.483
232	0.527
233	0.569
233	0.618
234	0.668
234	0.72
235	0.774
235	0.826
236	0.882
236	0.935
236	0.985
237	1.036
237	1.087
238	1.137
238	1.189
239	1.242
239	1.288
240	1.333
240	1.374
241	1.411
241	1.448
242	1.484
242	1.526
243	1.558
243	1.589
243	1.617
244	1.64
244	1.666
245	1.685
245	1.71
246	1.735
246	1.754
247	1.771
247	1.787
248	1.805
248	1.82
249	1.836
249	1.847
250	1.855
250	1.868
250	1.875
251	1.879
251	1.887
252	1.893
252	1.898
253	1.901
253	1.903
254	1.901
254	1.906
255	1.908
255	1.91
256	1.914
256	1.917
257	1.918
257	1.918
258	1.919
258	1.921
258	1.921
259	1.924
259	1.925
260	1.925
260	1.929
261	1.93
261	1.933
262	1.936
262	1.94
263	1.946
263	1.947
264	1.95
264	1.954
265	1.958
265	1.962
265	1.963
266	1.964
266	1.964
267	1.964
267	1.966
268	1.966
268	1.971
269	1.974
269	1.973
270	1.971
270	1.97
271	1.966
271	1.967
272	1.965
272	1.964
272	1.961
273	1.955
273	1.947
274	1.94
274	1.934
275	1.928
275	1.923
276	1.918
276	1.91
277	1.902
277	1.892
278	1.881
278	1.868
278	1.854
279	1.838
279	1.816
280	1.791
280	1.759
281	1.722
281	1.679
282	1.637
282	1.592
283	1.549
283	1.508
284	1.467
284	1.427
285	1.39
285	1.356
285	1.326
286	1.299
286	1.276
287	1.255
287	1.237
288	1.221
288	1.208
289	1.197
289	1.187
290	1.179
290	1.171
291	1.164
291	1.158
292	1.153
292	1.148
292	1.143
293	1.139
293	1.135
294	1.131
294	1.127
295	1.124
295	1.12
296	1.117
296	1.113
297	1.111
297	1.107
298	1.104
298	1.101
298	1.098
299	1.095
299	1.092
300	1.089
300	1.086
301	1.083
301	1.08
302	1.077
302	1.074
303	1.071
303	1.069
304	1.066
304	1.063
305	1.06
305	1.057
305	1.054
306	1.052
306	1.049
307	1.046
307	1.043
308	1.041
308	1.037
309	1.034
309	1.031
310	1.028
310	1.025
311	1.022
311	1.018
311	1.015
312	1.011
312	1.007
313	1.004
313	1
314	0.995
314	0.991
315	0.987
315	0.982
316	0.977
316	0.973
317	0.968
317	0.963
318	0.957
318	0.952
318	0.946
319	0.94
319	0.935
320	0.929
320	0.923
321	0.916
321	0.91
322	0.904
322	0.897
323	0.891
323	0.884
324	0.878
324	0.871
324	0.864
325	0.857
325	0.85
326	0.843
326	0.836
327	0.829
327	0.822
328	0.814
328	0.808
329	0.8
329	0.793
330	0.786
330	0.779
330	0.771
331	0.764
331	0.757
332	0.75
332	0.743
333	0.736
333	0.729
334	0.722
334	0.715
335	0.708
335	0.701
336	0.694
336	0.688
336	0.681
337	0.674
337	0.668
338	0.662
338	0.655
339	0.649
339	0.643
340	0.638
340	0.632
341	0.626
341	0.62
342	0.614
342	0.609
342	0.604
343	0.598
343	0.593
344	0.588
344	0.583
345	0.578
345	0.573
346	0.569
346	0.564
347	0.56
347	0.555
348	0.551
348	0.547
348	0.543
349	0.539
349	0.535
350	0.531
350	0.528
351	0.524
351	0.521
352	0.517
352	0.514
353	0.511
353	0.508
354	0.505
354	0.502
354	0.499
355	0.496
355	0.493
356	0.49
356	0.487
357	0.483
357	0.481
358	0.478
358	0.475
359	0.473
359	0.47
360	0.468
360	0.465
360	0.463
361	0.461
361	0.459
362	0.458
362	0.456
363	0.454
363	0.452
364	0.449
364	0.447
365	0.445
365	0.444
366	0.442
366	0.44
366	0.438
367	0.436
367	0.434
368	0.432
368	0.43
369	0.428
369	0.427
370	0.425
370	0.423
371	0.422
371	0.42
372	0.419
372	0.417
372	0.416
373	0.415
373	0.414
374	0.413
374	0.411
375	0.41
375	0.409
376	0.408
376	0.407
377	0.405
377	0.404
378	0.403
378	0.402
378	0.401
379	0.4
379	0.399
380	0.398
380	0.397
381	0.396
381	0.395
382	0.394
382	0.393
383	0.392
383	0.391
383	0.39
384	0.389
384	0.389
385	0.388
385	0.387
386	0.386
386	0.385
387	0.385
387	0.384
388	0.383
388	0.382
389	0.382
389	0.381
389	0.381
390	0.38
390	0.379
391	0.379
391	0.378
392	0.378
392	0.377
393	0.377
393	0.376
394	0.376
394	0.375
394	0.374
395	0.374
395	0.373
396	0.372
396	0.372
397	0.371
397	0.37
398	0.37
398	0.369
399	0.369
399	0.368
400	0.368
400	0.367
400	0.367
401	0.366
401	0.365
402	0.365
402	0.364
403	0.364
403	0.363
404	0.363
404	0.362
405	0.362
405	0.361
405	0.361
406	0.36
406	0.36
407	0.359
407	0.359
408	0.359
408	0.358
409	0.358
409	0.357
410	0.357
410	0.357
411	0.356
411	0.356
411	0.355
412	0.355
412	0.354
413	0.354
413	0.353
414	0.353
414	0.353
415	0.352
415	0.352
416	0.351
416	0.351
416	0.35
417	0.35
417	0.35
418	0.349
418	0.349
419	0.349
419	0.348
420	0.348
420	0.347
421	0.347
421	0.346
421	0.346
422	0.345
422	0.345
423	0.345
423	0.344
424	0.344
424	0.343
425	0.343
425	0.343
426	0.342
426	0.342
427	0.342
427	0.341
427	0.341
428	0.341
428	0.34
429	0.34
429	0.34
430	0.34
430	0.339
431	0.339
431	0.339
432	0.339
432	0.339
432	0.338
433	0.338
433	0.338
434	0.338
434	0.337
435	0.337
435	0.337
436	0.337
436	0.337
437	0.337
437	0.337
437	0.337
438	0.337
438	0.336
439	0.336
439	0.336
440	0.336
440	0.335
441	0.335
441	0.335
442	0.334
442	0.334
442	0.334
443	0.334
443	0.334
444	0.334
444	0.333
445	0.333
445	0.333
446	0.333
446	0.333
447	0.333
447	0.332
447	0.332
448	0.332
448	0.332
449	0.332
449	0.332
450	0.332
450	0.332
451	0.332
451	0.332
452	0.332
452	0.332
452	0.332
453	0.332
453	0.332
454	0.332
454	0.331
455	0.331
455	0.331
456	0.331
456	0.331
457	0.331
457	0.331
458	0.331
458	0.331
458	0.331
459	0.332
459	0.332
460	0.332
460	0.332
461	0.332
461	0.332
462	0.331
462	0.331
463	0.331
463	0.331
463	0.331
464	0.331
464	0.331
465	0.331
465	0.332
466	0.332
466	0.332
467	0.333
467	0.333
467	0.333
468	0.334
468	0.334
469	0.334
469	0.335
470	0.336
470	0.336
471	0.337
471	0.337
472	0.337
472	0.338
472	0.338
473	0.339
473	0.339
474	0.34
474	0.34
475	0.34
475	0.34
476	0.341
476	0.342
477	0.342
477	0.342
477	0.343
478	0.343
478	0.344
479	0.345
479	0.345
480	0.346
480	0.347
481	0.347
481	0.348
482	0.348
482	0.349
482	0.35
483	0.351
483	0.352
484	0.353
484	0.354
485	0.355
485	0.355
486	0.356
486	0.357
487	0.358
487	0.359
487	0.36
488	0.361
488	0.361
489	0.363
489	0.364
490	0.366
490	0.367
491	0.369
491	0.37
492	0.371
492	0.373
492	0.374
493	0.376
493	0.377
494	0.379
494	0.381
495	0.382
495	0.383
496	0.385
496	0.386
496	0.388
497	0.389
497	0.39
498	0.391
498	0.393
499	0.394
499	0.395
500	0.397
500	0.399
501	0.401
501	0.402
501	0.403
502	0.405
502	0.407
503	0.409
503	0.41
504	0.411
504	0.413
505	0.414
505	0.415
506	0.417
506	0.418
506	0.42
507	0.421
507	0.422
508	0.423
508	0.425
509	0.427
509	0.428
510	0.429
510	0.431
511	0.432
511	0.433
511	0.435
512	0.436
512	0.437
513	0.438
513	0.439
514	0.44
514	0.441
515	0.442
515	0.443
515	0.443
516	0.444
516	0.445
517	0.445
517	0.446
518	0.446
518	0.447
519	0.447
519	0.447
520	0.448
520	0.448
520	0.448
521	0.448
521	0.448
522	0.448
522	0.448
523	0.448
523	0.448
524	0.447
524	0.447
524	0.446
525	0.446
525	0.445
526	0.445
526	0.444
527	0.444
527	0.443
528	0.442
528	0.442
529	0.441
529	0.44
529	0.438
530	0.437
530	0.436
531	0.435
531	0.433
532	0.431
532	0.429
533	0.428
533	0.426
533	0.425
534	0.423
534	0.421
535	0.42
535	0.418
536	0.416
536	0.415
537	0.413
537	0.411
538	0.409
538	0.407
538	0.404
539	0.402
539	0.4
540	0.398
540	0.396
541	0.394
541	0.392
542	0.39
542	0.388
542	0.385
543	0.383
543	0.381
544	0.379
544	0.376
545	0.374
545	0.372
546	0.369
546	0.367
547	0.364
547	0.361
547	0.359
548	0.356
548	0.354
549	0.352
549	0.349
550	0.347
550	0.344
551	0.342
551	0.339
551	0.337
552	0.335
552	0.332
553	0.33
553	0.328
554	0.326
554	0.323
555	0.321
555	0.318
556	0.316
556	0.313
556	0.311
557	0.309
557	0.307
558	0.305
558	0.303
559	0.3
559	0.298
560	0.296
560	0.294
560	0.292
561	0.29
561	0.287
562	0.285
562	0.283
563	0.28
563	0.278
564	0.276
564	0.274
564	0.272
565	0.271
565	0.269
566	0.267
566	0.265
567	0.263
567	0.261
568	0.26
568	0.258
568	0.256
569	0.254
569	0.252
570	0.25
570	0.248
571	0.246
571	0.245
572	0.243
572	0.241
573	0.24
573	0.238
573	0.236
574	0.235
574	0.234
575	0.232
575	0.232
576	0.23
576	0.228
577	0.227
577	0.225
577	0.224
578	0.222
578	0.221
579	0.22
579	0.219
580	0.217
580	0.216
581	0.214
581	0.213
581	0.212
582	0.212
582	0.211
583	0.21
583	0.209
584	0.207
584	0.205
585	0.204
585	0.203
585	0.201
586	0.2
586	0.198
587	0.197
587	0.196
588	0.194
588	0.193
589	0.192
589	0.191
590	0.19
590	0.189
590	0.189
591	0.188
591	0.187
592	0.185
592	0.184
593	0.183
593	0.182
594	0.181
594	0.18
594	0.179
595	0.178
595	0.177
596	0.176
596	0.176
597	0.176
597	0.176
598	0.175
598	0.174
598	0.174
599	0.173
599	0.172
600	0.172
600	0.171
601	0.17
601	0.169
602	0.168
602	0.167
602	0.166
603	0.165
603	0.165
604	0.164
604	0.164
605	0.163
605	0.163
606	0.162
606	0.161
606	0.16
607	0.159
607	0.158
608	0.158
608	0.157
609	0.156
609	0.155
610	0.155
610	0.154
610	0.153
611	0.153
611	0.153
612	0.153
612	0.153
613	0.153
613	0.152
614	0.152
614	0.151
614	0.15
615	0.15
615	0.149
616	0.149
616	0.149
617	0.148
617	0.148
618	0.147
618	0.147
618	0.147
619	0.147
619	0.147
620	0.147
620	0.146
621	0.145
621	0.145
622	0.144
622	0.143
622	0.142
623	0.141
623	0.141
624	0.14
624	0.139
625	0.138
625	0.138
626	0.137
626	0.136
626	0.136
627	0.136
627	0.136
628	0.135
628	0.135
629	0.134
629	0.134
630	0.134
630	0.133
630	0.133
631	0.133
631	0.132
632	0.132
632	0.131
633	0.131
633	0.131
634	0.131
634	0.131
634	0.131
635	0.13
635	0.129
636	0.129
636	0.129
637	0.129
637	0.128
638	0.128
638	0.127
638	0.127
639	0.126
639	0.125
640	0.125
640	0.125
641	0.124
641	0.124
642	0.124
642	0.124
642	0.124
643	0.124
643	0.124
644	0.125
644	0.125
645	0.124
645	0.124
646	0.124
646	0.124
646	0.124
647	0.123
647	0.123
648	0.122
648	0.121
649	0.12
649	0.12
650	0.12
650	0.119
650	0.119
651	0.119
651	0.118
652	0.118
652	0.118
653	0.119
653	0.12
653	0.126
654	0.101
654	0.082
655	0.08
655	0.08
656	0.08
656	0.08
657	0.08
657	0.081
657	0.081
658	0.079
658	0.071
659	0.089
659	0.112
660	0.117
660	0.118
661	0.117
661	0.117
661	0.116
662	0.116
662	0.115
663	0.114
663	0.114
664	0.113
664	0.113
665	0.113
665	0.112
665	0.112
666	0.112
666	0.112
667	0.112
667	0.112
668	0.113
668	0.113
669	0.113
669	0.113
669	0.113
670	0.113
670	0.113
671	0.113
671	0.112
672	0.112
672	0.111
672	0.111
673	0.111
673	0.111
674	0.11
674	0.11
675	0.109
675	0.109
676	0.109
676	0.109
676	0.109
677	0.108
677	0.108
678	0.108
678	0.108
679	0.107
679	0.107
680	0.107
680	0.107
680	0.107
681	0.106
681	0.107
682	0.107
682	0.107
683	0.107
683	0.107
684	0.107
684	0.106
684	0.106
685	0.106
685	0.106
686	0.106
686	0.106
687	0.106
687	0.106
687	0.106
688	0.105
688	0.105
689	0.106
689	0.106
690	0.105
690	0.105
691	0.105
691	0.105
691	0.105
692	0.105
692	0.105
693	0.105
693	0.105
694	0.105
694	0.105
695	0.105
695	0.106
695	0.106
696	0.106
696	0.106
697	0.105
697	0.105
698	0.104
698	0.104
698	0.104
699	0.104
699	0.103
700	0.103
700	0.103
701	0.103
701	0.103
702	0.102
702	0.102
702	0.102
703	0.102
703	0.102
704	0.101
704	0.101
705	0.101
705	0.1
705	0.099
706	0.099
706	0.098
707	0.098
707	0.098
708	0.098
708	0.098
709	0.097
709	0.097
709	0.096
710	0.096
710	0.096
711	0.097
711	0.097
712	0.097
712	0.097
713	0.097
713	0.097
713	0.097
714	0.097
714	0.097
715	0.097
715	0.097
716	0.097
716	0.096
716	0.096
717	0.095
717	0.094
718	0.094
718	0.093
719	0.093
719	0.093
720	0.092
720	0.093
720	0.093
721	0.093
721	0.093
722	0.094
722	0.094
723	0.094
723	0.095
723	0.095
724	0.095
724	0.095
725	0.094
725	0.094
726	0.093
726	0.092
727	0.091
727	0.09
727	0.09
728	0.089
728	0.089
729	0.089
729	0.088
730	0.088
730	0.089
730	0.089
731	0.089
731	0.09
732	0.09
732	0.09
733	0.09
733	0.089
734	0.089
734	0.089
734	0.089
735	0.088
735	0.088
736	0.087
736	0.087
737	0.086
737	0.086
737	0.085
738	0.085
738	0.084
739	0.084
739	0.084
740	0.083
740	0.084
741	0.084
741	0.084
741	0.084
742	0.084
742	0.084
743	0.084
743	0.085
744	0.085
744	0.085
744	0.084
745	0.084
745	0.084
746	0.083
746	0.083
747	0.083
747	0.084
748	0.084
748	0.084
748	0.084
749	0.084
749	0.085
750	0.085
750	0.085
751	0.085
751	0.085
751	0.085
752	0.084
752	0.084
753	0.083
753	0.083
754	0.082
754	0.082
754	0.081
755	0.081
755	0.081
756	0.08
756	0.079
757	0.078
757	0.078
758	0.078
758	0.077
758	0.077
759	0.077
759	0.077
760	0.077
760	0.076
761	0.077
761	0.077
761	0.078
762	0.078
762	0.078
763	0.078
763	0.077
764	0.077
764	0.077
764	0.077
765	0.076
765	0.076
766	0.076
766	0.075
767	0.074
767	0.073
768	0.072
768	0.072
768	0.072
769	0.071
769	0.071
770	0.071
770	0.071
771	0.071
771	0.071
771	0.071
772	0.072
772	0.072
773	0.072
773	0.072
774	0.073
774	0.073
775	0.073
775	0.073
775	0.073
776	0.073
776	0.073
777	0.073
777	0.073
778	0.073
778	0.073
778	0.072
779	0.072
779	0.071
780	0.071
780	0.07
781	0.07
781	0.069
781	0.068
782	0.068
782	0.067
783	0.067
783	0.067
784	0.067
784	0.067
784	0.067
785	0.067
785	0.067
786	0.067
786	0.067
787	0.067
787	0.067
788	0.066
788	0.066
788	0.066
789	0.065
789	0.065
790	0.065
790	0.065
791	0.065
791	0.065
791	0.065
792	0.065
792	0.066
793	0.066
793	0.066
794	0.066
794	0.066
794	0.066
795	0.066
795	0.067
796	0.067
796	0.067
797	0.067
797	0.067
797	0.067
798	0.067
798	0.067
799	0.066
799	0.066
800	0.065
800	0.064
801	0.064
801	0.064
801	0.063
802	0.063
802	0.063
803	0.063
803	0.063
804	0.063
804	0.063
804	0.063
805	0.064
805	0.064
806	0.064
806	0.064
807	0.064
807	0.064
807	0.064
808	0.064
808	0.064
809	0.064
809	0.064
810	0.065
810	0.065
810	0.065
811	0.065
811	0.066
812	0.066
812	0.066
813	0.065
813	0.065
813	0.065
814	0.065
814	0.065
815	0.064
815	0.064
816	0.063
816	0.063
817	0.062
817	0.062
817	0.062
818	0.062
818	0.062
819	0.061
819	0.061
820	0.06
820	0.06
820	0.059
821	0.059
821	0.059
822	0.059
822	0.059
823	0.059
823	0.059
823	0.06
824	0.061
824	0.062
825	0.063
825	0.063
826	0.063
826	0.063
826	0.063
827	0.063
827	0.063
828	0.063
828	0.063
829	0.062
829	0.062
829	0.062
830	0.062
830	0.062
831	0.063
831	0.063
832	0.063
832	0.063
832	0.064
833	0.064
833	0.064
834	0.064
834	0.063
835	0.063
835	0.063
835	0.063
836	0.064
836	0.064
837	0.064
837	0.064
838	0.064
838	0.064
839	0.064
839	0.063
839	0.062
840	0.061
840	0.06
841	0.059
841	0.057
842	0.056
842	0.055
842	0.054
843	0.053
843	0.052
844	0.052
844	0.052
845	0.051
845	0.051
845	0.052
846	0.052
846	0.052
847	0.052
847	0.053
848	0.054
848	0.055
848	0.055
849	0.056
849	0.056
850	0.056
850	0.056
851	0.056
851	0.056
851	0.056
852	0.055
852	0.055
853	0.054
853	0.054
854	0.054
854	0.054
854	0.054
855	0.055
855	0.055
856	0.056
856	0.057
857	0.057
857	0.058
857	0.059
858	0.059
858	0.059
859	0.058
859	0.058
860	0.057
860	0.057
860	0.056
861	0.055
861	0.055
862	0.054
862	0.053
863	0.053
863	0.052
863	0.052
864	0.052
864	0.052
865	0.052
865	0.052
866	0.052
866	0.052
866	0.052
867	0.052
867	0.052
868	0.052
868	0.052
869	0.051
869	0.051
869	0.05
870	0.05
870	0.05
871	0.05
871	0.05
872	0.05
872	0.05
872	0.051
873	0.051
873	0.051
874	0.051
874	0.051
875	0.051
875	0.051
875	0.051
876	0.052
876	0.051
877	0.052
877	0.052
878	0.052
878	0.053
878	0.054
879	0.054
879	0.055
880	0.056
880	0.056
881	0.056
881	0.057
881	0.056
882	0.056
882	0.055
883	0.055
883	0.054
884	0.054
884	0.053
884	0.053
885	0.053
885	0.052
886	0.052
886	0.052
887	0.051
887	0.051
887	0.05
888	0.049
888	0.049
889	0.048
889	0.047
890	0.047
890	0.046
890	0.046
891	0.045
891	0.045
892	0.045
892	0.045
893	0.045
893	0.046
893	0.046
894	0.046
894	0.046
895	0.046
895	0.047
895	0.047
896	0.047
896	0.047
897	0.047
897	0.047
898	0.047
898	0.047
898	0.047
899	0.047
899	0.047
900	0.047
900	0.047
901	0.047
901	0.048
901	0.048
902	0.048
902	0.048
903	0.048
903	0.049
904	0.049
904	0.049
904	0.049
905	0.048
905	0.048
906	0.049
906	0.049
907	0.049
907	0.05
907	0.051
908	0.051
908	0.052
909	0.052
909	0.052
910	0.053
910	0.053
910	0.052
911	0.052
911	0.052
912	0.051
912	0.051
913	0.05
913	0.05
913	0.049
914	0.049
914	0.048
915	0.048
915	0.047
916	0.047
916	0.046
916	0.046
917	0.045
917	0.045
918	0.045
918	0.044
918	0.044
919	0.043
919	0.043
920	0.043
920	0.042
921	0.042
921	0.042
921	0.041
922	0.041
922	0.041
923	0.041
923	0.041
924	0.041
924	0.041
924	0.041
925	0.041
925	0.041
926	0.041
926	0.042
927	0.042
927	0.042
927	0.042
928	0.043
928	0.043
929	0.044
929	0.045
930	0.045
930	0.046
930	0.046
931	0.047
931	0.047
932	0.048
932	0.049
933	0.049
933	0.05
933	0.05
934	0.05
934	0.051
935	0.051
935	0.051
935	0.052
936	0.052
936	0.052
937	0.052
937	0.051
938	0.051
938	0.051
938	0.051
939	0.051
939	0.05
940	0.05
940	0.05
941	0.05
941	0.05
941	0.05
942	0.05
942	0.049
943	0.049
943	0.049
944	0.049
944	0.049
944	0.049
945	0.049
945	0.049
946	0.049
946	0.049
946	0.049
947	0.049
947	0.049
948	0.049
948	0.048
949	0.047
949	0.047
949	0.046
950	0.046
950	0.045
951	0.044
951	0.043
952	0.042
952	0.042
952	0.041
953	0.041
953	0.04
954	0.04
954	0.04
955	0.04
955	0.04
955	0.04
956	0.04
956	0.041
957	0.042
957	0.043
957	0.043
958	0.044
958	0.045
959	0.046
959	0.046
960	0.047
960	0.047
960	0.048
961	0.048
961	0.048
962	0.048
962	0.048
963	0.048
963	0.048
963	0.048
964	0.049
964	0.049
965	0.049
965	0.05
966	0.05
966	0.051
966	0.051
967	0.052
967	0.052
968	0.052
968	0.052
968	0.052
969	0.052
969	0.052
970	0.052
970	0.051
971	0.051
971	0.051
971	0.05
972	0.05
972	0.05
973	0.049
973	0.049
974	0.05
974	0.05
974	0.05
975	0.05
975	0.05
976	0.051
976	0.051
976	0.051
977	0.051
977	0.051
978	0.05
978	0.05
979	0.049
979	0.049
979	0.048
980	0.048
980	0.047
981	0.046
981	0.046
982	0.046
982	0.045
982	0.045
983	0.045
983	0.044
984	0.044
984	0.043
984	0.043
985	0.043
985	0.042
986	0.042
986	0.042
987	0.041
987	0.041
987	0.041
988	0.041
988	0.041
989	0.041
989	0.041
990	0.041
990	0.041
990	0.041
991	0.041
991	0.041
992	0.041
992	0.041
992	0.041
993	0.041
993	0.041
994	0.04
994	0.04
995	0.04
995	0.04
995	0.04
996	0.041
996	0.041
997	0.041
997	0.041
997	0.041
998	0.042
998	0.042
999	0.042
999	0.042
1000	0.043
1000	0.043
1000	0.043
1001	0.043
1001	0.043
1002	0.043
1002	0.043
1003	0.043
1003	0.043
1003	0.043
1004	0.043
1004	0.042
1005	0.042
1005	0.042
1005	0.042
1006	0.041
1006	0.041
1007	0.041
1007	0.04
1008	0.04
1008	0.04
1008	0.04
1009	0.04
1009	0.04
1010	0.04
1010	0.04
1010	0.04
1011	0.04
1011	0.04
1012	0.04
1012	0.04
1013	0.041
1013	0.04
1013	0.04
1014	0.04
1014	0.04
1015	0.04
1015	0.04
1016	0.04
1016	0.039
1016	0.039
1017	0.038
1017	0.038
1018	0.038
1018	0.038
1018	0.038
1019	0.037
1019	0.038
1020	0.038
1020	0.038
1021	0.038
1021	0.039
1021	0.039
1022	0.04
1022	0.04
1023	0.04
1023	0.041
1023	0.041
1024	0.042
1024	0.042
1025	0.042
1025	0.042
1026	0.042
1026	0.042
1026	0.042
1027	0.042
1027	0.042
1028	0.042
1028	0.042
1028	0.041
1029	0.041
1029	0.041
1030	0.041
1030	0.041
1031	0.041
1031	0.041
1031	0.041
1032	0.041
1032	0.041
1033	0.041
1033	0.041
1033	0.041
1034	0.04
1034	0.04
1035	0.04
1035	0.039
1036	0.04
1036	0.039
1036	0.039
1037	0.039
1037	0.039
1038	0.039
1038	0.04
1039	0.04
1039	0.041
1039	0.041
1040	0.042
1040	0.042
1041	0.043
1041	0.043
1041	0.044
1042	0.044
1042	0.045
1043	0.045
1043	0.046
1044	0.046
1044	0.046
1044	0.046
1045	0.046
1045	0.047
1046	0.047
1046	0.047
1046	0.048
1047	0.048
1047	0.048
1048	0.049
1048	0.049
1049	0.049
1049	0.05
1049	0.05
1050	0.05
1050	0.05
1051	0.05
1051	0.049
1051	0.049
1052	0.048
1052	0.048
1053	0.047
1053	0.046
1053	0.045
1054	0.044
1054	0.043
1055	0.043
1055	0.043
1056	0.042
1056	0.042
1056	0.041
1057	0.041
1057	0.04
1058	0.04
1058	0.039
1058	0.039
1059	0.038
1059	0.038
1060	0.037
1060	0.037
1061	0.036
1061	0.036
1061	0.036
1062	0.035
1062	0.035
1063	0.035
1063	0.034
1063	0.034
1064	0.033
1064	0.033
1065	0.033
1065	0.032
1066	0.032
1066	0.032
1066	0.031
1067	0.031
1067	0.031
1068	0.03
1068	0.03
1068	0.03
1069	0.029
1069	0.029
1070	0.028
1070	0.028
1071	0.027
1071	0.026
1071	0.025
1072	0.025
1072	0.024
1073	0.023
1073	0.022
1073	0.022
1074	0.022
1074	0.022
1075	0.022
1075	0.022
1076	0.023
1076	0.024
1076	0.024
1077	0.025
1077	0.026
1078	0.026
1078	0.027
1078	0.027
1079	0.027
1079	0.027
1080	0.027
1080	0.028
1080	0.028
1081	0.028
1081	0.029
1082	0.029
1082	0.03
1083	0.03
1083	0.03
1083	0.03
1084	0.03
1084	0.03
1085	0.029
1085	0.029
1085	0.029
1086	0.028
1086	0.028
1087	0.028
1087	0.027
1088	0.027
1088	0.027
1088	0.028
1089	0.028
1089	0.028
1090	0.027
1090	0.027
1090	0.026
1091	0.026
1091	0.026
1092	0.027
1092	0.027
1092	0.027
1093	0.026
1093	0.026
1094	0.026
1094	0.026
1095	0.026
1095	0.026
1095	0.025
1096	0.024
1096	0.023
1097	0.022
1097	0.022
1097	0.022
1098	0.021
1098	0.02
1099	0.019
1099	0.019
1100	0.018
1100	0.017
1100	0.017
1101	0.017
1101	0.016
1102	0.016
1102	0.014
1102	0.013
1103	0.013
1103	0.013
1104	0.013
1104	0.012
1104	0.013
1105	0.012
1105	0.009
1106	0.008
1106	0.007
1107	0.007
1107	0.006
1107	0.006
1108	0.005
1108	0.003
1109	0.002
1109	0
1109	-0.001
1110	0.003
1110	0.002
1111	0.003
1111	0.003
