Data from reversibility-20sec_Absorbance__6349__000000000006349.txt Node

Date: Wed Dec 06 23:29:26 CET 2023
User: Marek
Spectrometer: MAYP115816
Trigger mode: 0
Integration Time (sec): 2.000000E-1
Scans to average: 10
Electric dark correction enabled: true
Nonlinearity correction enabled: true
Boxcar width: 5
XAxis mode: Wavelengths
Number of Pixels in Spectrum: 2068
>>>>>Begin Spectral Data<<<<<
199	-0.172
199	-0.14
200	-0.079
200	-0.029
201	-0.001
201	0.017
202	0.028
202	0.035
203	0.041
203	0.042
204	0.057
204	0.068
205	0.081
205	0.088
205	0.084
206	0.082
206	0.083
207	0.084
207	0.085
208	0.087
208	0.089
209	0.09
209	0.093
210	0.091
210	0.092
211	0.096
211	0.101
212	0.098
212	0.098
213	0.101
213	0.102
213	0.103
214	0.107
214	0.105
215	0.107
215	0.106
216	0.105
216	0.103
217	0.104
217	0.108
218	0.109
218	0.112
219	0.113
219	0.113
220	0.119
220	0.119
221	0.12
221	0.124
221	0.129
222	0.136
222	0.137
223	0.142
223	0.143
224	0.151
224	0.157
225	0.163
225	0.172
226	0.182
226	0.193
227	0.201
227	0.214
228	0.231
228	0.247
229	0.265
229	0.286
229	0.31
230	0.335
230	0.365
231	0.398
231	0.434
232	0.472
232	0.514
233	0.555
233	0.606
234	0.656
234	0.71
235	0.765
235	0.819
236	0.87
236	0.92
236	0.971
237	1.025
237	1.075
238	1.122
238	1.166
239	1.213
239	1.254
240	1.292
240	1.33
241	1.365
241	1.399
242	1.431
242	1.462
243	1.49
243	1.515
243	1.538
244	1.56
244	1.581
245	1.597
245	1.618
246	1.64
246	1.657
247	1.671
247	1.687
248	1.701
248	1.716
249	1.728
249	1.734
250	1.743
250	1.753
250	1.754
251	1.759
251	1.763
252	1.769
252	1.77
253	1.773
253	1.773
254	1.773
254	1.777
255	1.777
255	1.777
256	1.779
256	1.779
257	1.78
257	1.778
258	1.777
258	1.777
258	1.778
259	1.777
259	1.776
260	1.775
260	1.777
261	1.775
261	1.777
262	1.779
262	1.779
263	1.782
263	1.782
264	1.78
264	1.782
265	1.783
265	1.783
265	1.783
266	1.784
266	1.782
267	1.78
267	1.781
268	1.781
268	1.781
269	1.782
269	1.781
270	1.779
270	1.779
271	1.777
271	1.776
272	1.774
272	1.772
272	1.769
273	1.764
273	1.761
274	1.756
274	1.752
275	1.746
275	1.741
276	1.734
276	1.726
277	1.719
277	1.71
278	1.699
278	1.687
278	1.674
279	1.66
279	1.644
280	1.624
280	1.599
281	1.57
281	1.537
282	1.503
282	1.467
283	1.431
283	1.394
284	1.358
284	1.323
285	1.289
285	1.257
285	1.229
286	1.203
286	1.181
287	1.161
287	1.143
288	1.128
288	1.115
289	1.104
289	1.094
290	1.085
290	1.078
291	1.071
291	1.065
292	1.059
292	1.054
292	1.05
293	1.045
293	1.041
294	1.037
294	1.033
295	1.029
295	1.026
296	1.022
296	1.019
297	1.015
297	1.012
298	1.008
298	1.005
298	1.001
299	0.998
299	0.995
300	0.992
300	0.99
301	0.987
301	0.983
302	0.98
302	0.978
303	0.975
303	0.973
304	0.97
304	0.967
305	0.965
305	0.962
305	0.959
306	0.956
306	0.954
307	0.951
307	0.948
308	0.945
308	0.943
309	0.94
309	0.936
310	0.933
310	0.93
311	0.927
311	0.924
311	0.92
312	0.917
312	0.913
313	0.909
313	0.905
314	0.901
314	0.897
315	0.892
315	0.888
316	0.883
316	0.879
317	0.874
317	0.869
318	0.864
318	0.859
318	0.854
319	0.848
319	0.843
320	0.837
320	0.832
321	0.826
321	0.82
322	0.813
322	0.807
323	0.8
323	0.794
324	0.787
324	0.781
324	0.774
325	0.767
325	0.76
326	0.753
326	0.746
327	0.739
327	0.733
328	0.726
328	0.719
329	0.712
329	0.705
330	0.698
330	0.691
330	0.684
331	0.678
331	0.671
332	0.664
332	0.657
333	0.65
333	0.644
334	0.637
334	0.63
335	0.623
335	0.616
336	0.609
336	0.603
336	0.596
337	0.59
337	0.584
338	0.577
338	0.571
339	0.565
339	0.559
340	0.553
340	0.548
341	0.542
341	0.536
342	0.531
342	0.526
342	0.52
343	0.515
343	0.51
344	0.505
344	0.501
345	0.496
345	0.491
346	0.486
346	0.482
347	0.478
347	0.473
348	0.469
348	0.466
348	0.462
349	0.458
349	0.454
350	0.45
350	0.446
351	0.443
351	0.44
352	0.436
352	0.433
353	0.43
353	0.427
354	0.424
354	0.422
354	0.419
355	0.416
355	0.413
356	0.41
356	0.407
357	0.404
357	0.401
358	0.398
358	0.395
359	0.393
359	0.39
360	0.388
360	0.386
360	0.384
361	0.382
361	0.381
362	0.379
362	0.377
363	0.375
363	0.373
364	0.371
364	0.369
365	0.367
365	0.365
366	0.363
366	0.362
366	0.36
367	0.358
367	0.356
368	0.355
368	0.353
369	0.351
369	0.35
370	0.348
370	0.347
371	0.345
371	0.344
372	0.342
372	0.341
372	0.34
373	0.339
373	0.338
374	0.337
374	0.336
375	0.335
375	0.334
376	0.333
376	0.332
377	0.331
377	0.329
378	0.328
378	0.327
378	0.326
379	0.326
379	0.325
380	0.324
380	0.323
381	0.322
381	0.321
382	0.321
382	0.32
383	0.32
383	0.319
383	0.318
384	0.317
384	0.317
385	0.316
385	0.315
386	0.315
386	0.314
387	0.314
387	0.313
388	0.313
388	0.312
389	0.312
389	0.311
389	0.311
390	0.31
390	0.31
391	0.309
391	0.309
392	0.308
392	0.308
393	0.308
393	0.307
394	0.307
394	0.306
394	0.306
395	0.305
395	0.305
396	0.304
396	0.303
397	0.303
397	0.302
398	0.302
398	0.301
399	0.301
399	0.3
400	0.3
400	0.3
400	0.299
401	0.299
401	0.299
402	0.298
402	0.298
403	0.298
403	0.297
404	0.297
404	0.297
405	0.296
405	0.296
405	0.296
406	0.295
406	0.295
407	0.294
407	0.294
408	0.294
408	0.293
409	0.293
409	0.293
410	0.292
410	0.292
411	0.292
411	0.291
411	0.291
412	0.291
412	0.29
413	0.29
413	0.29
414	0.29
414	0.289
415	0.289
415	0.289
416	0.288
416	0.288
416	0.287
417	0.287
417	0.287
418	0.287
418	0.286
419	0.286
419	0.285
420	0.284
420	0.284
421	0.283
421	0.283
421	0.283
422	0.283
422	0.282
423	0.282
423	0.282
424	0.281
424	0.281
425	0.281
425	0.281
426	0.28
426	0.28
427	0.279
427	0.279
427	0.279
428	0.278
428	0.278
429	0.278
429	0.277
430	0.277
430	0.277
431	0.277
431	0.277
432	0.277
432	0.277
432	0.276
433	0.276
433	0.276
434	0.276
434	0.276
435	0.276
435	0.275
436	0.275
436	0.275
437	0.274
437	0.274
437	0.274
438	0.274
438	0.273
439	0.273
439	0.273
440	0.273
440	0.272
441	0.272
441	0.272
442	0.272
442	0.272
442	0.272
443	0.271
443	0.271
444	0.271
444	0.271
445	0.271
445	0.271
446	0.271
446	0.271
447	0.27
447	0.27
447	0.27
448	0.27
448	0.27
449	0.27
449	0.27
450	0.27
450	0.27
451	0.27
451	0.27
452	0.27
452	0.27
452	0.27
453	0.269
453	0.269
454	0.269
454	0.269
455	0.269
455	0.269
456	0.269
456	0.269
457	0.269
457	0.269
458	0.269
458	0.269
458	0.269
459	0.269
459	0.269
460	0.269
460	0.269
461	0.269
461	0.269
462	0.269
462	0.269
463	0.269
463	0.269
463	0.269
464	0.269
464	0.269
465	0.269
465	0.269
466	0.269
466	0.269
467	0.269
467	0.269
467	0.269
468	0.27
468	0.27
469	0.27
469	0.271
470	0.271
470	0.272
471	0.272
471	0.272
472	0.273
472	0.273
472	0.273
473	0.274
473	0.274
474	0.274
474	0.275
475	0.275
475	0.275
476	0.276
476	0.276
477	0.276
477	0.277
477	0.277
478	0.277
478	0.278
479	0.278
479	0.279
480	0.279
480	0.279
481	0.28
481	0.28
482	0.281
482	0.281
482	0.282
483	0.283
483	0.283
484	0.284
484	0.284
485	0.285
485	0.285
486	0.286
486	0.286
487	0.287
487	0.288
487	0.288
488	0.289
488	0.29
489	0.291
489	0.292
490	0.294
490	0.295
491	0.296
491	0.297
492	0.299
492	0.3
492	0.301
493	0.302
493	0.303
494	0.304
494	0.305
495	0.306
495	0.307
496	0.308
496	0.309
496	0.31
497	0.311
497	0.312
498	0.313
498	0.314
499	0.315
499	0.317
500	0.318
500	0.32
501	0.321
501	0.322
501	0.322
502	0.323
502	0.325
503	0.326
503	0.327
504	0.328
504	0.329
505	0.33
505	0.331
506	0.332
506	0.333
506	0.334
507	0.335
507	0.336
508	0.337
508	0.338
509	0.339
509	0.34
510	0.341
510	0.342
511	0.343
511	0.344
511	0.345
512	0.346
512	0.347
513	0.347
513	0.348
514	0.349
514	0.35
515	0.351
515	0.352
515	0.352
516	0.353
516	0.353
517	0.354
517	0.355
518	0.355
518	0.355
519	0.356
519	0.356
520	0.356
520	0.356
520	0.356
521	0.356
521	0.356
522	0.356
522	0.355
523	0.355
523	0.355
524	0.355
524	0.355
524	0.355
525	0.355
525	0.354
526	0.354
526	0.354
527	0.353
527	0.353
528	0.352
528	0.351
529	0.35
529	0.35
529	0.349
530	0.348
530	0.347
531	0.346
531	0.345
532	0.344
532	0.343
533	0.342
533	0.341
533	0.34
534	0.339
534	0.337
535	0.336
535	0.335
536	0.333
536	0.332
537	0.331
537	0.33
538	0.328
538	0.327
538	0.325
539	0.324
539	0.322
540	0.321
540	0.319
541	0.318
541	0.316
542	0.314
542	0.313
542	0.311
543	0.309
543	0.308
544	0.306
544	0.304
545	0.302
545	0.301
546	0.299
546	0.297
547	0.295
547	0.293
547	0.291
548	0.289
548	0.287
549	0.286
549	0.284
550	0.282
550	0.28
551	0.278
551	0.277
551	0.275
552	0.273
552	0.271
553	0.27
553	0.268
554	0.266
554	0.264
555	0.262
555	0.26
556	0.259
556	0.257
556	0.255
557	0.254
557	0.252
558	0.251
558	0.249
559	0.248
559	0.246
560	0.245
560	0.243
560	0.241
561	0.24
561	0.238
562	0.237
562	0.235
563	0.233
563	0.231
564	0.229
564	0.228
564	0.226
565	0.225
565	0.224
566	0.222
566	0.221
567	0.22
567	0.219
568	0.217
568	0.216
568	0.214
569	0.213
569	0.211
570	0.209
570	0.208
571	0.206
571	0.205
572	0.204
572	0.202
573	0.201
573	0.2
573	0.199
574	0.197
574	0.197
575	0.196
575	0.195
576	0.194
576	0.193
577	0.191
577	0.19
577	0.189
578	0.188
578	0.187
579	0.187
579	0.186
580	0.184
580	0.183
581	0.181
581	0.18
581	0.18
582	0.179
582	0.179
583	0.178
583	0.177
584	0.176
584	0.174
585	0.173
585	0.173
585	0.172
586	0.171
586	0.17
587	0.169
587	0.168
588	0.166
588	0.165
589	0.165
589	0.164
590	0.164
590	0.163
590	0.163
591	0.163
591	0.162
592	0.161
592	0.16
593	0.159
593	0.159
594	0.158
594	0.157
594	0.156
595	0.155
595	0.154
596	0.153
596	0.153
597	0.153
597	0.153
598	0.152
598	0.152
598	0.151
599	0.151
599	0.15
600	0.149
600	0.148
601	0.148
601	0.147
602	0.146
602	0.146
602	0.145
603	0.144
603	0.144
604	0.144
604	0.143
605	0.143
605	0.143
606	0.142
606	0.141
606	0.141
607	0.14
607	0.14
608	0.14
608	0.139
609	0.138
609	0.138
610	0.137
610	0.136
610	0.136
611	0.136
611	0.135
612	0.135
612	0.135
613	0.135
613	0.135
614	0.134
614	0.134
614	0.134
615	0.134
615	0.133
616	0.133
616	0.132
617	0.132
617	0.131
618	0.131
618	0.131
618	0.131
619	0.131
619	0.131
620	0.131
620	0.131
621	0.13
621	0.129
622	0.129
622	0.128
622	0.127
623	0.126
623	0.126
624	0.125
624	0.124
625	0.124
625	0.123
626	0.123
626	0.122
626	0.122
627	0.122
627	0.122
628	0.121
628	0.121
629	0.121
629	0.12
630	0.12
630	0.12
630	0.12
631	0.12
631	0.119
632	0.119
632	0.119
633	0.119
633	0.119
634	0.119
634	0.119
634	0.119
635	0.118
635	0.118
636	0.118
636	0.118
637	0.118
637	0.117
638	0.117
638	0.117
638	0.116
639	0.116
639	0.116
640	0.116
640	0.115
641	0.115
641	0.114
642	0.114
642	0.114
642	0.114
643	0.114
643	0.114
644	0.114
644	0.113
645	0.113
645	0.113
646	0.113
646	0.112
646	0.112
647	0.112
647	0.111
648	0.111
648	0.11
649	0.11
649	0.109
650	0.109
650	0.109
650	0.109
651	0.109
651	0.109
652	0.108
652	0.108
653	0.109
653	0.11
653	0.116
654	0.093
654	0.076
655	0.074
655	0.074
656	0.074
656	0.075
657	0.075
657	0.075
657	0.076
658	0.075
658	0.067
659	0.083
659	0.105
660	0.111
660	0.111
661	0.111
661	0.11
661	0.11
662	0.11
662	0.109
663	0.108
663	0.108
664	0.108
664	0.107
665	0.107
665	0.107
665	0.107
666	0.107
666	0.107
667	0.107
667	0.107
668	0.108
668	0.108
669	0.108
669	0.108
669	0.109
670	0.109
670	0.108
671	0.108
671	0.108
672	0.107
672	0.106
672	0.106
673	0.105
673	0.105
674	0.105
674	0.104
675	0.104
675	0.104
676	0.104
676	0.104
676	0.104
677	0.104
677	0.104
678	0.104
678	0.103
679	0.103
679	0.103
680	0.103
680	0.103
680	0.102
681	0.102
681	0.103
682	0.103
682	0.103
683	0.103
683	0.104
684	0.104
684	0.104
684	0.104
685	0.104
685	0.104
686	0.104
686	0.104
687	0.104
687	0.103
687	0.103
688	0.103
688	0.102
689	0.103
689	0.103
690	0.103
690	0.102
691	0.102
691	0.102
691	0.102
692	0.102
692	0.103
693	0.103
693	0.103
694	0.103
694	0.103
695	0.104
695	0.105
695	0.105
696	0.105
696	0.105
697	0.105
697	0.105
698	0.104
698	0.104
698	0.104
699	0.104
699	0.104
700	0.103
700	0.103
701	0.103
701	0.103
702	0.103
702	0.103
702	0.103
703	0.102
703	0.102
704	0.102
704	0.101
705	0.101
705	0.101
705	0.101
706	0.101
706	0.101
707	0.101
707	0.101
708	0.101
708	0.101
709	0.101
709	0.101
709	0.101
710	0.101
710	0.101
711	0.101
711	0.101
712	0.101
712	0.101
713	0.1
713	0.1
713	0.1
714	0.099
714	0.099
715	0.098
715	0.097
716	0.097
716	0.096
716	0.096
717	0.095
717	0.095
718	0.095
718	0.094
719	0.095
719	0.095
720	0.096
720	0.096
720	0.097
721	0.097
721	0.098
722	0.099
722	0.099
723	0.099
723	0.099
723	0.099
724	0.098
724	0.097
725	0.096
725	0.096
726	0.095
726	0.094
727	0.094
727	0.093
727	0.093
728	0.093
728	0.093
729	0.093
729	0.093
730	0.093
730	0.093
730	0.094
731	0.095
731	0.095
732	0.096
732	0.096
733	0.097
733	0.097
734	0.098
734	0.098
734	0.098
735	0.098
735	0.098
736	0.097
736	0.096
737	0.096
737	0.096
737	0.095
738	0.094
738	0.093
739	0.093
739	0.092
740	0.092
740	0.092
741	0.092
741	0.092
741	0.092
742	0.092
742	0.093
743	0.094
743	0.094
744	0.095
744	0.095
744	0.095
745	0.095
745	0.095
746	0.095
746	0.095
747	0.095
747	0.094
748	0.094
748	0.094
748	0.093
749	0.093
749	0.093
750	0.093
750	0.092
751	0.092
751	0.092
751	0.092
752	0.092
752	0.091
753	0.091
753	0.09
754	0.09
754	0.089
754	0.09
755	0.09
755	0.09
756	0.09
756	0.089
757	0.088
757	0.089
758	0.089
758	0.089
758	0.089
759	0.09
759	0.089
760	0.089
760	0.089
761	0.089
761	0.089
761	0.089
762	0.089
762	0.089
763	0.089
763	0.088
764	0.087
764	0.087
764	0.087
765	0.086
765	0.086
766	0.086
766	0.085
767	0.085
767	0.084
768	0.083
768	0.084
768	0.084
769	0.084
769	0.084
770	0.085
770	0.086
771	0.086
771	0.087
771	0.088
772	0.089
772	0.09
773	0.091
773	0.091
774	0.091
774	0.091
775	0.091
775	0.091
775	0.091
776	0.091
776	0.091
777	0.091
777	0.091
778	0.09
778	0.09
778	0.09
779	0.09
779	0.089
780	0.088
780	0.087
781	0.087
781	0.086
781	0.086
782	0.085
782	0.085
783	0.085
783	0.085
784	0.085
784	0.085
784	0.085
785	0.085
785	0.085
786	0.085
786	0.085
787	0.085
787	0.085
788	0.084
788	0.083
788	0.082
789	0.081
789	0.081
790	0.081
790	0.08
791	0.08
791	0.079
791	0.079
792	0.08
792	0.079
793	0.079
793	0.079
794	0.079
794	0.078
794	0.078
795	0.078
795	0.078
796	0.078
796	0.078
797	0.077
797	0.077
797	0.078
798	0.078
798	0.078
799	0.079
799	0.079
800	0.078
800	0.078
801	0.078
801	0.078
801	0.077
802	0.078
802	0.078
803	0.078
803	0.078
804	0.078
804	0.078
804	0.078
805	0.078
805	0.078
806	0.077
806	0.077
807	0.077
807	0.076
807	0.076
808	0.076
808	0.076
809	0.075
809	0.075
810	0.076
810	0.076
810	0.076
811	0.076
811	0.076
812	0.077
812	0.076
813	0.076
813	0.076
813	0.076
814	0.076
814	0.077
815	0.077
815	0.076
816	0.076
816	0.075
817	0.075
817	0.074
817	0.074
818	0.074
818	0.074
819	0.074
819	0.073
820	0.073
820	0.073
820	0.073
821	0.073
821	0.073
822	0.073
822	0.073
823	0.073
823	0.073
823	0.073
824	0.074
824	0.074
825	0.075
825	0.075
826	0.076
826	0.075
826	0.076
827	0.076
827	0.076
828	0.076
828	0.076
829	0.077
829	0.077
829	0.077
830	0.077
830	0.077
831	0.078
831	0.078
832	0.078
832	0.078
832	0.078
833	0.078
833	0.077
834	0.077
834	0.076
835	0.076
835	0.075
835	0.075
836	0.074
836	0.074
837	0.073
837	0.073
838	0.073
838	0.072
839	0.071
839	0.071
839	0.07
840	0.069
840	0.068
841	0.067
841	0.066
842	0.066
842	0.065
842	0.064
843	0.063
843	0.063
844	0.062
844	0.062
845	0.061
845	0.061
845	0.06
846	0.06
846	0.06
847	0.06
847	0.06
848	0.061
848	0.061
848	0.062
849	0.062
849	0.063
850	0.064
850	0.064
851	0.065
851	0.065
851	0.065
852	0.065
852	0.065
853	0.065
853	0.065
854	0.065
854	0.065
854	0.065
855	0.065
855	0.065
856	0.065
856	0.066
857	0.066
857	0.067
857	0.067
858	0.067
858	0.067
859	0.067
859	0.066
860	0.066
860	0.066
860	0.065
861	0.065
861	0.064
862	0.063
862	0.063
863	0.062
863	0.061
863	0.061
864	0.061
864	0.061
865	0.061
865	0.06
866	0.06
866	0.06
866	0.06
867	0.061
867	0.062
868	0.062
868	0.062
869	0.063
869	0.063
869	0.062
870	0.062
870	0.062
871	0.062
871	0.062
872	0.061
872	0.061
872	0.06
873	0.059
873	0.059
874	0.058
874	0.058
875	0.057
875	0.057
875	0.057
876	0.057
876	0.057
877	0.057
877	0.057
878	0.057
878	0.058
878	0.058
879	0.058
879	0.058
880	0.058
880	0.058
881	0.058
881	0.059
881	0.059
882	0.059
882	0.059
883	0.059
883	0.059
884	0.059
884	0.059
884	0.059
885	0.059
885	0.059
886	0.059
886	0.058
887	0.058
887	0.057
887	0.056
888	0.055
888	0.054
889	0.054
889	0.053
890	0.053
890	0.053
890	0.052
891	0.052
891	0.052
892	0.052
892	0.052
893	0.052
893	0.052
893	0.052
894	0.051
894	0.051
895	0.051
895	0.051
895	0.051
896	0.052
896	0.052
897	0.053
897	0.053
898	0.053
898	0.054
898	0.054
899	0.054
899	0.055
900	0.055
900	0.055
901	0.054
901	0.054
901	0.054
902	0.054
902	0.054
903	0.053
903	0.053
904	0.053
904	0.053
904	0.053
905	0.052
905	0.052
906	0.052
906	0.052
907	0.052
907	0.052
907	0.052
908	0.052
908	0.052
909	0.052
909	0.052
910	0.052
910	0.052
910	0.052
911	0.051
911	0.05
912	0.05
912	0.05
913	0.05
913	0.049
913	0.049
914	0.049
914	0.049
915	0.05
915	0.05
916	0.05
916	0.05
916	0.05
917	0.05
917	0.05
918	0.049
918	0.049
918	0.048
919	0.048
919	0.047
920	0.047
920	0.046
921	0.046
921	0.045
921	0.045
922	0.045
922	0.045
923	0.045
923	0.045
924	0.046
924	0.046
924	0.047
925	0.048
925	0.049
926	0.05
926	0.05
927	0.051
927	0.052
927	0.052
928	0.052
928	0.052
929	0.052
929	0.052
930	0.052
930	0.052
930	0.052
931	0.052
931	0.052
932	0.052
932	0.052
933	0.052
933	0.052
933	0.052
934	0.052
934	0.052
935	0.051
935	0.051
935	0.051
936	0.05
936	0.05
937	0.049
937	0.049
938	0.048
938	0.048
938	0.047
939	0.047
939	0.047
940	0.046
940	0.047
941	0.047
941	0.047
941	0.047
942	0.047
942	0.048
943	0.048
943	0.048
944	0.048
944	0.048
944	0.048
945	0.048
945	0.048
946	0.049
946	0.049
946	0.049
947	0.049
947	0.048
948	0.048
948	0.048
949	0.048
949	0.048
949	0.047
950	0.047
950	0.047
951	0.047
951	0.047
952	0.046
952	0.046
952	0.046
953	0.046
953	0.046
954	0.046
954	0.046
955	0.046
955	0.046
955	0.046
956	0.046
956	0.047
957	0.047
957	0.047
957	0.047
958	0.047
958	0.047
959	0.047
959	0.047
960	0.046
960	0.046
960	0.046
961	0.046
961	0.046
962	0.046
962	0.046
963	0.046
963	0.046
963	0.046
964	0.046
964	0.047
965	0.047
965	0.047
966	0.048
966	0.048
966	0.048
967	0.048
967	0.048
968	0.048
968	0.048
968	0.048
969	0.047
969	0.047
970	0.046
970	0.045
971	0.045
971	0.044
971	0.044
972	0.043
972	0.043
973	0.042
973	0.042
974	0.042
974	0.042
974	0.042
975	0.043
975	0.043
976	0.044
976	0.045
976	0.045
977	0.046
977	0.046
978	0.046
978	0.046
979	0.046
979	0.045
979	0.045
980	0.045
980	0.044
981	0.043
981	0.042
982	0.042
982	0.041
982	0.041
983	0.041
983	0.041
984	0.041
984	0.041
984	0.041
985	0.042
985	0.042
986	0.043
986	0.043
987	0.043
987	0.044
987	0.044
988	0.044
988	0.044
989	0.044
989	0.043
990	0.043
990	0.043
990	0.042
991	0.042
991	0.042
992	0.041
992	0.04
992	0.039
993	0.039
993	0.038
994	0.037
994	0.036
995	0.035
995	0.035
995	0.034
996	0.034
996	0.034
997	0.034
997	0.035
997	0.035
998	0.036
998	0.036
999	0.037
999	0.038
1000	0.039
1000	0.039
1000	0.04
1001	0.04
1001	0.04
1002	0.04
1002	0.039
1003	0.039
1003	0.038
1003	0.037
1004	0.036
1004	0.035
1005	0.034
1005	0.033
1005	0.032
1006	0.031
1006	0.03
1007	0.03
1007	0.029
1008	0.029
1008	0.029
1008	0.03
1009	0.03
1009	0.03
1010	0.031
1010	0.031
1010	0.031
1011	0.032
1011	0.032
1012	0.032
1012	0.032
1013	0.032
1013	0.031
1013	0.031
1014	0.031
1014	0.031
1015	0.03
1015	0.03
1016	0.03
1016	0.03
1016	0.031
1017	0.031
1017	0.031
1018	0.031
1018	0.032
1018	0.032
1019	0.033
1019	0.033
1020	0.034
1020	0.035
1021	0.035
1021	0.036
1021	0.036
1022	0.037
1022	0.037
1023	0.037
1023	0.037
1023	0.038
1024	0.038
1024	0.038
1025	0.038
1025	0.038
1026	0.038
1026	0.037
1026	0.037
1027	0.037
1027	0.037
1028	0.037
1028	0.037
1028	0.037
1029	0.037
1029	0.036
1030	0.036
1030	0.036
1031	0.037
1031	0.037
1031	0.037
1032	0.037
1032	0.037
1033	0.038
1033	0.038
1033	0.038
1034	0.038
1034	0.038
1035	0.038
1035	0.038
1036	0.038
1036	0.039
1036	0.039
1037	0.039
1037	0.038
1038	0.038
1038	0.038
1039	0.038
1039	0.038
1039	0.038
1040	0.038
1040	0.038
1041	0.038
1041	0.037
1041	0.037
1042	0.037
1042	0.037
1043	0.037
1043	0.036
1044	0.036
1044	0.036
1044	0.036
1045	0.036
1045	0.036
1046	0.037
1046	0.037
1046	0.037
1047	0.037
1047	0.037
1048	0.038
1048	0.038
1049	0.038
1049	0.039
1049	0.039
1050	0.039
1050	0.038
1051	0.038
1051	0.038
1051	0.038
1052	0.037
1052	0.037
1053	0.036
1053	0.035
1053	0.035
1054	0.034
1054	0.034
1055	0.034
1055	0.033
1056	0.033
1056	0.032
1056	0.032
1057	0.031
1057	0.031
1058	0.031
1058	0.03
1058	0.029
1059	0.029
1059	0.028
1060	0.028
1060	0.027
1061	0.027
1061	0.027
1061	0.027
1062	0.026
1062	0.026
1063	0.026
1063	0.026
1063	0.026
1064	0.026
1064	0.025
1065	0.025
1065	0.025
1066	0.025
1066	0.025
1066	0.025
1067	0.025
1067	0.025
1068	0.025
1068	0.025
1068	0.024
1069	0.024
1069	0.024
1070	0.024
1070	0.024
1071	0.023
1071	0.023
1071	0.023
1072	0.023
1072	0.022
1073	0.022
1073	0.022
1073	0.022
1074	0.023
1074	0.023
1075	0.023
1075	0.023
1076	0.023
1076	0.024
1076	0.024
1077	0.024
1077	0.025
1078	0.025
1078	0.025
1078	0.025
1079	0.025
1079	0.025
1080	0.024
1080	0.024
1080	0.024
1081	0.024
1081	0.024
1082	0.025
1082	0.025
1083	0.025
1083	0.025
1083	0.025
1084	0.025
1084	0.025
1085	0.025
1085	0.026
1085	0.026
1086	0.026
1086	0.025
1087	0.026
1087	0.026
1088	0.026
1088	0.026
1088	0.026
1089	0.026
1089	0.026
1090	0.025
1090	0.024
1090	0.024
1091	0.023
1091	0.023
1092	0.023
1092	0.022
1092	0.022
1093	0.021
1093	0.021
1094	0.021
1094	0.021
1095	0.02
1095	0.019
1095	0.019
1096	0.018
1096	0.017
1097	0.017
1097	0.016
1097	0.016
1098	0.016
1098	0.015
1099	0.014
1099	0.013
1100	0.013
1100	0.012
1100	0.011
1101	0.009
1101	0.009
1102	0.008
1102	0.007
1102	0.005
1103	0.004
1103	0.003
1104	0.002
1104	0.002
1104	0.001
1105	-0
1105	-0.002
1106	-0.004
1106	-0.006
1107	-0.007
1107	-0.007
1107	-0.009
1108	-0.009
1108	-0.011
1109	-0.012
1109	-0.014
1109	-0.014
1110	-0.012
1110	-0.012
1111	-0.011
1111	-0.016
