Data from reversibility-20sec_Absorbance__3235__000000000003235.txt Node

Date: Wed Dec 06 06:11:25 CET 2023
User: Marek
Spectrometer: MAYP115816
Trigger mode: 0
Integration Time (sec): 2.000000E-1
Scans to average: 10
Electric dark correction enabled: true
Nonlinearity correction enabled: true
Boxcar width: 5
XAxis mode: Wavelengths
Number of Pixels in Spectrum: 2068
>>>>>Begin Spectral Data<<<<<
199	-0.09
199	-0.073
200	-0.001
200	0.049
201	0.081
201	0.101
202	0.109
202	0.122
203	0.127
203	0.13
204	0.142
204	0.158
205	0.174
205	0.179
205	0.178
206	0.176
206	0.175
207	0.178
207	0.176
208	0.176
208	0.176
209	0.178
209	0.175
210	0.174
210	0.175
211	0.174
211	0.177
212	0.174
212	0.174
213	0.177
213	0.181
213	0.181
214	0.184
214	0.185
215	0.187
215	0.185
216	0.189
216	0.187
217	0.189
217	0.193
218	0.192
218	0.195
219	0.199
219	0.199
220	0.202
220	0.199
221	0.202
221	0.204
221	0.209
222	0.215
222	0.218
223	0.224
223	0.229
224	0.236
224	0.246
225	0.256
225	0.27
226	0.277
226	0.287
227	0.297
227	0.303
228	0.318
228	0.332
229	0.344
229	0.367
229	0.386
230	0.412
230	0.437
231	0.47
231	0.508
232	0.545
232	0.593
233	0.635
233	0.684
234	0.736
234	0.786
235	0.844
235	0.895
236	0.947
236	1
236	1.054
237	1.109
237	1.155
238	1.204
238	1.249
239	1.296
239	1.337
240	1.376
240	1.415
241	1.452
241	1.487
242	1.517
242	1.548
243	1.583
243	1.608
243	1.635
244	1.655
244	1.678
245	1.697
245	1.72
246	1.739
246	1.755
247	1.767
247	1.78
248	1.79
248	1.806
249	1.816
249	1.824
250	1.831
250	1.838
250	1.837
251	1.84
251	1.843
252	1.846
252	1.845
253	1.844
253	1.838
254	1.835
254	1.835
255	1.83
255	1.828
256	1.829
256	1.826
257	1.825
257	1.823
258	1.825
258	1.824
258	1.825
259	1.826
259	1.826
260	1.826
260	1.827
261	1.827
261	1.831
262	1.833
262	1.836
263	1.836
263	1.837
264	1.839
264	1.84
265	1.841
265	1.844
265	1.844
266	1.845
266	1.844
267	1.843
267	1.844
268	1.845
268	1.846
269	1.849
269	1.847
270	1.847
270	1.845
271	1.843
271	1.842
272	1.839
272	1.836
272	1.832
273	1.824
273	1.816
274	1.808
274	1.801
275	1.793
275	1.784
276	1.776
276	1.767
277	1.759
277	1.747
278	1.735
278	1.722
278	1.706
279	1.687
279	1.664
280	1.636
280	1.602
281	1.564
281	1.521
282	1.476
282	1.431
283	1.388
283	1.345
284	1.305
284	1.266
285	1.23
285	1.197
285	1.168
286	1.142
286	1.12
287	1.101
287	1.085
288	1.071
288	1.059
289	1.049
289	1.04
290	1.033
290	1.027
291	1.021
291	1.016
292	1.012
292	1.008
292	1.004
293	1.001
293	0.998
294	0.995
294	0.992
295	0.99
295	0.987
296	0.985
296	0.982
297	0.98
297	0.977
298	0.974
298	0.972
298	0.969
299	0.967
299	0.965
300	0.962
300	0.96
301	0.957
301	0.955
302	0.953
302	0.951
303	0.949
303	0.947
304	0.945
304	0.943
305	0.941
305	0.939
305	0.937
306	0.935
306	0.933
307	0.931
307	0.928
308	0.926
308	0.923
309	0.921
309	0.918
310	0.916
310	0.913
311	0.91
311	0.906
311	0.903
312	0.9
312	0.897
313	0.894
313	0.89
314	0.887
314	0.883
315	0.879
315	0.875
316	0.871
316	0.866
317	0.862
317	0.857
318	0.852
318	0.847
318	0.842
319	0.837
319	0.831
320	0.826
320	0.821
321	0.815
321	0.809
322	0.803
322	0.797
323	0.791
323	0.784
324	0.778
324	0.772
324	0.766
325	0.759
325	0.752
326	0.746
326	0.739
327	0.732
327	0.726
328	0.719
328	0.712
329	0.705
329	0.698
330	0.691
330	0.684
330	0.677
331	0.67
331	0.664
332	0.657
332	0.65
333	0.643
333	0.636
334	0.629
334	0.623
335	0.616
335	0.609
336	0.603
336	0.596
336	0.59
337	0.584
337	0.578
338	0.571
338	0.565
339	0.56
339	0.554
340	0.548
340	0.542
341	0.537
341	0.532
342	0.526
342	0.521
342	0.516
343	0.511
343	0.506
344	0.501
344	0.496
345	0.491
345	0.487
346	0.482
346	0.478
347	0.473
347	0.469
348	0.465
348	0.461
348	0.458
349	0.454
349	0.45
350	0.447
350	0.443
351	0.44
351	0.437
352	0.434
352	0.431
353	0.428
353	0.426
354	0.423
354	0.42
354	0.417
355	0.414
355	0.411
356	0.408
356	0.405
357	0.402
357	0.399
358	0.397
358	0.394
359	0.392
359	0.39
360	0.388
360	0.386
360	0.384
361	0.383
361	0.381
362	0.379
362	0.378
363	0.376
363	0.374
364	0.372
364	0.371
365	0.369
365	0.367
366	0.365
366	0.363
366	0.362
367	0.36
367	0.358
368	0.357
368	0.355
369	0.354
369	0.353
370	0.352
370	0.35
371	0.349
371	0.348
372	0.346
372	0.345
372	0.344
373	0.343
373	0.342
374	0.341
374	0.34
375	0.339
375	0.338
376	0.337
376	0.336
377	0.335
377	0.334
378	0.333
378	0.332
378	0.331
379	0.33
379	0.33
380	0.329
380	0.328
381	0.327
381	0.327
382	0.326
382	0.326
383	0.325
383	0.325
383	0.324
384	0.324
384	0.323
385	0.323
385	0.322
386	0.322
386	0.322
387	0.321
387	0.321
388	0.32
388	0.319
389	0.319
389	0.319
389	0.318
390	0.318
390	0.317
391	0.317
391	0.317
392	0.316
392	0.316
393	0.316
393	0.315
394	0.315
394	0.314
394	0.314
395	0.314
395	0.313
396	0.313
396	0.313
397	0.312
397	0.312
398	0.312
398	0.311
399	0.311
399	0.31
400	0.31
400	0.31
400	0.31
401	0.309
401	0.309
402	0.309
402	0.308
403	0.308
403	0.307
404	0.307
404	0.307
405	0.307
405	0.306
405	0.306
406	0.306
406	0.305
407	0.305
407	0.305
408	0.305
408	0.305
409	0.304
409	0.304
410	0.304
410	0.303
411	0.303
411	0.303
411	0.303
412	0.303
412	0.302
413	0.302
413	0.302
414	0.301
414	0.301
415	0.301
415	0.3
416	0.3
416	0.3
416	0.299
417	0.299
417	0.299
418	0.298
418	0.298
419	0.298
419	0.297
420	0.297
420	0.297
421	0.296
421	0.296
421	0.296
422	0.295
422	0.295
423	0.294
423	0.294
424	0.294
424	0.293
425	0.293
425	0.292
426	0.292
426	0.292
427	0.291
427	0.291
427	0.291
428	0.291
428	0.29
429	0.29
429	0.29
430	0.29
430	0.29
431	0.289
431	0.289
432	0.289
432	0.289
432	0.289
433	0.289
433	0.288
434	0.288
434	0.288
435	0.288
435	0.288
436	0.287
436	0.287
437	0.287
437	0.286
437	0.286
438	0.286
438	0.286
439	0.286
439	0.285
440	0.285
440	0.284
441	0.284
441	0.284
442	0.284
442	0.283
442	0.283
443	0.283
443	0.283
444	0.283
444	0.282
445	0.282
445	0.282
446	0.282
446	0.282
447	0.281
447	0.281
447	0.281
448	0.281
448	0.281
449	0.281
449	0.28
450	0.28
450	0.28
451	0.28
451	0.28
452	0.28
452	0.28
452	0.28
453	0.279
453	0.279
454	0.279
454	0.279
455	0.278
455	0.278
456	0.278
456	0.277
457	0.277
457	0.277
458	0.276
458	0.276
458	0.276
459	0.276
459	0.276
460	0.276
460	0.276
461	0.276
461	0.276
462	0.276
462	0.276
463	0.276
463	0.275
463	0.275
464	0.275
464	0.274
465	0.274
465	0.273
466	0.273
466	0.273
467	0.273
467	0.273
467	0.273
468	0.273
468	0.273
469	0.274
469	0.274
470	0.274
470	0.274
471	0.274
471	0.274
472	0.274
472	0.274
472	0.273
473	0.273
473	0.273
474	0.273
474	0.273
475	0.273
475	0.273
476	0.273
476	0.273
477	0.273
477	0.273
477	0.273
478	0.273
478	0.273
479	0.273
479	0.273
480	0.273
480	0.273
481	0.273
481	0.273
482	0.274
482	0.274
482	0.274
483	0.275
483	0.275
484	0.275
484	0.275
485	0.275
485	0.275
486	0.275
486	0.276
487	0.276
487	0.276
487	0.276
488	0.276
488	0.277
489	0.277
489	0.278
490	0.278
490	0.278
491	0.279
491	0.28
492	0.28
492	0.281
492	0.281
493	0.282
493	0.282
494	0.283
494	0.283
495	0.284
495	0.284
496	0.285
496	0.285
496	0.286
497	0.286
497	0.287
498	0.287
498	0.288
499	0.288
499	0.289
500	0.289
500	0.29
501	0.291
501	0.291
501	0.291
502	0.292
502	0.292
503	0.293
503	0.293
504	0.294
504	0.294
505	0.295
505	0.295
506	0.295
506	0.295
506	0.296
507	0.297
507	0.297
508	0.298
508	0.299
509	0.299
509	0.3
510	0.3
510	0.301
511	0.302
511	0.303
511	0.303
512	0.304
512	0.304
513	0.304
513	0.305
514	0.305
514	0.306
515	0.306
515	0.306
515	0.307
516	0.307
516	0.308
517	0.308
517	0.308
518	0.309
518	0.309
519	0.309
519	0.31
520	0.31
520	0.31
520	0.311
521	0.311
521	0.311
522	0.312
522	0.312
523	0.313
523	0.313
524	0.313
524	0.313
524	0.313
525	0.313
525	0.313
526	0.313
526	0.313
527	0.313
527	0.313
528	0.313
528	0.313
529	0.313
529	0.313
529	0.313
530	0.313
530	0.313
531	0.313
531	0.313
532	0.313
532	0.312
533	0.312
533	0.312
533	0.311
534	0.311
534	0.311
535	0.31
535	0.31
536	0.31
536	0.309
537	0.309
537	0.308
538	0.308
538	0.307
538	0.307
539	0.307
539	0.307
540	0.306
540	0.306
541	0.306
541	0.306
542	0.305
542	0.305
542	0.305
543	0.305
543	0.305
544	0.304
544	0.303
545	0.303
545	0.303
546	0.303
546	0.302
547	0.301
547	0.301
547	0.3
548	0.3
548	0.299
549	0.299
549	0.299
550	0.298
550	0.298
551	0.297
551	0.296
551	0.296
552	0.295
552	0.295
553	0.294
553	0.294
554	0.294
554	0.293
555	0.292
555	0.292
556	0.291
556	0.291
556	0.291
557	0.29
557	0.29
558	0.29
558	0.289
559	0.289
559	0.289
560	0.288
560	0.288
560	0.287
561	0.287
561	0.287
562	0.286
562	0.285
563	0.284
563	0.283
564	0.282
564	0.282
564	0.281
565	0.28
565	0.28
566	0.279
566	0.279
567	0.279
567	0.278
568	0.278
568	0.278
568	0.277
569	0.277
569	0.276
570	0.275
570	0.275
571	0.274
571	0.274
572	0.273
572	0.273
573	0.272
573	0.272
573	0.272
574	0.271
574	0.271
575	0.271
575	0.271
576	0.27
576	0.27
577	0.269
577	0.269
577	0.269
578	0.268
578	0.268
579	0.267
579	0.267
580	0.267
580	0.266
581	0.265
581	0.265
581	0.265
582	0.265
582	0.264
583	0.264
583	0.264
584	0.263
584	0.262
585	0.262
585	0.261
585	0.261
586	0.26
586	0.26
587	0.259
587	0.259
588	0.258
588	0.258
589	0.257
589	0.257
590	0.257
590	0.257
590	0.257
591	0.257
591	0.256
592	0.255
592	0.255
593	0.254
593	0.254
594	0.253
594	0.252
594	0.252
595	0.251
595	0.25
596	0.25
596	0.25
597	0.251
597	0.251
598	0.251
598	0.251
598	0.251
599	0.251
599	0.251
600	0.251
600	0.25
601	0.25
601	0.25
602	0.249
602	0.248
602	0.248
603	0.248
603	0.248
604	0.247
604	0.247
605	0.247
605	0.247
606	0.246
606	0.246
606	0.245
607	0.245
607	0.244
608	0.244
608	0.243
609	0.242
609	0.242
610	0.241
610	0.241
610	0.241
611	0.241
611	0.241
612	0.241
612	0.241
613	0.241
613	0.241
614	0.241
614	0.241
614	0.241
615	0.241
615	0.241
616	0.241
616	0.24
617	0.24
617	0.24
618	0.24
618	0.24
618	0.24
619	0.24
619	0.24
620	0.24
620	0.239
621	0.239
621	0.239
622	0.238
622	0.237
622	0.237
623	0.236
623	0.236
624	0.235
624	0.235
625	0.235
625	0.235
626	0.234
626	0.234
626	0.234
627	0.235
627	0.234
628	0.234
628	0.234
629	0.234
629	0.234
630	0.234
630	0.234
630	0.234
631	0.234
631	0.233
632	0.233
632	0.233
633	0.233
633	0.233
634	0.234
634	0.234
634	0.234
635	0.233
635	0.233
636	0.233
636	0.233
637	0.232
637	0.232
638	0.231
638	0.231
638	0.23
639	0.23
639	0.229
640	0.229
640	0.229
641	0.229
641	0.229
642	0.229
642	0.229
642	0.229
643	0.229
643	0.229
644	0.23
644	0.23
645	0.23
645	0.23
646	0.23
646	0.231
646	0.231
647	0.231
647	0.231
648	0.23
648	0.23
649	0.23
649	0.229
650	0.229
650	0.229
650	0.229
651	0.229
651	0.228
652	0.228
652	0.228
653	0.229
653	0.23
653	0.236
654	0.183
654	0.145
655	0.148
655	0.149
656	0.149
656	0.149
657	0.15
657	0.15
657	0.15
658	0.149
658	0.138
659	0.175
659	0.227
660	0.23
660	0.23
661	0.229
661	0.228
661	0.228
662	0.227
662	0.227
663	0.226
663	0.226
664	0.226
664	0.226
665	0.226
665	0.226
665	0.226
666	0.226
666	0.226
667	0.227
667	0.227
668	0.228
668	0.228
669	0.228
669	0.229
669	0.229
670	0.23
670	0.23
671	0.23
671	0.23
672	0.229
672	0.229
672	0.228
673	0.228
673	0.228
674	0.227
674	0.227
675	0.226
675	0.226
676	0.226
676	0.226
676	0.227
677	0.227
677	0.227
678	0.227
678	0.227
679	0.227
679	0.227
680	0.227
680	0.227
680	0.227
681	0.227
681	0.228
682	0.228
682	0.228
683	0.228
683	0.229
684	0.229
684	0.229
684	0.229
685	0.229
685	0.229
686	0.229
686	0.229
687	0.229
687	0.229
687	0.23
688	0.23
688	0.23
689	0.231
689	0.232
690	0.232
690	0.232
691	0.232
691	0.232
691	0.232
692	0.232
692	0.232
693	0.233
693	0.233
694	0.232
694	0.232
695	0.233
695	0.234
695	0.234
696	0.234
696	0.234
697	0.234
697	0.234
698	0.234
698	0.234
698	0.234
699	0.234
699	0.234
700	0.233
700	0.233
701	0.233
701	0.232
702	0.232
702	0.232
702	0.232
703	0.231
703	0.231
704	0.231
704	0.231
705	0.231
705	0.231
705	0.231
706	0.231
706	0.232
707	0.232
707	0.232
708	0.232
708	0.232
709	0.232
709	0.232
709	0.232
710	0.232
710	0.232
711	0.232
711	0.232
712	0.232
712	0.232
713	0.233
713	0.233
713	0.233
714	0.234
714	0.234
715	0.234
715	0.234
716	0.233
716	0.233
716	0.233
717	0.232
717	0.232
718	0.231
718	0.231
719	0.231
719	0.232
720	0.232
720	0.233
720	0.233
721	0.234
721	0.234
722	0.235
722	0.235
723	0.235
723	0.236
723	0.236
724	0.235
724	0.235
725	0.234
725	0.233
726	0.233
726	0.232
727	0.232
727	0.232
727	0.232
728	0.231
728	0.231
729	0.232
729	0.232
730	0.233
730	0.233
730	0.234
731	0.235
731	0.235
732	0.236
732	0.236
733	0.236
733	0.237
734	0.237
734	0.237
734	0.237
735	0.237
735	0.237
736	0.236
736	0.236
737	0.236
737	0.236
737	0.235
738	0.235
738	0.234
739	0.234
739	0.234
740	0.233
740	0.234
741	0.234
741	0.234
741	0.234
742	0.234
742	0.235
743	0.235
743	0.236
744	0.236
744	0.237
744	0.237
745	0.237
745	0.237
746	0.237
746	0.237
747	0.237
747	0.237
748	0.238
748	0.238
748	0.238
749	0.238
749	0.239
750	0.239
750	0.239
751	0.24
751	0.24
751	0.24
752	0.239
752	0.239
753	0.239
753	0.238
754	0.238
754	0.237
754	0.237
755	0.237
755	0.237
756	0.236
756	0.235
757	0.235
757	0.235
758	0.235
758	0.235
758	0.236
759	0.236
759	0.236
760	0.236
760	0.236
761	0.236
761	0.237
761	0.237
762	0.237
762	0.238
763	0.238
763	0.238
764	0.238
764	0.238
764	0.238
765	0.238
765	0.238
766	0.238
766	0.238
767	0.237
767	0.237
768	0.236
768	0.236
768	0.236
769	0.236
769	0.237
770	0.237
770	0.237
771	0.238
771	0.238
771	0.238
772	0.238
772	0.239
773	0.239
773	0.239
774	0.24
774	0.24
775	0.241
775	0.241
775	0.241
776	0.241
776	0.242
777	0.242
777	0.242
778	0.242
778	0.242
778	0.242
779	0.241
779	0.241
780	0.24
780	0.24
781	0.239
781	0.239
781	0.239
782	0.239
782	0.239
783	0.239
783	0.24
784	0.24
784	0.24
784	0.24
785	0.241
785	0.241
786	0.241
786	0.241
787	0.241
787	0.241
788	0.24
788	0.24
788	0.24
789	0.239
789	0.24
790	0.24
790	0.24
791	0.24
791	0.24
791	0.24
792	0.241
792	0.242
793	0.242
793	0.242
794	0.242
794	0.242
794	0.242
795	0.242
795	0.242
796	0.243
796	0.243
797	0.242
797	0.242
797	0.242
798	0.242
798	0.242
799	0.242
799	0.242
800	0.242
800	0.241
801	0.241
801	0.241
801	0.241
802	0.241
802	0.242
803	0.242
803	0.242
804	0.242
804	0.243
804	0.243
805	0.244
805	0.244
806	0.244
806	0.244
807	0.244
807	0.244
807	0.244
808	0.244
808	0.244
809	0.244
809	0.244
810	0.244
810	0.244
810	0.244
811	0.244
811	0.244
812	0.245
812	0.245
813	0.245
813	0.246
813	0.246
814	0.247
814	0.247
815	0.248
815	0.248
816	0.248
816	0.248
817	0.247
817	0.247
817	0.246
818	0.246
818	0.245
819	0.245
819	0.244
820	0.244
820	0.243
820	0.243
821	0.243
821	0.244
822	0.244
822	0.245
823	0.245
823	0.245
823	0.246
824	0.248
824	0.249
825	0.25
825	0.251
826	0.252
826	0.252
826	0.252
827	0.253
827	0.253
828	0.253
828	0.253
829	0.252
829	0.252
829	0.252
830	0.252
830	0.252
831	0.253
831	0.253
832	0.253
832	0.253
832	0.253
833	0.254
833	0.254
834	0.254
834	0.253
835	0.253
835	0.253
835	0.252
836	0.252
836	0.252
837	0.251
837	0.251
838	0.25
838	0.249
839	0.249
839	0.248
839	0.248
840	0.247
840	0.246
841	0.246
841	0.245
842	0.245
842	0.245
842	0.245
843	0.245
843	0.245
844	0.245
844	0.245
845	0.245
845	0.245
845	0.246
846	0.246
846	0.246
847	0.247
847	0.247
848	0.247
848	0.247
848	0.246
849	0.246
849	0.246
850	0.245
850	0.244
851	0.244
851	0.243
851	0.243
852	0.242
852	0.241
853	0.241
853	0.241
854	0.241
854	0.242
854	0.242
855	0.243
855	0.244
856	0.245
856	0.246
857	0.246
857	0.247
857	0.248
858	0.248
858	0.247
859	0.247
859	0.246
860	0.245
860	0.244
860	0.243
861	0.242
861	0.241
862	0.24
862	0.239
863	0.238
863	0.238
863	0.238
864	0.238
864	0.238
865	0.238
865	0.238
866	0.238
866	0.238
866	0.238
867	0.238
867	0.238
868	0.238
868	0.238
869	0.238
869	0.238
869	0.237
870	0.236
870	0.236
871	0.236
871	0.236
872	0.236
872	0.236
872	0.236
873	0.235
873	0.235
874	0.234
874	0.234
875	0.234
875	0.233
875	0.233
876	0.232
876	0.232
877	0.231
877	0.231
878	0.231
878	0.231
878	0.231
879	0.232
879	0.232
880	0.232
880	0.232
881	0.233
881	0.233
881	0.233
882	0.233
882	0.233
883	0.232
883	0.232
884	0.232
884	0.232
884	0.232
885	0.232
885	0.231
886	0.231
886	0.231
887	0.23
887	0.23
887	0.229
888	0.229
888	0.228
889	0.228
889	0.228
890	0.227
890	0.227
890	0.227
891	0.226
891	0.226
892	0.225
892	0.225
893	0.224
893	0.224
893	0.223
894	0.223
894	0.222
895	0.222
895	0.221
895	0.221
896	0.221
896	0.22
897	0.22
897	0.219
898	0.218
898	0.218
898	0.217
899	0.217
899	0.217
900	0.217
900	0.216
901	0.216
901	0.216
901	0.216
902	0.217
902	0.217
903	0.217
903	0.216
904	0.216
904	0.216
904	0.216
905	0.216
905	0.216
906	0.216
906	0.216
907	0.217
907	0.217
907	0.217
908	0.218
908	0.218
909	0.219
909	0.219
910	0.219
910	0.219
910	0.219
911	0.218
911	0.218
912	0.217
912	0.217
913	0.216
913	0.216
913	0.216
914	0.215
914	0.215
915	0.214
915	0.214
916	0.214
916	0.214
916	0.214
917	0.213
917	0.213
918	0.213
918	0.212
918	0.212
919	0.211
919	0.21
920	0.21
920	0.209
921	0.208
921	0.208
921	0.207
922	0.207
922	0.206
923	0.206
923	0.206
924	0.207
924	0.207
924	0.207
925	0.208
925	0.208
926	0.208
926	0.208
927	0.208
927	0.208
927	0.207
928	0.207
928	0.206
929	0.206
929	0.205
930	0.205
930	0.204
930	0.204
931	0.204
931	0.204
932	0.204
932	0.204
933	0.204
933	0.203
933	0.203
934	0.203
934	0.202
935	0.202
935	0.202
935	0.201
936	0.201
936	0.2
937	0.2
937	0.199
938	0.199
938	0.198
938	0.198
939	0.197
939	0.196
940	0.195
940	0.195
941	0.194
941	0.194
941	0.193
942	0.193
942	0.192
943	0.192
943	0.191
944	0.191
944	0.191
944	0.191
945	0.19
945	0.19
946	0.19
946	0.19
946	0.19
947	0.19
947	0.19
948	0.19
948	0.19
949	0.191
949	0.191
949	0.19
950	0.19
950	0.19
951	0.19
951	0.189
952	0.188
952	0.187
952	0.186
953	0.185
953	0.184
954	0.183
954	0.182
955	0.181
955	0.18
955	0.179
956	0.179
956	0.178
957	0.178
957	0.178
957	0.178
958	0.178
958	0.178
959	0.178
959	0.178
960	0.178
960	0.178
960	0.177
961	0.177
961	0.177
962	0.177
962	0.176
963	0.176
963	0.176
963	0.175
964	0.175
964	0.175
965	0.175
965	0.175
966	0.175
966	0.175
966	0.175
967	0.176
967	0.176
968	0.176
968	0.176
968	0.176
969	0.176
969	0.176
970	0.176
970	0.175
971	0.175
971	0.175
971	0.174
972	0.174
972	0.173
973	0.173
973	0.172
974	0.172
974	0.172
974	0.172
975	0.172
975	0.172
976	0.172
976	0.172
976	0.172
977	0.172
977	0.172
978	0.172
978	0.172
979	0.172
979	0.172
979	0.172
980	0.172
980	0.171
981	0.171
981	0.17
982	0.17
982	0.169
982	0.169
983	0.169
983	0.168
984	0.168
984	0.167
984	0.167
985	0.166
985	0.166
986	0.165
986	0.165
987	0.164
987	0.164
987	0.163
988	0.163
988	0.162
989	0.162
989	0.161
990	0.16
990	0.16
990	0.159
991	0.159
991	0.158
992	0.158
992	0.157
992	0.156
993	0.156
993	0.155
994	0.155
994	0.154
995	0.154
995	0.153
995	0.153
996	0.153
996	0.153
997	0.154
997	0.154
997	0.155
998	0.155
998	0.156
999	0.157
999	0.157
1000	0.158
1000	0.159
1000	0.159
1001	0.159
1001	0.159
1002	0.159
1002	0.159
1003	0.158
1003	0.158
1003	0.157
1004	0.156
1004	0.155
1005	0.154
1005	0.153
1005	0.152
1006	0.151
1006	0.15
1007	0.15
1007	0.149
1008	0.149
1008	0.149
1008	0.149
1009	0.149
1009	0.149
1010	0.149
1010	0.149
1010	0.149
1011	0.149
1011	0.149
1012	0.148
1012	0.148
1013	0.148
1013	0.148
1013	0.148
1014	0.148
1014	0.148
1015	0.148
1015	0.148
1016	0.147
1016	0.147
1016	0.147
1017	0.146
1017	0.146
1018	0.146
1018	0.145
1018	0.145
1019	0.144
1019	0.144
1020	0.144
1020	0.144
1021	0.144
1021	0.144
1021	0.144
1022	0.144
1022	0.144
1023	0.144
1023	0.144
1023	0.144
1024	0.144
1024	0.144
1025	0.143
1025	0.143
1026	0.143
1026	0.142
1026	0.142
1027	0.141
1027	0.141
1028	0.141
1028	0.141
1028	0.14
1029	0.14
1029	0.14
1030	0.14
1030	0.14
1031	0.141
1031	0.141
1031	0.141
1032	0.141
1032	0.141
1033	0.141
1033	0.14
1033	0.14
1034	0.14
1034	0.139
1035	0.139
1035	0.139
1036	0.138
1036	0.138
1036	0.138
1037	0.137
1037	0.137
1038	0.137
1038	0.137
1039	0.137
1039	0.136
1039	0.137
1040	0.137
1040	0.137
1041	0.137
1041	0.137
1041	0.137
1042	0.137
1042	0.137
1043	0.137
1043	0.137
1044	0.138
1044	0.137
1044	0.138
1045	0.138
1045	0.138
1046	0.138
1046	0.138
1046	0.139
1047	0.139
1047	0.14
1048	0.14
1048	0.141
1049	0.141
1049	0.141
1049	0.142
1050	0.142
1050	0.142
1051	0.142
1051	0.141
1051	0.141
1052	0.141
1052	0.14
1053	0.139
1053	0.138
1053	0.137
1054	0.137
1054	0.136
1055	0.136
1055	0.135
1056	0.134
1056	0.133
1056	0.132
1057	0.132
1057	0.131
1058	0.13
1058	0.129
1058	0.128
1059	0.128
1059	0.127
1060	0.126
1060	0.125
1061	0.125
1061	0.124
1061	0.124
1062	0.124
1062	0.123
1063	0.123
1063	0.123
1063	0.123
1064	0.122
1064	0.122
1065	0.122
1065	0.122
1066	0.121
1066	0.121
1066	0.121
1067	0.12
1067	0.12
1068	0.12
1068	0.119
1068	0.119
1069	0.118
1069	0.118
1070	0.117
1070	0.117
1071	0.116
1071	0.116
1071	0.116
1072	0.115
1072	0.115
1073	0.114
1073	0.113
1073	0.113
1074	0.113
1074	0.113
1075	0.113
1075	0.113
1076	0.113
1076	0.114
1076	0.114
1077	0.114
1077	0.114
1078	0.114
1078	0.115
1078	0.115
1079	0.115
1079	0.114
1080	0.114
1080	0.113
1080	0.113
1081	0.113
1081	0.113
1082	0.113
1082	0.113
1083	0.113
1083	0.112
1083	0.112
1084	0.112
1084	0.112
1085	0.112
1085	0.112
1085	0.112
1086	0.111
1086	0.11
1087	0.109
1087	0.108
1088	0.108
1088	0.107
1088	0.108
1089	0.107
1089	0.106
1090	0.104
1090	0.103
1090	0.102
1091	0.102
1091	0.102
1092	0.102
1092	0.102
1092	0.101
1093	0.101
1093	0.101
1094	0.101
1094	0.101
1095	0.1
1095	0.1
1095	0.1
1096	0.1
1096	0.099
1097	0.099
1097	0.099
1097	0.098
1098	0.097
1098	0.096
1099	0.096
1099	0.095
1100	0.095
1100	0.094
1100	0.094
1101	0.092
1101	0.092
1102	0.092
1102	0.091
1102	0.09
1103	0.089
1103	0.09
1104	0.09
1104	0.089
1104	0.089
1105	0.087
1105	0.085
1106	0.084
1106	0.082
1107	0.082
1107	0.082
1107	0.081
1108	0.08
1108	0.078
1109	0.077
1109	0.075
1109	0.077
1110	0.079
1110	0.078
1111	0.078
1111	0.076
