Data from reversibility-20sec_Absorbance__2471__000000000002471.txt Node

Date: Wed Dec 06 01:56:46 CET 2023
User: Marek
Spectrometer: MAYP115816
Trigger mode: 0
Integration Time (sec): 2.000000E-1
Scans to average: 10
Electric dark correction enabled: true
Nonlinearity correction enabled: true
Boxcar width: 5
XAxis mode: Wavelengths
Number of Pixels in Spectrum: 2068
>>>>>Begin Spectral Data<<<<<
199	-0.114
199	-0.107
200	-0.034
200	0.02
201	0.048
201	0.062
202	0.077
202	0.087
203	0.095
203	0.1
204	0.111
204	0.123
205	0.14
205	0.145
205	0.141
206	0.143
206	0.141
207	0.144
207	0.14
208	0.139
208	0.136
209	0.14
209	0.138
210	0.137
210	0.138
211	0.141
211	0.142
212	0.142
212	0.145
213	0.151
213	0.152
213	0.154
214	0.154
214	0.157
215	0.16
215	0.158
216	0.157
216	0.155
217	0.161
217	0.159
218	0.158
218	0.16
219	0.165
219	0.166
220	0.167
220	0.166
221	0.166
221	0.17
221	0.175
222	0.18
222	0.184
223	0.19
223	0.193
224	0.195
224	0.204
225	0.214
225	0.224
226	0.234
226	0.242
227	0.253
227	0.262
228	0.277
228	0.291
229	0.307
229	0.332
229	0.355
230	0.38
230	0.409
231	0.443
231	0.485
232	0.52
232	0.563
233	0.608
233	0.655
234	0.709
234	0.761
235	0.814
235	0.865
236	0.918
236	0.972
236	1.023
237	1.078
237	1.129
238	1.178
238	1.229
239	1.28
239	1.323
240	1.366
240	1.406
241	1.445
241	1.484
242	1.517
242	1.555
243	1.59
243	1.62
243	1.645
244	1.67
244	1.694
245	1.716
245	1.741
246	1.765
246	1.784
247	1.8
247	1.813
248	1.829
248	1.845
249	1.857
249	1.868
250	1.877
250	1.886
250	1.889
251	1.891
251	1.894
252	1.9
252	1.902
253	1.901
253	1.896
254	1.898
254	1.895
255	1.895
255	1.894
256	1.897
256	1.897
257	1.898
257	1.896
258	1.897
258	1.901
258	1.903
259	1.904
259	1.907
260	1.908
260	1.912
261	1.914
261	1.918
262	1.922
262	1.928
263	1.933
263	1.935
264	1.94
264	1.942
265	1.945
265	1.949
265	1.952
266	1.951
266	1.954
267	1.954
267	1.955
268	1.957
268	1.961
269	1.965
269	1.965
270	1.967
270	1.966
271	1.965
271	1.968
272	1.963
272	1.96
272	1.954
273	1.944
273	1.931
274	1.919
274	1.91
275	1.9
275	1.891
276	1.882
276	1.871
277	1.864
277	1.853
278	1.841
278	1.829
278	1.812
279	1.791
279	1.763
280	1.727
280	1.686
281	1.639
281	1.587
282	1.535
282	1.484
283	1.434
283	1.387
284	1.343
284	1.3
285	1.261
285	1.226
285	1.196
286	1.168
286	1.145
287	1.125
287	1.108
288	1.093
288	1.081
289	1.071
289	1.062
290	1.055
290	1.049
291	1.043
291	1.039
292	1.035
292	1.031
292	1.027
293	1.024
293	1.021
294	1.018
294	1.016
295	1.013
295	1.01
296	1.008
296	1.005
297	1.002
297	0.999
298	0.997
298	0.994
298	0.991
299	0.989
299	0.986
300	0.984
300	0.981
301	0.979
301	0.977
302	0.975
302	0.973
303	0.971
303	0.969
304	0.967
304	0.965
305	0.963
305	0.961
305	0.958
306	0.956
306	0.954
307	0.952
307	0.949
308	0.947
308	0.944
309	0.942
309	0.939
310	0.937
310	0.934
311	0.931
311	0.928
311	0.925
312	0.922
312	0.918
313	0.915
313	0.911
314	0.907
314	0.903
315	0.899
315	0.895
316	0.89
316	0.886
317	0.881
317	0.876
318	0.872
318	0.867
318	0.861
319	0.856
319	0.851
320	0.845
320	0.839
321	0.833
321	0.827
322	0.821
322	0.815
323	0.808
323	0.802
324	0.795
324	0.789
324	0.782
325	0.775
325	0.769
326	0.761
326	0.754
327	0.748
327	0.741
328	0.734
328	0.727
329	0.72
329	0.712
330	0.705
330	0.698
330	0.691
331	0.684
331	0.677
332	0.67
332	0.663
333	0.656
333	0.649
334	0.642
334	0.635
335	0.629
335	0.622
336	0.615
336	0.608
336	0.602
337	0.595
337	0.589
338	0.583
338	0.576
339	0.57
339	0.564
340	0.558
340	0.552
341	0.547
341	0.541
342	0.536
342	0.53
342	0.525
343	0.52
343	0.514
344	0.509
344	0.505
345	0.5
345	0.495
346	0.491
346	0.486
347	0.482
347	0.478
348	0.473
348	0.469
348	0.466
349	0.462
349	0.458
350	0.454
350	0.451
351	0.447
351	0.444
352	0.441
352	0.437
353	0.434
353	0.431
354	0.428
354	0.425
354	0.423
355	0.42
355	0.417
356	0.414
356	0.412
357	0.409
357	0.406
358	0.404
358	0.401
359	0.399
359	0.396
360	0.394
360	0.392
360	0.39
361	0.388
361	0.386
362	0.384
362	0.383
363	0.381
363	0.379
364	0.377
364	0.375
365	0.374
365	0.372
366	0.37
366	0.368
366	0.367
367	0.365
367	0.363
368	0.361
368	0.36
369	0.358
369	0.357
370	0.356
370	0.354
371	0.353
371	0.352
372	0.35
372	0.349
372	0.348
373	0.347
373	0.346
374	0.345
374	0.344
375	0.343
375	0.342
376	0.341
376	0.34
377	0.339
377	0.338
378	0.337
378	0.336
378	0.335
379	0.335
379	0.334
380	0.333
380	0.332
381	0.332
381	0.331
382	0.33
382	0.329
383	0.329
383	0.328
383	0.328
384	0.327
384	0.326
385	0.326
385	0.325
386	0.325
386	0.324
387	0.324
387	0.323
388	0.322
388	0.322
389	0.321
389	0.321
389	0.321
390	0.32
390	0.32
391	0.32
391	0.319
392	0.319
392	0.319
393	0.318
393	0.318
394	0.318
394	0.317
394	0.317
395	0.316
395	0.316
396	0.315
396	0.315
397	0.314
397	0.314
398	0.314
398	0.313
399	0.313
399	0.313
400	0.312
400	0.312
400	0.312
401	0.311
401	0.311
402	0.311
402	0.31
403	0.31
403	0.309
404	0.309
404	0.308
405	0.308
405	0.308
405	0.308
406	0.307
406	0.307
407	0.306
407	0.306
408	0.306
408	0.305
409	0.305
409	0.305
410	0.304
410	0.304
411	0.304
411	0.304
411	0.304
412	0.303
412	0.303
413	0.303
413	0.302
414	0.302
414	0.302
415	0.301
415	0.301
416	0.301
416	0.3
416	0.3
417	0.299
417	0.299
418	0.299
418	0.299
419	0.298
419	0.298
420	0.297
420	0.297
421	0.297
421	0.296
421	0.296
422	0.296
422	0.295
423	0.295
423	0.294
424	0.294
424	0.294
425	0.293
425	0.293
426	0.293
426	0.292
427	0.292
427	0.292
427	0.292
428	0.291
428	0.291
429	0.291
429	0.29
430	0.29
430	0.29
431	0.29
431	0.29
432	0.29
432	0.289
432	0.289
433	0.289
433	0.288
434	0.288
434	0.288
435	0.288
435	0.288
436	0.287
436	0.287
437	0.287
437	0.287
437	0.286
438	0.286
438	0.286
439	0.286
439	0.286
440	0.285
440	0.285
441	0.284
441	0.284
442	0.284
442	0.283
442	0.283
443	0.283
443	0.283
444	0.282
444	0.282
445	0.282
445	0.282
446	0.282
446	0.282
447	0.281
447	0.281
447	0.281
448	0.28
448	0.28
449	0.28
449	0.28
450	0.28
450	0.279
451	0.279
451	0.279
452	0.279
452	0.279
452	0.279
453	0.278
453	0.278
454	0.278
454	0.278
455	0.277
455	0.277
456	0.277
456	0.277
457	0.276
457	0.276
458	0.276
458	0.276
458	0.275
459	0.275
459	0.275
460	0.275
460	0.275
461	0.274
461	0.274
462	0.274
462	0.273
463	0.273
463	0.273
463	0.273
464	0.272
464	0.272
465	0.271
465	0.271
466	0.271
466	0.271
467	0.271
467	0.271
467	0.271
468	0.271
468	0.271
469	0.271
469	0.271
470	0.271
470	0.271
471	0.271
471	0.271
472	0.271
472	0.271
472	0.271
473	0.271
473	0.271
474	0.271
474	0.271
475	0.27
475	0.27
476	0.27
476	0.27
477	0.27
477	0.27
477	0.27
478	0.27
478	0.27
479	0.27
479	0.27
480	0.27
480	0.27
481	0.27
481	0.27
482	0.27
482	0.27
482	0.27
483	0.27
483	0.271
484	0.271
484	0.271
485	0.271
485	0.271
486	0.271
486	0.271
487	0.271
487	0.271
487	0.271
488	0.271
488	0.271
489	0.271
489	0.272
490	0.273
490	0.273
491	0.274
491	0.274
492	0.274
492	0.275
492	0.276
493	0.276
493	0.277
494	0.278
494	0.278
495	0.278
495	0.278
496	0.279
496	0.28
496	0.28
497	0.281
497	0.281
498	0.281
498	0.281
499	0.282
499	0.282
500	0.283
500	0.284
501	0.284
501	0.284
501	0.285
502	0.285
502	0.286
503	0.287
503	0.287
504	0.288
504	0.288
505	0.288
505	0.289
506	0.289
506	0.29
506	0.29
507	0.29
507	0.291
508	0.291
508	0.292
509	0.292
509	0.293
510	0.293
510	0.294
511	0.294
511	0.295
511	0.295
512	0.296
512	0.296
513	0.297
513	0.297
514	0.298
514	0.298
515	0.299
515	0.299
515	0.299
516	0.3
516	0.3
517	0.301
517	0.301
518	0.302
518	0.302
519	0.302
519	0.302
520	0.302
520	0.303
520	0.303
521	0.304
521	0.304
522	0.304
522	0.304
523	0.305
523	0.305
524	0.305
524	0.305
524	0.306
525	0.306
525	0.306
526	0.306
526	0.306
527	0.306
527	0.307
528	0.307
528	0.307
529	0.307
529	0.307
529	0.306
530	0.306
530	0.306
531	0.306
531	0.305
532	0.305
532	0.305
533	0.305
533	0.304
533	0.304
534	0.304
534	0.304
535	0.304
535	0.304
536	0.304
536	0.304
537	0.304
537	0.303
538	0.303
538	0.303
538	0.303
539	0.302
539	0.302
540	0.302
540	0.301
541	0.301
541	0.301
542	0.3
542	0.3
542	0.3
543	0.3
543	0.299
544	0.299
544	0.299
545	0.298
545	0.298
546	0.298
546	0.298
547	0.297
547	0.296
547	0.296
548	0.295
548	0.295
549	0.295
549	0.294
550	0.294
550	0.293
551	0.293
551	0.292
551	0.292
552	0.292
552	0.292
553	0.291
553	0.291
554	0.29
554	0.289
555	0.289
555	0.288
556	0.287
556	0.287
556	0.287
557	0.287
557	0.286
558	0.286
558	0.286
559	0.286
559	0.286
560	0.286
560	0.286
560	0.286
561	0.286
561	0.285
562	0.284
562	0.284
563	0.283
563	0.282
564	0.281
564	0.28
564	0.28
565	0.28
565	0.279
566	0.279
566	0.278
567	0.278
567	0.278
568	0.278
568	0.278
568	0.278
569	0.277
569	0.277
570	0.276
570	0.275
571	0.275
571	0.274
572	0.274
572	0.273
573	0.273
573	0.272
573	0.272
574	0.271
574	0.271
575	0.271
575	0.271
576	0.271
576	0.27
577	0.27
577	0.269
577	0.269
578	0.268
578	0.268
579	0.268
579	0.268
580	0.267
580	0.266
581	0.266
581	0.265
581	0.265
582	0.265
582	0.265
583	0.265
583	0.265
584	0.264
584	0.263
585	0.263
585	0.263
585	0.262
586	0.262
586	0.261
587	0.26
587	0.26
588	0.259
588	0.259
589	0.258
589	0.258
590	0.258
590	0.258
590	0.258
591	0.258
591	0.257
592	0.256
592	0.256
593	0.255
593	0.255
594	0.255
594	0.254
594	0.254
595	0.253
595	0.253
596	0.252
596	0.253
597	0.254
597	0.254
598	0.253
598	0.254
598	0.253
599	0.253
599	0.253
600	0.252
600	0.252
601	0.251
601	0.251
602	0.25
602	0.25
602	0.249
603	0.249
603	0.249
604	0.249
604	0.249
605	0.249
605	0.249
606	0.248
606	0.248
606	0.247
607	0.247
607	0.247
608	0.246
608	0.246
609	0.245
609	0.245
610	0.244
610	0.244
610	0.244
611	0.244
611	0.243
612	0.243
612	0.244
613	0.244
613	0.244
614	0.244
614	0.243
614	0.243
615	0.243
615	0.243
616	0.243
616	0.243
617	0.243
617	0.243
618	0.243
618	0.243
618	0.243
619	0.243
619	0.243
620	0.243
620	0.243
621	0.242
621	0.242
622	0.241
622	0.24
622	0.24
623	0.239
623	0.239
624	0.238
624	0.238
625	0.237
625	0.237
626	0.237
626	0.236
626	0.237
627	0.237
627	0.236
628	0.236
628	0.236
629	0.236
629	0.236
630	0.236
630	0.236
630	0.236
631	0.236
631	0.236
632	0.235
632	0.235
633	0.235
633	0.235
634	0.235
634	0.235
634	0.235
635	0.235
635	0.234
636	0.234
636	0.234
637	0.234
637	0.234
638	0.233
638	0.233
638	0.232
639	0.232
639	0.232
640	0.232
640	0.232
641	0.232
641	0.231
642	0.231
642	0.231
642	0.231
643	0.232
643	0.232
644	0.232
644	0.232
645	0.232
645	0.232
646	0.232
646	0.232
646	0.232
647	0.232
647	0.232
648	0.231
648	0.231
649	0.23
649	0.23
650	0.229
650	0.229
650	0.229
651	0.229
651	0.229
652	0.229
652	0.229
653	0.229
653	0.231
653	0.237
654	0.184
654	0.146
655	0.148
655	0.149
656	0.149
656	0.15
657	0.15
657	0.151
657	0.151
658	0.149
658	0.138
659	0.175
659	0.228
660	0.232
660	0.232
661	0.231
661	0.231
661	0.23
662	0.23
662	0.229
663	0.229
663	0.228
664	0.228
664	0.228
665	0.228
665	0.228
665	0.228
666	0.228
666	0.229
667	0.229
667	0.23
668	0.23
668	0.23
669	0.23
669	0.23
669	0.23
670	0.23
670	0.23
671	0.23
671	0.23
672	0.23
672	0.23
672	0.229
673	0.229
673	0.229
674	0.229
674	0.229
675	0.229
675	0.229
676	0.229
676	0.229
676	0.229
677	0.23
677	0.23
678	0.23
678	0.229
679	0.229
679	0.229
680	0.23
680	0.229
680	0.229
681	0.229
681	0.229
682	0.229
682	0.229
683	0.23
683	0.23
684	0.23
684	0.23
684	0.229
685	0.229
685	0.23
686	0.229
686	0.229
687	0.229
687	0.23
687	0.23
688	0.23
688	0.23
689	0.231
689	0.231
690	0.231
690	0.231
691	0.232
691	0.232
691	0.232
692	0.232
692	0.233
693	0.233
693	0.234
694	0.234
694	0.234
695	0.235
695	0.236
695	0.236
696	0.235
696	0.235
697	0.235
697	0.235
698	0.235
698	0.234
698	0.234
699	0.234
699	0.234
700	0.234
700	0.234
701	0.234
701	0.234
702	0.234
702	0.235
702	0.235
703	0.235
703	0.235
704	0.235
704	0.236
705	0.236
705	0.236
705	0.235
706	0.235
706	0.235
707	0.235
707	0.235
708	0.235
708	0.235
709	0.235
709	0.234
709	0.234
710	0.234
710	0.234
711	0.235
711	0.235
712	0.235
712	0.236
713	0.236
713	0.237
713	0.237
714	0.237
714	0.237
715	0.237
715	0.237
716	0.237
716	0.237
716	0.236
717	0.235
717	0.235
718	0.234
718	0.234
719	0.234
719	0.234
720	0.234
720	0.234
720	0.235
721	0.235
721	0.236
722	0.236
722	0.237
723	0.237
723	0.237
723	0.238
724	0.238
724	0.238
725	0.237
725	0.236
726	0.236
726	0.235
727	0.235
727	0.234
727	0.234
728	0.234
728	0.234
729	0.234
729	0.234
730	0.235
730	0.236
730	0.236
731	0.237
731	0.238
732	0.239
732	0.239
733	0.239
733	0.239
734	0.239
734	0.239
734	0.239
735	0.238
735	0.238
736	0.237
736	0.237
737	0.236
737	0.236
737	0.235
738	0.235
738	0.234
739	0.234
739	0.234
740	0.234
740	0.235
741	0.235
741	0.235
741	0.236
742	0.236
742	0.236
743	0.237
743	0.237
744	0.238
744	0.238
744	0.238
745	0.237
745	0.237
746	0.237
746	0.237
747	0.237
747	0.238
748	0.238
748	0.239
748	0.239
749	0.24
749	0.24
750	0.241
750	0.241
751	0.241
751	0.242
751	0.242
752	0.241
752	0.24
753	0.24
753	0.239
754	0.239
754	0.238
754	0.238
755	0.238
755	0.237
756	0.237
756	0.235
757	0.235
757	0.235
758	0.235
758	0.235
758	0.235
759	0.235
759	0.235
760	0.235
760	0.235
761	0.236
761	0.236
761	0.237
762	0.238
762	0.238
763	0.239
763	0.239
764	0.239
764	0.239
764	0.24
765	0.24
765	0.239
766	0.239
766	0.239
767	0.239
767	0.238
768	0.237
768	0.237
768	0.236
769	0.236
769	0.236
770	0.236
770	0.236
771	0.236
771	0.236
771	0.237
772	0.237
772	0.238
773	0.238
773	0.238
774	0.239
774	0.239
775	0.239
775	0.239
775	0.239
776	0.239
776	0.24
777	0.24
777	0.24
778	0.239
778	0.239
778	0.239
779	0.239
779	0.239
780	0.238
780	0.238
781	0.238
781	0.237
781	0.237
782	0.237
782	0.237
783	0.237
783	0.238
784	0.238
784	0.238
784	0.239
785	0.239
785	0.239
786	0.239
786	0.239
787	0.239
787	0.239
788	0.239
788	0.238
788	0.238
789	0.238
789	0.238
790	0.238
790	0.238
791	0.238
791	0.238
791	0.238
792	0.239
792	0.24
793	0.24
793	0.241
794	0.241
794	0.241
794	0.241
795	0.242
795	0.242
796	0.242
796	0.242
797	0.242
797	0.242
797	0.242
798	0.242
798	0.242
799	0.242
799	0.242
800	0.242
800	0.241
801	0.241
801	0.241
801	0.24
802	0.24
802	0.24
803	0.24
803	0.24
804	0.24
804	0.241
804	0.241
805	0.241
805	0.242
806	0.242
806	0.242
807	0.243
807	0.243
807	0.243
808	0.243
808	0.243
809	0.243
809	0.243
810	0.244
810	0.244
810	0.243
811	0.243
811	0.243
812	0.244
812	0.244
813	0.244
813	0.244
813	0.245
814	0.245
814	0.245
815	0.245
815	0.245
816	0.245
816	0.244
817	0.243
817	0.243
817	0.242
818	0.242
818	0.242
819	0.242
819	0.241
820	0.241
820	0.241
820	0.241
821	0.242
821	0.242
822	0.242
822	0.242
823	0.242
823	0.242
823	0.243
824	0.244
824	0.245
825	0.245
825	0.246
826	0.246
826	0.246
826	0.247
827	0.247
827	0.247
828	0.248
828	0.247
829	0.248
829	0.248
829	0.247
830	0.247
830	0.248
831	0.248
831	0.248
832	0.248
832	0.248
832	0.248
833	0.248
833	0.248
834	0.247
834	0.247
835	0.247
835	0.247
835	0.247
836	0.248
836	0.248
837	0.249
837	0.249
838	0.249
838	0.249
839	0.249
839	0.248
839	0.248
840	0.247
840	0.246
841	0.245
841	0.244
842	0.243
842	0.242
842	0.242
843	0.241
843	0.241
844	0.241
844	0.241
845	0.241
845	0.241
845	0.241
846	0.241
846	0.242
847	0.242
847	0.242
848	0.242
848	0.243
848	0.243
849	0.244
849	0.244
850	0.244
850	0.244
851	0.244
851	0.244
851	0.244
852	0.243
852	0.243
853	0.242
853	0.242
854	0.242
854	0.242
854	0.242
855	0.242
855	0.243
856	0.243
856	0.243
857	0.244
857	0.245
857	0.245
858	0.245
858	0.245
859	0.244
859	0.243
860	0.243
860	0.242
860	0.242
861	0.241
861	0.24
862	0.239
862	0.238
863	0.237
863	0.237
863	0.236
864	0.236
864	0.236
865	0.236
865	0.236
866	0.236
866	0.236
866	0.236
867	0.236
867	0.236
868	0.236
868	0.236
869	0.235
869	0.235
869	0.234
870	0.233
870	0.232
871	0.232
871	0.232
872	0.232
872	0.231
872	0.231
873	0.231
873	0.231
874	0.231
874	0.231
875	0.231
875	0.231
875	0.231
876	0.231
876	0.23
877	0.23
877	0.231
878	0.231
878	0.232
878	0.234
879	0.235
879	0.236
880	0.237
880	0.238
881	0.238
881	0.238
881	0.238
882	0.238
882	0.237
883	0.236
883	0.235
884	0.234
884	0.233
884	0.232
885	0.231
885	0.23
886	0.23
886	0.229
887	0.228
887	0.228
887	0.227
888	0.226
888	0.225
889	0.225
889	0.224
890	0.224
890	0.223
890	0.223
891	0.223
891	0.223
892	0.222
892	0.222
893	0.223
893	0.223
893	0.223
894	0.223
894	0.223
895	0.222
895	0.222
895	0.222
896	0.221
896	0.221
897	0.22
897	0.22
898	0.219
898	0.219
898	0.218
899	0.218
899	0.218
900	0.218
900	0.219
901	0.219
901	0.219
901	0.219
902	0.219
902	0.219
903	0.219
903	0.218
904	0.218
904	0.218
904	0.217
905	0.217
905	0.217
906	0.216
906	0.217
907	0.217
907	0.217
907	0.218
908	0.218
908	0.218
909	0.218
909	0.218
910	0.218
910	0.217
910	0.216
911	0.216
911	0.215
912	0.214
912	0.213
913	0.212
913	0.212
913	0.211
914	0.21
914	0.21
915	0.209
915	0.208
916	0.208
916	0.207
916	0.206
917	0.206
917	0.205
918	0.204
918	0.204
918	0.203
919	0.202
919	0.201
920	0.2
920	0.2
921	0.199
921	0.198
921	0.197
922	0.196
922	0.196
923	0.195
923	0.195
924	0.195
924	0.195
924	0.195
925	0.196
925	0.196
926	0.196
926	0.197
927	0.197
927	0.197
927	0.198
928	0.198
928	0.198
929	0.198
929	0.198
930	0.198
930	0.198
930	0.198
931	0.199
931	0.199
932	0.199
932	0.2
933	0.2
933	0.2
933	0.2
934	0.2
934	0.2
935	0.2
935	0.199
935	0.199
936	0.199
936	0.198
937	0.197
937	0.196
938	0.196
938	0.195
938	0.194
939	0.193
939	0.193
940	0.192
940	0.192
941	0.191
941	0.191
941	0.191
942	0.19
942	0.19
943	0.189
943	0.189
944	0.188
944	0.187
944	0.187
945	0.186
945	0.186
946	0.185
946	0.185
946	0.184
947	0.184
947	0.184
948	0.183
948	0.183
949	0.182
949	0.181
949	0.18
950	0.179
950	0.179
951	0.178
951	0.176
952	0.175
952	0.174
952	0.173
953	0.172
953	0.171
954	0.17
954	0.17
955	0.169
955	0.169
955	0.169
956	0.169
956	0.169
957	0.17
957	0.17
957	0.17
958	0.171
958	0.171
959	0.171
959	0.172
960	0.172
960	0.172
960	0.172
961	0.172
961	0.171
962	0.171
962	0.171
963	0.171
963	0.171
963	0.171
964	0.171
964	0.171
965	0.172
965	0.172
966	0.172
966	0.173
966	0.173
967	0.173
967	0.173
968	0.174
968	0.174
968	0.173
969	0.173
969	0.173
970	0.173
970	0.172
971	0.172
971	0.172
971	0.171
972	0.171
972	0.171
973	0.17
973	0.17
974	0.17
974	0.17
974	0.171
975	0.171
975	0.171
976	0.171
976	0.171
976	0.171
977	0.17
977	0.17
978	0.17
978	0.169
979	0.169
979	0.168
979	0.167
980	0.166
980	0.166
981	0.165
981	0.164
982	0.163
982	0.163
982	0.162
983	0.161
983	0.16
984	0.159
984	0.158
984	0.157
985	0.156
985	0.155
986	0.155
986	0.153
987	0.153
987	0.152
987	0.152
988	0.151
988	0.151
989	0.15
989	0.15
990	0.149
990	0.148
990	0.148
991	0.148
991	0.147
992	0.146
992	0.145
992	0.144
993	0.144
993	0.143
994	0.142
994	0.142
995	0.141
995	0.141
995	0.14
996	0.14
996	0.14
997	0.14
997	0.141
997	0.141
998	0.141
998	0.142
999	0.143
999	0.143
1000	0.144
1000	0.145
1000	0.145
1001	0.146
1001	0.146
1002	0.146
1002	0.146
1003	0.146
1003	0.145
1003	0.145
1004	0.144
1004	0.144
1005	0.143
1005	0.142
1005	0.142
1006	0.141
1006	0.141
1007	0.14
1007	0.14
1008	0.139
1008	0.139
1008	0.139
1009	0.139
1009	0.139
1010	0.139
1010	0.139
1010	0.139
1011	0.139
1011	0.139
1012	0.139
1012	0.139
1013	0.139
1013	0.138
1013	0.138
1014	0.137
1014	0.137
1015	0.136
1015	0.136
1016	0.135
1016	0.134
1016	0.134
1017	0.133
1017	0.132
1018	0.132
1018	0.132
1018	0.131
1019	0.131
1019	0.131
1020	0.131
1020	0.131
1021	0.131
1021	0.131
1021	0.131
1022	0.131
1022	0.131
1023	0.131
1023	0.131
1023	0.131
1024	0.131
1024	0.131
1025	0.131
1025	0.131
1026	0.131
1026	0.13
1026	0.13
1027	0.13
1027	0.13
1028	0.13
1028	0.13
1028	0.13
1029	0.13
1029	0.13
1030	0.131
1030	0.131
1031	0.131
1031	0.131
1031	0.131
1032	0.131
1032	0.131
1033	0.131
1033	0.131
1033	0.131
1034	0.131
1034	0.13
1035	0.13
1035	0.13
1036	0.129
1036	0.129
1036	0.129
1037	0.129
1037	0.128
1038	0.128
1038	0.128
1039	0.128
1039	0.128
1039	0.128
1040	0.128
1040	0.128
1041	0.129
1041	0.129
1041	0.129
1042	0.129
1042	0.129
1043	0.129
1043	0.129
1044	0.129
1044	0.129
1044	0.129
1045	0.129
1045	0.129
1046	0.129
1046	0.129
1046	0.129
1047	0.13
1047	0.13
1048	0.13
1048	0.131
1049	0.131
1049	0.131
1049	0.131
1050	0.131
1050	0.131
1051	0.13
1051	0.13
1051	0.129
1052	0.128
1052	0.128
1053	0.127
1053	0.125
1053	0.124
1054	0.123
1054	0.123
1055	0.122
1055	0.121
1056	0.12
1056	0.119
1056	0.119
1057	0.117
1057	0.116
1058	0.116
1058	0.114
1058	0.114
1059	0.113
1059	0.112
1060	0.111
1060	0.11
1061	0.109
1061	0.109
1061	0.109
1062	0.108
1062	0.108
1063	0.108
1063	0.108
1063	0.107
1064	0.107
1064	0.107
1065	0.107
1065	0.107
1066	0.106
1066	0.106
1066	0.106
1067	0.105
1067	0.105
1068	0.105
1068	0.105
1068	0.104
1069	0.104
1069	0.103
1070	0.102
1070	0.102
1071	0.101
1071	0.101
1071	0.1
1072	0.099
1072	0.098
1073	0.097
1073	0.096
1073	0.096
1074	0.096
1074	0.096
1075	0.096
1075	0.096
1076	0.096
1076	0.097
1076	0.097
1077	0.098
1077	0.098
1078	0.099
1078	0.099
1078	0.099
1079	0.099
1079	0.099
1080	0.099
1080	0.099
1080	0.099
1081	0.099
1081	0.099
1082	0.099
1082	0.099
1083	0.099
1083	0.098
1083	0.098
1084	0.098
1084	0.098
1085	0.098
1085	0.097
1085	0.097
1086	0.096
1086	0.095
1087	0.095
1087	0.094
1088	0.094
1088	0.094
1088	0.094
1089	0.093
1089	0.092
1090	0.091
1090	0.09
1090	0.089
1091	0.089
1091	0.088
1092	0.089
1092	0.088
1092	0.088
1093	0.087
1093	0.087
1094	0.088
1094	0.087
1095	0.088
1095	0.087
1095	0.088
1096	0.087
1096	0.086
1097	0.086
1097	0.085
1097	0.084
1098	0.083
1098	0.082
1099	0.081
1099	0.08
1100	0.079
1100	0.078
1100	0.077
1101	0.076
1101	0.076
1102	0.075
1102	0.074
1102	0.074
1103	0.073
1103	0.073
1104	0.072
1104	0.072
1104	0.071
1105	0.071
1105	0.068
1106	0.067
1106	0.066
1107	0.065
1107	0.065
1107	0.064
1108	0.062
1108	0.061
1109	0.06
1109	0.059
1109	0.059
1110	0.06
1110	0.058
1111	0.058
1111	0.056
