Data from reversibility-20sec_Absorbance__565__000000000000565.txt Node

Date: Tue Dec 05 15:21:25 CET 2023
User: Marek
Spectrometer: MAYP115816
Trigger mode: 0
Integration Time (sec): 2.000000E-1
Scans to average: 10
Electric dark correction enabled: true
Nonlinearity correction enabled: true
Boxcar width: 5
XAxis mode: Wavelengths
Number of Pixels in Spectrum: 2068
>>>>>Begin Spectral Data<<<<<
199	-0.241
199	-0.209
200	-0.138
200	-0.085
201	-0.056
201	-0.04
202	-0.026
202	-0.017
203	-0.009
203	-0.006
204	0.006
204	0.017
205	0.029
205	0.033
205	0.031
206	0.032
206	0.032
207	0.034
207	0.034
208	0.034
208	0.037
209	0.041
209	0.04
210	0.039
210	0.04
211	0.04
211	0.041
212	0.04
212	0.042
213	0.046
213	0.044
213	0.042
214	0.047
214	0.047
215	0.051
215	0.05
216	0.053
216	0.051
217	0.056
217	0.056
218	0.054
218	0.061
219	0.066
219	0.065
220	0.068
220	0.07
221	0.074
221	0.075
221	0.08
222	0.086
222	0.09
223	0.097
223	0.1
224	0.104
224	0.113
225	0.123
225	0.133
226	0.142
226	0.154
227	0.166
227	0.175
228	0.189
228	0.204
229	0.221
229	0.243
229	0.265
230	0.29
230	0.318
231	0.35
231	0.386
232	0.422
232	0.466
233	0.511
233	0.559
234	0.607
234	0.658
235	0.709
235	0.759
236	0.81
236	0.862
236	0.912
237	0.963
237	1.01
238	1.056
238	1.103
239	1.153
239	1.195
240	1.237
240	1.276
241	1.311
241	1.346
242	1.379
242	1.411
243	1.44
243	1.468
243	1.495
244	1.514
244	1.537
245	1.554
245	1.574
246	1.593
246	1.611
247	1.624
247	1.64
248	1.653
248	1.665
249	1.673
249	1.68
250	1.687
250	1.697
250	1.704
251	1.708
251	1.71
252	1.716
252	1.718
253	1.72
253	1.719
254	1.718
254	1.721
255	1.718
255	1.718
256	1.717
256	1.716
257	1.716
257	1.714
258	1.713
258	1.712
258	1.712
259	1.713
259	1.712
260	1.712
260	1.713
261	1.712
261	1.713
262	1.715
262	1.716
263	1.718
263	1.719
264	1.719
264	1.72
265	1.721
265	1.721
265	1.721
266	1.721
266	1.721
267	1.719
267	1.718
268	1.716
268	1.717
269	1.718
269	1.716
270	1.716
270	1.715
271	1.713
271	1.713
272	1.71
272	1.708
272	1.707
273	1.703
273	1.698
274	1.692
274	1.687
275	1.681
275	1.676
276	1.67
276	1.662
277	1.655
277	1.646
278	1.635
278	1.625
278	1.612
279	1.598
279	1.582
280	1.56
280	1.534
281	1.506
281	1.474
282	1.438
282	1.403
283	1.366
283	1.331
284	1.296
284	1.262
285	1.229
285	1.199
285	1.172
286	1.149
286	1.128
287	1.109
287	1.094
288	1.08
288	1.068
289	1.059
289	1.05
290	1.043
290	1.036
291	1.031
291	1.025
292	1.021
292	1.017
292	1.013
293	1.009
293	1.006
294	1.003
294	1
295	0.997
295	0.994
296	0.992
296	0.989
297	0.986
297	0.984
298	0.981
298	0.979
298	0.977
299	0.974
299	0.972
300	0.969
300	0.967
301	0.965
301	0.962
302	0.96
302	0.958
303	0.956
303	0.953
304	0.951
304	0.948
305	0.946
305	0.944
305	0.941
306	0.939
306	0.937
307	0.934
307	0.932
308	0.929
308	0.926
309	0.924
309	0.921
310	0.918
310	0.915
311	0.912
311	0.909
311	0.906
312	0.902
312	0.899
313	0.895
313	0.892
314	0.888
314	0.884
315	0.88
315	0.876
316	0.872
316	0.867
317	0.863
317	0.858
318	0.854
318	0.849
318	0.844
319	0.838
319	0.833
320	0.827
320	0.822
321	0.816
321	0.81
322	0.804
322	0.798
323	0.792
323	0.785
324	0.779
324	0.773
324	0.767
325	0.76
325	0.754
326	0.747
326	0.741
327	0.734
327	0.727
328	0.721
328	0.714
329	0.707
329	0.701
330	0.694
330	0.687
330	0.68
331	0.673
331	0.666
332	0.659
332	0.653
333	0.646
333	0.639
334	0.632
334	0.626
335	0.619
335	0.613
336	0.607
336	0.6
336	0.594
337	0.588
337	0.582
338	0.575
338	0.57
339	0.564
339	0.558
340	0.552
340	0.547
341	0.541
341	0.536
342	0.531
342	0.526
342	0.521
343	0.516
343	0.511
344	0.506
344	0.501
345	0.497
345	0.492
346	0.488
346	0.483
347	0.479
347	0.475
348	0.471
348	0.467
348	0.463
349	0.459
349	0.456
350	0.452
350	0.449
351	0.446
351	0.443
352	0.439
352	0.437
353	0.434
353	0.431
354	0.428
354	0.425
354	0.422
355	0.419
355	0.416
356	0.413
356	0.41
357	0.408
357	0.405
358	0.402
358	0.399
359	0.397
359	0.394
360	0.393
360	0.391
360	0.389
361	0.386
361	0.385
362	0.383
362	0.381
363	0.379
363	0.377
364	0.375
364	0.373
365	0.372
365	0.37
366	0.368
366	0.366
366	0.364
367	0.363
367	0.361
368	0.359
368	0.358
369	0.356
369	0.354
370	0.353
370	0.351
371	0.35
371	0.348
372	0.347
372	0.346
372	0.344
373	0.343
373	0.342
374	0.341
374	0.339
375	0.338
375	0.337
376	0.336
376	0.335
377	0.334
377	0.333
378	0.332
378	0.331
378	0.33
379	0.329
379	0.328
380	0.327
380	0.326
381	0.325
381	0.324
382	0.323
382	0.322
383	0.321
383	0.32
383	0.32
384	0.319
384	0.318
385	0.317
385	0.317
386	0.316
386	0.315
387	0.315
387	0.314
388	0.313
388	0.313
389	0.312
389	0.311
389	0.311
390	0.31
390	0.31
391	0.309
391	0.308
392	0.308
392	0.307
393	0.307
393	0.307
394	0.306
394	0.305
394	0.305
395	0.304
395	0.304
396	0.303
396	0.303
397	0.302
397	0.301
398	0.301
398	0.3
399	0.3
399	0.299
400	0.299
400	0.298
400	0.298
401	0.298
401	0.297
402	0.297
402	0.296
403	0.296
403	0.295
404	0.295
404	0.295
405	0.294
405	0.294
405	0.294
406	0.293
406	0.293
407	0.292
407	0.292
408	0.291
408	0.291
409	0.29
409	0.29
410	0.29
410	0.289
411	0.289
411	0.288
411	0.288
412	0.288
412	0.287
413	0.287
413	0.286
414	0.286
414	0.286
415	0.285
415	0.285
416	0.284
416	0.284
416	0.284
417	0.283
417	0.283
418	0.283
418	0.283
419	0.282
419	0.282
420	0.282
420	0.281
421	0.281
421	0.281
421	0.281
422	0.28
422	0.28
423	0.28
423	0.279
424	0.279
424	0.279
425	0.278
425	0.278
426	0.278
426	0.278
427	0.277
427	0.277
427	0.277
428	0.277
428	0.276
429	0.276
429	0.276
430	0.276
430	0.276
431	0.276
431	0.276
432	0.276
432	0.276
432	0.275
433	0.275
433	0.275
434	0.275
434	0.275
435	0.275
435	0.275
436	0.275
436	0.274
437	0.274
437	0.274
437	0.274
438	0.274
438	0.273
439	0.273
439	0.273
440	0.273
440	0.273
441	0.272
441	0.272
442	0.272
442	0.272
442	0.272
443	0.272
443	0.272
444	0.272
444	0.272
445	0.272
445	0.272
446	0.272
446	0.271
447	0.271
447	0.271
447	0.271
448	0.271
448	0.271
449	0.271
449	0.271
450	0.271
450	0.271
451	0.271
451	0.271
452	0.271
452	0.271
452	0.272
453	0.272
453	0.272
454	0.272
454	0.272
455	0.272
455	0.272
456	0.272
456	0.272
457	0.272
457	0.273
458	0.273
458	0.273
458	0.273
459	0.273
459	0.273
460	0.273
460	0.273
461	0.273
461	0.273
462	0.273
462	0.273
463	0.273
463	0.274
463	0.274
464	0.274
464	0.274
465	0.275
465	0.275
466	0.275
466	0.275
467	0.276
467	0.276
467	0.276
468	0.277
468	0.277
469	0.278
469	0.278
470	0.278
470	0.279
471	0.279
471	0.28
472	0.28
472	0.28
472	0.281
473	0.282
473	0.282
474	0.283
474	0.283
475	0.284
475	0.284
476	0.285
476	0.286
477	0.286
477	0.287
477	0.288
478	0.289
478	0.29
479	0.29
479	0.291
480	0.291
480	0.292
481	0.293
481	0.294
482	0.294
482	0.295
482	0.296
483	0.297
483	0.299
484	0.3
484	0.301
485	0.302
485	0.303
486	0.304
486	0.305
487	0.306
487	0.307
487	0.308
488	0.309
488	0.31
489	0.312
489	0.313
490	0.315
490	0.316
491	0.318
491	0.32
492	0.321
492	0.322
492	0.324
493	0.325
493	0.327
494	0.328
494	0.33
495	0.331
495	0.333
496	0.334
496	0.336
496	0.338
497	0.339
497	0.341
498	0.342
498	0.344
499	0.345
499	0.347
500	0.349
500	0.351
501	0.353
501	0.354
501	0.356
502	0.357
502	0.359
503	0.36
503	0.362
504	0.364
504	0.365
505	0.366
505	0.368
506	0.369
506	0.37
506	0.372
507	0.374
507	0.375
508	0.377
508	0.378
509	0.379
509	0.381
510	0.383
510	0.384
511	0.385
511	0.387
511	0.388
512	0.39
512	0.391
513	0.392
513	0.393
514	0.394
514	0.395
515	0.396
515	0.397
515	0.398
516	0.398
516	0.399
517	0.4
517	0.4
518	0.401
518	0.401
519	0.402
519	0.402
520	0.402
520	0.402
520	0.402
521	0.402
521	0.402
522	0.402
522	0.402
523	0.402
523	0.402
524	0.402
524	0.402
524	0.401
525	0.401
525	0.4
526	0.4
526	0.399
527	0.398
527	0.398
528	0.397
528	0.396
529	0.394
529	0.393
529	0.392
530	0.39
530	0.389
531	0.388
531	0.386
532	0.385
532	0.383
533	0.381
533	0.38
533	0.378
534	0.377
534	0.375
535	0.374
535	0.372
536	0.37
536	0.369
537	0.367
537	0.364
538	0.363
538	0.36
538	0.358
539	0.356
539	0.354
540	0.351
540	0.349
541	0.346
541	0.344
542	0.342
542	0.339
542	0.337
543	0.334
543	0.332
544	0.329
544	0.327
545	0.325
545	0.323
546	0.32
546	0.318
547	0.315
547	0.312
547	0.31
548	0.308
548	0.305
549	0.303
549	0.3
550	0.297
550	0.295
551	0.292
551	0.289
551	0.286
552	0.283
552	0.281
553	0.278
553	0.276
554	0.273
554	0.27
555	0.268
555	0.265
556	0.263
556	0.261
556	0.259
557	0.257
557	0.255
558	0.252
558	0.25
559	0.248
559	0.246
560	0.243
560	0.241
560	0.239
561	0.237
561	0.235
562	0.233
562	0.23
563	0.228
563	0.225
564	0.223
564	0.221
564	0.219
565	0.217
565	0.214
566	0.212
566	0.21
567	0.208
567	0.206
568	0.205
568	0.203
568	0.201
569	0.2
569	0.198
570	0.196
570	0.194
571	0.193
571	0.191
572	0.189
572	0.187
573	0.186
573	0.184
573	0.182
574	0.181
574	0.18
575	0.178
575	0.177
576	0.175
576	0.173
577	0.172
577	0.17
577	0.169
578	0.167
578	0.166
579	0.165
579	0.164
580	0.162
580	0.16
581	0.158
581	0.157
581	0.156
582	0.155
582	0.154
583	0.153
583	0.152
584	0.15
584	0.148
585	0.147
585	0.146
585	0.144
586	0.143
586	0.142
587	0.14
587	0.139
588	0.137
588	0.136
589	0.135
589	0.134
590	0.133
590	0.132
590	0.132
591	0.131
591	0.13
592	0.129
592	0.128
593	0.127
593	0.126
594	0.125
594	0.124
594	0.123
595	0.122
595	0.121
596	0.12
596	0.12
597	0.12
597	0.119
598	0.118
598	0.117
598	0.117
599	0.116
599	0.115
600	0.114
600	0.113
601	0.113
601	0.112
602	0.11
602	0.11
602	0.109
603	0.108
603	0.107
604	0.107
604	0.106
605	0.106
605	0.105
606	0.105
606	0.104
606	0.103
607	0.102
607	0.102
608	0.101
608	0.1
609	0.099
609	0.098
610	0.097
610	0.096
610	0.096
611	0.096
611	0.095
612	0.095
612	0.095
613	0.095
613	0.094
614	0.093
614	0.093
614	0.092
615	0.092
615	0.091
616	0.091
616	0.09
617	0.089
617	0.088
618	0.088
618	0.087
618	0.087
619	0.087
619	0.087
620	0.086
620	0.086
621	0.085
621	0.084
622	0.083
622	0.083
622	0.082
623	0.081
623	0.081
624	0.081
624	0.08
625	0.079
625	0.079
626	0.078
626	0.078
626	0.078
627	0.078
627	0.077
628	0.077
628	0.076
629	0.075
629	0.074
630	0.074
630	0.073
630	0.073
631	0.073
631	0.073
632	0.072
632	0.072
633	0.072
633	0.072
634	0.072
634	0.072
634	0.072
635	0.072
635	0.072
636	0.071
636	0.071
637	0.071
637	0.07
638	0.07
638	0.069
638	0.068
639	0.067
639	0.067
640	0.066
640	0.065
641	0.065
641	0.064
642	0.064
642	0.064
642	0.064
643	0.064
643	0.064
644	0.064
644	0.064
645	0.064
645	0.064
646	0.064
646	0.064
646	0.064
647	0.064
647	0.063
648	0.063
648	0.062
649	0.062
649	0.061
650	0.061
650	0.061
650	0.061
651	0.06
651	0.06
652	0.059
652	0.059
653	0.06
653	0.062
653	0.068
654	0.055
654	0.045
655	0.044
655	0.043
656	0.044
656	0.044
657	0.044
657	0.044
657	0.043
658	0.042
658	0.036
659	0.044
659	0.055
660	0.058
660	0.058
661	0.058
661	0.057
661	0.057
662	0.056
662	0.056
663	0.055
663	0.055
664	0.054
664	0.054
665	0.054
665	0.053
665	0.053
666	0.053
666	0.053
667	0.052
667	0.052
668	0.052
668	0.052
669	0.052
669	0.052
669	0.052
670	0.052
670	0.051
671	0.051
671	0.05
672	0.05
672	0.049
672	0.049
673	0.049
673	0.049
674	0.049
674	0.048
675	0.048
675	0.049
676	0.049
676	0.05
676	0.05
677	0.05
677	0.05
678	0.05
678	0.05
679	0.049
679	0.049
680	0.049
680	0.049
680	0.049
681	0.049
681	0.048
682	0.048
682	0.048
683	0.048
683	0.049
684	0.049
684	0.048
684	0.048
685	0.048
685	0.048
686	0.048
686	0.048
687	0.047
687	0.047
687	0.047
688	0.047
688	0.046
689	0.047
689	0.047
690	0.047
690	0.046
691	0.046
691	0.046
691	0.046
692	0.046
692	0.046
693	0.046
693	0.046
694	0.046
694	0.046
695	0.046
695	0.047
695	0.047
696	0.047
696	0.047
697	0.047
697	0.046
698	0.046
698	0.045
698	0.046
699	0.045
699	0.045
700	0.044
700	0.044
701	0.044
701	0.044
702	0.043
702	0.043
702	0.043
703	0.042
703	0.042
704	0.041
704	0.041
705	0.041
705	0.04
705	0.04
706	0.04
706	0.04
707	0.04
707	0.04
708	0.04
708	0.04
709	0.04
709	0.04
709	0.04
710	0.04
710	0.04
711	0.04
711	0.04
712	0.04
712	0.04
713	0.04
713	0.04
713	0.04
714	0.039
714	0.039
715	0.039
715	0.038
716	0.038
716	0.038
716	0.037
717	0.037
717	0.036
718	0.036
718	0.035
719	0.035
719	0.036
720	0.036
720	0.036
720	0.036
721	0.036
721	0.037
722	0.037
722	0.038
723	0.038
723	0.038
723	0.038
724	0.038
724	0.037
725	0.037
725	0.036
726	0.035
726	0.035
727	0.034
727	0.033
727	0.033
728	0.033
728	0.032
729	0.033
729	0.033
730	0.033
730	0.033
730	0.033
731	0.033
731	0.033
732	0.033
732	0.032
733	0.032
733	0.032
734	0.031
734	0.031
734	0.031
735	0.031
735	0.031
736	0.03
736	0.03
737	0.03
737	0.03
737	0.03
738	0.029
738	0.028
739	0.028
739	0.028
740	0.028
740	0.027
741	0.028
741	0.028
741	0.028
742	0.028
742	0.028
743	0.029
743	0.029
744	0.03
744	0.03
744	0.03
745	0.03
745	0.03
746	0.03
746	0.03
747	0.03
747	0.03
748	0.03
748	0.03
748	0.029
749	0.028
749	0.028
750	0.028
750	0.027
751	0.027
751	0.026
751	0.026
752	0.026
752	0.025
753	0.025
753	0.025
754	0.026
754	0.026
754	0.027
755	0.027
755	0.027
756	0.026
756	0.025
757	0.024
757	0.024
758	0.023
758	0.023
758	0.022
759	0.022
759	0.022
760	0.021
760	0.021
761	0.022
761	0.023
761	0.023
762	0.023
762	0.024
763	0.024
763	0.023
764	0.023
764	0.023
764	0.023
765	0.022
765	0.021
766	0.021
766	0.02
767	0.019
767	0.018
768	0.017
768	0.016
768	0.016
769	0.016
769	0.016
770	0.016
770	0.016
771	0.017
771	0.017
771	0.017
772	0.018
772	0.018
773	0.019
773	0.019
774	0.019
774	0.02
775	0.02
775	0.02
775	0.021
776	0.021
776	0.021
777	0.021
777	0.021
778	0.021
778	0.021
778	0.02
779	0.02
779	0.019
780	0.018
780	0.017
781	0.017
781	0.016
781	0.016
782	0.016
782	0.016
783	0.016
783	0.016
784	0.016
784	0.016
784	0.017
785	0.017
785	0.018
786	0.018
786	0.018
787	0.018
787	0.017
788	0.017
788	0.017
788	0.016
789	0.016
789	0.016
790	0.016
790	0.016
791	0.016
791	0.015
791	0.015
792	0.016
792	0.016
793	0.015
793	0.015
794	0.014
794	0.013
794	0.013
795	0.013
795	0.012
796	0.012
796	0.012
797	0.011
797	0.011
797	0.011
798	0.011
798	0.011
799	0.011
799	0.011
800	0.01
800	0.01
801	0.01
801	0.01
801	0.01
802	0.01
802	0.01
803	0.01
803	0.01
804	0.01
804	0.011
804	0.011
805	0.012
805	0.012
806	0.012
806	0.012
807	0.012
807	0.012
807	0.012
808	0.013
808	0.013
809	0.013
809	0.013
810	0.014
810	0.014
810	0.014
811	0.014
811	0.015
812	0.015
812	0.015
813	0.015
813	0.014
813	0.014
814	0.014
814	0.015
815	0.015
815	0.015
816	0.015
816	0.015
817	0.014
817	0.014
817	0.014
818	0.014
818	0.013
819	0.013
819	0.012
820	0.011
820	0.01
820	0.01
821	0.009
821	0.009
822	0.008
822	0.008
823	0.008
823	0.008
823	0.009
824	0.01
824	0.011
825	0.012
825	0.013
826	0.014
826	0.014
826	0.015
827	0.015
827	0.016
828	0.016
828	0.015
829	0.015
829	0.015
829	0.015
830	0.014
830	0.014
831	0.015
831	0.015
832	0.014
832	0.014
832	0.014
833	0.014
833	0.014
834	0.014
834	0.014
835	0.014
835	0.014
835	0.015
836	0.015
836	0.015
837	0.015
837	0.014
838	0.014
838	0.013
839	0.013
839	0.012
839	0.01
840	0.009
840	0.007
841	0.006
841	0.005
842	0.004
842	0.004
842	0.003
843	0.003
843	0.003
844	0.003
844	0.003
845	0.004
845	0.004
845	0.005
846	0.005
846	0.005
847	0.006
847	0.007
848	0.008
848	0.009
848	0.009
849	0.01
849	0.01
850	0.011
850	0.011
851	0.01
851	0.01
851	0.01
852	0.008
852	0.008
853	0.007
853	0.006
854	0.006
854	0.006
854	0.006
855	0.007
855	0.007
856	0.007
856	0.008
857	0.009
857	0.009
857	0.01
858	0.01
858	0.009
859	0.008
859	0.008
860	0.007
860	0.006
860	0.006
861	0.005
861	0.004
862	0.004
862	0.003
863	0.003
863	0.003
863	0.002
864	0.002
864	0.002
865	0.003
865	0.003
866	0.002
866	0.002
866	0.002
867	0.003
867	0.003
868	0.003
868	0.003
869	0.004
869	0.004
869	0.004
870	0.004
870	0.004
871	0.005
871	0.005
872	0.006
872	0.006
872	0.006
873	0.006
873	0.006
874	0.006
874	0.006
875	0.005
875	0.005
875	0.005
876	0.005
876	0.004
877	0.004
877	0.005
878	0.005
878	0.006
878	0.007
879	0.008
879	0.008
880	0.009
880	0.009
881	0.01
881	0.01
881	0.01
882	0.009
882	0.009
883	0.008
883	0.007
884	0.006
884	0.005
884	0.004
885	0.003
885	0.002
886	0.002
886	0.001
887	0
887	0
887	-0
888	-0.001
888	-0.001
889	-0.001
889	-0.001
890	-0.001
890	-0
890	0
891	0.001
891	0.001
892	0.002
892	0.003
893	0.004
893	0.005
893	0.006
894	0.006
894	0.006
895	0.007
895	0.007
895	0.007
896	0.007
896	0.006
897	0.006
897	0.005
898	0.004
898	0.004
898	0.003
899	0.003
899	0.002
900	0.002
900	0.002
901	0.002
901	0.002
901	0.002
902	0.002
902	0.002
903	0.002
903	0.002
904	0.002
904	0.002
904	0.002
905	0.001
905	0.001
906	0.001
906	0.001
907	0.001
907	0.001
907	0.002
908	0.002
908	0.003
909	0.003
909	0.004
910	0.004
910	0.004
910	0.004
911	0.004
911	0.004
912	0.004
912	0.003
913	0.003
913	0.003
913	0.003
914	0.003
914	0.003
915	0.003
915	0.002
916	0.002
916	0.002
916	0.002
917	0.001
917	0.001
918	0.001
918	0
918	-0
919	-0.001
919	-0.001
920	-0.001
920	-0.001
921	-0.001
921	-0.001
921	-0.001
922	-0
922	0
923	0.001
923	0.001
924	0.002
924	0.002
924	0.003
925	0.004
925	0.004
926	0.004
926	0.004
927	0.005
927	0.005
927	0.005
928	0.005
928	0.005
929	0.005
929	0.005
930	0.004
930	0.004
930	0.004
931	0.004
931	0.004
932	0.004
932	0.003
933	0.003
933	0.003
933	0.003
934	0.003
934	0.003
935	0.003
935	0.003
935	0.003
936	0.003
936	0.002
937	0.002
937	0.002
938	0.002
938	0.002
938	0.002
939	0.002
939	0.002
940	0.002
940	0.002
941	0.002
941	0.003
941	0.003
942	0.003
942	0.004
943	0.004
943	0.004
944	0.004
944	0.004
944	0.004
945	0.004
945	0.004
946	0.003
946	0.003
946	0.003
947	0.002
947	0.002
948	0.002
948	0.001
949	0.001
949	0.001
949	0.001
950	0.001
950	0.001
951	0.001
951	0.001
952	0.001
952	0
952	0
953	0
953	0
954	-0
954	-0
955	-0
955	-0.001
955	-0.001
956	-0
956	0
957	0.001
957	0.001
957	0.002
958	0.003
958	0.003
959	0.004
959	0.004
960	0.004
960	0.005
960	0.005
961	0.004
961	0.004
962	0.004
962	0.004
963	0.004
963	0.003
963	0.003
964	0.003
964	0.003
965	0.003
965	0.003
966	0.004
966	0.004
966	0.004
967	0.004
967	0.005
968	0.005
968	0.006
968	0.006
969	0.006
969	0.006
970	0.006
970	0.005
971	0.005
971	0.005
971	0.005
972	0.005
972	0.004
973	0.004
973	0.003
974	0.003
974	0.003
974	0.003
975	0.004
975	0.004
976	0.004
976	0.004
976	0.004
977	0.003
977	0.003
978	0.003
978	0.003
979	0.002
979	0.002
979	0.002
980	0.001
980	0.001
981	0
981	-0
982	-0
982	-0.001
982	-0.001
983	-0.001
983	-0.001
984	-0.001
984	-0.001
984	-0.001
985	-0.001
985	-0.001
986	-0.001
986	-0.002
987	-0.002
987	-0.002
987	-0.002
988	-0.002
988	-0.003
989	-0.003
989	-0.003
990	-0.004
990	-0.004
990	-0.004
991	-0.004
991	-0.004
992	-0.004
992	-0.004
992	-0.005
993	-0.005
993	-0.005
994	-0.005
994	-0.005
995	-0.006
995	-0.006
995	-0.005
996	-0.005
996	-0.005
997	-0.004
997	-0.003
997	-0.002
998	-0.002
998	-0.001
999	0
999	0.001
1000	0.002
1000	0.003
1000	0.004
1001	0.004
1001	0.005
1002	0.004
1002	0.004
1003	0.005
1003	0.004
1003	0.004
1004	0.004
1004	0.003
1005	0.003
1005	0.003
1005	0.002
1006	0.002
1006	0.002
1007	0.002
1007	0.001
1008	0.001
1008	0.001
1008	0.001
1009	0.001
1009	0.002
1010	0.002
1010	0.002
1010	0.002
1011	0.002
1011	0.002
1012	0.003
1012	0.003
1013	0.002
1013	0.002
1013	0.002
1014	0.002
1014	0.001
1015	0.001
1015	0.001
1016	0.001
1016	0.001
1016	0
1017	0
1017	0
1018	0
1018	0
1018	0
1019	0
1019	0
1020	-0
1020	-0
1021	-0
1021	-0
1021	-0
1022	-0
1022	-0
1023	-0.001
1023	-0.001
1023	-0.001
1024	-0.001
1024	-0.001
1025	-0.001
1025	-0.001
1026	-0.002
1026	-0.002
1026	-0.002
1027	-0.002
1027	-0.002
1028	-0.003
1028	-0.003
1028	-0.003
1029	-0.003
1029	-0.003
1030	-0.003
1030	-0.003
1031	-0.003
1031	-0.003
1031	-0.003
1032	-0.003
1032	-0.003
1033	-0.003
1033	-0.003
1033	-0.003
1034	-0.003
1034	-0.003
1035	-0.003
1035	-0.003
1036	-0.003
1036	-0.003
1036	-0.003
1037	-0.003
1037	-0.003
1038	-0.002
1038	-0.002
1039	-0.002
1039	-0.002
1039	-0.002
1040	-0.001
1040	-0.001
1041	-0.001
1041	-0.001
1041	-0.001
1042	-0.001
1042	-0.001
1043	-0
1043	-0.001
1044	-0.001
1044	-0.001
1044	-0.001
1045	-0.001
1045	-0.001
1046	-0
1046	0
1046	0.001
1047	0.001
1047	0.001
1048	0.002
1048	0.003
1049	0.003
1049	0.003
1049	0.003
1050	0.003
1050	0.002
1051	0.002
1051	0.001
1051	0
1052	-0
1052	-0.001
1053	-0.002
1053	-0.003
1053	-0.004
1054	-0.004
1054	-0.004
1055	-0.004
1055	-0.004
1056	-0.004
1056	-0.004
1056	-0.005
1057	-0.005
1057	-0.006
1058	-0.006
1058	-0.007
1058	-0.008
1059	-0.008
1059	-0.009
1060	-0.01
1060	-0.01
1061	-0.01
1061	-0.01
1061	-0.01
1062	-0.01
1062	-0.01
1063	-0.01
1063	-0.01
1063	-0.01
1064	-0.01
1064	-0.01
1065	-0.01
1065	-0.01
1066	-0.01
1066	-0.01
1066	-0.01
1067	-0.011
1067	-0.011
1068	-0.012
1068	-0.012
1068	-0.012
1069	-0.013
1069	-0.013
1070	-0.014
1070	-0.014
1071	-0.015
1071	-0.015
1071	-0.016
1072	-0.016
1072	-0.017
1073	-0.017
1073	-0.018
1073	-0.018
1074	-0.017
1074	-0.017
1075	-0.017
1075	-0.017
1076	-0.017
1076	-0.016
1076	-0.016
1077	-0.015
1077	-0.015
1078	-0.015
1078	-0.015
1078	-0.015
1079	-0.015
1079	-0.015
1080	-0.015
1080	-0.015
1080	-0.015
1081	-0.015
1081	-0.015
1082	-0.015
1082	-0.015
1083	-0.015
1083	-0.016
1083	-0.016
1084	-0.016
1084	-0.016
1085	-0.016
1085	-0.016
1085	-0.016
1086	-0.016
1086	-0.017
1087	-0.017
1087	-0.018
1088	-0.017
1088	-0.017
1088	-0.017
1089	-0.018
1089	-0.018
1090	-0.019
1090	-0.019
1090	-0.02
1091	-0.02
1091	-0.02
1092	-0.019
1092	-0.019
1092	-0.02
1093	-0.02
1093	-0.019
1094	-0.019
1094	-0.019
1095	-0.019
1095	-0.019
1095	-0.019
1096	-0.02
1096	-0.021
1097	-0.021
1097	-0.022
1097	-0.022
1098	-0.023
1098	-0.024
1099	-0.024
1099	-0.025
1100	-0.025
1100	-0.026
1100	-0.027
1101	-0.028
1101	-0.029
1102	-0.029
1102	-0.03
1102	-0.032
1103	-0.032
1103	-0.032
1104	-0.033
1104	-0.033
1104	-0.034
1105	-0.035
1105	-0.037
1106	-0.038
1106	-0.039
1107	-0.04
1107	-0.04
1107	-0.041
1108	-0.042
1108	-0.043
1109	-0.044
1109	-0.044
1109	-0.044
1110	-0.042
1110	-0.042
1111	-0.042
1111	-0.04
