Data from reversibility-20sec_Absorbance__5486__000000000005486.txt Node

Date: Wed Dec 06 18:41:46 CET 2023
User: Marek
Spectrometer: MAYP115816
Trigger mode: 0
Integration Time (sec): 2.000000E-1
Scans to average: 10
Electric dark correction enabled: true
Nonlinearity correction enabled: true
Boxcar width: 5
XAxis mode: Wavelengths
Number of Pixels in Spectrum: 2068
>>>>>Begin Spectral Data<<<<<
199	-0.175
199	-0.138
200	-0.067
200	-0.016
201	0.012
201	0.032
202	0.046
202	0.055
203	0.062
203	0.065
204	0.081
204	0.097
205	0.108
205	0.114
205	0.113
206	0.114
206	0.11
207	0.11
207	0.111
208	0.107
208	0.108
209	0.107
209	0.103
210	0.102
210	0.102
211	0.101
211	0.103
212	0.101
212	0.104
213	0.105
213	0.108
213	0.107
214	0.109
214	0.11
215	0.113
215	0.113
216	0.115
216	0.111
217	0.116
217	0.118
218	0.118
218	0.124
219	0.129
219	0.127
220	0.128
220	0.128
221	0.129
221	0.131
221	0.138
222	0.145
222	0.146
223	0.152
223	0.152
224	0.157
224	0.17
225	0.181
225	0.19
226	0.202
226	0.211
227	0.219
227	0.225
228	0.242
228	0.255
229	0.273
229	0.295
229	0.317
230	0.342
230	0.372
231	0.402
231	0.442
232	0.478
232	0.522
233	0.566
233	0.613
234	0.663
234	0.713
235	0.765
235	0.816
236	0.865
236	0.915
236	0.963
237	1.017
237	1.067
238	1.114
238	1.16
239	1.207
239	1.25
240	1.29
240	1.328
241	1.367
241	1.402
242	1.437
242	1.471
243	1.498
243	1.525
243	1.551
244	1.572
244	1.594
245	1.614
245	1.637
246	1.652
246	1.671
247	1.682
247	1.695
248	1.71
248	1.724
249	1.733
249	1.741
250	1.747
250	1.754
250	1.755
251	1.761
251	1.763
252	1.767
252	1.767
253	1.77
253	1.768
254	1.766
254	1.767
255	1.765
255	1.763
256	1.762
256	1.761
257	1.761
257	1.759
258	1.76
258	1.759
258	1.758
259	1.757
259	1.756
260	1.757
260	1.758
261	1.76
261	1.763
262	1.766
262	1.767
263	1.771
263	1.772
264	1.776
264	1.779
265	1.782
265	1.783
265	1.784
266	1.783
266	1.784
267	1.781
267	1.783
268	1.783
268	1.784
269	1.785
269	1.784
270	1.783
270	1.783
271	1.78
271	1.78
272	1.776
272	1.774
272	1.768
273	1.761
273	1.753
274	1.747
274	1.74
275	1.733
275	1.726
276	1.718
276	1.71
277	1.702
277	1.692
278	1.682
278	1.669
278	1.654
279	1.636
279	1.614
280	1.587
280	1.554
281	1.516
281	1.472
282	1.428
282	1.384
283	1.34
283	1.298
284	1.258
284	1.219
285	1.183
285	1.15
285	1.121
286	1.095
286	1.074
287	1.055
287	1.038
288	1.025
288	1.013
289	1.003
289	0.994
290	0.986
290	0.98
291	0.974
291	0.969
292	0.964
292	0.96
292	0.956
293	0.953
293	0.949
294	0.946
294	0.943
295	0.941
295	0.938
296	0.935
296	0.933
297	0.93
297	0.927
298	0.924
298	0.922
298	0.919
299	0.917
299	0.914
300	0.911
300	0.909
301	0.907
301	0.904
302	0.901
302	0.899
303	0.897
303	0.895
304	0.893
304	0.891
305	0.888
305	0.886
305	0.884
306	0.882
306	0.88
307	0.878
307	0.875
308	0.873
308	0.87
309	0.867
309	0.865
310	0.862
310	0.86
311	0.857
311	0.854
311	0.85
312	0.847
312	0.844
313	0.841
313	0.837
314	0.834
314	0.83
315	0.826
315	0.822
316	0.817
316	0.813
317	0.809
317	0.804
318	0.799
318	0.794
318	0.789
319	0.783
319	0.778
320	0.773
320	0.767
321	0.761
321	0.755
322	0.749
322	0.743
323	0.737
323	0.73
324	0.724
324	0.718
324	0.711
325	0.704
325	0.698
326	0.691
326	0.684
327	0.677
327	0.671
328	0.664
328	0.657
329	0.65
329	0.643
330	0.636
330	0.629
330	0.622
331	0.615
331	0.608
332	0.601
332	0.594
333	0.587
333	0.58
334	0.574
334	0.567
335	0.56
335	0.554
336	0.547
336	0.541
336	0.534
337	0.528
337	0.522
338	0.516
338	0.51
339	0.504
339	0.498
340	0.493
340	0.487
341	0.481
341	0.476
342	0.47
342	0.465
342	0.46
343	0.454
343	0.449
344	0.444
344	0.44
345	0.435
345	0.43
346	0.426
346	0.422
347	0.417
347	0.413
348	0.409
348	0.405
348	0.401
349	0.398
349	0.394
350	0.391
350	0.387
351	0.384
351	0.381
352	0.378
352	0.375
353	0.372
353	0.369
354	0.366
354	0.363
354	0.36
355	0.358
355	0.354
356	0.352
356	0.349
357	0.346
357	0.344
358	0.341
358	0.339
359	0.336
359	0.334
360	0.332
360	0.33
360	0.328
361	0.327
361	0.325
362	0.323
362	0.322
363	0.32
363	0.318
364	0.317
364	0.315
365	0.313
365	0.311
366	0.31
366	0.308
366	0.306
367	0.305
367	0.303
368	0.301
368	0.3
369	0.299
369	0.297
370	0.296
370	0.295
371	0.294
371	0.292
372	0.291
372	0.29
372	0.289
373	0.288
373	0.287
374	0.286
374	0.285
375	0.284
375	0.284
376	0.283
376	0.282
377	0.281
377	0.28
378	0.279
378	0.279
378	0.278
379	0.277
379	0.277
380	0.276
380	0.275
381	0.274
381	0.274
382	0.273
382	0.273
383	0.272
383	0.272
383	0.271
384	0.271
384	0.27
385	0.27
385	0.269
386	0.269
386	0.269
387	0.268
387	0.268
388	0.267
388	0.267
389	0.266
389	0.266
389	0.266
390	0.266
390	0.265
391	0.265
391	0.265
392	0.264
392	0.264
393	0.264
393	0.264
394	0.263
394	0.263
394	0.262
395	0.262
395	0.262
396	0.261
396	0.261
397	0.261
397	0.26
398	0.26
398	0.26
399	0.26
399	0.259
400	0.259
400	0.259
400	0.259
401	0.259
401	0.258
402	0.258
402	0.258
403	0.257
403	0.257
404	0.257
404	0.257
405	0.257
405	0.256
405	0.256
406	0.256
406	0.256
407	0.255
407	0.255
408	0.255
408	0.255
409	0.254
409	0.254
410	0.254
410	0.254
411	0.253
411	0.253
411	0.253
412	0.253
412	0.252
413	0.252
413	0.252
414	0.251
414	0.251
415	0.251
415	0.25
416	0.25
416	0.25
416	0.249
417	0.249
417	0.249
418	0.249
418	0.248
419	0.248
419	0.247
420	0.247
420	0.247
421	0.246
421	0.246
421	0.246
422	0.246
422	0.245
423	0.245
423	0.245
424	0.244
424	0.244
425	0.244
425	0.243
426	0.243
426	0.243
427	0.242
427	0.242
427	0.242
428	0.241
428	0.241
429	0.241
429	0.24
430	0.24
430	0.24
431	0.24
431	0.24
432	0.24
432	0.24
432	0.239
433	0.239
433	0.239
434	0.239
434	0.238
435	0.238
435	0.238
436	0.238
436	0.238
437	0.238
437	0.237
437	0.237
438	0.237
438	0.236
439	0.236
439	0.236
440	0.236
440	0.236
441	0.235
441	0.235
442	0.235
442	0.235
442	0.234
443	0.234
443	0.234
444	0.234
444	0.234
445	0.234
445	0.233
446	0.233
446	0.233
447	0.232
447	0.232
447	0.232
448	0.232
448	0.232
449	0.231
449	0.231
450	0.231
450	0.231
451	0.231
451	0.231
452	0.231
452	0.231
452	0.23
453	0.23
453	0.23
454	0.23
454	0.23
455	0.23
455	0.229
456	0.229
456	0.229
457	0.228
457	0.228
458	0.228
458	0.228
458	0.228
459	0.227
459	0.227
460	0.227
460	0.227
461	0.226
461	0.226
462	0.226
462	0.225
463	0.225
463	0.225
463	0.225
464	0.224
464	0.224
465	0.223
465	0.223
466	0.223
466	0.223
467	0.223
467	0.223
467	0.223
468	0.223
468	0.223
469	0.223
469	0.223
470	0.223
470	0.223
471	0.223
471	0.223
472	0.223
472	0.223
472	0.223
473	0.223
473	0.223
474	0.223
474	0.223
475	0.223
475	0.223
476	0.223
476	0.223
477	0.222
477	0.222
477	0.223
478	0.222
478	0.222
479	0.222
479	0.222
480	0.222
480	0.222
481	0.222
481	0.222
482	0.222
482	0.222
482	0.222
483	0.223
483	0.223
484	0.223
484	0.223
485	0.223
485	0.223
486	0.223
486	0.223
487	0.223
487	0.223
487	0.223
488	0.223
488	0.223
489	0.224
489	0.225
490	0.225
490	0.225
491	0.226
491	0.226
492	0.226
492	0.227
492	0.227
493	0.227
493	0.228
494	0.228
494	0.228
495	0.228
495	0.229
496	0.229
496	0.23
496	0.23
497	0.231
497	0.231
498	0.231
498	0.232
499	0.232
499	0.233
500	0.233
500	0.234
501	0.234
501	0.234
501	0.234
502	0.235
502	0.235
503	0.235
503	0.236
504	0.236
504	0.237
505	0.237
505	0.237
506	0.238
506	0.238
506	0.239
507	0.239
507	0.24
508	0.24
508	0.24
509	0.24
509	0.241
510	0.241
510	0.241
511	0.242
511	0.243
511	0.243
512	0.244
512	0.244
513	0.245
513	0.245
514	0.245
514	0.246
515	0.246
515	0.247
515	0.247
516	0.248
516	0.248
517	0.248
517	0.249
518	0.249
518	0.25
519	0.25
519	0.25
520	0.25
520	0.25
520	0.251
521	0.251
521	0.251
522	0.251
522	0.251
523	0.251
523	0.251
524	0.251
524	0.252
524	0.252
525	0.252
525	0.252
526	0.252
526	0.252
527	0.252
527	0.252
528	0.252
528	0.253
529	0.253
529	0.253
529	0.253
530	0.253
530	0.253
531	0.253
531	0.253
532	0.253
532	0.252
533	0.252
533	0.252
533	0.252
534	0.252
534	0.251
535	0.251
535	0.251
536	0.251
536	0.251
537	0.251
537	0.251
538	0.251
538	0.251
538	0.251
539	0.251
539	0.251
540	0.251
540	0.251
541	0.25
541	0.25
542	0.249
542	0.249
542	0.249
543	0.248
543	0.248
544	0.248
544	0.248
545	0.248
545	0.248
546	0.248
546	0.247
547	0.247
547	0.247
547	0.247
548	0.246
548	0.246
549	0.246
549	0.246
550	0.245
550	0.245
551	0.244
551	0.244
551	0.244
552	0.243
552	0.243
553	0.242
553	0.242
554	0.242
554	0.241
555	0.24
555	0.239
556	0.239
556	0.239
556	0.238
557	0.238
557	0.238
558	0.238
558	0.238
559	0.238
559	0.238
560	0.238
560	0.238
560	0.238
561	0.238
561	0.238
562	0.237
562	0.236
563	0.235
563	0.234
564	0.234
564	0.233
564	0.233
565	0.233
565	0.232
566	0.232
566	0.232
567	0.232
567	0.232
568	0.232
568	0.231
568	0.231
569	0.231
569	0.23
570	0.23
570	0.229
571	0.229
571	0.228
572	0.227
572	0.227
573	0.227
573	0.226
573	0.226
574	0.225
574	0.225
575	0.225
575	0.225
576	0.225
576	0.224
577	0.223
577	0.223
577	0.223
578	0.222
578	0.222
579	0.222
579	0.222
580	0.222
580	0.221
581	0.22
581	0.22
581	0.22
582	0.22
582	0.22
583	0.22
583	0.22
584	0.219
584	0.218
585	0.217
585	0.218
585	0.217
586	0.217
586	0.216
587	0.216
587	0.215
588	0.214
588	0.214
589	0.214
589	0.214
590	0.214
590	0.214
590	0.214
591	0.214
591	0.214
592	0.214
592	0.213
593	0.213
593	0.213
594	0.212
594	0.212
594	0.211
595	0.211
595	0.21
596	0.209
596	0.21
597	0.21
597	0.211
598	0.21
598	0.21
598	0.21
599	0.21
599	0.209
600	0.209
600	0.208
601	0.208
601	0.208
602	0.207
602	0.207
602	0.206
603	0.206
603	0.207
604	0.207
604	0.207
605	0.207
605	0.207
606	0.207
606	0.206
606	0.206
607	0.206
607	0.205
608	0.205
608	0.204
609	0.204
609	0.204
610	0.203
610	0.203
610	0.203
611	0.203
611	0.203
612	0.203
612	0.203
613	0.203
613	0.203
614	0.202
614	0.202
614	0.202
615	0.202
615	0.202
616	0.202
616	0.202
617	0.202
617	0.202
618	0.201
618	0.201
618	0.202
619	0.202
619	0.202
620	0.202
620	0.202
621	0.201
621	0.201
622	0.201
622	0.201
622	0.2
623	0.2
623	0.2
624	0.199
624	0.199
625	0.198
625	0.198
626	0.198
626	0.197
626	0.197
627	0.197
627	0.197
628	0.196
628	0.196
629	0.196
629	0.195
630	0.195
630	0.194
630	0.194
631	0.194
631	0.194
632	0.194
632	0.193
633	0.194
633	0.194
634	0.194
634	0.195
634	0.195
635	0.195
635	0.195
636	0.195
636	0.195
637	0.194
637	0.194
638	0.194
638	0.194
638	0.193
639	0.193
639	0.193
640	0.193
640	0.193
641	0.192
641	0.192
642	0.192
642	0.192
642	0.193
643	0.193
643	0.193
644	0.193
644	0.192
645	0.192
645	0.192
646	0.192
646	0.192
646	0.192
647	0.192
647	0.192
648	0.191
648	0.191
649	0.191
649	0.19
650	0.19
650	0.19
650	0.19
651	0.19
651	0.19
652	0.19
652	0.19
653	0.19
653	0.192
653	0.198
654	0.155
654	0.124
655	0.125
655	0.125
656	0.126
656	0.126
657	0.127
657	0.127
657	0.127
658	0.126
658	0.115
659	0.145
659	0.187
660	0.192
660	0.192
661	0.191
661	0.191
661	0.19
662	0.19
662	0.19
663	0.19
663	0.19
664	0.189
664	0.189
665	0.189
665	0.189
665	0.189
666	0.189
666	0.19
667	0.19
667	0.19
668	0.191
668	0.191
669	0.191
669	0.192
669	0.193
670	0.193
670	0.193
671	0.193
671	0.193
672	0.193
672	0.193
672	0.192
673	0.192
673	0.192
674	0.192
674	0.191
675	0.191
675	0.19
676	0.19
676	0.19
676	0.19
677	0.189
677	0.189
678	0.189
678	0.188
679	0.188
679	0.188
680	0.188
680	0.188
680	0.188
681	0.189
681	0.189
682	0.19
682	0.19
683	0.191
683	0.192
684	0.192
684	0.192
684	0.192
685	0.192
685	0.193
686	0.193
686	0.192
687	0.192
687	0.192
687	0.192
688	0.192
688	0.192
689	0.192
689	0.192
690	0.192
690	0.192
691	0.192
691	0.192
691	0.192
692	0.192
692	0.192
693	0.192
693	0.192
694	0.192
694	0.191
695	0.192
695	0.193
695	0.193
696	0.193
696	0.193
697	0.192
697	0.192
698	0.192
698	0.191
698	0.191
699	0.191
699	0.191
700	0.19
700	0.19
701	0.191
701	0.191
702	0.191
702	0.192
702	0.192
703	0.192
703	0.193
704	0.193
704	0.193
705	0.194
705	0.194
705	0.194
706	0.194
706	0.195
707	0.195
707	0.195
708	0.195
708	0.196
709	0.196
709	0.196
709	0.196
710	0.196
710	0.196
711	0.196
711	0.196
712	0.196
712	0.195
713	0.195
713	0.195
713	0.195
714	0.194
714	0.194
715	0.194
715	0.193
716	0.193
716	0.193
716	0.192
717	0.192
717	0.192
718	0.192
718	0.192
719	0.192
719	0.193
720	0.193
720	0.194
720	0.194
721	0.195
721	0.196
722	0.196
722	0.197
723	0.198
723	0.198
723	0.198
724	0.198
724	0.198
725	0.198
725	0.197
726	0.197
726	0.196
727	0.196
727	0.195
727	0.195
728	0.194
728	0.194
729	0.194
729	0.194
730	0.194
730	0.194
730	0.194
731	0.195
731	0.195
732	0.195
732	0.196
733	0.196
733	0.196
734	0.196
734	0.197
734	0.197
735	0.198
735	0.198
736	0.198
736	0.198
737	0.198
737	0.199
737	0.199
738	0.198
738	0.198
739	0.197
739	0.197
740	0.197
740	0.197
741	0.197
741	0.197
741	0.197
742	0.196
742	0.197
743	0.198
743	0.199
744	0.2
744	0.2
744	0.201
745	0.201
745	0.201
746	0.202
746	0.202
747	0.202
747	0.202
748	0.202
748	0.202
748	0.202
749	0.202
749	0.202
750	0.201
750	0.201
751	0.2
751	0.2
751	0.2
752	0.199
752	0.198
753	0.198
753	0.197
754	0.197
754	0.197
754	0.197
755	0.197
755	0.197
756	0.197
756	0.196
757	0.196
757	0.197
758	0.197
758	0.197
758	0.198
759	0.198
759	0.198
760	0.198
760	0.199
761	0.199
761	0.2
761	0.201
762	0.201
762	0.201
763	0.201
763	0.201
764	0.201
764	0.201
764	0.201
765	0.2
765	0.2
766	0.2
766	0.2
767	0.199
767	0.199
768	0.198
768	0.198
768	0.198
769	0.198
769	0.199
770	0.199
770	0.2
771	0.2
771	0.201
771	0.201
772	0.202
772	0.203
773	0.203
773	0.203
774	0.204
774	0.204
775	0.204
775	0.205
775	0.205
776	0.205
776	0.205
777	0.206
777	0.206
778	0.206
778	0.206
778	0.206
779	0.206
779	0.206
780	0.205
780	0.205
781	0.205
781	0.205
781	0.205
782	0.205
782	0.205
783	0.206
783	0.207
784	0.207
784	0.207
784	0.208
785	0.209
785	0.209
786	0.21
786	0.21
787	0.21
787	0.209
788	0.208
788	0.208
788	0.207
789	0.206
789	0.205
790	0.205
790	0.204
791	0.204
791	0.203
791	0.202
792	0.203
792	0.203
793	0.203
793	0.204
794	0.204
794	0.204
794	0.204
795	0.205
795	0.205
796	0.206
796	0.206
797	0.206
797	0.207
797	0.207
798	0.207
798	0.207
799	0.207
799	0.207
800	0.207
800	0.207
801	0.207
801	0.207
801	0.207
802	0.207
802	0.207
803	0.207
803	0.208
804	0.208
804	0.208
804	0.208
805	0.208
805	0.208
806	0.207
806	0.207
807	0.207
807	0.207
807	0.207
808	0.207
808	0.207
809	0.207
809	0.208
810	0.208
810	0.208
810	0.209
811	0.209
811	0.21
812	0.211
812	0.211
813	0.212
813	0.212
813	0.213
814	0.214
814	0.214
815	0.215
815	0.216
816	0.216
816	0.216
817	0.215
817	0.216
817	0.216
818	0.215
818	0.216
819	0.215
819	0.215
820	0.214
820	0.214
820	0.214
821	0.214
821	0.214
822	0.214
822	0.213
823	0.213
823	0.213
823	0.213
824	0.214
824	0.214
825	0.215
825	0.215
826	0.216
826	0.215
826	0.216
827	0.216
827	0.216
828	0.216
828	0.216
829	0.217
829	0.217
829	0.217
830	0.217
830	0.217
831	0.218
831	0.218
832	0.218
832	0.218
832	0.218
833	0.218
833	0.218
834	0.217
834	0.217
835	0.217
835	0.217
835	0.217
836	0.217
836	0.217
837	0.217
837	0.217
838	0.217
838	0.217
839	0.216
839	0.215
839	0.214
840	0.213
840	0.212
841	0.211
841	0.21
842	0.209
842	0.208
842	0.207
843	0.207
843	0.206
844	0.205
844	0.205
845	0.204
845	0.204
845	0.204
846	0.204
846	0.205
847	0.205
847	0.206
848	0.206
848	0.207
848	0.208
849	0.209
849	0.21
850	0.211
850	0.212
851	0.212
851	0.213
851	0.213
852	0.212
852	0.212
853	0.211
853	0.211
854	0.211
854	0.211
854	0.212
855	0.212
855	0.212
856	0.212
856	0.213
857	0.214
857	0.214
857	0.215
858	0.215
858	0.215
859	0.214
859	0.213
860	0.212
860	0.212
860	0.211
861	0.21
861	0.209
862	0.208
862	0.207
863	0.207
863	0.207
863	0.206
864	0.207
864	0.207
865	0.207
865	0.208
866	0.208
866	0.208
866	0.208
867	0.209
867	0.209
868	0.21
868	0.21
869	0.211
869	0.211
869	0.211
870	0.211
870	0.211
871	0.212
871	0.212
872	0.212
872	0.212
872	0.211
873	0.211
873	0.21
874	0.21
874	0.209
875	0.209
875	0.208
875	0.207
876	0.207
876	0.206
877	0.206
877	0.206
878	0.206
878	0.206
878	0.206
879	0.206
879	0.207
880	0.207
880	0.207
881	0.207
881	0.207
881	0.207
882	0.207
882	0.207
883	0.207
883	0.207
884	0.207
884	0.207
884	0.207
885	0.206
885	0.206
886	0.205
886	0.205
887	0.204
887	0.203
887	0.202
888	0.202
888	0.201
889	0.2
889	0.2
890	0.2
890	0.199
890	0.199
891	0.199
891	0.199
892	0.199
892	0.199
893	0.199
893	0.199
893	0.199
894	0.199
894	0.199
895	0.198
895	0.199
895	0.199
896	0.199
896	0.199
897	0.199
897	0.199
898	0.199
898	0.199
898	0.199
899	0.199
899	0.199
900	0.198
900	0.197
901	0.197
901	0.196
901	0.195
902	0.195
902	0.194
903	0.193
903	0.192
904	0.192
904	0.191
904	0.19
905	0.19
905	0.19
906	0.189
906	0.189
907	0.189
907	0.189
907	0.189
908	0.189
908	0.189
909	0.188
909	0.188
910	0.188
910	0.188
910	0.187
911	0.187
911	0.187
912	0.186
912	0.186
913	0.186
913	0.187
913	0.187
914	0.187
914	0.187
915	0.188
915	0.188
916	0.188
916	0.188
916	0.188
917	0.188
917	0.188
918	0.187
918	0.187
918	0.186
919	0.186
919	0.185
920	0.185
920	0.185
921	0.185
921	0.184
921	0.184
922	0.184
922	0.184
923	0.184
923	0.184
924	0.185
924	0.185
924	0.185
925	0.186
925	0.186
926	0.186
926	0.187
927	0.187
927	0.187
927	0.187
928	0.187
928	0.186
929	0.186
929	0.185
930	0.184
930	0.183
930	0.182
931	0.181
931	0.18
932	0.179
932	0.178
933	0.178
933	0.178
933	0.177
934	0.177
934	0.177
935	0.177
935	0.176
935	0.177
936	0.177
936	0.176
937	0.176
937	0.176
938	0.176
938	0.176
938	0.175
939	0.175
939	0.174
940	0.173
940	0.173
941	0.172
941	0.172
941	0.171
942	0.171
942	0.171
943	0.171
943	0.17
944	0.17
944	0.17
944	0.17
945	0.171
945	0.171
946	0.171
946	0.171
946	0.171
947	0.171
947	0.171
948	0.171
948	0.171
949	0.171
949	0.17
949	0.17
950	0.169
950	0.169
951	0.168
951	0.167
952	0.167
952	0.166
952	0.166
953	0.166
953	0.166
954	0.166
954	0.165
955	0.165
955	0.165
955	0.165
956	0.165
956	0.165
957	0.165
957	0.165
957	0.164
958	0.164
958	0.164
959	0.163
959	0.163
960	0.162
960	0.162
960	0.161
961	0.161
961	0.16
962	0.16
962	0.16
963	0.16
963	0.16
963	0.16
964	0.16
964	0.161
965	0.161
965	0.161
966	0.161
966	0.161
966	0.161
967	0.161
967	0.16
968	0.16
968	0.16
968	0.159
969	0.158
969	0.157
970	0.157
970	0.156
971	0.155
971	0.154
971	0.154
972	0.153
972	0.152
973	0.151
973	0.151
974	0.151
974	0.15
974	0.15
975	0.15
975	0.15
976	0.15
976	0.151
976	0.151
977	0.151
977	0.151
978	0.15
978	0.15
979	0.15
979	0.149
979	0.149
980	0.149
980	0.149
981	0.148
981	0.147
982	0.147
982	0.147
982	0.147
983	0.146
983	0.146
984	0.146
984	0.145
984	0.145
985	0.145
985	0.145
986	0.145
986	0.144
987	0.144
987	0.144
987	0.144
988	0.143
988	0.143
989	0.143
989	0.142
990	0.141
990	0.141
990	0.14
991	0.14
991	0.139
992	0.139
992	0.138
992	0.137
993	0.136
993	0.136
994	0.135
994	0.134
995	0.134
995	0.133
995	0.134
996	0.134
996	0.134
997	0.134
997	0.135
997	0.135
998	0.135
998	0.136
999	0.137
999	0.137
1000	0.138
1000	0.138
1000	0.138
1001	0.138
1001	0.138
1002	0.138
1002	0.137
1003	0.137
1003	0.136
1003	0.136
1004	0.135
1004	0.134
1005	0.134
1005	0.133
1005	0.132
1006	0.132
1006	0.132
1007	0.131
1007	0.131
1008	0.131
1008	0.131
1008	0.131
1009	0.132
1009	0.132
1010	0.132
1010	0.132
1010	0.132
1011	0.133
1011	0.132
1012	0.133
1012	0.133
1013	0.133
1013	0.132
1013	0.132
1014	0.131
1014	0.131
1015	0.131
1015	0.131
1016	0.13
1016	0.13
1016	0.13
1017	0.129
1017	0.128
1018	0.128
1018	0.127
1018	0.127
1019	0.127
1019	0.126
1020	0.126
1020	0.125
1021	0.125
1021	0.125
1021	0.125
1022	0.125
1022	0.125
1023	0.125
1023	0.125
1023	0.125
1024	0.125
1024	0.126
1025	0.125
1025	0.125
1026	0.125
1026	0.125
1026	0.125
1027	0.125
1027	0.125
1028	0.125
1028	0.125
1028	0.124
1029	0.124
1029	0.124
1030	0.124
1030	0.125
1031	0.125
1031	0.125
1031	0.125
1032	0.125
1032	0.125
1033	0.126
1033	0.126
1033	0.126
1034	0.126
1034	0.126
1035	0.125
1035	0.125
1036	0.125
1036	0.125
1036	0.125
1037	0.125
1037	0.124
1038	0.124
1038	0.124
1039	0.124
1039	0.124
1039	0.124
1040	0.124
1040	0.124
1041	0.124
1041	0.124
1041	0.124
1042	0.124
1042	0.124
1043	0.124
1043	0.124
1044	0.123
1044	0.123
1044	0.123
1045	0.123
1045	0.123
1046	0.122
1046	0.122
1046	0.122
1047	0.122
1047	0.122
1048	0.123
1048	0.123
1049	0.123
1049	0.123
1049	0.122
1050	0.122
1050	0.122
1051	0.121
1051	0.121
1051	0.12
1052	0.119
1052	0.118
1053	0.117
1053	0.116
1053	0.115
1054	0.114
1054	0.114
1055	0.113
1055	0.112
1056	0.111
1056	0.111
1056	0.11
1057	0.109
1057	0.109
1058	0.108
1058	0.108
1058	0.107
1059	0.106
1059	0.106
1060	0.105
1060	0.105
1061	0.104
1061	0.104
1061	0.103
1062	0.103
1062	0.103
1063	0.103
1063	0.102
1063	0.102
1064	0.101
1064	0.101
1065	0.101
1065	0.101
1066	0.101
1066	0.101
1066	0.1
1067	0.1
1067	0.099
1068	0.099
1068	0.099
1068	0.098
1069	0.098
1069	0.097
1070	0.096
1070	0.095
1071	0.094
1071	0.094
1071	0.093
1072	0.093
1072	0.092
1073	0.091
1073	0.091
1073	0.09
1074	0.09
1074	0.09
1075	0.09
1075	0.091
1076	0.091
1076	0.091
1076	0.091
1077	0.091
1077	0.091
1078	0.091
1078	0.091
1078	0.091
1079	0.091
1079	0.09
1080	0.089
1080	0.089
1080	0.089
1081	0.088
1081	0.088
1082	0.089
1082	0.089
1083	0.089
1083	0.088
1083	0.089
1084	0.088
1084	0.088
1085	0.088
1085	0.088
1085	0.088
1086	0.088
1086	0.087
1087	0.087
1087	0.087
1088	0.086
1088	0.086
1088	0.086
1089	0.085
1089	0.084
1090	0.084
1090	0.083
1090	0.082
1091	0.082
1091	0.081
1092	0.081
1092	0.081
1092	0.081
1093	0.08
1093	0.08
1094	0.08
1094	0.08
1095	0.08
1095	0.079
1095	0.079
1096	0.079
1096	0.077
1097	0.077
1097	0.076
1097	0.075
1098	0.075
1098	0.074
1099	0.072
1099	0.071
1100	0.07
1100	0.069
1100	0.067
1101	0.066
1101	0.065
1102	0.064
1102	0.063
1102	0.061
1103	0.06
1103	0.06
1104	0.06
1104	0.058
1104	0.057
1105	0.056
1105	0.054
1106	0.051
1106	0.049
1107	0.048
1107	0.047
1107	0.045
1108	0.044
1108	0.041
1109	0.04
1109	0.038
1109	0.038
1110	0.039
1110	0.039
1111	0.037
1111	0.036
