Data from reversibility-20sec_Absorbance__5507__000000000005507.txt Node

Date: Wed Dec 06 18:48:46 CET 2023
User: Marek
Spectrometer: MAYP115816
Trigger mode: 0
Integration Time (sec): 2.000000E-1
Scans to average: 10
Electric dark correction enabled: true
Nonlinearity correction enabled: true
Boxcar width: 5
XAxis mode: Wavelengths
Number of Pixels in Spectrum: 2068
>>>>>Begin Spectral Data<<<<<
199	-0.189
199	-0.169
200	-0.1
200	-0.037
201	-0.005
201	0.013
202	0.025
202	0.034
203	0.042
203	0.046
204	0.061
204	0.076
205	0.092
205	0.099
205	0.095
206	0.095
206	0.094
207	0.093
207	0.093
208	0.094
208	0.093
209	0.094
209	0.091
210	0.09
210	0.092
211	0.096
211	0.097
212	0.097
212	0.102
213	0.103
213	0.102
213	0.101
214	0.106
214	0.106
215	0.106
215	0.102
216	0.101
216	0.101
217	0.105
217	0.106
218	0.104
218	0.109
219	0.114
219	0.114
220	0.121
220	0.122
221	0.127
221	0.128
221	0.131
222	0.135
222	0.14
223	0.148
223	0.152
224	0.156
224	0.162
225	0.17
225	0.178
226	0.185
226	0.195
227	0.205
227	0.216
228	0.23
228	0.244
229	0.26
229	0.283
229	0.306
230	0.329
230	0.361
231	0.393
231	0.429
232	0.468
232	0.511
233	0.554
233	0.602
234	0.653
234	0.705
235	0.757
235	0.811
236	0.861
236	0.915
236	0.97
237	1.02
237	1.069
238	1.114
238	1.161
239	1.207
239	1.249
240	1.288
240	1.321
241	1.356
241	1.391
242	1.421
242	1.455
243	1.484
243	1.509
243	1.535
244	1.557
244	1.578
245	1.597
245	1.62
246	1.641
246	1.657
247	1.669
247	1.684
248	1.696
248	1.711
249	1.718
249	1.724
250	1.734
250	1.742
250	1.746
251	1.747
251	1.75
252	1.756
252	1.757
253	1.76
253	1.756
254	1.757
254	1.759
255	1.758
255	1.759
256	1.759
256	1.759
257	1.759
257	1.758
258	1.758
258	1.756
258	1.757
259	1.757
259	1.756
260	1.754
260	1.755
261	1.755
261	1.758
262	1.761
262	1.761
263	1.763
263	1.764
264	1.768
264	1.769
265	1.769
265	1.771
265	1.773
266	1.772
266	1.773
267	1.771
267	1.772
268	1.772
268	1.772
269	1.773
269	1.773
270	1.773
270	1.771
271	1.767
271	1.766
272	1.764
272	1.761
272	1.757
273	1.751
273	1.745
274	1.74
274	1.734
275	1.727
275	1.722
276	1.715
276	1.709
277	1.7
277	1.691
278	1.68
278	1.668
278	1.655
279	1.638
279	1.619
280	1.596
280	1.566
281	1.532
281	1.493
282	1.454
282	1.413
283	1.373
283	1.333
284	1.294
284	1.257
285	1.221
285	1.189
285	1.16
286	1.134
286	1.113
287	1.093
287	1.076
288	1.061
288	1.049
289	1.039
289	1.03
290	1.022
290	1.015
291	1.009
291	1.004
292	0.999
292	0.994
292	0.99
293	0.986
293	0.983
294	0.979
294	0.976
295	0.973
295	0.97
296	0.966
296	0.963
297	0.96
297	0.958
298	0.955
298	0.952
298	0.949
299	0.947
299	0.944
300	0.941
300	0.938
301	0.936
301	0.933
302	0.931
302	0.929
303	0.927
303	0.924
304	0.922
304	0.92
305	0.917
305	0.915
305	0.913
306	0.91
306	0.908
307	0.905
307	0.902
308	0.9
308	0.897
309	0.894
309	0.892
310	0.889
310	0.886
311	0.883
311	0.88
311	0.877
312	0.874
312	0.87
313	0.867
313	0.863
314	0.859
314	0.855
315	0.851
315	0.847
316	0.843
316	0.838
317	0.834
317	0.829
318	0.824
318	0.819
318	0.814
319	0.809
319	0.803
320	0.798
320	0.791
321	0.786
321	0.78
322	0.774
322	0.768
323	0.761
323	0.755
324	0.749
324	0.742
324	0.736
325	0.729
325	0.722
326	0.716
326	0.709
327	0.702
327	0.695
328	0.689
328	0.682
329	0.675
329	0.668
330	0.661
330	0.654
330	0.647
331	0.64
331	0.634
332	0.627
332	0.62
333	0.613
333	0.606
334	0.599
334	0.592
335	0.586
335	0.579
336	0.572
336	0.566
336	0.56
337	0.553
337	0.547
338	0.541
338	0.535
339	0.529
339	0.523
340	0.518
340	0.512
341	0.507
341	0.501
342	0.496
342	0.49
342	0.485
343	0.48
343	0.475
344	0.47
344	0.465
345	0.46
345	0.456
346	0.451
346	0.447
347	0.442
347	0.438
348	0.434
348	0.431
348	0.427
349	0.423
349	0.419
350	0.416
350	0.412
351	0.409
351	0.405
352	0.402
352	0.399
353	0.396
353	0.393
354	0.391
354	0.388
354	0.385
355	0.382
355	0.379
356	0.376
356	0.374
357	0.37
357	0.368
358	0.365
358	0.362
359	0.36
359	0.358
360	0.356
360	0.354
360	0.352
361	0.35
361	0.348
362	0.347
362	0.345
363	0.344
363	0.342
364	0.34
364	0.338
365	0.336
365	0.335
366	0.333
366	0.331
366	0.329
367	0.328
367	0.326
368	0.325
368	0.323
369	0.321
369	0.32
370	0.319
370	0.317
371	0.316
371	0.315
372	0.314
372	0.312
372	0.311
373	0.31
373	0.309
374	0.309
374	0.307
375	0.307
375	0.306
376	0.305
376	0.304
377	0.303
377	0.302
378	0.301
378	0.301
378	0.3
379	0.299
379	0.298
380	0.297
380	0.296
381	0.296
381	0.295
382	0.294
382	0.294
383	0.293
383	0.292
383	0.292
384	0.291
384	0.29
385	0.29
385	0.289
386	0.289
386	0.289
387	0.288
387	0.287
388	0.287
388	0.287
389	0.286
389	0.286
389	0.286
390	0.285
390	0.285
391	0.285
391	0.284
392	0.284
392	0.284
393	0.283
393	0.283
394	0.282
394	0.282
394	0.282
395	0.281
395	0.281
396	0.281
396	0.28
397	0.28
397	0.279
398	0.279
398	0.279
399	0.279
399	0.278
400	0.278
400	0.278
400	0.277
401	0.277
401	0.277
402	0.277
402	0.276
403	0.276
403	0.276
404	0.275
404	0.275
405	0.275
405	0.275
405	0.274
406	0.274
406	0.274
407	0.273
407	0.273
408	0.273
408	0.273
409	0.272
409	0.272
410	0.272
410	0.271
411	0.271
411	0.271
411	0.271
412	0.27
412	0.27
413	0.27
413	0.27
414	0.269
414	0.269
415	0.269
415	0.268
416	0.268
416	0.268
416	0.267
417	0.267
417	0.267
418	0.267
418	0.266
419	0.266
419	0.265
420	0.265
420	0.264
421	0.264
421	0.264
421	0.263
422	0.263
422	0.262
423	0.262
423	0.262
424	0.261
424	0.261
425	0.261
425	0.261
426	0.26
426	0.26
427	0.26
427	0.259
427	0.259
428	0.259
428	0.259
429	0.258
429	0.258
430	0.258
430	0.257
431	0.257
431	0.257
432	0.257
432	0.257
432	0.257
433	0.257
433	0.256
434	0.256
434	0.256
435	0.256
435	0.256
436	0.255
436	0.255
437	0.255
437	0.255
437	0.254
438	0.254
438	0.254
439	0.254
439	0.254
440	0.253
440	0.253
441	0.253
441	0.253
442	0.253
442	0.252
442	0.252
443	0.252
443	0.252
444	0.252
444	0.252
445	0.251
445	0.251
446	0.251
446	0.251
447	0.25
447	0.25
447	0.25
448	0.25
448	0.25
449	0.25
449	0.249
450	0.249
450	0.249
451	0.249
451	0.249
452	0.249
452	0.249
452	0.249
453	0.249
453	0.249
454	0.248
454	0.248
455	0.248
455	0.248
456	0.248
456	0.247
457	0.247
457	0.247
458	0.247
458	0.247
458	0.247
459	0.246
459	0.246
460	0.246
460	0.246
461	0.246
461	0.246
462	0.246
462	0.246
463	0.245
463	0.245
463	0.245
464	0.245
464	0.245
465	0.244
465	0.244
466	0.244
466	0.244
467	0.244
467	0.244
467	0.244
468	0.244
468	0.243
469	0.243
469	0.244
470	0.244
470	0.244
471	0.244
471	0.244
472	0.245
472	0.245
472	0.245
473	0.245
473	0.245
474	0.245
474	0.245
475	0.246
475	0.246
476	0.246
476	0.246
477	0.246
477	0.246
477	0.247
478	0.247
478	0.247
479	0.247
479	0.247
480	0.247
480	0.248
481	0.248
481	0.248
482	0.248
482	0.248
482	0.248
483	0.248
483	0.249
484	0.249
484	0.249
485	0.249
485	0.249
486	0.249
486	0.25
487	0.25
487	0.25
487	0.251
488	0.251
488	0.252
489	0.252
489	0.253
490	0.254
490	0.255
491	0.255
491	0.256
492	0.257
492	0.257
492	0.258
493	0.258
493	0.258
494	0.259
494	0.26
495	0.26
495	0.261
496	0.261
496	0.262
496	0.263
497	0.263
497	0.264
498	0.265
498	0.266
499	0.267
499	0.267
500	0.268
500	0.269
501	0.27
501	0.27
501	0.271
502	0.272
502	0.272
503	0.273
503	0.273
504	0.274
504	0.274
505	0.275
505	0.275
506	0.276
506	0.277
506	0.277
507	0.278
507	0.279
508	0.279
508	0.28
509	0.28
509	0.281
510	0.281
510	0.282
511	0.283
511	0.283
511	0.284
512	0.285
512	0.286
513	0.286
513	0.287
514	0.288
514	0.289
515	0.289
515	0.289
515	0.29
516	0.29
516	0.291
517	0.291
517	0.292
518	0.292
518	0.292
519	0.293
519	0.293
520	0.293
520	0.293
520	0.293
521	0.293
521	0.293
522	0.293
522	0.293
523	0.293
523	0.293
524	0.293
524	0.293
524	0.294
525	0.293
525	0.293
526	0.293
526	0.293
527	0.293
527	0.293
528	0.293
528	0.292
529	0.292
529	0.292
529	0.291
530	0.291
530	0.291
531	0.291
531	0.29
532	0.289
532	0.289
533	0.289
533	0.288
533	0.288
534	0.288
534	0.287
535	0.287
535	0.286
536	0.286
536	0.286
537	0.285
537	0.284
538	0.284
538	0.283
538	0.282
539	0.282
539	0.281
540	0.281
540	0.28
541	0.279
541	0.278
542	0.277
542	0.277
542	0.276
543	0.275
543	0.275
544	0.274
544	0.273
545	0.273
545	0.272
546	0.271
546	0.27
547	0.269
547	0.269
547	0.268
548	0.267
548	0.266
549	0.265
549	0.265
550	0.264
550	0.263
551	0.262
551	0.261
551	0.261
552	0.26
552	0.259
553	0.258
553	0.257
554	0.256
554	0.255
555	0.254
555	0.253
556	0.252
556	0.252
556	0.251
557	0.251
557	0.25
558	0.25
558	0.249
559	0.249
559	0.248
560	0.248
560	0.247
560	0.246
561	0.246
561	0.245
562	0.244
562	0.242
563	0.241
563	0.24
564	0.239
564	0.239
564	0.238
565	0.237
565	0.237
566	0.236
566	0.235
567	0.235
567	0.235
568	0.234
568	0.233
568	0.233
569	0.232
569	0.231
570	0.23
570	0.229
571	0.228
571	0.228
572	0.227
572	0.226
573	0.225
573	0.225
573	0.224
574	0.223
574	0.222
575	0.222
575	0.222
576	0.221
576	0.221
577	0.22
577	0.219
577	0.219
578	0.218
578	0.218
579	0.218
579	0.217
580	0.216
580	0.215
581	0.214
581	0.214
581	0.214
582	0.213
582	0.213
583	0.213
583	0.213
584	0.212
584	0.211
585	0.21
585	0.21
585	0.21
586	0.209
586	0.208
587	0.207
587	0.206
588	0.206
588	0.205
589	0.205
589	0.204
590	0.204
590	0.204
590	0.204
591	0.205
591	0.204
592	0.204
592	0.203
593	0.203
593	0.202
594	0.202
594	0.201
594	0.2
595	0.2
595	0.199
596	0.198
596	0.198
597	0.198
597	0.199
598	0.198
598	0.198
598	0.197
599	0.197
599	0.197
600	0.196
600	0.195
601	0.195
601	0.195
602	0.194
602	0.194
602	0.193
603	0.193
603	0.193
604	0.193
604	0.193
605	0.193
605	0.193
606	0.193
606	0.192
606	0.191
607	0.191
607	0.191
608	0.19
608	0.189
609	0.189
609	0.189
610	0.188
610	0.188
610	0.188
611	0.188
611	0.188
612	0.188
612	0.188
613	0.188
613	0.188
614	0.187
614	0.187
614	0.187
615	0.186
615	0.186
616	0.186
616	0.186
617	0.186
617	0.185
618	0.185
618	0.185
618	0.185
619	0.185
619	0.186
620	0.186
620	0.185
621	0.185
621	0.185
622	0.184
622	0.184
622	0.183
623	0.182
623	0.182
624	0.182
624	0.181
625	0.18
625	0.18
626	0.18
626	0.179
626	0.179
627	0.179
627	0.179
628	0.178
628	0.178
629	0.177
629	0.177
630	0.176
630	0.176
630	0.176
631	0.175
631	0.175
632	0.175
632	0.175
633	0.175
633	0.175
634	0.176
634	0.176
634	0.176
635	0.176
635	0.176
636	0.176
636	0.176
637	0.176
637	0.176
638	0.175
638	0.175
638	0.175
639	0.174
639	0.174
640	0.174
640	0.173
641	0.173
641	0.173
642	0.173
642	0.173
642	0.173
643	0.173
643	0.173
644	0.173
644	0.173
645	0.173
645	0.173
646	0.173
646	0.173
646	0.173
647	0.173
647	0.172
648	0.172
648	0.171
649	0.171
649	0.171
650	0.171
650	0.171
650	0.171
651	0.171
651	0.17
652	0.17
652	0.17
653	0.171
653	0.172
653	0.179
654	0.141
654	0.113
655	0.113
655	0.113
656	0.113
656	0.114
657	0.114
657	0.114
657	0.115
658	0.113
658	0.103
659	0.13
659	0.167
660	0.172
660	0.172
661	0.172
661	0.171
661	0.171
662	0.171
662	0.17
663	0.17
663	0.17
664	0.17
664	0.169
665	0.169
665	0.169
665	0.17
666	0.17
666	0.17
667	0.171
667	0.171
668	0.171
668	0.172
669	0.172
669	0.172
669	0.172
670	0.172
670	0.172
671	0.172
671	0.171
672	0.171
672	0.171
672	0.17
673	0.17
673	0.17
674	0.17
674	0.169
675	0.169
675	0.169
676	0.169
676	0.169
676	0.169
677	0.169
677	0.169
678	0.168
678	0.168
679	0.167
679	0.167
680	0.167
680	0.166
680	0.166
681	0.166
681	0.166
682	0.167
682	0.167
683	0.168
683	0.169
684	0.17
684	0.17
684	0.17
685	0.17
685	0.171
686	0.171
686	0.171
687	0.17
687	0.17
687	0.17
688	0.17
688	0.169
689	0.17
689	0.17
690	0.17
690	0.169
691	0.169
691	0.169
691	0.17
692	0.17
692	0.17
693	0.17
693	0.171
694	0.17
694	0.17
695	0.171
695	0.173
695	0.173
696	0.173
696	0.172
697	0.173
697	0.172
698	0.172
698	0.171
698	0.171
699	0.172
699	0.171
700	0.171
700	0.171
701	0.171
701	0.171
702	0.171
702	0.171
702	0.172
703	0.172
703	0.172
704	0.171
704	0.172
705	0.172
705	0.171
705	0.171
706	0.171
706	0.171
707	0.171
707	0.171
708	0.172
708	0.172
709	0.172
709	0.172
709	0.171
710	0.17
710	0.17
711	0.17
711	0.17
712	0.17
712	0.169
713	0.169
713	0.169
713	0.169
714	0.169
714	0.17
715	0.17
715	0.17
716	0.17
716	0.17
716	0.17
717	0.17
717	0.17
718	0.169
718	0.169
719	0.169
719	0.17
720	0.17
720	0.17
720	0.171
721	0.171
721	0.172
722	0.172
722	0.173
723	0.173
723	0.174
723	0.174
724	0.174
724	0.173
725	0.172
725	0.172
726	0.171
726	0.171
727	0.17
727	0.17
727	0.17
728	0.169
728	0.169
729	0.17
729	0.17
730	0.17
730	0.17
730	0.17
731	0.171
731	0.171
732	0.172
732	0.172
733	0.172
733	0.172
734	0.173
734	0.173
734	0.173
735	0.174
735	0.174
736	0.174
736	0.174
737	0.175
737	0.175
737	0.175
738	0.175
738	0.174
739	0.174
739	0.174
740	0.173
740	0.174
741	0.174
741	0.174
741	0.174
742	0.174
742	0.174
743	0.176
743	0.176
744	0.177
744	0.178
744	0.178
745	0.178
745	0.179
746	0.179
746	0.179
747	0.18
747	0.18
748	0.18
748	0.18
748	0.18
749	0.18
749	0.18
750	0.179
750	0.178
751	0.178
751	0.177
751	0.177
752	0.176
752	0.175
753	0.174
753	0.174
754	0.174
754	0.174
754	0.174
755	0.175
755	0.175
756	0.175
756	0.175
757	0.175
757	0.176
758	0.176
758	0.176
758	0.177
759	0.178
759	0.177
760	0.177
760	0.177
761	0.178
761	0.178
761	0.178
762	0.178
762	0.179
763	0.178
763	0.178
764	0.177
764	0.177
764	0.177
765	0.177
765	0.176
766	0.176
766	0.177
767	0.177
767	0.176
768	0.175
768	0.176
768	0.176
769	0.177
769	0.177
770	0.177
770	0.178
771	0.178
771	0.179
771	0.179
772	0.18
772	0.181
773	0.181
773	0.182
774	0.182
774	0.182
775	0.182
775	0.182
775	0.182
776	0.182
776	0.182
777	0.182
777	0.182
778	0.182
778	0.182
778	0.182
779	0.183
779	0.183
780	0.183
780	0.183
781	0.183
781	0.183
781	0.183
782	0.183
782	0.183
783	0.184
783	0.184
784	0.184
784	0.184
784	0.184
785	0.184
785	0.184
786	0.185
786	0.185
787	0.185
787	0.184
788	0.184
788	0.183
788	0.182
789	0.181
789	0.181
790	0.181
790	0.181
791	0.18
791	0.179
791	0.179
792	0.18
792	0.18
793	0.179
793	0.179
794	0.179
794	0.179
794	0.179
795	0.179
795	0.179
796	0.179
796	0.179
797	0.179
797	0.179
797	0.179
798	0.179
798	0.179
799	0.18
799	0.179
800	0.179
800	0.178
801	0.178
801	0.178
801	0.178
802	0.178
802	0.178
803	0.179
803	0.179
804	0.179
804	0.18
804	0.18
805	0.179
805	0.179
806	0.179
806	0.179
807	0.178
807	0.178
807	0.177
808	0.177
808	0.177
809	0.177
809	0.178
810	0.178
810	0.179
810	0.179
811	0.179
811	0.18
812	0.181
812	0.182
813	0.182
813	0.183
813	0.183
814	0.184
814	0.184
815	0.185
815	0.185
816	0.184
816	0.184
817	0.183
817	0.183
817	0.182
818	0.182
818	0.182
819	0.181
819	0.181
820	0.18
820	0.18
820	0.18
821	0.18
821	0.18
822	0.18
822	0.18
823	0.179
823	0.179
823	0.179
824	0.179
824	0.18
825	0.18
825	0.181
826	0.181
826	0.18
826	0.18
827	0.181
827	0.181
828	0.181
828	0.181
829	0.181
829	0.181
829	0.181
830	0.181
830	0.182
831	0.183
831	0.183
832	0.183
832	0.183
832	0.183
833	0.183
833	0.183
834	0.182
834	0.182
835	0.182
835	0.181
835	0.181
836	0.181
836	0.181
837	0.181
837	0.18
838	0.18
838	0.18
839	0.179
839	0.178
839	0.177
840	0.176
840	0.175
841	0.174
841	0.173
842	0.172
842	0.171
842	0.17
843	0.169
843	0.168
844	0.167
844	0.167
845	0.166
845	0.166
845	0.165
846	0.165
846	0.165
847	0.165
847	0.165
848	0.166
848	0.167
848	0.167
849	0.168
849	0.169
850	0.169
850	0.17
851	0.17
851	0.171
851	0.17
852	0.17
852	0.17
853	0.169
853	0.169
854	0.169
854	0.169
854	0.169
855	0.169
855	0.169
856	0.169
856	0.169
857	0.169
857	0.169
857	0.169
858	0.168
858	0.167
859	0.166
859	0.165
860	0.164
860	0.163
860	0.162
861	0.161
861	0.16
862	0.159
862	0.158
863	0.158
863	0.158
863	0.159
864	0.159
864	0.16
865	0.16
865	0.161
866	0.161
866	0.161
866	0.162
867	0.163
867	0.163
868	0.164
868	0.164
869	0.165
869	0.165
869	0.165
870	0.165
870	0.165
871	0.165
871	0.165
872	0.165
872	0.165
872	0.164
873	0.164
873	0.163
874	0.162
874	0.162
875	0.161
875	0.16
875	0.16
876	0.159
876	0.158
877	0.158
877	0.158
878	0.157
878	0.157
878	0.158
879	0.157
879	0.157
880	0.157
880	0.157
881	0.157
881	0.156
881	0.156
882	0.156
882	0.156
883	0.155
883	0.155
884	0.155
884	0.155
884	0.155
885	0.155
885	0.154
886	0.154
886	0.153
887	0.153
887	0.152
887	0.152
888	0.151
888	0.15
889	0.15
889	0.15
890	0.15
890	0.15
890	0.15
891	0.15
891	0.15
892	0.15
892	0.15
893	0.15
893	0.149
893	0.149
894	0.148
894	0.148
895	0.147
895	0.147
895	0.147
896	0.148
896	0.148
897	0.148
897	0.148
898	0.148
898	0.148
898	0.149
899	0.148
899	0.148
900	0.148
900	0.148
901	0.147
901	0.147
901	0.146
902	0.146
902	0.145
903	0.145
903	0.144
904	0.144
904	0.143
904	0.143
905	0.142
905	0.142
906	0.141
906	0.141
907	0.141
907	0.141
907	0.141
908	0.141
908	0.141
909	0.14
909	0.14
910	0.139
910	0.139
910	0.138
911	0.138
911	0.137
912	0.136
912	0.136
913	0.136
913	0.135
913	0.135
914	0.135
914	0.135
915	0.135
915	0.135
916	0.135
916	0.135
916	0.135
917	0.135
917	0.134
918	0.134
918	0.134
918	0.133
919	0.133
919	0.133
920	0.133
920	0.133
921	0.133
921	0.133
921	0.133
922	0.133
922	0.133
923	0.133
923	0.133
924	0.134
924	0.134
924	0.135
925	0.135
925	0.136
926	0.136
926	0.137
927	0.137
927	0.137
927	0.137
928	0.136
928	0.136
929	0.135
929	0.134
930	0.133
930	0.132
930	0.132
931	0.131
931	0.13
932	0.129
932	0.128
933	0.128
933	0.127
933	0.127
934	0.126
934	0.126
935	0.126
935	0.125
935	0.125
936	0.124
936	0.124
937	0.124
937	0.123
938	0.123
938	0.123
938	0.123
939	0.122
939	0.122
940	0.122
940	0.122
941	0.122
941	0.122
941	0.122
942	0.122
942	0.122
943	0.122
943	0.122
944	0.121
944	0.121
944	0.121
945	0.121
945	0.121
946	0.121
946	0.12
946	0.12
947	0.12
947	0.12
948	0.12
948	0.12
949	0.119
949	0.119
949	0.119
950	0.118
950	0.118
951	0.118
951	0.117
952	0.117
952	0.116
952	0.116
953	0.115
953	0.115
954	0.115
954	0.114
955	0.114
955	0.113
955	0.113
956	0.113
956	0.113
957	0.113
957	0.112
957	0.112
958	0.112
958	0.112
959	0.111
959	0.111
960	0.111
960	0.111
960	0.11
961	0.11
961	0.11
962	0.11
962	0.11
963	0.11
963	0.11
963	0.111
964	0.111
964	0.111
965	0.112
965	0.112
966	0.112
966	0.112
966	0.112
967	0.112
967	0.112
968	0.112
968	0.112
968	0.111
969	0.111
969	0.11
970	0.11
970	0.109
971	0.108
971	0.108
971	0.107
972	0.107
972	0.106
973	0.106
973	0.106
974	0.106
974	0.107
974	0.107
975	0.108
975	0.108
976	0.109
976	0.11
976	0.11
977	0.11
977	0.11
978	0.11
978	0.109
979	0.109
979	0.108
979	0.108
980	0.107
980	0.106
981	0.105
981	0.104
982	0.103
982	0.102
982	0.101
983	0.101
983	0.1
984	0.099
984	0.099
984	0.098
985	0.098
985	0.098
986	0.098
986	0.097
987	0.097
987	0.097
987	0.097
988	0.096
988	0.096
989	0.096
989	0.096
990	0.095
990	0.095
990	0.095
991	0.094
991	0.094
992	0.094
992	0.093
992	0.092
993	0.092
993	0.091
994	0.091
994	0.09
995	0.089
995	0.089
995	0.089
996	0.089
996	0.089
997	0.089
997	0.09
997	0.09
998	0.09
998	0.091
999	0.092
999	0.093
1000	0.094
1000	0.094
1000	0.095
1001	0.095
1001	0.095
1002	0.095
1002	0.095
1003	0.095
1003	0.094
1003	0.093
1004	0.093
1004	0.092
1005	0.091
1005	0.09
1005	0.089
1006	0.089
1006	0.088
1007	0.088
1007	0.087
1008	0.087
1008	0.088
1008	0.088
1009	0.089
1009	0.089
1010	0.089
1010	0.089
1010	0.089
1011	0.089
1011	0.089
1012	0.089
1012	0.089
1013	0.089
1013	0.088
1013	0.088
1014	0.088
1014	0.088
1015	0.088
1015	0.088
1016	0.088
1016	0.088
1016	0.088
1017	0.088
1017	0.088
1018	0.088
1018	0.088
1018	0.088
1019	0.088
1019	0.088
1020	0.088
1020	0.088
1021	0.088
1021	0.088
1021	0.088
1022	0.088
1022	0.088
1023	0.088
1023	0.088
1023	0.088
1024	0.088
1024	0.088
1025	0.088
1025	0.088
1026	0.088
1026	0.087
1026	0.087
1027	0.087
1027	0.086
1028	0.086
1028	0.086
1028	0.085
1029	0.085
1029	0.085
1030	0.085
1030	0.084
1031	0.085
1031	0.084
1031	0.084
1032	0.084
1032	0.084
1033	0.085
1033	0.084
1033	0.084
1034	0.084
1034	0.084
1035	0.083
1035	0.083
1036	0.083
1036	0.083
1036	0.083
1037	0.082
1037	0.082
1038	0.082
1038	0.082
1039	0.082
1039	0.082
1039	0.082
1040	0.082
1040	0.083
1041	0.083
1041	0.082
1041	0.082
1042	0.083
1042	0.083
1043	0.083
1043	0.083
1044	0.083
1044	0.082
1044	0.083
1045	0.083
1045	0.083
1046	0.083
1046	0.083
1046	0.083
1047	0.083
1047	0.084
1048	0.084
1048	0.084
1049	0.084
1049	0.084
1049	0.084
1050	0.084
1050	0.084
1051	0.083
1051	0.083
1051	0.082
1052	0.081
1052	0.081
1053	0.08
1053	0.079
1053	0.078
1054	0.077
1054	0.076
1055	0.076
1055	0.075
1056	0.074
1056	0.074
1056	0.073
1057	0.072
1057	0.072
1058	0.071
1058	0.07
1058	0.07
1059	0.069
1059	0.069
1060	0.068
1060	0.068
1061	0.067
1061	0.067
1061	0.067
1062	0.067
1062	0.067
1063	0.067
1063	0.067
1063	0.067
1064	0.067
1064	0.067
1065	0.067
1065	0.067
1066	0.067
1066	0.066
1066	0.066
1067	0.066
1067	0.066
1068	0.066
1068	0.065
1068	0.065
1069	0.064
1069	0.064
1070	0.064
1070	0.063
1071	0.062
1071	0.062
1071	0.061
1072	0.061
1072	0.06
1073	0.059
1073	0.059
1073	0.059
1074	0.059
1074	0.059
1075	0.058
1075	0.058
1076	0.058
1076	0.059
1076	0.059
1077	0.059
1077	0.059
1078	0.059
1078	0.059
1078	0.058
1079	0.058
1079	0.058
1080	0.058
1080	0.058
1080	0.058
1081	0.058
1081	0.057
1082	0.058
1082	0.058
1083	0.058
1083	0.058
1083	0.058
1084	0.058
1084	0.058
1085	0.058
1085	0.058
1085	0.059
1086	0.059
1086	0.058
1087	0.058
1087	0.058
1088	0.058
1088	0.057
1088	0.057
1089	0.057
1089	0.056
1090	0.055
1090	0.055
1090	0.054
1091	0.054
1091	0.053
1092	0.054
1092	0.054
1092	0.053
1093	0.053
1093	0.053
1094	0.054
1094	0.054
1095	0.054
1095	0.053
1095	0.054
1096	0.053
1096	0.052
1097	0.051
1097	0.051
1097	0.05
1098	0.049
1098	0.048
1099	0.047
1099	0.045
1100	0.044
1100	0.042
1100	0.041
1101	0.04
1101	0.039
1102	0.039
1102	0.037
1102	0.035
1103	0.034
1103	0.034
1104	0.033
1104	0.032
1104	0.031
1105	0.03
1105	0.028
1106	0.026
1106	0.025
1107	0.023
1107	0.023
1107	0.023
1108	0.022
1108	0.02
1109	0.02
1109	0.019
1109	0.019
1110	0.019
1110	0.019
1111	0.018
1111	0.021
