Data from reversibility-20sec_Absorbance__3665__000000000003665.txt Node

Date: Wed Dec 06 08:34:46 CET 2023
User: Marek
Spectrometer: MAYP115816
Trigger mode: 0
Integration Time (sec): 2.000000E-1
Scans to average: 10
Electric dark correction enabled: true
Nonlinearity correction enabled: true
Boxcar width: 5
XAxis mode: Wavelengths
Number of Pixels in Spectrum: 2068
>>>>>Begin Spectral Data<<<<<
199	-0.111
199	-0.076
200	-0.013
200	0.033
201	0.058
201	0.072
202	0.085
202	0.094
203	0.099
203	0.101
204	0.115
204	0.128
205	0.138
205	0.145
205	0.144
206	0.145
206	0.146
207	0.146
207	0.145
208	0.144
208	0.146
209	0.147
209	0.147
210	0.145
210	0.145
211	0.145
211	0.147
212	0.144
212	0.147
213	0.15
213	0.151
213	0.151
214	0.153
214	0.155
215	0.157
215	0.157
216	0.159
216	0.157
217	0.159
217	0.159
218	0.159
218	0.166
219	0.167
219	0.168
220	0.168
220	0.171
221	0.174
221	0.178
221	0.187
222	0.193
222	0.2
223	0.208
223	0.21
224	0.216
224	0.227
225	0.24
225	0.249
226	0.257
226	0.265
227	0.273
227	0.282
228	0.299
228	0.313
229	0.331
229	0.354
229	0.373
230	0.398
230	0.428
231	0.458
231	0.499
232	0.535
232	0.583
233	0.622
233	0.67
234	0.72
234	0.772
235	0.825
235	0.876
236	0.928
236	0.983
236	1.033
237	1.087
237	1.13
238	1.178
238	1.225
239	1.271
239	1.311
240	1.352
240	1.389
241	1.422
241	1.458
242	1.488
242	1.523
243	1.555
243	1.58
243	1.604
244	1.625
244	1.647
245	1.667
245	1.69
246	1.709
246	1.726
247	1.738
247	1.748
248	1.76
248	1.775
249	1.784
249	1.792
250	1.8
250	1.804
250	1.805
251	1.809
251	1.809
252	1.813
252	1.814
253	1.815
253	1.811
254	1.809
254	1.808
255	1.805
255	1.805
256	1.804
256	1.802
257	1.8
257	1.798
258	1.797
258	1.799
258	1.799
259	1.799
259	1.8
260	1.799
260	1.801
261	1.803
261	1.806
262	1.809
262	1.81
263	1.813
263	1.813
264	1.813
264	1.817
265	1.817
265	1.819
265	1.818
266	1.817
266	1.817
267	1.814
267	1.815
268	1.814
268	1.813
269	1.814
269	1.811
270	1.811
270	1.81
271	1.808
271	1.807
272	1.804
272	1.802
272	1.799
273	1.793
273	1.787
274	1.781
274	1.775
275	1.767
275	1.759
276	1.75
276	1.741
277	1.734
277	1.723
278	1.711
278	1.698
278	1.684
279	1.667
279	1.647
280	1.622
280	1.592
281	1.558
281	1.518
282	1.476
282	1.434
283	1.393
283	1.353
284	1.314
284	1.277
285	1.241
285	1.209
285	1.181
286	1.155
286	1.134
287	1.115
287	1.099
288	1.085
288	1.073
289	1.063
289	1.054
290	1.046
290	1.04
291	1.034
291	1.029
292	1.024
292	1.02
292	1.016
293	1.012
293	1.009
294	1.006
294	1.003
295	1
295	0.997
296	0.995
296	0.992
297	0.989
297	0.986
298	0.983
298	0.98
298	0.977
299	0.974
299	0.972
300	0.969
300	0.966
301	0.964
301	0.961
302	0.959
302	0.956
303	0.954
303	0.952
304	0.949
304	0.947
305	0.945
305	0.942
305	0.94
306	0.938
306	0.936
307	0.933
307	0.931
308	0.928
308	0.926
309	0.923
309	0.92
310	0.918
310	0.915
311	0.912
311	0.909
311	0.906
312	0.903
312	0.899
313	0.896
313	0.892
314	0.888
314	0.884
315	0.88
315	0.876
316	0.872
316	0.867
317	0.863
317	0.858
318	0.853
318	0.848
318	0.844
319	0.838
319	0.833
320	0.827
320	0.822
321	0.816
321	0.81
322	0.804
322	0.798
323	0.792
323	0.785
324	0.779
324	0.773
324	0.766
325	0.759
325	0.752
326	0.746
326	0.739
327	0.732
327	0.726
328	0.719
328	0.713
329	0.706
329	0.699
330	0.692
330	0.685
330	0.678
331	0.671
331	0.664
332	0.658
332	0.651
333	0.644
333	0.637
334	0.63
334	0.624
335	0.617
335	0.61
336	0.604
336	0.597
336	0.591
337	0.585
337	0.578
338	0.572
338	0.566
339	0.56
339	0.554
340	0.549
340	0.543
341	0.538
341	0.532
342	0.527
342	0.522
342	0.516
343	0.512
343	0.506
344	0.502
344	0.497
345	0.492
345	0.488
346	0.483
346	0.479
347	0.474
347	0.47
348	0.466
348	0.462
348	0.458
349	0.455
349	0.451
350	0.447
350	0.444
351	0.441
351	0.438
352	0.434
352	0.431
353	0.429
353	0.426
354	0.423
354	0.42
354	0.417
355	0.414
355	0.411
356	0.408
356	0.406
357	0.402
357	0.4
358	0.397
358	0.394
359	0.392
359	0.389
360	0.388
360	0.386
360	0.384
361	0.382
361	0.38
362	0.379
362	0.377
363	0.376
363	0.374
364	0.372
364	0.37
365	0.368
365	0.366
366	0.364
366	0.363
366	0.361
367	0.359
367	0.357
368	0.356
368	0.354
369	0.352
369	0.351
370	0.35
370	0.349
371	0.347
371	0.346
372	0.344
372	0.343
372	0.342
373	0.341
373	0.34
374	0.339
374	0.338
375	0.337
375	0.336
376	0.335
376	0.334
377	0.333
377	0.332
378	0.331
378	0.33
378	0.329
379	0.328
379	0.327
380	0.326
380	0.325
381	0.325
381	0.324
382	0.323
382	0.323
383	0.322
383	0.322
383	0.321
384	0.32
384	0.32
385	0.319
385	0.319
386	0.318
386	0.318
387	0.317
387	0.317
388	0.316
388	0.316
389	0.315
389	0.315
389	0.314
390	0.314
390	0.313
391	0.313
391	0.312
392	0.312
392	0.312
393	0.311
393	0.311
394	0.31
394	0.31
394	0.309
395	0.309
395	0.309
396	0.308
396	0.308
397	0.307
397	0.307
398	0.307
398	0.306
399	0.306
399	0.306
400	0.305
400	0.305
400	0.305
401	0.304
401	0.304
402	0.303
402	0.303
403	0.303
403	0.302
404	0.302
404	0.301
405	0.301
405	0.301
405	0.301
406	0.3
406	0.3
407	0.3
407	0.3
408	0.299
408	0.299
409	0.299
409	0.298
410	0.298
410	0.298
411	0.297
411	0.297
411	0.297
412	0.296
412	0.296
413	0.296
413	0.296
414	0.295
414	0.295
415	0.295
415	0.294
416	0.294
416	0.294
416	0.293
417	0.293
417	0.293
418	0.292
418	0.292
419	0.292
419	0.291
420	0.291
420	0.291
421	0.29
421	0.29
421	0.29
422	0.289
422	0.289
423	0.288
423	0.288
424	0.287
424	0.287
425	0.287
425	0.286
426	0.286
426	0.286
427	0.285
427	0.285
427	0.285
428	0.284
428	0.284
429	0.284
429	0.283
430	0.283
430	0.283
431	0.282
431	0.282
432	0.282
432	0.282
432	0.282
433	0.281
433	0.281
434	0.281
434	0.281
435	0.281
435	0.281
436	0.281
436	0.281
437	0.28
437	0.28
437	0.28
438	0.28
438	0.28
439	0.279
439	0.279
440	0.279
440	0.278
441	0.278
441	0.278
442	0.278
442	0.277
442	0.277
443	0.277
443	0.277
444	0.277
444	0.276
445	0.276
445	0.276
446	0.276
446	0.276
447	0.276
447	0.275
447	0.275
448	0.275
448	0.275
449	0.275
449	0.275
450	0.275
450	0.275
451	0.275
451	0.275
452	0.275
452	0.275
452	0.274
453	0.274
453	0.274
454	0.274
454	0.274
455	0.273
455	0.273
456	0.273
456	0.273
457	0.273
457	0.272
458	0.272
458	0.272
458	0.272
459	0.272
459	0.272
460	0.272
460	0.272
461	0.272
461	0.272
462	0.272
462	0.272
463	0.272
463	0.272
463	0.272
464	0.271
464	0.271
465	0.271
465	0.27
466	0.27
466	0.27
467	0.27
467	0.271
467	0.271
468	0.271
468	0.271
469	0.271
469	0.271
470	0.272
470	0.272
471	0.272
471	0.272
472	0.272
472	0.272
472	0.272
473	0.272
473	0.272
474	0.272
474	0.272
475	0.272
475	0.273
476	0.273
476	0.273
477	0.273
477	0.274
477	0.274
478	0.274
478	0.274
479	0.275
479	0.275
480	0.275
480	0.276
481	0.276
481	0.276
482	0.277
482	0.277
482	0.278
483	0.278
483	0.279
484	0.279
484	0.279
485	0.28
485	0.28
486	0.28
486	0.281
487	0.281
487	0.281
487	0.282
488	0.282
488	0.283
489	0.283
489	0.284
490	0.285
490	0.286
491	0.287
491	0.288
492	0.288
492	0.289
492	0.29
493	0.291
493	0.292
494	0.292
494	0.293
495	0.294
495	0.295
496	0.295
496	0.296
496	0.297
497	0.298
497	0.299
498	0.3
498	0.3
499	0.301
499	0.302
500	0.303
500	0.304
501	0.305
501	0.306
501	0.306
502	0.307
502	0.308
503	0.309
503	0.31
504	0.311
504	0.311
505	0.312
505	0.313
506	0.314
506	0.315
506	0.315
507	0.316
507	0.317
508	0.318
508	0.319
509	0.32
509	0.32
510	0.321
510	0.322
511	0.323
511	0.324
511	0.325
512	0.325
512	0.326
513	0.327
513	0.327
514	0.328
514	0.329
515	0.329
515	0.33
515	0.33
516	0.33
516	0.331
517	0.331
517	0.332
518	0.332
518	0.332
519	0.333
519	0.333
520	0.333
520	0.333
520	0.334
521	0.334
521	0.334
522	0.334
522	0.335
523	0.335
523	0.335
524	0.335
524	0.335
524	0.335
525	0.335
525	0.335
526	0.335
526	0.334
527	0.334
527	0.334
528	0.334
528	0.334
529	0.333
529	0.333
529	0.333
530	0.332
530	0.332
531	0.332
531	0.331
532	0.33
532	0.33
533	0.329
533	0.328
533	0.327
534	0.326
534	0.325
535	0.324
535	0.324
536	0.323
536	0.322
537	0.321
537	0.32
538	0.319
538	0.319
538	0.318
539	0.317
539	0.316
540	0.315
540	0.314
541	0.314
541	0.313
542	0.312
542	0.311
542	0.31
543	0.309
543	0.308
544	0.308
544	0.307
545	0.306
545	0.305
546	0.304
546	0.303
547	0.301
547	0.3
547	0.299
548	0.298
548	0.297
549	0.296
549	0.295
550	0.294
550	0.292
551	0.291
551	0.29
551	0.288
552	0.287
552	0.287
553	0.286
553	0.285
554	0.284
554	0.282
555	0.281
555	0.28
556	0.279
556	0.278
556	0.277
557	0.276
557	0.275
558	0.274
558	0.273
559	0.273
559	0.272
560	0.271
560	0.27
560	0.269
561	0.269
561	0.268
562	0.266
562	0.265
563	0.263
563	0.262
564	0.261
564	0.26
564	0.259
565	0.258
565	0.257
566	0.257
566	0.256
567	0.255
567	0.254
568	0.254
568	0.253
568	0.252
569	0.251
569	0.25
570	0.248
570	0.247
571	0.246
571	0.245
572	0.244
572	0.243
573	0.243
573	0.242
573	0.241
574	0.241
574	0.24
575	0.24
575	0.239
576	0.239
576	0.238
577	0.236
577	0.235
577	0.235
578	0.234
578	0.233
579	0.232
579	0.232
580	0.231
580	0.23
581	0.229
581	0.229
581	0.228
582	0.228
582	0.228
583	0.227
583	0.227
584	0.226
584	0.224
585	0.224
585	0.223
585	0.223
586	0.222
586	0.221
587	0.221
587	0.22
588	0.219
588	0.218
589	0.218
589	0.217
590	0.217
590	0.217
590	0.216
591	0.216
591	0.215
592	0.214
592	0.213
593	0.213
593	0.212
594	0.211
594	0.21
594	0.209
595	0.209
595	0.208
596	0.207
596	0.207
597	0.208
597	0.208
598	0.208
598	0.208
598	0.208
599	0.207
599	0.207
600	0.206
600	0.206
601	0.205
601	0.205
602	0.204
602	0.203
602	0.203
603	0.202
603	0.202
604	0.202
604	0.201
605	0.201
605	0.201
606	0.201
606	0.2
606	0.199
607	0.199
607	0.198
608	0.198
608	0.197
609	0.196
609	0.196
610	0.195
610	0.195
610	0.194
611	0.194
611	0.194
612	0.194
612	0.194
613	0.194
613	0.193
614	0.193
614	0.193
614	0.193
615	0.193
615	0.193
616	0.192
616	0.192
617	0.192
617	0.192
618	0.191
618	0.191
618	0.191
619	0.191
619	0.191
620	0.191
620	0.191
621	0.191
621	0.19
622	0.19
622	0.189
622	0.188
623	0.188
623	0.188
624	0.187
624	0.187
625	0.186
625	0.186
626	0.186
626	0.185
626	0.185
627	0.185
627	0.185
628	0.185
628	0.185
629	0.184
629	0.184
630	0.183
630	0.183
630	0.183
631	0.183
631	0.183
632	0.182
632	0.182
633	0.182
633	0.181
634	0.182
634	0.182
634	0.182
635	0.182
635	0.181
636	0.181
636	0.181
637	0.181
637	0.181
638	0.181
638	0.181
638	0.18
639	0.18
639	0.179
640	0.179
640	0.179
641	0.178
641	0.178
642	0.178
642	0.178
642	0.178
643	0.178
643	0.178
644	0.178
644	0.178
645	0.178
645	0.178
646	0.179
646	0.179
646	0.179
647	0.179
647	0.179
648	0.178
648	0.178
649	0.178
649	0.178
650	0.177
650	0.177
650	0.177
651	0.177
651	0.177
652	0.177
652	0.177
653	0.177
653	0.179
653	0.184
654	0.145
654	0.116
655	0.117
655	0.117
656	0.117
656	0.117
657	0.118
657	0.118
657	0.118
658	0.117
658	0.107
659	0.135
659	0.173
660	0.177
660	0.177
661	0.176
661	0.175
661	0.175
662	0.174
662	0.173
663	0.173
663	0.172
664	0.172
664	0.172
665	0.172
665	0.172
665	0.172
666	0.173
666	0.173
667	0.174
667	0.174
668	0.174
668	0.174
669	0.174
669	0.174
669	0.175
670	0.175
670	0.175
671	0.174
671	0.174
672	0.174
672	0.173
672	0.173
673	0.172
673	0.172
674	0.171
674	0.171
675	0.17
675	0.17
676	0.17
676	0.17
676	0.17
677	0.171
677	0.171
678	0.171
678	0.171
679	0.171
679	0.172
680	0.172
680	0.172
680	0.172
681	0.172
681	0.172
682	0.173
682	0.173
683	0.173
683	0.173
684	0.173
684	0.173
684	0.172
685	0.173
685	0.173
686	0.172
686	0.172
687	0.172
687	0.172
687	0.173
688	0.173
688	0.173
689	0.174
689	0.174
690	0.175
690	0.175
691	0.175
691	0.175
691	0.176
692	0.176
692	0.176
693	0.176
693	0.176
694	0.176
694	0.176
695	0.176
695	0.177
695	0.177
696	0.177
696	0.177
697	0.177
697	0.177
698	0.177
698	0.177
698	0.177
699	0.177
699	0.176
700	0.175
700	0.175
701	0.175
701	0.174
702	0.174
702	0.173
702	0.173
703	0.172
703	0.172
704	0.171
704	0.171
705	0.172
705	0.172
705	0.171
706	0.172
706	0.172
707	0.172
707	0.172
708	0.173
708	0.173
709	0.173
709	0.173
709	0.172
710	0.172
710	0.172
711	0.172
711	0.172
712	0.172
712	0.171
713	0.171
713	0.171
713	0.171
714	0.171
714	0.172
715	0.172
715	0.171
716	0.171
716	0.171
716	0.17
717	0.169
717	0.169
718	0.168
718	0.167
719	0.168
719	0.168
720	0.168
720	0.169
720	0.17
721	0.17
721	0.171
722	0.172
722	0.172
723	0.173
723	0.173
723	0.173
724	0.173
724	0.172
725	0.171
725	0.171
726	0.17
726	0.169
727	0.169
727	0.168
727	0.168
728	0.168
728	0.168
729	0.169
729	0.169
730	0.17
730	0.17
730	0.171
731	0.172
731	0.172
732	0.173
732	0.173
733	0.174
733	0.174
734	0.174
734	0.174
734	0.175
735	0.175
735	0.175
736	0.174
736	0.174
737	0.174
737	0.174
737	0.173
738	0.173
738	0.172
739	0.172
739	0.172
740	0.171
740	0.172
741	0.172
741	0.172
741	0.172
742	0.172
742	0.173
743	0.174
743	0.174
744	0.174
744	0.175
744	0.175
745	0.175
745	0.175
746	0.176
746	0.176
747	0.176
747	0.176
748	0.176
748	0.177
748	0.177
749	0.177
749	0.178
750	0.178
750	0.178
751	0.178
751	0.178
751	0.178
752	0.178
752	0.177
753	0.177
753	0.176
754	0.176
754	0.175
754	0.175
755	0.174
755	0.174
756	0.173
756	0.173
757	0.172
757	0.172
758	0.172
758	0.173
758	0.173
759	0.173
759	0.173
760	0.173
760	0.173
761	0.174
761	0.174
761	0.175
762	0.175
762	0.175
763	0.175
763	0.175
764	0.175
764	0.175
764	0.175
765	0.174
765	0.174
766	0.174
766	0.173
767	0.173
767	0.172
768	0.172
768	0.172
768	0.172
769	0.172
769	0.172
770	0.172
770	0.173
771	0.173
771	0.173
771	0.174
772	0.175
772	0.175
773	0.176
773	0.176
774	0.177
774	0.177
775	0.178
775	0.178
775	0.179
776	0.179
776	0.179
777	0.18
777	0.18
778	0.18
778	0.179
778	0.179
779	0.178
779	0.178
780	0.177
780	0.176
781	0.175
781	0.175
781	0.175
782	0.174
782	0.174
783	0.175
783	0.175
784	0.175
784	0.175
784	0.176
785	0.176
785	0.176
786	0.177
786	0.177
787	0.178
787	0.178
788	0.178
788	0.177
788	0.177
789	0.176
789	0.176
790	0.176
790	0.175
791	0.175
791	0.174
791	0.174
792	0.174
792	0.174
793	0.174
793	0.174
794	0.174
794	0.173
794	0.173
795	0.173
795	0.174
796	0.174
796	0.174
797	0.174
797	0.174
797	0.174
798	0.174
798	0.174
799	0.174
799	0.174
800	0.174
800	0.173
801	0.173
801	0.173
801	0.172
802	0.172
802	0.172
803	0.172
803	0.172
804	0.172
804	0.173
804	0.173
805	0.173
805	0.173
806	0.174
806	0.174
807	0.174
807	0.174
807	0.174
808	0.174
808	0.174
809	0.174
809	0.174
810	0.174
810	0.174
810	0.174
811	0.174
811	0.174
812	0.174
812	0.174
813	0.174
813	0.174
813	0.174
814	0.174
814	0.174
815	0.174
815	0.174
816	0.174
816	0.173
817	0.172
817	0.172
817	0.171
818	0.17
818	0.17
819	0.169
819	0.169
820	0.168
820	0.167
820	0.167
821	0.167
821	0.167
822	0.167
822	0.167
823	0.168
823	0.168
823	0.169
824	0.169
824	0.17
825	0.171
825	0.172
826	0.172
826	0.172
826	0.173
827	0.173
827	0.173
828	0.173
828	0.173
829	0.173
829	0.173
829	0.173
830	0.173
830	0.173
831	0.174
831	0.174
832	0.173
832	0.173
832	0.173
833	0.173
833	0.173
834	0.172
834	0.171
835	0.17
835	0.17
835	0.169
836	0.168
836	0.168
837	0.167
837	0.166
838	0.165
838	0.164
839	0.164
839	0.163
839	0.162
840	0.161
840	0.16
841	0.16
841	0.159
842	0.158
842	0.157
842	0.157
843	0.156
843	0.156
844	0.156
844	0.156
845	0.156
845	0.156
845	0.157
846	0.157
846	0.157
847	0.157
847	0.157
848	0.157
848	0.157
848	0.157
849	0.156
849	0.156
850	0.155
850	0.154
851	0.154
851	0.153
851	0.153
852	0.152
852	0.151
853	0.151
853	0.151
854	0.151
854	0.151
854	0.152
855	0.153
855	0.153
856	0.154
856	0.154
857	0.155
857	0.155
857	0.155
858	0.155
858	0.154
859	0.153
859	0.152
860	0.151
860	0.15
860	0.149
861	0.148
861	0.146
862	0.145
862	0.144
863	0.144
863	0.143
863	0.143
864	0.143
864	0.143
865	0.143
865	0.143
866	0.143
866	0.143
866	0.143
867	0.143
867	0.142
868	0.142
868	0.142
869	0.141
869	0.141
869	0.14
870	0.139
870	0.139
871	0.139
871	0.139
872	0.139
872	0.139
872	0.139
873	0.139
873	0.139
874	0.139
874	0.138
875	0.138
875	0.138
875	0.137
876	0.137
876	0.137
877	0.136
877	0.136
878	0.136
878	0.137
878	0.137
879	0.138
879	0.138
880	0.138
880	0.138
881	0.138
881	0.138
881	0.138
882	0.138
882	0.137
883	0.137
883	0.136
884	0.136
884	0.135
884	0.135
885	0.134
885	0.133
886	0.133
886	0.132
887	0.132
887	0.131
887	0.13
888	0.129
888	0.128
889	0.128
889	0.128
890	0.127
890	0.127
890	0.126
891	0.126
891	0.125
892	0.125
892	0.124
893	0.124
893	0.124
893	0.123
894	0.123
894	0.122
895	0.122
895	0.121
895	0.121
896	0.121
896	0.12
897	0.12
897	0.12
898	0.119
898	0.119
898	0.119
899	0.119
899	0.119
900	0.119
900	0.119
901	0.119
901	0.119
901	0.119
902	0.119
902	0.119
903	0.119
903	0.119
904	0.119
904	0.119
904	0.119
905	0.12
905	0.12
906	0.12
906	0.121
907	0.122
907	0.123
907	0.123
908	0.124
908	0.124
909	0.125
909	0.125
910	0.125
910	0.124
910	0.124
911	0.123
911	0.122
912	0.122
912	0.121
913	0.12
913	0.12
913	0.119
914	0.118
914	0.117
915	0.117
915	0.116
916	0.116
916	0.115
916	0.115
917	0.114
917	0.114
918	0.113
918	0.112
918	0.112
919	0.111
919	0.111
920	0.11
920	0.11
921	0.109
921	0.109
921	0.108
922	0.108
922	0.108
923	0.108
923	0.108
924	0.108
924	0.108
924	0.108
925	0.109
925	0.109
926	0.109
926	0.109
927	0.109
927	0.109
927	0.109
928	0.109
928	0.109
929	0.109
929	0.109
930	0.109
930	0.109
930	0.109
931	0.109
931	0.109
932	0.108
932	0.108
933	0.108
933	0.108
933	0.108
934	0.108
934	0.108
935	0.108
935	0.109
935	0.109
936	0.108
936	0.108
937	0.108
937	0.108
938	0.107
938	0.107
938	0.106
939	0.105
939	0.104
940	0.104
940	0.103
941	0.102
941	0.102
941	0.101
942	0.101
942	0.101
943	0.101
943	0.1
944	0.1
944	0.1
944	0.099
945	0.099
945	0.099
946	0.099
946	0.099
946	0.099
947	0.099
947	0.1
948	0.1
948	0.1
949	0.101
949	0.101
949	0.101
950	0.101
950	0.1
951	0.1
951	0.099
952	0.098
952	0.097
952	0.096
953	0.095
953	0.094
954	0.093
954	0.092
955	0.092
955	0.091
955	0.091
956	0.091
956	0.091
957	0.092
957	0.092
957	0.092
958	0.093
958	0.093
959	0.094
959	0.094
960	0.095
960	0.095
960	0.095
961	0.096
961	0.096
962	0.096
962	0.096
963	0.096
963	0.096
963	0.096
964	0.096
964	0.096
965	0.096
965	0.096
966	0.096
966	0.096
966	0.096
967	0.097
967	0.097
968	0.097
968	0.097
968	0.097
969	0.096
969	0.096
970	0.095
970	0.094
971	0.093
971	0.093
971	0.092
972	0.091
972	0.09
973	0.089
973	0.088
974	0.088
974	0.087
974	0.087
975	0.087
975	0.087
976	0.087
976	0.086
976	0.086
977	0.086
977	0.085
978	0.085
978	0.084
979	0.083
979	0.083
979	0.083
980	0.082
980	0.082
981	0.081
981	0.081
982	0.081
982	0.081
982	0.081
983	0.081
983	0.081
984	0.082
984	0.082
984	0.082
985	0.082
985	0.082
986	0.082
986	0.082
987	0.082
987	0.081
987	0.081
988	0.081
988	0.081
989	0.08
989	0.08
990	0.08
990	0.079
990	0.079
991	0.079
991	0.079
992	0.079
992	0.079
992	0.079
993	0.079
993	0.078
994	0.078
994	0.078
995	0.078
995	0.078
995	0.078
996	0.078
996	0.078
997	0.078
997	0.078
997	0.078
998	0.078
998	0.079
999	0.079
999	0.079
1000	0.079
1000	0.079
1000	0.079
1001	0.079
1001	0.079
1002	0.079
1002	0.078
1003	0.078
1003	0.077
1003	0.077
1004	0.076
1004	0.075
1005	0.074
1005	0.074
1005	0.073
1006	0.073
1006	0.072
1007	0.072
1007	0.072
1008	0.072
1008	0.072
1008	0.072
1009	0.073
1009	0.073
1010	0.074
1010	0.074
1010	0.075
1011	0.075
1011	0.075
1012	0.076
1012	0.076
1013	0.077
1013	0.077
1013	0.077
1014	0.076
1014	0.076
1015	0.075
1015	0.075
1016	0.075
1016	0.074
1016	0.073
1017	0.073
1017	0.072
1018	0.072
1018	0.071
1018	0.071
1019	0.07
1019	0.07
1020	0.07
1020	0.07
1021	0.07
1021	0.07
1021	0.071
1022	0.071
1022	0.071
1023	0.071
1023	0.072
1023	0.072
1024	0.072
1024	0.072
1025	0.072
1025	0.072
1026	0.072
1026	0.072
1026	0.072
1027	0.072
1027	0.071
1028	0.071
1028	0.071
1028	0.071
1029	0.071
1029	0.071
1030	0.071
1030	0.07
1031	0.071
1031	0.071
1031	0.071
1032	0.071
1032	0.071
1033	0.071
1033	0.07
1033	0.07
1034	0.07
1034	0.07
1035	0.069
1035	0.069
1036	0.068
1036	0.068
1036	0.067
1037	0.067
1037	0.066
1038	0.066
1038	0.066
1039	0.066
1039	0.066
1039	0.066
1040	0.066
1040	0.066
1041	0.066
1041	0.067
1041	0.067
1042	0.067
1042	0.067
1043	0.067
1043	0.067
1044	0.067
1044	0.067
1044	0.067
1045	0.067
1045	0.067
1046	0.068
1046	0.068
1046	0.068
1047	0.068
1047	0.069
1048	0.069
1048	0.07
1049	0.07
1049	0.07
1049	0.07
1050	0.07
1050	0.07
1051	0.07
1051	0.07
1051	0.07
1052	0.07
1052	0.069
1053	0.069
1053	0.068
1053	0.068
1054	0.068
1054	0.067
1055	0.067
1055	0.066
1056	0.066
1056	0.065
1056	0.065
1057	0.064
1057	0.064
1058	0.063
1058	0.063
1058	0.062
1059	0.062
1059	0.062
1060	0.061
1060	0.061
1061	0.061
1061	0.061
1061	0.061
1062	0.062
1062	0.062
1063	0.062
1063	0.061
1063	0.061
1064	0.061
1064	0.061
1065	0.06
1065	0.06
1066	0.06
1066	0.059
1066	0.058
1067	0.058
1067	0.058
1068	0.058
1068	0.057
1068	0.057
1069	0.057
1069	0.057
1070	0.056
1070	0.056
1071	0.056
1071	0.055
1071	0.055
1072	0.054
1072	0.054
1073	0.053
1073	0.052
1073	0.052
1074	0.052
1074	0.052
1075	0.052
1075	0.052
1076	0.052
1076	0.053
1076	0.053
1077	0.053
1077	0.053
1078	0.052
1078	0.053
1078	0.052
1079	0.052
1079	0.052
1080	0.052
1080	0.052
1080	0.051
1081	0.051
1081	0.052
1082	0.052
1082	0.053
1083	0.053
1083	0.053
1083	0.053
1084	0.053
1084	0.053
1085	0.053
1085	0.054
1085	0.054
1086	0.054
1086	0.053
1087	0.053
1087	0.052
1088	0.053
1088	0.053
1088	0.052
1089	0.052
1089	0.052
1090	0.051
1090	0.051
1090	0.05
1091	0.05
1091	0.05
1092	0.05
1092	0.05
1092	0.05
1093	0.05
1093	0.05
1094	0.05
1094	0.05
1095	0.049
1095	0.05
1095	0.049
1096	0.049
1096	0.048
1097	0.048
1097	0.047
1097	0.047
1098	0.046
1098	0.045
1099	0.045
1099	0.044
1100	0.043
1100	0.043
1100	0.042
1101	0.042
1101	0.041
1102	0.041
1102	0.041
1102	0.04
1103	0.04
1103	0.041
1104	0.04
1104	0.041
1104	0.041
1105	0.04
1105	0.039
1106	0.037
1106	0.037
1107	0.036
1107	0.036
1107	0.035
1108	0.035
1108	0.033
1109	0.031
1109	0.029
1109	0.029
1110	0.032
1110	0.031
1111	0.031
1111	0.024
