Data from reversibility-20sec_Absorbance__1119__000000000001119.txt Node

Date: Tue Dec 05 18:26:06 CET 2023
User: Marek
Spectrometer: MAYP115816
Trigger mode: 0
Integration Time (sec): 2.000000E-1
Scans to average: 10
Electric dark correction enabled: true
Nonlinearity correction enabled: true
Boxcar width: 5
XAxis mode: Wavelengths
Number of Pixels in Spectrum: 2068
>>>>>Begin Spectral Data<<<<<
199	-0.188
199	-0.157
200	-0.084
200	-0.031
201	-0.004
201	0.017
202	0.035
202	0.041
203	0.049
203	0.049
204	0.06
204	0.076
205	0.09
205	0.094
205	0.094
206	0.097
206	0.094
207	0.092
207	0.092
208	0.091
208	0.094
209	0.098
209	0.094
210	0.093
210	0.094
211	0.092
211	0.093
212	0.091
212	0.095
213	0.097
213	0.099
213	0.097
214	0.1
214	0.103
215	0.103
215	0.102
216	0.107
216	0.102
217	0.106
217	0.107
218	0.106
218	0.11
219	0.115
219	0.115
220	0.116
220	0.117
221	0.119
221	0.119
221	0.127
222	0.132
222	0.137
223	0.145
223	0.145
224	0.147
224	0.155
225	0.162
225	0.174
226	0.181
226	0.193
227	0.2
227	0.209
228	0.223
228	0.236
229	0.252
229	0.278
229	0.301
230	0.328
230	0.358
231	0.39
231	0.429
232	0.467
232	0.511
233	0.557
233	0.608
234	0.66
234	0.712
235	0.766
235	0.818
236	0.871
236	0.927
236	0.98
237	1.034
237	1.086
238	1.136
238	1.182
239	1.239
239	1.285
240	1.33
240	1.371
241	1.411
241	1.447
242	1.486
242	1.527
243	1.563
243	1.594
243	1.624
244	1.645
244	1.671
245	1.692
245	1.716
246	1.737
246	1.759
247	1.775
247	1.793
248	1.808
248	1.825
249	1.837
249	1.848
250	1.862
250	1.874
250	1.883
251	1.89
251	1.894
252	1.9
252	1.902
253	1.905
253	1.903
254	1.904
254	1.909
255	1.906
255	1.909
256	1.909
256	1.911
257	1.914
257	1.914
258	1.915
258	1.918
258	1.921
259	1.923
259	1.924
260	1.925
260	1.931
261	1.934
261	1.94
262	1.945
262	1.95
263	1.958
263	1.96
264	1.965
264	1.971
265	1.975
265	1.98
265	1.982
266	1.984
266	1.985
267	1.985
267	1.988
268	1.99
268	1.997
269	2
269	2.001
270	2
270	2
271	1.997
271	1.998
272	1.996
272	1.993
272	1.986
273	1.977
273	1.964
274	1.954
274	1.946
275	1.938
275	1.931
276	1.922
276	1.914
277	1.907
277	1.895
278	1.884
278	1.87
278	1.853
279	1.831
279	1.8
280	1.763
280	1.72
281	1.67
281	1.616
282	1.561
282	1.507
283	1.454
283	1.405
284	1.358
284	1.314
285	1.274
285	1.238
285	1.206
286	1.178
286	1.154
287	1.133
287	1.116
288	1.101
288	1.089
289	1.078
289	1.069
290	1.061
290	1.054
291	1.049
291	1.043
292	1.039
292	1.035
292	1.031
293	1.028
293	1.025
294	1.022
294	1.019
295	1.017
295	1.015
296	1.012
296	1.01
297	1.008
297	1.006
298	1.003
298	1.001
298	0.998
299	0.996
299	0.994
300	0.991
300	0.989
301	0.986
301	0.984
302	0.982
302	0.979
303	0.978
303	0.975
304	0.973
304	0.971
305	0.969
305	0.967
305	0.965
306	0.963
306	0.961
307	0.959
307	0.956
308	0.954
308	0.952
309	0.949
309	0.947
310	0.944
310	0.942
311	0.938
311	0.935
311	0.932
312	0.929
312	0.925
313	0.922
313	0.918
314	0.914
314	0.91
315	0.906
315	0.901
316	0.897
316	0.892
317	0.888
317	0.883
318	0.878
318	0.873
318	0.867
319	0.862
319	0.856
320	0.851
320	0.845
321	0.839
321	0.833
322	0.826
322	0.819
323	0.813
323	0.807
324	0.8
324	0.793
324	0.786
325	0.779
325	0.772
326	0.764
326	0.757
327	0.75
327	0.743
328	0.736
328	0.728
329	0.721
329	0.713
330	0.706
330	0.699
330	0.691
331	0.684
331	0.677
332	0.669
332	0.662
333	0.654
333	0.647
334	0.64
334	0.632
335	0.625
335	0.618
336	0.611
336	0.605
336	0.597
337	0.591
337	0.584
338	0.577
338	0.571
339	0.565
339	0.558
340	0.552
340	0.546
341	0.54
341	0.534
342	0.528
342	0.522
342	0.517
343	0.511
343	0.506
344	0.501
344	0.496
345	0.491
345	0.486
346	0.481
346	0.476
347	0.471
347	0.467
348	0.463
348	0.459
348	0.454
349	0.45
349	0.446
350	0.443
350	0.439
351	0.435
351	0.432
352	0.429
352	0.425
353	0.422
353	0.419
354	0.416
354	0.413
354	0.41
355	0.407
355	0.404
356	0.402
356	0.399
357	0.396
357	0.393
358	0.39
358	0.388
359	0.385
359	0.382
360	0.38
360	0.378
360	0.376
361	0.373
361	0.371
362	0.369
362	0.367
363	0.365
363	0.363
364	0.361
364	0.359
365	0.358
365	0.356
366	0.354
366	0.352
366	0.35
367	0.349
367	0.347
368	0.345
368	0.344
369	0.342
369	0.34
370	0.339
370	0.337
371	0.336
371	0.334
372	0.333
372	0.332
372	0.33
373	0.329
373	0.328
374	0.327
374	0.326
375	0.325
375	0.324
376	0.323
376	0.322
377	0.321
377	0.32
378	0.319
378	0.318
378	0.317
379	0.316
379	0.315
380	0.314
380	0.313
381	0.313
381	0.312
382	0.311
382	0.31
383	0.31
383	0.309
383	0.308
384	0.307
384	0.307
385	0.306
385	0.306
386	0.305
386	0.304
387	0.304
387	0.303
388	0.302
388	0.302
389	0.301
389	0.301
389	0.3
390	0.3
390	0.3
391	0.299
391	0.299
392	0.298
392	0.298
393	0.298
393	0.297
394	0.297
394	0.296
394	0.295
395	0.295
395	0.294
396	0.294
396	0.293
397	0.293
397	0.292
398	0.292
398	0.291
399	0.29
399	0.29
400	0.29
400	0.289
400	0.289
401	0.289
401	0.288
402	0.288
402	0.288
403	0.287
403	0.287
404	0.287
404	0.287
405	0.287
405	0.286
405	0.286
406	0.285
406	0.285
407	0.285
407	0.284
408	0.284
408	0.283
409	0.283
409	0.283
410	0.282
410	0.282
411	0.281
411	0.281
411	0.281
412	0.28
412	0.28
413	0.279
413	0.279
414	0.279
414	0.279
415	0.278
415	0.278
416	0.277
416	0.277
416	0.277
417	0.276
417	0.276
418	0.276
418	0.275
419	0.275
419	0.275
420	0.274
420	0.274
421	0.274
421	0.274
421	0.273
422	0.273
422	0.273
423	0.272
423	0.272
424	0.271
424	0.271
425	0.27
425	0.27
426	0.27
426	0.269
427	0.269
427	0.269
427	0.269
428	0.268
428	0.268
429	0.268
429	0.267
430	0.267
430	0.267
431	0.266
431	0.266
432	0.266
432	0.266
432	0.265
433	0.265
433	0.264
434	0.264
434	0.264
435	0.264
435	0.264
436	0.263
436	0.263
437	0.263
437	0.262
437	0.262
438	0.262
438	0.262
439	0.262
439	0.261
440	0.261
440	0.261
441	0.261
441	0.26
442	0.26
442	0.26
442	0.26
443	0.26
443	0.26
444	0.26
444	0.259
445	0.259
445	0.259
446	0.259
446	0.259
447	0.258
447	0.258
447	0.258
448	0.257
448	0.257
449	0.257
449	0.256
450	0.256
450	0.256
451	0.256
451	0.256
452	0.255
452	0.255
452	0.255
453	0.255
453	0.254
454	0.254
454	0.254
455	0.253
455	0.253
456	0.253
456	0.253
457	0.252
457	0.252
458	0.252
458	0.252
458	0.252
459	0.251
459	0.251
460	0.251
460	0.251
461	0.25
461	0.25
462	0.25
462	0.25
463	0.25
463	0.25
463	0.249
464	0.249
464	0.249
465	0.248
465	0.248
466	0.248
466	0.248
467	0.248
467	0.248
467	0.248
468	0.248
468	0.247
469	0.247
469	0.247
470	0.247
470	0.247
471	0.247
471	0.247
472	0.247
472	0.247
472	0.247
473	0.247
473	0.247
474	0.247
474	0.246
475	0.246
475	0.246
476	0.246
476	0.246
477	0.246
477	0.246
477	0.246
478	0.246
478	0.246
479	0.247
479	0.247
480	0.247
480	0.247
481	0.247
481	0.247
482	0.247
482	0.247
482	0.247
483	0.248
483	0.248
484	0.248
484	0.248
485	0.248
485	0.248
486	0.248
486	0.248
487	0.248
487	0.249
487	0.249
488	0.249
488	0.249
489	0.25
489	0.251
490	0.251
490	0.252
491	0.252
491	0.253
492	0.253
492	0.253
492	0.254
493	0.254
493	0.255
494	0.255
494	0.255
495	0.256
495	0.256
496	0.257
496	0.257
496	0.258
497	0.258
497	0.259
498	0.259
498	0.26
499	0.26
499	0.261
500	0.261
500	0.262
501	0.262
501	0.263
501	0.263
502	0.263
502	0.264
503	0.264
503	0.265
504	0.265
504	0.266
505	0.266
505	0.266
506	0.267
506	0.267
506	0.268
507	0.268
507	0.269
508	0.269
508	0.27
509	0.27
509	0.271
510	0.271
510	0.272
511	0.273
511	0.273
511	0.274
512	0.275
512	0.275
513	0.275
513	0.276
514	0.276
514	0.277
515	0.278
515	0.278
515	0.278
516	0.278
516	0.279
517	0.279
517	0.28
518	0.28
518	0.281
519	0.281
519	0.281
520	0.282
520	0.282
520	0.282
521	0.282
521	0.282
522	0.282
522	0.282
523	0.283
523	0.283
524	0.283
524	0.283
524	0.284
525	0.284
525	0.284
526	0.284
526	0.284
527	0.284
527	0.284
528	0.284
528	0.284
529	0.284
529	0.284
529	0.284
530	0.284
530	0.283
531	0.283
531	0.283
532	0.283
532	0.283
533	0.282
533	0.282
533	0.282
534	0.282
534	0.282
535	0.282
535	0.282
536	0.282
536	0.281
537	0.281
537	0.281
538	0.281
538	0.281
538	0.28
539	0.28
539	0.28
540	0.28
540	0.28
541	0.279
541	0.279
542	0.279
542	0.278
542	0.278
543	0.277
543	0.277
544	0.276
544	0.276
545	0.276
545	0.275
546	0.275
546	0.274
547	0.274
547	0.273
547	0.273
548	0.273
548	0.272
549	0.272
549	0.272
550	0.271
550	0.27
551	0.27
551	0.269
551	0.269
552	0.268
552	0.267
553	0.267
553	0.266
554	0.266
554	0.265
555	0.264
555	0.264
556	0.263
556	0.263
556	0.263
557	0.263
557	0.263
558	0.262
558	0.262
559	0.262
559	0.262
560	0.262
560	0.262
560	0.261
561	0.261
561	0.261
562	0.26
562	0.259
563	0.259
563	0.258
564	0.257
564	0.256
564	0.256
565	0.256
565	0.255
566	0.255
566	0.254
567	0.254
567	0.254
568	0.253
568	0.253
568	0.253
569	0.253
569	0.252
570	0.252
570	0.251
571	0.251
571	0.25
572	0.25
572	0.249
573	0.249
573	0.248
573	0.247
574	0.247
574	0.247
575	0.247
575	0.247
576	0.247
576	0.246
577	0.245
577	0.245
577	0.245
578	0.244
578	0.244
579	0.244
579	0.244
580	0.244
580	0.243
581	0.242
581	0.241
581	0.241
582	0.242
582	0.242
583	0.242
583	0.241
584	0.24
584	0.239
585	0.238
585	0.238
585	0.237
586	0.237
586	0.236
587	0.235
587	0.234
588	0.233
588	0.233
589	0.232
589	0.232
590	0.232
590	0.232
590	0.233
591	0.233
591	0.233
592	0.232
592	0.232
593	0.231
593	0.231
594	0.231
594	0.23
594	0.229
595	0.229
595	0.228
596	0.227
596	0.228
597	0.228
597	0.228
598	0.228
598	0.228
598	0.228
599	0.228
599	0.228
600	0.227
600	0.227
601	0.226
601	0.226
602	0.225
602	0.224
602	0.224
603	0.223
603	0.223
604	0.223
604	0.223
605	0.223
605	0.223
606	0.222
606	0.221
606	0.221
607	0.221
607	0.221
608	0.22
608	0.219
609	0.219
609	0.218
610	0.218
610	0.217
610	0.217
611	0.217
611	0.217
612	0.217
612	0.217
613	0.217
613	0.216
614	0.216
614	0.215
614	0.215
615	0.215
615	0.215
616	0.215
616	0.215
617	0.215
617	0.214
618	0.214
618	0.214
618	0.214
619	0.215
619	0.215
620	0.215
620	0.214
621	0.214
621	0.214
622	0.213
622	0.212
622	0.212
623	0.212
623	0.211
624	0.211
624	0.21
625	0.209
625	0.209
626	0.209
626	0.209
626	0.209
627	0.209
627	0.209
628	0.209
628	0.209
629	0.208
629	0.208
630	0.208
630	0.207
630	0.207
631	0.207
631	0.207
632	0.207
632	0.207
633	0.207
633	0.207
634	0.207
634	0.207
634	0.207
635	0.207
635	0.206
636	0.206
636	0.206
637	0.206
637	0.205
638	0.205
638	0.205
638	0.204
639	0.204
639	0.203
640	0.203
640	0.203
641	0.203
641	0.203
642	0.202
642	0.202
642	0.202
643	0.202
643	0.202
644	0.202
644	0.202
645	0.202
645	0.202
646	0.201
646	0.201
646	0.202
647	0.202
647	0.201
648	0.201
648	0.201
649	0.201
649	0.2
650	0.2
650	0.2
650	0.2
651	0.2
651	0.199
652	0.199
652	0.199
653	0.2
653	0.202
653	0.209
654	0.164
654	0.131
655	0.132
655	0.133
656	0.133
656	0.133
657	0.134
657	0.134
657	0.134
658	0.132
658	0.121
659	0.153
659	0.197
660	0.201
660	0.201
661	0.201
661	0.2
661	0.2
662	0.2
662	0.199
663	0.199
663	0.199
664	0.199
664	0.198
665	0.198
665	0.198
665	0.198
666	0.199
666	0.198
667	0.198
667	0.199
668	0.199
668	0.198
669	0.198
669	0.198
669	0.199
670	0.199
670	0.199
671	0.198
671	0.198
672	0.198
672	0.198
672	0.198
673	0.198
673	0.198
674	0.198
674	0.198
675	0.198
675	0.198
676	0.198
676	0.198
676	0.198
677	0.198
677	0.198
678	0.198
678	0.198
679	0.197
679	0.198
680	0.198
680	0.198
680	0.198
681	0.198
681	0.199
682	0.199
682	0.2
683	0.2
683	0.201
684	0.201
684	0.201
684	0.201
685	0.201
685	0.202
686	0.202
686	0.202
687	0.201
687	0.201
687	0.201
688	0.201
688	0.201
689	0.201
689	0.202
690	0.202
690	0.201
691	0.202
691	0.202
691	0.202
692	0.203
692	0.203
693	0.204
693	0.204
694	0.204
694	0.204
695	0.205
695	0.206
695	0.207
696	0.207
696	0.207
697	0.207
697	0.206
698	0.206
698	0.205
698	0.206
699	0.206
699	0.205
700	0.205
700	0.205
701	0.205
701	0.205
702	0.205
702	0.205
702	0.205
703	0.205
703	0.205
704	0.205
704	0.205
705	0.205
705	0.205
705	0.205
706	0.205
706	0.205
707	0.206
707	0.206
708	0.206
708	0.207
709	0.207
709	0.207
709	0.206
710	0.206
710	0.207
711	0.207
711	0.207
712	0.207
712	0.207
713	0.207
713	0.208
713	0.208
714	0.208
714	0.208
715	0.208
715	0.208
716	0.208
716	0.208
716	0.207
717	0.207
717	0.207
718	0.206
718	0.206
719	0.206
719	0.206
720	0.207
720	0.207
720	0.207
721	0.207
721	0.208
722	0.208
722	0.209
723	0.209
723	0.209
723	0.21
724	0.21
724	0.209
725	0.209
725	0.209
726	0.208
726	0.208
727	0.208
727	0.208
727	0.208
728	0.208
728	0.207
729	0.208
729	0.208
730	0.208
730	0.208
730	0.209
731	0.209
731	0.209
732	0.21
732	0.21
733	0.21
733	0.21
734	0.21
734	0.21
734	0.211
735	0.211
735	0.211
736	0.21
736	0.21
737	0.21
737	0.21
737	0.21
738	0.21
738	0.209
739	0.209
739	0.208
740	0.208
740	0.208
741	0.208
741	0.208
741	0.208
742	0.208
742	0.208
743	0.209
743	0.209
744	0.21
744	0.21
744	0.21
745	0.211
745	0.211
746	0.211
746	0.211
747	0.212
747	0.212
748	0.212
748	0.213
748	0.213
749	0.213
749	0.213
750	0.213
750	0.212
751	0.212
751	0.212
751	0.212
752	0.212
752	0.211
753	0.211
753	0.211
754	0.211
754	0.211
754	0.211
755	0.211
755	0.211
756	0.211
756	0.209
757	0.208
757	0.208
758	0.208
758	0.207
758	0.207
759	0.208
759	0.207
760	0.207
760	0.208
761	0.208
761	0.21
761	0.211
762	0.211
762	0.212
763	0.213
763	0.213
764	0.212
764	0.212
764	0.212
765	0.212
765	0.211
766	0.211
766	0.21
767	0.209
767	0.208
768	0.207
768	0.207
768	0.206
769	0.206
769	0.206
770	0.206
770	0.206
771	0.206
771	0.206
771	0.207
772	0.208
772	0.208
773	0.209
773	0.209
774	0.21
774	0.21
775	0.21
775	0.211
775	0.211
776	0.211
776	0.211
777	0.211
777	0.211
778	0.211
778	0.211
778	0.211
779	0.21
779	0.21
780	0.209
780	0.209
781	0.209
781	0.208
781	0.208
782	0.208
782	0.208
783	0.208
783	0.208
784	0.208
784	0.208
784	0.209
785	0.209
785	0.209
786	0.209
786	0.209
787	0.209
787	0.209
788	0.209
788	0.209
788	0.209
789	0.209
789	0.209
790	0.209
790	0.209
791	0.208
791	0.208
791	0.208
792	0.209
792	0.21
793	0.209
793	0.209
794	0.209
794	0.209
794	0.209
795	0.209
795	0.209
796	0.21
796	0.21
797	0.209
797	0.209
797	0.21
798	0.21
798	0.21
799	0.21
799	0.211
800	0.211
800	0.21
801	0.21
801	0.211
801	0.211
802	0.211
802	0.212
803	0.212
803	0.212
804	0.212
804	0.213
804	0.213
805	0.213
805	0.213
806	0.213
806	0.212
807	0.212
807	0.212
807	0.212
808	0.211
808	0.212
809	0.211
809	0.211
810	0.212
810	0.212
810	0.212
811	0.212
811	0.213
812	0.213
812	0.213
813	0.214
813	0.214
813	0.214
814	0.215
814	0.215
815	0.215
815	0.216
816	0.216
816	0.216
817	0.215
817	0.215
817	0.215
818	0.215
818	0.214
819	0.214
819	0.213
820	0.212
820	0.212
820	0.211
821	0.211
821	0.211
822	0.211
822	0.211
823	0.211
823	0.211
823	0.211
824	0.212
824	0.213
825	0.214
825	0.215
826	0.216
826	0.216
826	0.216
827	0.216
827	0.217
828	0.217
828	0.216
829	0.216
829	0.216
829	0.216
830	0.215
830	0.215
831	0.216
831	0.216
832	0.216
832	0.216
832	0.217
833	0.217
833	0.217
834	0.217
834	0.217
835	0.217
835	0.217
835	0.217
836	0.217
836	0.217
837	0.218
837	0.217
838	0.217
838	0.217
839	0.216
839	0.215
839	0.215
840	0.214
840	0.213
841	0.212
841	0.211
842	0.21
842	0.209
842	0.209
843	0.209
843	0.208
844	0.208
844	0.208
845	0.209
845	0.209
845	0.209
846	0.209
846	0.209
847	0.21
847	0.21
848	0.211
848	0.211
848	0.211
849	0.211
849	0.211
850	0.211
850	0.211
851	0.211
851	0.211
851	0.211
852	0.21
852	0.21
853	0.209
853	0.209
854	0.209
854	0.209
854	0.209
855	0.209
855	0.21
856	0.21
856	0.21
857	0.21
857	0.211
857	0.211
858	0.211
858	0.21
859	0.209
859	0.208
860	0.207
860	0.206
860	0.205
861	0.204
861	0.203
862	0.202
862	0.201
863	0.2
863	0.199
863	0.199
864	0.199
864	0.199
865	0.199
865	0.199
866	0.199
866	0.199
866	0.199
867	0.199
867	0.199
868	0.2
868	0.2
869	0.2
869	0.2
869	0.199
870	0.199
870	0.198
871	0.198
871	0.198
872	0.198
872	0.198
872	0.198
873	0.197
873	0.197
874	0.196
874	0.196
875	0.196
875	0.196
875	0.196
876	0.196
876	0.196
877	0.196
877	0.197
878	0.197
878	0.198
878	0.199
879	0.2
879	0.201
880	0.201
880	0.202
881	0.202
881	0.201
881	0.201
882	0.2
882	0.199
883	0.198
883	0.197
884	0.196
884	0.195
884	0.194
885	0.193
885	0.192
886	0.192
886	0.191
887	0.19
887	0.19
887	0.189
888	0.189
888	0.188
889	0.188
889	0.188
890	0.188
890	0.188
890	0.189
891	0.189
891	0.189
892	0.189
892	0.189
893	0.189
893	0.19
893	0.19
894	0.19
894	0.189
895	0.189
895	0.188
895	0.188
896	0.187
896	0.187
897	0.186
897	0.185
898	0.184
898	0.183
898	0.182
899	0.181
899	0.18
900	0.18
900	0.18
901	0.179
901	0.179
901	0.179
902	0.179
902	0.18
903	0.18
903	0.18
904	0.179
904	0.179
904	0.179
905	0.178
905	0.178
906	0.178
906	0.178
907	0.178
907	0.179
907	0.179
908	0.179
908	0.179
909	0.179
909	0.18
910	0.18
910	0.18
910	0.18
911	0.179
911	0.179
912	0.178
912	0.178
913	0.177
913	0.176
913	0.175
914	0.175
914	0.174
915	0.173
915	0.172
916	0.172
916	0.171
916	0.17
917	0.169
917	0.169
918	0.168
918	0.167
918	0.167
919	0.166
919	0.165
920	0.165
920	0.165
921	0.164
921	0.164
921	0.164
922	0.163
922	0.163
923	0.163
923	0.163
924	0.163
924	0.163
924	0.163
925	0.163
925	0.163
926	0.162
926	0.162
927	0.162
927	0.162
927	0.162
928	0.161
928	0.161
929	0.161
929	0.16
930	0.16
930	0.159
930	0.158
931	0.158
931	0.157
932	0.157
932	0.157
933	0.157
933	0.156
933	0.156
934	0.156
934	0.156
935	0.156
935	0.156
935	0.156
936	0.155
936	0.155
937	0.155
937	0.155
938	0.154
938	0.154
938	0.154
939	0.153
939	0.153
940	0.153
940	0.153
941	0.153
941	0.153
941	0.154
942	0.153
942	0.153
943	0.152
943	0.152
944	0.151
944	0.151
944	0.15
945	0.15
945	0.149
946	0.149
946	0.148
946	0.148
947	0.149
947	0.148
948	0.148
948	0.148
949	0.148
949	0.147
949	0.147
950	0.146
950	0.146
951	0.145
951	0.145
952	0.144
952	0.143
952	0.142
953	0.141
953	0.141
954	0.14
954	0.139
955	0.138
955	0.137
955	0.137
956	0.136
956	0.136
957	0.136
957	0.136
957	0.136
958	0.136
958	0.137
959	0.137
959	0.137
960	0.137
960	0.136
960	0.136
961	0.135
961	0.135
962	0.134
962	0.133
963	0.133
963	0.132
963	0.132
964	0.132
964	0.131
965	0.131
965	0.131
966	0.131
966	0.131
966	0.131
967	0.131
967	0.131
968	0.132
968	0.131
968	0.131
969	0.131
969	0.131
970	0.131
970	0.131
971	0.13
971	0.13
971	0.13
972	0.13
972	0.13
973	0.129
973	0.129
974	0.129
974	0.129
974	0.129
975	0.13
975	0.13
976	0.13
976	0.13
976	0.131
977	0.13
977	0.13
978	0.13
978	0.13
979	0.13
979	0.129
979	0.129
980	0.128
980	0.128
981	0.127
981	0.126
982	0.126
982	0.125
982	0.125
983	0.124
983	0.124
984	0.123
984	0.122
984	0.121
985	0.12
985	0.12
986	0.119
986	0.118
987	0.117
987	0.116
987	0.115
988	0.114
988	0.114
989	0.113
989	0.112
990	0.112
990	0.111
990	0.111
991	0.11
991	0.11
992	0.11
992	0.109
992	0.108
993	0.108
993	0.107
994	0.107
994	0.106
995	0.106
995	0.105
995	0.105
996	0.105
996	0.105
997	0.105
997	0.106
997	0.106
998	0.107
998	0.107
999	0.108
999	0.109
1000	0.11
1000	0.11
1000	0.111
1001	0.111
1001	0.112
1002	0.112
1002	0.112
1003	0.113
1003	0.112
1003	0.112
1004	0.112
1004	0.112
1005	0.112
1005	0.111
1005	0.111
1006	0.11
1006	0.11
1007	0.11
1007	0.109
1008	0.109
1008	0.109
1008	0.108
1009	0.108
1009	0.108
1010	0.107
1010	0.107
1010	0.106
1011	0.106
1011	0.105
1012	0.105
1012	0.105
1013	0.104
1013	0.104
1013	0.103
1014	0.103
1014	0.102
1015	0.102
1015	0.101
1016	0.101
1016	0.1
1016	0.099
1017	0.098
1017	0.098
1018	0.098
1018	0.097
1018	0.097
1019	0.096
1019	0.096
1020	0.096
1020	0.096
1021	0.096
1021	0.096
1021	0.096
1022	0.096
1022	0.096
1023	0.096
1023	0.095
1023	0.095
1024	0.095
1024	0.095
1025	0.095
1025	0.094
1026	0.094
1026	0.093
1026	0.093
1027	0.093
1027	0.092
1028	0.092
1028	0.092
1028	0.092
1029	0.092
1029	0.092
1030	0.092
1030	0.092
1031	0.092
1031	0.092
1031	0.092
1032	0.092
1032	0.092
1033	0.092
1033	0.091
1033	0.091
1034	0.091
1034	0.09
1035	0.09
1035	0.089
1036	0.089
1036	0.088
1036	0.088
1037	0.088
1037	0.087
1038	0.087
1038	0.087
1039	0.087
1039	0.087
1039	0.087
1040	0.087
1040	0.087
1041	0.087
1041	0.087
1041	0.087
1042	0.088
1042	0.088
1043	0.088
1043	0.088
1044	0.088
1044	0.088
1044	0.088
1045	0.088
1045	0.088
1046	0.088
1046	0.088
1046	0.089
1047	0.089
1047	0.089
1048	0.09
1048	0.09
1049	0.091
1049	0.091
1049	0.091
1050	0.091
1050	0.09
1051	0.09
1051	0.089
1051	0.089
1052	0.088
1052	0.087
1053	0.086
1053	0.085
1053	0.084
1054	0.083
1054	0.083
1055	0.082
1055	0.081
1056	0.081
1056	0.08
1056	0.079
1057	0.079
1057	0.078
1058	0.077
1058	0.076
1058	0.076
1059	0.075
1059	0.075
1060	0.074
1060	0.073
1061	0.073
1061	0.072
1061	0.072
1062	0.072
1062	0.072
1063	0.072
1063	0.072
1063	0.072
1064	0.071
1064	0.072
1065	0.072
1065	0.072
1066	0.072
1066	0.071
1066	0.071
1067	0.07
1067	0.07
1068	0.07
1068	0.069
1068	0.069
1069	0.068
1069	0.067
1070	0.066
1070	0.066
1071	0.064
1071	0.064
1071	0.063
1072	0.062
1072	0.061
1073	0.06
1073	0.06
1073	0.059
1074	0.059
1074	0.059
1075	0.059
1075	0.059
1076	0.059
1076	0.06
1076	0.06
1077	0.06
1077	0.06
1078	0.06
1078	0.061
1078	0.061
1079	0.061
1079	0.06
1080	0.06
1080	0.06
1080	0.06
1081	0.06
1081	0.06
1082	0.06
1082	0.06
1083	0.06
1083	0.06
1083	0.059
1084	0.059
1084	0.059
1085	0.059
1085	0.058
1085	0.058
1086	0.058
1086	0.057
1087	0.057
1087	0.056
1088	0.056
1088	0.056
1088	0.056
1089	0.055
1089	0.054
1090	0.053
1090	0.053
1090	0.052
1091	0.052
1091	0.051
1092	0.051
1092	0.051
1092	0.05
1093	0.05
1093	0.05
1094	0.05
1094	0.05
1095	0.049
1095	0.049
1095	0.048
1096	0.048
1096	0.047
1097	0.047
1097	0.046
1097	0.046
1098	0.044
1098	0.044
1099	0.043
1099	0.041
1100	0.04
1100	0.039
1100	0.037
1101	0.036
1101	0.035
1102	0.033
1102	0.032
1102	0.032
1103	0.031
1103	0.031
1104	0.03
1104	0.03
1104	0.03
1105	0.029
1105	0.028
1106	0.027
1106	0.025
1107	0.025
1107	0.024
1107	0.023
1108	0.022
1108	0.021
1109	0.019
1109	0.017
1109	0.016
1110	0.017
1110	0.018
1111	0.022
1111	0.021
