Data from reversibility-20sec_Absorbance__2640__000000000002640.txt Node

Date: Wed Dec 06 02:53:06 CET 2023
User: Marek
Spectrometer: MAYP115816
Trigger mode: 0
Integration Time (sec): 2.000000E-1
Scans to average: 10
Electric dark correction enabled: true
Nonlinearity correction enabled: true
Boxcar width: 5
XAxis mode: Wavelengths
Number of Pixels in Spectrum: 2068
>>>>>Begin Spectral Data<<<<<
199	-0.161
199	-0.126
200	-0.059
200	-0.009
201	0.022
201	0.036
202	0.047
202	0.054
203	0.062
203	0.064
204	0.08
204	0.092
205	0.104
205	0.109
205	0.108
206	0.105
206	0.105
207	0.106
207	0.106
208	0.103
208	0.104
209	0.106
209	0.106
210	0.106
210	0.107
211	0.108
211	0.108
212	0.105
212	0.106
213	0.111
213	0.115
213	0.115
214	0.119
214	0.117
215	0.118
215	0.117
216	0.119
216	0.12
217	0.126
217	0.128
218	0.127
218	0.13
219	0.135
219	0.133
220	0.138
220	0.138
221	0.139
221	0.142
221	0.146
222	0.15
222	0.153
223	0.157
223	0.16
224	0.162
224	0.171
225	0.183
225	0.194
226	0.204
226	0.213
227	0.224
227	0.237
228	0.253
228	0.269
229	0.288
229	0.313
229	0.334
230	0.356
230	0.386
231	0.421
231	0.46
232	0.496
232	0.539
233	0.584
233	0.633
234	0.684
234	0.735
235	0.791
235	0.842
236	0.894
236	0.945
236	0.997
237	1.056
237	1.105
238	1.152
238	1.203
239	1.254
239	1.3
240	1.344
240	1.386
241	1.426
241	1.462
242	1.496
242	1.531
243	1.564
243	1.594
243	1.619
244	1.643
244	1.667
245	1.688
245	1.712
246	1.733
246	1.757
247	1.773
247	1.789
248	1.806
248	1.823
249	1.836
249	1.846
250	1.858
250	1.87
250	1.878
251	1.884
251	1.887
252	1.898
252	1.9
253	1.905
253	1.906
254	1.91
254	1.914
255	1.914
255	1.915
256	1.916
256	1.917
257	1.918
257	1.916
258	1.92
258	1.921
258	1.921
259	1.921
259	1.922
260	1.922
260	1.925
261	1.924
261	1.93
262	1.937
262	1.942
263	1.946
263	1.95
264	1.952
264	1.955
265	1.956
265	1.96
265	1.963
266	1.966
266	1.968
267	1.965
267	1.966
268	1.967
268	1.967
269	1.969
269	1.971
270	1.973
270	1.971
271	1.969
271	1.971
272	1.967
272	1.965
272	1.961
273	1.955
273	1.948
274	1.941
274	1.935
275	1.928
275	1.923
276	1.914
276	1.906
277	1.9
277	1.89
278	1.879
278	1.867
278	1.852
279	1.835
279	1.814
280	1.788
280	1.755
281	1.718
281	1.676
282	1.631
282	1.587
283	1.543
283	1.5
284	1.459
284	1.419
285	1.381
285	1.347
285	1.316
286	1.289
286	1.265
287	1.244
287	1.226
288	1.211
288	1.198
289	1.186
289	1.176
290	1.168
290	1.161
291	1.154
291	1.148
292	1.143
292	1.138
292	1.133
293	1.129
293	1.125
294	1.121
294	1.117
295	1.114
295	1.111
296	1.107
296	1.103
297	1.1
297	1.097
298	1.094
298	1.091
298	1.088
299	1.085
299	1.083
300	1.079
300	1.076
301	1.073
301	1.071
302	1.068
302	1.065
303	1.063
303	1.06
304	1.058
304	1.055
305	1.052
305	1.05
305	1.048
306	1.045
306	1.042
307	1.04
307	1.037
308	1.034
308	1.031
309	1.028
309	1.025
310	1.022
310	1.018
311	1.015
311	1.011
311	1.008
312	1.004
312	1
313	0.996
313	0.992
314	0.988
314	0.984
315	0.98
315	0.975
316	0.97
316	0.966
317	0.961
317	0.956
318	0.951
318	0.945
318	0.94
319	0.935
319	0.929
320	0.923
320	0.917
321	0.911
321	0.904
322	0.898
322	0.891
323	0.885
323	0.878
324	0.872
324	0.865
324	0.858
325	0.851
325	0.844
326	0.837
326	0.83
327	0.823
327	0.816
328	0.809
328	0.802
329	0.795
329	0.788
330	0.78
330	0.773
330	0.766
331	0.759
331	0.752
332	0.746
332	0.738
333	0.731
333	0.724
334	0.717
334	0.71
335	0.703
335	0.696
336	0.69
336	0.683
336	0.676
337	0.67
337	0.663
338	0.657
338	0.651
339	0.645
339	0.638
340	0.633
340	0.627
341	0.621
341	0.615
342	0.609
342	0.604
342	0.599
343	0.593
343	0.588
344	0.583
344	0.578
345	0.573
345	0.568
346	0.564
346	0.559
347	0.554
347	0.55
348	0.546
348	0.542
348	0.538
349	0.534
349	0.53
350	0.527
350	0.523
351	0.519
351	0.516
352	0.513
352	0.51
353	0.507
353	0.504
354	0.5
354	0.497
354	0.495
355	0.491
355	0.488
356	0.486
356	0.483
357	0.48
357	0.477
358	0.475
358	0.472
359	0.469
359	0.467
360	0.464
360	0.462
360	0.46
361	0.458
361	0.455
362	0.453
362	0.451
363	0.449
363	0.448
364	0.445
364	0.443
365	0.441
365	0.439
366	0.437
366	0.435
366	0.434
367	0.432
367	0.43
368	0.428
368	0.427
369	0.425
369	0.424
370	0.422
370	0.421
371	0.419
371	0.417
372	0.416
372	0.414
372	0.413
373	0.412
373	0.411
374	0.409
374	0.408
375	0.407
375	0.405
376	0.404
376	0.403
377	0.402
377	0.401
378	0.4
378	0.399
378	0.397
379	0.397
379	0.396
380	0.395
380	0.394
381	0.393
381	0.392
382	0.391
382	0.391
383	0.39
383	0.389
383	0.388
384	0.387
384	0.386
385	0.386
385	0.385
386	0.384
386	0.383
387	0.382
387	0.382
388	0.381
388	0.38
389	0.38
389	0.379
389	0.378
390	0.378
390	0.377
391	0.377
391	0.376
392	0.376
392	0.375
393	0.375
393	0.374
394	0.374
394	0.373
394	0.373
395	0.372
395	0.371
396	0.371
396	0.37
397	0.37
397	0.369
398	0.369
398	0.368
399	0.367
399	0.367
400	0.366
400	0.366
400	0.365
401	0.365
401	0.364
402	0.364
402	0.363
403	0.363
403	0.362
404	0.362
404	0.361
405	0.361
405	0.361
405	0.36
406	0.36
406	0.359
407	0.359
407	0.358
408	0.358
408	0.357
409	0.357
409	0.357
410	0.356
410	0.356
411	0.355
411	0.355
411	0.355
412	0.355
412	0.354
413	0.354
413	0.353
414	0.353
414	0.353
415	0.352
415	0.351
416	0.351
416	0.351
416	0.35
417	0.35
417	0.349
418	0.349
418	0.349
419	0.348
419	0.348
420	0.347
420	0.347
421	0.346
421	0.346
421	0.346
422	0.345
422	0.345
423	0.345
423	0.344
424	0.344
424	0.344
425	0.343
425	0.343
426	0.343
426	0.343
427	0.342
427	0.342
427	0.341
428	0.341
428	0.341
429	0.34
429	0.34
430	0.34
430	0.339
431	0.339
431	0.339
432	0.339
432	0.339
432	0.338
433	0.338
433	0.338
434	0.338
434	0.338
435	0.338
435	0.337
436	0.337
436	0.337
437	0.337
437	0.337
437	0.337
438	0.336
438	0.336
439	0.336
439	0.336
440	0.335
440	0.335
441	0.334
441	0.334
442	0.334
442	0.334
442	0.334
443	0.333
443	0.333
444	0.333
444	0.333
445	0.333
445	0.333
446	0.333
446	0.332
447	0.332
447	0.332
447	0.332
448	0.332
448	0.332
449	0.332
449	0.331
450	0.331
450	0.331
451	0.331
451	0.331
452	0.331
452	0.331
452	0.331
453	0.331
453	0.331
454	0.331
454	0.331
455	0.33
455	0.33
456	0.33
456	0.33
457	0.331
457	0.33
458	0.33
458	0.33
458	0.33
459	0.33
459	0.331
460	0.331
460	0.331
461	0.331
461	0.331
462	0.331
462	0.331
463	0.331
463	0.331
463	0.331
464	0.331
464	0.331
465	0.331
465	0.331
466	0.331
466	0.331
467	0.331
467	0.331
467	0.331
468	0.332
468	0.332
469	0.332
469	0.333
470	0.333
470	0.334
471	0.334
471	0.334
472	0.335
472	0.335
472	0.335
473	0.336
473	0.336
474	0.337
474	0.337
475	0.337
475	0.337
476	0.338
476	0.338
477	0.339
477	0.339
477	0.34
478	0.34
478	0.341
479	0.341
479	0.342
480	0.343
480	0.343
481	0.344
481	0.344
482	0.345
482	0.346
482	0.346
483	0.347
483	0.348
484	0.349
484	0.349
485	0.35
485	0.351
486	0.351
486	0.352
487	0.352
487	0.353
487	0.354
488	0.355
488	0.356
489	0.357
489	0.359
490	0.36
490	0.362
491	0.363
491	0.364
492	0.366
492	0.367
492	0.368
493	0.369
493	0.371
494	0.372
494	0.373
495	0.374
495	0.376
496	0.377
496	0.378
496	0.38
497	0.381
497	0.382
498	0.383
498	0.384
499	0.385
499	0.387
500	0.388
500	0.39
501	0.392
501	0.393
501	0.394
502	0.395
502	0.397
503	0.398
503	0.399
504	0.401
504	0.402
505	0.403
505	0.404
506	0.406
506	0.407
506	0.408
507	0.409
507	0.41
508	0.411
508	0.412
509	0.414
509	0.415
510	0.416
510	0.417
511	0.419
511	0.42
511	0.422
512	0.423
512	0.424
513	0.425
513	0.425
514	0.426
514	0.427
515	0.428
515	0.429
515	0.429
516	0.43
516	0.431
517	0.431
517	0.432
518	0.432
518	0.433
519	0.433
519	0.433
520	0.433
520	0.434
520	0.434
521	0.433
521	0.434
522	0.434
522	0.434
523	0.434
523	0.434
524	0.433
524	0.433
524	0.433
525	0.433
525	0.432
526	0.432
526	0.431
527	0.431
527	0.43
528	0.429
528	0.428
529	0.428
529	0.427
529	0.425
530	0.424
530	0.423
531	0.422
531	0.421
532	0.419
532	0.418
533	0.416
533	0.415
533	0.414
534	0.412
534	0.411
535	0.41
535	0.408
536	0.407
536	0.405
537	0.404
537	0.402
538	0.4
538	0.398
538	0.397
539	0.395
539	0.393
540	0.391
540	0.39
541	0.388
541	0.386
542	0.384
542	0.382
542	0.381
543	0.379
543	0.377
544	0.375
544	0.373
545	0.371
545	0.369
546	0.367
546	0.365
547	0.362
547	0.36
547	0.357
548	0.355
548	0.353
549	0.351
549	0.349
550	0.347
550	0.345
551	0.342
551	0.34
551	0.338
552	0.336
552	0.334
553	0.332
553	0.33
554	0.328
554	0.326
555	0.324
555	0.321
556	0.319
556	0.317
556	0.315
557	0.313
557	0.312
558	0.31
558	0.309
559	0.306
559	0.305
560	0.303
560	0.302
560	0.3
561	0.298
561	0.297
562	0.294
562	0.292
563	0.29
563	0.288
564	0.286
564	0.285
564	0.283
565	0.281
565	0.28
566	0.278
566	0.276
567	0.274
567	0.273
568	0.271
568	0.269
568	0.268
569	0.266
569	0.265
570	0.263
570	0.261
571	0.26
571	0.258
572	0.257
572	0.255
573	0.254
573	0.253
573	0.252
574	0.25
574	0.249
575	0.248
575	0.247
576	0.246
576	0.244
577	0.243
577	0.241
577	0.24
578	0.239
578	0.238
579	0.237
579	0.236
580	0.235
580	0.233
581	0.231
581	0.23
581	0.229
582	0.229
582	0.228
583	0.227
583	0.226
584	0.224
584	0.222
585	0.221
585	0.22
585	0.219
586	0.218
586	0.217
587	0.216
587	0.215
588	0.214
588	0.213
589	0.212
589	0.211
590	0.211
590	0.21
590	0.21
591	0.209
591	0.208
592	0.207
592	0.206
593	0.205
593	0.204
594	0.203
594	0.202
594	0.201
595	0.2
595	0.199
596	0.198
596	0.198
597	0.198
597	0.198
598	0.197
598	0.196
598	0.196
599	0.195
599	0.194
600	0.193
600	0.193
601	0.192
601	0.191
602	0.19
602	0.189
602	0.188
603	0.187
603	0.187
604	0.187
604	0.186
605	0.186
605	0.185
606	0.185
606	0.184
606	0.183
607	0.183
607	0.182
608	0.182
608	0.18
609	0.18
609	0.179
610	0.179
610	0.178
610	0.177
611	0.177
611	0.177
612	0.177
612	0.177
613	0.177
613	0.176
614	0.176
614	0.175
614	0.175
615	0.175
615	0.174
616	0.174
616	0.173
617	0.173
617	0.172
618	0.172
618	0.172
618	0.171
619	0.171
619	0.171
620	0.171
620	0.171
621	0.17
621	0.17
622	0.169
622	0.169
622	0.168
623	0.167
623	0.167
624	0.166
624	0.165
625	0.164
625	0.164
626	0.163
626	0.163
626	0.163
627	0.162
627	0.162
628	0.162
628	0.161
629	0.161
629	0.161
630	0.161
630	0.161
630	0.161
631	0.161
631	0.16
632	0.16
632	0.159
633	0.159
633	0.159
634	0.159
634	0.159
634	0.158
635	0.158
635	0.157
636	0.157
636	0.157
637	0.156
637	0.156
638	0.155
638	0.155
638	0.154
639	0.153
639	0.153
640	0.152
640	0.152
641	0.152
641	0.152
642	0.152
642	0.152
642	0.152
643	0.152
643	0.152
644	0.152
644	0.152
645	0.152
645	0.152
646	0.152
646	0.152
646	0.151
647	0.151
647	0.151
648	0.15
648	0.15
649	0.149
649	0.149
650	0.149
650	0.149
650	0.149
651	0.149
651	0.148
652	0.148
652	0.148
653	0.149
653	0.15
653	0.156
654	0.124
654	0.1
655	0.099
655	0.099
656	0.099
656	0.099
657	0.099
657	0.1
657	0.1
658	0.099
658	0.089
659	0.112
659	0.142
660	0.148
660	0.148
661	0.147
661	0.146
661	0.146
662	0.145
662	0.144
663	0.144
663	0.143
664	0.143
664	0.142
665	0.142
665	0.142
665	0.142
666	0.142
666	0.142
667	0.143
667	0.143
668	0.144
668	0.144
669	0.144
669	0.145
669	0.145
670	0.145
670	0.145
671	0.144
671	0.144
672	0.143
672	0.142
672	0.142
673	0.142
673	0.141
674	0.141
674	0.14
675	0.139
675	0.139
676	0.14
676	0.14
676	0.14
677	0.14
677	0.14
678	0.14
678	0.14
679	0.139
679	0.139
680	0.139
680	0.139
680	0.139
681	0.139
681	0.139
682	0.138
682	0.139
683	0.139
683	0.139
684	0.14
684	0.139
684	0.139
685	0.139
685	0.139
686	0.139
686	0.139
687	0.139
687	0.139
687	0.139
688	0.138
688	0.138
689	0.138
689	0.139
690	0.139
690	0.138
691	0.138
691	0.138
691	0.139
692	0.138
692	0.138
693	0.139
693	0.139
694	0.138
694	0.138
695	0.138
695	0.139
695	0.139
696	0.138
696	0.138
697	0.138
697	0.137
698	0.137
698	0.136
698	0.136
699	0.137
699	0.136
700	0.136
700	0.136
701	0.136
701	0.136
702	0.136
702	0.136
702	0.136
703	0.136
703	0.136
704	0.135
704	0.136
705	0.136
705	0.135
705	0.135
706	0.135
706	0.135
707	0.135
707	0.135
708	0.135
708	0.134
709	0.134
709	0.134
709	0.133
710	0.133
710	0.133
711	0.133
711	0.132
712	0.132
712	0.132
713	0.132
713	0.132
713	0.132
714	0.132
714	0.132
715	0.131
715	0.131
716	0.13
716	0.13
716	0.13
717	0.13
717	0.13
718	0.129
718	0.129
719	0.129
719	0.129
720	0.13
720	0.13
720	0.13
721	0.13
721	0.13
722	0.13
722	0.13
723	0.13
723	0.13
723	0.13
724	0.13
724	0.13
725	0.129
725	0.128
726	0.128
726	0.128
727	0.127
727	0.127
727	0.126
728	0.126
728	0.125
729	0.126
729	0.126
730	0.126
730	0.126
730	0.127
731	0.127
731	0.128
732	0.128
732	0.128
733	0.128
733	0.128
734	0.128
734	0.128
734	0.127
735	0.127
735	0.126
736	0.125
736	0.125
737	0.124
737	0.124
737	0.123
738	0.122
738	0.121
739	0.12
739	0.12
740	0.12
740	0.12
741	0.12
741	0.12
741	0.12
742	0.12
742	0.121
743	0.121
743	0.122
744	0.122
744	0.122
744	0.122
745	0.121
745	0.121
746	0.121
746	0.121
747	0.12
747	0.12
748	0.12
748	0.12
748	0.12
749	0.12
749	0.121
750	0.121
750	0.121
751	0.121
751	0.122
751	0.122
752	0.121
752	0.121
753	0.12
753	0.12
754	0.119
754	0.118
754	0.118
755	0.117
755	0.117
756	0.116
756	0.115
757	0.114
757	0.114
758	0.114
758	0.113
758	0.113
759	0.113
759	0.113
760	0.113
760	0.113
761	0.113
761	0.114
761	0.114
762	0.114
762	0.115
763	0.115
763	0.115
764	0.114
764	0.114
764	0.114
765	0.114
765	0.114
766	0.114
766	0.113
767	0.113
767	0.112
768	0.111
768	0.111
768	0.11
769	0.11
769	0.109
770	0.109
770	0.109
771	0.109
771	0.108
771	0.108
772	0.109
772	0.109
773	0.109
773	0.109
774	0.109
774	0.11
775	0.11
775	0.11
775	0.11
776	0.11
776	0.11
777	0.11
777	0.11
778	0.109
778	0.109
778	0.108
779	0.108
779	0.107
780	0.106
780	0.106
781	0.105
781	0.105
781	0.104
782	0.104
782	0.103
783	0.103
783	0.103
784	0.103
784	0.103
784	0.103
785	0.102
785	0.102
786	0.102
786	0.102
787	0.102
787	0.102
788	0.101
788	0.101
788	0.101
789	0.1
789	0.1
790	0.1
790	0.1
791	0.1
791	0.1
791	0.1
792	0.1
792	0.1
793	0.1
793	0.099
794	0.099
794	0.099
794	0.098
795	0.098
795	0.099
796	0.099
796	0.098
797	0.098
797	0.098
797	0.098
798	0.098
798	0.098
799	0.098
799	0.097
800	0.097
800	0.096
801	0.095
801	0.095
801	0.094
802	0.094
802	0.094
803	0.094
803	0.093
804	0.093
804	0.094
804	0.094
805	0.094
805	0.094
806	0.094
806	0.094
807	0.094
807	0.094
807	0.094
808	0.094
808	0.094
809	0.094
809	0.093
810	0.093
810	0.093
810	0.093
811	0.093
811	0.094
812	0.094
812	0.094
813	0.094
813	0.095
813	0.095
814	0.095
814	0.095
815	0.095
815	0.095
816	0.095
816	0.094
817	0.093
817	0.093
817	0.093
818	0.092
818	0.092
819	0.092
819	0.091
820	0.09
820	0.089
820	0.089
821	0.089
821	0.088
822	0.088
822	0.088
823	0.088
823	0.088
823	0.088
824	0.089
824	0.09
825	0.091
825	0.091
826	0.091
826	0.091
826	0.091
827	0.091
827	0.091
828	0.09
828	0.09
829	0.089
829	0.088
829	0.088
830	0.087
830	0.088
831	0.088
831	0.088
832	0.088
832	0.088
832	0.089
833	0.089
833	0.089
834	0.089
834	0.088
835	0.088
835	0.087
835	0.087
836	0.087
836	0.087
837	0.087
837	0.087
838	0.087
838	0.086
839	0.086
839	0.086
839	0.085
840	0.084
840	0.083
841	0.082
841	0.082
842	0.081
842	0.08
842	0.079
843	0.079
843	0.079
844	0.079
844	0.079
845	0.079
845	0.079
845	0.079
846	0.079
846	0.079
847	0.079
847	0.08
848	0.08
848	0.08
848	0.08
849	0.08
849	0.08
850	0.08
850	0.08
851	0.08
851	0.079
851	0.079
852	0.078
852	0.078
853	0.077
853	0.077
854	0.077
854	0.077
854	0.078
855	0.078
855	0.079
856	0.08
856	0.08
857	0.081
857	0.082
857	0.082
858	0.082
858	0.082
859	0.082
859	0.081
860	0.081
860	0.08
860	0.079
861	0.078
861	0.078
862	0.077
862	0.076
863	0.075
863	0.074
863	0.074
864	0.074
864	0.073
865	0.073
865	0.073
866	0.073
866	0.073
866	0.073
867	0.073
867	0.073
868	0.074
868	0.074
869	0.074
869	0.073
869	0.073
870	0.072
870	0.072
871	0.071
871	0.071
872	0.071
872	0.07
872	0.07
873	0.07
873	0.069
874	0.069
874	0.069
875	0.069
875	0.069
875	0.069
876	0.069
876	0.069
877	0.069
877	0.069
878	0.07
878	0.071
878	0.071
879	0.072
879	0.073
880	0.073
880	0.074
881	0.074
881	0.074
881	0.075
882	0.075
882	0.074
883	0.074
883	0.074
884	0.074
884	0.073
884	0.073
885	0.072
885	0.071
886	0.071
886	0.07
887	0.07
887	0.069
887	0.068
888	0.067
888	0.067
889	0.066
889	0.066
890	0.066
890	0.066
890	0.066
891	0.066
891	0.066
892	0.066
892	0.066
893	0.066
893	0.067
893	0.067
894	0.067
894	0.068
895	0.068
895	0.068
895	0.068
896	0.067
896	0.067
897	0.067
897	0.067
898	0.066
898	0.066
898	0.065
899	0.065
899	0.065
900	0.065
900	0.065
901	0.065
901	0.065
901	0.065
902	0.065
902	0.065
903	0.065
903	0.065
904	0.065
904	0.065
904	0.065
905	0.065
905	0.065
906	0.065
906	0.065
907	0.065
907	0.065
907	0.066
908	0.066
908	0.066
909	0.066
909	0.066
910	0.066
910	0.066
910	0.066
911	0.065
911	0.065
912	0.065
912	0.065
913	0.065
913	0.065
913	0.065
914	0.065
914	0.065
915	0.065
915	0.065
916	0.065
916	0.064
916	0.064
917	0.064
917	0.063
918	0.063
918	0.062
918	0.062
919	0.062
919	0.061
920	0.061
920	0.061
921	0.06
921	0.06
921	0.059
922	0.058
922	0.058
923	0.058
923	0.057
924	0.057
924	0.057
924	0.057
925	0.057
925	0.057
926	0.057
926	0.058
927	0.058
927	0.058
927	0.058
928	0.059
928	0.059
929	0.06
929	0.06
930	0.06
930	0.061
930	0.061
931	0.061
931	0.062
932	0.062
932	0.062
933	0.063
933	0.062
933	0.062
934	0.062
934	0.062
935	0.062
935	0.061
935	0.061
936	0.06
936	0.06
937	0.06
937	0.059
938	0.059
938	0.059
938	0.059
939	0.059
939	0.058
940	0.059
940	0.059
941	0.059
941	0.059
941	0.06
942	0.06
942	0.06
943	0.061
943	0.061
944	0.061
944	0.061
944	0.062
945	0.062
945	0.062
946	0.063
946	0.063
946	0.063
947	0.063
947	0.063
948	0.063
948	0.063
949	0.063
949	0.063
949	0.063
950	0.063
950	0.063
951	0.062
951	0.062
952	0.061
952	0.06
952	0.06
953	0.059
953	0.058
954	0.057
954	0.056
955	0.056
955	0.055
955	0.054
956	0.054
956	0.054
957	0.054
957	0.054
957	0.054
958	0.054
958	0.054
959	0.054
959	0.055
960	0.055
960	0.055
960	0.055
961	0.056
961	0.056
962	0.056
962	0.056
963	0.056
963	0.056
963	0.056
964	0.056
964	0.056
965	0.057
965	0.057
966	0.058
966	0.058
966	0.059
967	0.06
967	0.06
968	0.061
968	0.062
968	0.062
969	0.062
969	0.062
970	0.062
970	0.062
971	0.062
971	0.062
971	0.062
972	0.062
972	0.062
973	0.061
973	0.061
974	0.061
974	0.061
974	0.062
975	0.062
975	0.062
976	0.062
976	0.062
976	0.062
977	0.062
977	0.062
978	0.062
978	0.062
979	0.062
979	0.062
979	0.062
980	0.061
980	0.061
981	0.061
981	0.06
982	0.06
982	0.06
982	0.06
983	0.06
983	0.059
984	0.059
984	0.059
984	0.058
985	0.058
985	0.057
986	0.057
986	0.056
987	0.056
987	0.055
987	0.055
988	0.055
988	0.054
989	0.054
989	0.053
990	0.052
990	0.052
990	0.051
991	0.051
991	0.05
992	0.05
992	0.049
992	0.048
993	0.048
993	0.047
994	0.047
994	0.047
995	0.047
995	0.047
995	0.047
996	0.047
996	0.048
997	0.049
997	0.05
997	0.05
998	0.051
998	0.052
999	0.053
999	0.054
1000	0.055
1000	0.055
1000	0.056
1001	0.056
1001	0.056
1002	0.055
1002	0.055
1003	0.054
1003	0.053
1003	0.052
1004	0.051
1004	0.05
1005	0.049
1005	0.048
1005	0.047
1006	0.046
1006	0.046
1007	0.046
1007	0.045
1008	0.045
1008	0.045
1008	0.046
1009	0.046
1009	0.046
1010	0.047
1010	0.047
1010	0.047
1011	0.047
1011	0.047
1012	0.047
1012	0.047
1013	0.047
1013	0.048
1013	0.047
1014	0.047
1014	0.047
1015	0.047
1015	0.048
1016	0.048
1016	0.048
1016	0.048
1017	0.047
1017	0.047
1018	0.047
1018	0.047
1018	0.047
1019	0.047
1019	0.046
1020	0.046
1020	0.046
1021	0.047
1021	0.047
1021	0.047
1022	0.047
1022	0.047
1023	0.048
1023	0.048
1023	0.048
1024	0.048
1024	0.048
1025	0.048
1025	0.048
1026	0.047
1026	0.047
1026	0.047
1027	0.046
1027	0.046
1028	0.045
1028	0.045
1028	0.045
1029	0.045
1029	0.045
1030	0.045
1030	0.045
1031	0.045
1031	0.046
1031	0.046
1032	0.046
1032	0.046
1033	0.046
1033	0.046
1033	0.047
1034	0.047
1034	0.047
1035	0.046
1035	0.046
1036	0.046
1036	0.046
1036	0.046
1037	0.046
1037	0.046
1038	0.046
1038	0.046
1039	0.046
1039	0.046
1039	0.046
1040	0.047
1040	0.047
1041	0.048
1041	0.048
1041	0.048
1042	0.048
1042	0.049
1043	0.049
1043	0.049
1044	0.049
1044	0.049
1044	0.05
1045	0.05
1045	0.05
1046	0.051
1046	0.051
1046	0.051
1047	0.052
1047	0.053
1048	0.053
1048	0.054
1049	0.054
1049	0.055
1049	0.055
1050	0.055
1050	0.055
1051	0.055
1051	0.055
1051	0.055
1052	0.054
1052	0.054
1053	0.054
1053	0.053
1053	0.052
1054	0.051
1054	0.051
1055	0.051
1055	0.05
1056	0.05
1056	0.049
1056	0.048
1057	0.047
1057	0.047
1058	0.046
1058	0.045
1058	0.044
1059	0.043
1059	0.042
1060	0.042
1060	0.041
1061	0.041
1061	0.04
1061	0.04
1062	0.04
1062	0.04
1063	0.039
1063	0.039
1063	0.039
1064	0.038
1064	0.038
1065	0.037
1065	0.037
1066	0.037
1066	0.037
1066	0.036
1067	0.036
1067	0.036
1068	0.036
1068	0.036
1068	0.036
1069	0.036
1069	0.036
1070	0.035
1070	0.035
1071	0.034
1071	0.034
1071	0.034
1072	0.033
1072	0.033
1073	0.032
1073	0.031
1073	0.031
1074	0.032
1074	0.032
1075	0.032
1075	0.033
1076	0.033
1076	0.034
1076	0.034
1077	0.035
1077	0.035
1078	0.036
1078	0.036
1078	0.036
1079	0.036
1079	0.036
1080	0.036
1080	0.036
1080	0.036
1081	0.037
1081	0.037
1082	0.037
1082	0.038
1083	0.038
1083	0.038
1083	0.038
1084	0.038
1084	0.039
1085	0.038
1085	0.038
1085	0.037
1086	0.037
1086	0.036
1087	0.035
1087	0.035
1088	0.035
1088	0.034
1088	0.034
1089	0.034
1089	0.034
1090	0.033
1090	0.033
1090	0.032
1091	0.031
1091	0.032
1092	0.032
1092	0.031
1092	0.031
1093	0.031
1093	0.031
1094	0.03
1094	0.03
1095	0.03
1095	0.03
1095	0.03
1096	0.03
1096	0.029
1097	0.029
1097	0.028
1097	0.029
1098	0.028
1098	0.027
1099	0.027
1099	0.026
1100	0.026
1100	0.025
1100	0.024
1101	0.023
1101	0.023
1102	0.023
1102	0.022
1102	0.021
1103	0.021
1103	0.021
1104	0.02
1104	0.02
1104	0.02
1105	0.019
1105	0.018
1106	0.018
1106	0.017
1107	0.016
1107	0.016
1107	0.014
1108	0.014
1108	0.013
1109	0.012
1109	0.011
1109	0.012
1110	0.013
1110	0.011
1111	0.011
1111	0.011
