Data from reversibility-20sec_Absorbance__3643__000000000003643.txt Node

Date: Wed Dec 06 08:27:26 CET 2023
User: Marek
Spectrometer: MAYP115816
Trigger mode: 0
Integration Time (sec): 2.000000E-1
Scans to average: 10
Electric dark correction enabled: true
Nonlinearity correction enabled: true
Boxcar width: 5
XAxis mode: Wavelengths
Number of Pixels in Spectrum: 2068
>>>>>Begin Spectral Data<<<<<
199	-0.167
199	-0.134
200	-0.069
200	-0.012
201	0.015
201	0.032
202	0.044
202	0.051
203	0.056
203	0.058
204	0.078
204	0.094
205	0.106
205	0.113
205	0.11
206	0.11
206	0.112
207	0.115
207	0.115
208	0.116
208	0.116
209	0.115
209	0.111
210	0.11
210	0.109
211	0.11
211	0.115
212	0.111
212	0.111
213	0.114
213	0.117
213	0.118
214	0.122
214	0.124
215	0.131
215	0.132
216	0.135
216	0.134
217	0.139
217	0.143
218	0.141
218	0.147
219	0.151
219	0.15
220	0.153
220	0.149
221	0.151
221	0.154
221	0.158
222	0.163
222	0.166
223	0.174
223	0.176
224	0.183
224	0.191
225	0.203
225	0.215
226	0.225
226	0.235
227	0.242
227	0.254
228	0.269
228	0.282
229	0.299
229	0.323
229	0.348
230	0.369
230	0.397
231	0.428
231	0.467
232	0.507
232	0.548
233	0.59
233	0.642
234	0.692
234	0.744
235	0.797
235	0.851
236	0.905
236	0.957
236	1.008
237	1.061
237	1.111
238	1.16
238	1.205
239	1.251
239	1.292
240	1.329
240	1.367
241	1.401
241	1.434
242	1.465
242	1.498
243	1.528
243	1.554
243	1.575
244	1.597
244	1.617
245	1.637
245	1.656
246	1.674
246	1.692
247	1.704
247	1.716
248	1.729
248	1.743
249	1.756
249	1.762
250	1.771
250	1.777
250	1.784
251	1.789
251	1.793
252	1.799
252	1.801
253	1.805
253	1.802
254	1.803
254	1.804
255	1.804
255	1.806
256	1.805
256	1.803
257	1.803
257	1.8
258	1.799
258	1.797
258	1.797
259	1.795
259	1.796
260	1.794
260	1.793
261	1.793
261	1.795
262	1.797
262	1.798
263	1.8
263	1.8
264	1.799
264	1.8
265	1.799
265	1.798
265	1.799
266	1.797
266	1.797
267	1.794
267	1.794
268	1.793
268	1.793
269	1.794
269	1.792
270	1.792
270	1.791
271	1.789
271	1.789
272	1.787
272	1.785
272	1.784
273	1.781
273	1.777
274	1.773
274	1.769
275	1.762
275	1.757
276	1.75
276	1.742
277	1.734
277	1.725
278	1.714
278	1.701
278	1.687
279	1.673
279	1.655
280	1.636
280	1.612
281	1.584
281	1.553
282	1.52
282	1.484
283	1.449
283	1.414
284	1.38
284	1.346
285	1.314
285	1.283
285	1.256
286	1.23
286	1.209
287	1.189
287	1.172
288	1.157
288	1.144
289	1.133
289	1.123
290	1.114
290	1.107
291	1.1
291	1.094
292	1.088
292	1.083
292	1.079
293	1.074
293	1.07
294	1.066
294	1.062
295	1.059
295	1.056
296	1.052
296	1.048
297	1.045
297	1.042
298	1.039
298	1.036
298	1.033
299	1.03
299	1.026
300	1.023
300	1.02
301	1.017
301	1.014
302	1.011
302	1.008
303	1.006
303	1.003
304	1
304	0.998
305	0.995
305	0.992
305	0.99
306	0.987
306	0.984
307	0.982
307	0.979
308	0.976
308	0.973
309	0.97
309	0.967
310	0.964
310	0.961
311	0.957
311	0.954
311	0.951
312	0.947
312	0.943
313	0.939
313	0.935
314	0.932
314	0.928
315	0.924
315	0.919
316	0.915
316	0.911
317	0.906
317	0.901
318	0.896
318	0.891
318	0.886
319	0.881
319	0.875
320	0.87
320	0.864
321	0.858
321	0.852
322	0.846
322	0.84
323	0.833
323	0.827
324	0.821
324	0.814
324	0.807
325	0.801
325	0.795
326	0.788
326	0.781
327	0.775
327	0.768
328	0.761
328	0.755
329	0.748
329	0.741
330	0.734
330	0.727
330	0.72
331	0.713
331	0.707
332	0.7
332	0.693
333	0.686
333	0.679
334	0.673
334	0.666
335	0.659
335	0.653
336	0.646
336	0.64
336	0.634
337	0.628
337	0.622
338	0.616
338	0.61
339	0.604
339	0.598
340	0.592
340	0.587
341	0.581
341	0.576
342	0.57
342	0.565
342	0.56
343	0.555
343	0.55
344	0.545
344	0.54
345	0.535
345	0.531
346	0.526
346	0.522
347	0.518
347	0.513
348	0.509
348	0.505
348	0.502
349	0.498
349	0.494
350	0.49
350	0.487
351	0.484
351	0.48
352	0.477
352	0.474
353	0.471
353	0.468
354	0.465
354	0.462
354	0.459
355	0.456
355	0.453
356	0.45
356	0.447
357	0.443
357	0.44
358	0.437
358	0.435
359	0.433
359	0.43
360	0.428
360	0.426
360	0.424
361	0.422
361	0.421
362	0.42
362	0.418
363	0.416
363	0.414
364	0.412
364	0.41
365	0.408
365	0.406
366	0.404
366	0.402
366	0.401
367	0.399
367	0.397
368	0.395
368	0.393
369	0.392
369	0.39
370	0.388
370	0.387
371	0.385
371	0.384
372	0.382
372	0.381
372	0.38
373	0.378
373	0.377
374	0.376
374	0.375
375	0.374
375	0.372
376	0.371
376	0.37
377	0.369
377	0.368
378	0.367
378	0.365
378	0.364
379	0.363
379	0.362
380	0.362
380	0.36
381	0.36
381	0.359
382	0.358
382	0.357
383	0.356
383	0.356
383	0.355
384	0.354
384	0.353
385	0.353
385	0.352
386	0.351
386	0.351
387	0.35
387	0.349
388	0.349
388	0.348
389	0.348
389	0.347
389	0.347
390	0.346
390	0.345
391	0.345
391	0.344
392	0.343
392	0.343
393	0.342
393	0.342
394	0.341
394	0.341
394	0.34
395	0.34
395	0.339
396	0.339
396	0.338
397	0.338
397	0.337
398	0.337
398	0.336
399	0.336
399	0.335
400	0.334
400	0.334
400	0.333
401	0.333
401	0.332
402	0.332
402	0.332
403	0.331
403	0.331
404	0.33
404	0.33
405	0.33
405	0.329
405	0.329
406	0.328
406	0.328
407	0.328
407	0.327
408	0.327
408	0.326
409	0.326
409	0.325
410	0.325
410	0.325
411	0.324
411	0.324
411	0.324
412	0.323
412	0.323
413	0.322
413	0.322
414	0.322
414	0.321
415	0.321
415	0.321
416	0.32
416	0.32
416	0.32
417	0.319
417	0.319
418	0.318
418	0.318
419	0.318
419	0.317
420	0.317
420	0.316
421	0.316
421	0.316
421	0.315
422	0.315
422	0.315
423	0.314
423	0.314
424	0.314
424	0.313
425	0.313
425	0.313
426	0.313
426	0.312
427	0.312
427	0.311
427	0.311
428	0.311
428	0.31
429	0.31
429	0.309
430	0.309
430	0.309
431	0.309
431	0.309
432	0.309
432	0.309
432	0.308
433	0.308
433	0.308
434	0.308
434	0.308
435	0.308
435	0.308
436	0.307
436	0.307
437	0.307
437	0.307
437	0.307
438	0.307
438	0.307
439	0.306
439	0.306
440	0.306
440	0.306
441	0.305
441	0.305
442	0.305
442	0.305
442	0.304
443	0.304
443	0.304
444	0.304
444	0.304
445	0.304
445	0.304
446	0.304
446	0.303
447	0.303
447	0.303
447	0.303
448	0.303
448	0.303
449	0.303
449	0.303
450	0.304
450	0.304
451	0.304
451	0.304
452	0.304
452	0.304
452	0.304
453	0.304
453	0.304
454	0.304
454	0.304
455	0.304
455	0.303
456	0.303
456	0.303
457	0.303
457	0.303
458	0.303
458	0.303
458	0.303
459	0.303
459	0.304
460	0.304
460	0.304
461	0.304
461	0.305
462	0.305
462	0.305
463	0.305
463	0.305
463	0.305
464	0.305
464	0.305
465	0.305
465	0.305
466	0.305
466	0.305
467	0.305
467	0.306
467	0.306
468	0.306
468	0.307
469	0.307
469	0.308
470	0.309
470	0.309
471	0.31
471	0.31
472	0.311
472	0.311
472	0.311
473	0.312
473	0.312
474	0.312
474	0.312
475	0.313
475	0.313
476	0.314
476	0.315
477	0.315
477	0.316
477	0.316
478	0.317
478	0.318
479	0.319
479	0.32
480	0.32
480	0.321
481	0.322
481	0.322
482	0.323
482	0.324
482	0.325
483	0.326
483	0.327
484	0.328
484	0.328
485	0.329
485	0.33
486	0.33
486	0.331
487	0.332
487	0.333
487	0.334
488	0.335
488	0.336
489	0.337
489	0.339
490	0.34
490	0.342
491	0.343
491	0.345
492	0.346
492	0.348
492	0.349
493	0.35
493	0.352
494	0.353
494	0.355
495	0.356
495	0.357
496	0.359
496	0.36
496	0.362
497	0.363
497	0.364
498	0.366
498	0.367
499	0.369
499	0.37
500	0.372
500	0.373
501	0.375
501	0.376
501	0.377
502	0.379
502	0.38
503	0.382
503	0.383
504	0.385
504	0.386
505	0.388
505	0.389
506	0.391
506	0.392
506	0.393
507	0.395
507	0.396
508	0.397
508	0.398
509	0.399
509	0.401
510	0.402
510	0.403
511	0.404
511	0.406
511	0.407
512	0.408
512	0.409
513	0.41
513	0.411
514	0.412
514	0.413
515	0.413
515	0.414
515	0.414
516	0.415
516	0.416
517	0.416
517	0.417
518	0.417
518	0.417
519	0.418
519	0.418
520	0.418
520	0.418
520	0.419
521	0.419
521	0.419
522	0.419
522	0.419
523	0.419
523	0.419
524	0.419
524	0.419
524	0.418
525	0.418
525	0.417
526	0.417
526	0.416
527	0.416
527	0.415
528	0.414
528	0.413
529	0.412
529	0.411
529	0.41
530	0.409
530	0.408
531	0.407
531	0.406
532	0.404
532	0.403
533	0.401
533	0.4
533	0.398
534	0.396
534	0.394
535	0.392
535	0.39
536	0.388
536	0.386
537	0.384
537	0.382
538	0.38
538	0.378
538	0.376
539	0.374
539	0.372
540	0.37
540	0.369
541	0.366
541	0.364
542	0.362
542	0.36
542	0.358
543	0.355
543	0.353
544	0.351
544	0.348
545	0.346
545	0.343
546	0.341
546	0.339
547	0.336
547	0.334
547	0.331
548	0.329
548	0.327
549	0.324
549	0.322
550	0.32
550	0.317
551	0.315
551	0.312
551	0.309
552	0.307
552	0.305
553	0.302
553	0.3
554	0.298
554	0.295
555	0.293
555	0.29
556	0.288
556	0.286
556	0.284
557	0.282
557	0.28
558	0.278
558	0.275
559	0.273
559	0.271
560	0.269
560	0.267
560	0.265
561	0.263
561	0.261
562	0.259
562	0.256
563	0.254
563	0.252
564	0.249
564	0.247
564	0.245
565	0.243
565	0.241
566	0.239
566	0.237
567	0.235
567	0.233
568	0.231
568	0.229
568	0.227
569	0.226
569	0.224
570	0.222
570	0.22
571	0.218
571	0.217
572	0.215
572	0.213
573	0.212
573	0.21
573	0.208
574	0.207
574	0.205
575	0.204
575	0.203
576	0.201
576	0.199
577	0.198
577	0.196
577	0.195
578	0.193
578	0.192
579	0.191
579	0.19
580	0.188
580	0.187
581	0.185
581	0.184
581	0.183
582	0.182
582	0.181
583	0.18
583	0.179
584	0.177
584	0.175
585	0.174
585	0.172
585	0.171
586	0.17
586	0.169
587	0.168
587	0.167
588	0.166
588	0.165
589	0.164
589	0.163
590	0.162
590	0.162
590	0.161
591	0.16
591	0.158
592	0.157
592	0.155
593	0.154
593	0.153
594	0.152
594	0.151
594	0.15
595	0.149
595	0.147
596	0.146
596	0.146
597	0.146
597	0.145
598	0.145
598	0.144
598	0.144
599	0.143
599	0.143
600	0.142
600	0.141
601	0.14
601	0.14
602	0.139
602	0.138
602	0.137
603	0.136
603	0.135
604	0.135
604	0.134
605	0.134
605	0.133
606	0.133
606	0.132
606	0.131
607	0.13
607	0.13
608	0.129
608	0.128
609	0.127
609	0.126
610	0.125
610	0.124
610	0.124
611	0.123
611	0.123
612	0.123
612	0.123
613	0.122
613	0.122
614	0.121
614	0.121
614	0.121
615	0.12
615	0.12
616	0.119
616	0.119
617	0.119
617	0.118
618	0.118
618	0.117
618	0.117
619	0.117
619	0.116
620	0.116
620	0.116
621	0.115
621	0.114
622	0.114
622	0.113
622	0.112
623	0.111
623	0.111
624	0.111
624	0.11
625	0.109
625	0.109
626	0.109
626	0.108
626	0.108
627	0.108
627	0.108
628	0.107
628	0.107
629	0.106
629	0.106
630	0.105
630	0.105
630	0.104
631	0.104
631	0.104
632	0.103
632	0.102
633	0.102
633	0.102
634	0.102
634	0.102
634	0.102
635	0.102
635	0.101
636	0.101
636	0.101
637	0.1
637	0.1
638	0.1
638	0.099
638	0.099
639	0.098
639	0.097
640	0.097
640	0.096
641	0.096
641	0.096
642	0.095
642	0.095
642	0.095
643	0.095
643	0.095
644	0.095
644	0.095
645	0.095
645	0.094
646	0.094
646	0.094
646	0.094
647	0.094
647	0.094
648	0.093
648	0.093
649	0.092
649	0.092
650	0.092
650	0.092
650	0.091
651	0.091
651	0.091
652	0.091
652	0.091
653	0.091
653	0.093
653	0.098
654	0.079
654	0.064
655	0.062
655	0.062
656	0.062
656	0.062
657	0.062
657	0.062
657	0.062
658	0.061
658	0.054
659	0.067
659	0.084
660	0.088
660	0.088
661	0.087
661	0.087
661	0.086
662	0.085
662	0.085
663	0.084
663	0.084
664	0.083
664	0.083
665	0.082
665	0.082
665	0.082
666	0.082
666	0.082
667	0.082
667	0.082
668	0.082
668	0.082
669	0.083
669	0.083
669	0.083
670	0.084
670	0.083
671	0.083
671	0.083
672	0.082
672	0.081
672	0.081
673	0.08
673	0.08
674	0.079
674	0.079
675	0.078
675	0.078
676	0.079
676	0.079
676	0.079
677	0.08
677	0.08
678	0.08
678	0.08
679	0.08
679	0.08
680	0.08
680	0.079
680	0.078
681	0.078
681	0.078
682	0.078
682	0.078
683	0.078
683	0.078
684	0.078
684	0.078
684	0.077
685	0.078
685	0.078
686	0.078
686	0.078
687	0.078
687	0.078
687	0.078
688	0.078
688	0.078
689	0.078
689	0.078
690	0.078
690	0.077
691	0.077
691	0.077
691	0.077
692	0.077
692	0.076
693	0.076
693	0.076
694	0.076
694	0.076
695	0.076
695	0.077
695	0.077
696	0.077
696	0.077
697	0.077
697	0.077
698	0.077
698	0.076
698	0.076
699	0.077
699	0.076
700	0.075
700	0.075
701	0.074
701	0.073
702	0.073
702	0.072
702	0.072
703	0.071
703	0.071
704	0.07
704	0.07
705	0.07
705	0.07
705	0.07
706	0.071
706	0.071
707	0.071
707	0.071
708	0.071
708	0.071
709	0.071
709	0.07
709	0.07
710	0.069
710	0.069
711	0.069
711	0.069
712	0.068
712	0.068
713	0.068
713	0.068
713	0.068
714	0.067
714	0.067
715	0.067
715	0.067
716	0.067
716	0.066
716	0.065
717	0.064
717	0.064
718	0.063
718	0.063
719	0.063
719	0.063
720	0.063
720	0.063
720	0.063
721	0.063
721	0.064
722	0.065
722	0.065
723	0.065
723	0.065
723	0.065
724	0.064
724	0.064
725	0.063
725	0.062
726	0.062
726	0.061
727	0.061
727	0.061
727	0.06
728	0.06
728	0.06
729	0.061
729	0.061
730	0.061
730	0.062
730	0.063
731	0.063
731	0.063
732	0.063
732	0.064
733	0.063
733	0.063
734	0.063
734	0.063
734	0.062
735	0.062
735	0.062
736	0.061
736	0.06
737	0.06
737	0.059
737	0.059
738	0.058
738	0.057
739	0.057
739	0.056
740	0.056
740	0.056
741	0.057
741	0.057
741	0.057
742	0.057
742	0.058
743	0.058
743	0.059
744	0.059
744	0.059
744	0.059
745	0.059
745	0.059
746	0.059
746	0.059
747	0.059
747	0.059
748	0.059
748	0.059
748	0.059
749	0.059
749	0.059
750	0.059
750	0.059
751	0.059
751	0.059
751	0.059
752	0.059
752	0.059
753	0.059
753	0.058
754	0.058
754	0.057
754	0.056
755	0.056
755	0.056
756	0.055
756	0.054
757	0.053
757	0.053
758	0.053
758	0.054
758	0.054
759	0.054
759	0.054
760	0.054
760	0.054
761	0.054
761	0.054
761	0.055
762	0.054
762	0.054
763	0.054
763	0.053
764	0.052
764	0.052
764	0.052
765	0.051
765	0.051
766	0.051
766	0.051
767	0.051
767	0.05
768	0.05
768	0.051
768	0.051
769	0.052
769	0.053
770	0.053
770	0.054
771	0.054
771	0.054
771	0.054
772	0.054
772	0.054
773	0.053
773	0.053
774	0.053
774	0.053
775	0.053
775	0.053
775	0.053
776	0.054
776	0.054
777	0.054
777	0.055
778	0.054
778	0.054
778	0.053
779	0.053
779	0.053
780	0.052
780	0.051
781	0.05
781	0.05
781	0.049
782	0.049
782	0.049
783	0.049
783	0.05
784	0.05
784	0.05
784	0.05
785	0.051
785	0.051
786	0.051
786	0.051
787	0.052
787	0.051
788	0.051
788	0.05
788	0.05
789	0.049
789	0.049
790	0.049
790	0.049
791	0.048
791	0.048
791	0.047
792	0.047
792	0.047
793	0.047
793	0.047
794	0.047
794	0.046
794	0.046
795	0.046
795	0.047
796	0.047
796	0.047
797	0.047
797	0.047
797	0.047
798	0.048
798	0.048
799	0.048
799	0.047
800	0.047
800	0.046
801	0.046
801	0.046
801	0.045
802	0.045
802	0.045
803	0.045
803	0.045
804	0.045
804	0.046
804	0.046
805	0.046
805	0.046
806	0.046
806	0.046
807	0.046
807	0.046
807	0.046
808	0.046
808	0.046
809	0.046
809	0.046
810	0.047
810	0.047
810	0.047
811	0.047
811	0.048
812	0.048
812	0.049
813	0.049
813	0.049
813	0.049
814	0.05
814	0.05
815	0.05
815	0.05
816	0.05
816	0.05
817	0.049
817	0.049
817	0.048
818	0.048
818	0.048
819	0.047
819	0.046
820	0.045
820	0.045
820	0.045
821	0.044
821	0.044
822	0.044
822	0.044
823	0.044
823	0.044
823	0.044
824	0.045
824	0.046
825	0.047
825	0.048
826	0.049
826	0.049
826	0.05
827	0.05
827	0.05
828	0.05
828	0.05
829	0.05
829	0.05
829	0.05
830	0.05
830	0.05
831	0.051
831	0.051
832	0.05
832	0.05
832	0.05
833	0.05
833	0.05
834	0.049
834	0.049
835	0.048
835	0.047
835	0.047
836	0.046
836	0.046
837	0.046
837	0.045
838	0.045
838	0.045
839	0.045
839	0.044
839	0.044
840	0.044
840	0.043
841	0.043
841	0.042
842	0.042
842	0.042
842	0.042
843	0.042
843	0.042
844	0.042
844	0.042
845	0.043
845	0.043
845	0.044
846	0.044
846	0.044
847	0.044
847	0.045
848	0.045
848	0.044
848	0.044
849	0.044
849	0.043
850	0.043
850	0.043
851	0.042
851	0.042
851	0.042
852	0.041
852	0.041
853	0.04
853	0.04
854	0.04
854	0.041
854	0.041
855	0.041
855	0.042
856	0.042
856	0.043
857	0.043
857	0.044
857	0.045
858	0.045
858	0.045
859	0.045
859	0.045
860	0.045
860	0.044
860	0.043
861	0.043
861	0.042
862	0.041
862	0.04
863	0.04
863	0.04
863	0.04
864	0.04
864	0.04
865	0.04
865	0.04
866	0.041
866	0.041
866	0.041
867	0.041
867	0.042
868	0.041
868	0.041
869	0.041
869	0.04
869	0.039
870	0.039
870	0.039
871	0.039
871	0.039
872	0.039
872	0.039
872	0.039
873	0.039
873	0.039
874	0.038
874	0.038
875	0.038
875	0.038
875	0.038
876	0.038
876	0.037
877	0.037
877	0.037
878	0.037
878	0.038
878	0.038
879	0.039
879	0.039
880	0.039
880	0.039
881	0.04
881	0.04
881	0.04
882	0.039
882	0.039
883	0.039
883	0.038
884	0.038
884	0.038
884	0.038
885	0.038
885	0.038
886	0.038
886	0.038
887	0.038
887	0.038
887	0.038
888	0.038
888	0.038
889	0.038
889	0.038
890	0.039
890	0.039
890	0.039
891	0.039
891	0.039
892	0.038
892	0.038
893	0.038
893	0.038
893	0.038
894	0.037
894	0.036
895	0.036
895	0.035
895	0.035
896	0.034
896	0.034
897	0.033
897	0.032
898	0.032
898	0.031
898	0.031
899	0.03
899	0.03
900	0.031
900	0.031
901	0.031
901	0.031
901	0.032
902	0.032
902	0.033
903	0.033
903	0.033
904	0.033
904	0.034
904	0.034
905	0.034
905	0.034
906	0.035
906	0.036
907	0.036
907	0.037
907	0.038
908	0.038
908	0.039
909	0.04
909	0.04
910	0.041
910	0.041
910	0.041
911	0.041
911	0.041
912	0.041
912	0.041
913	0.041
913	0.041
913	0.041
914	0.04
914	0.04
915	0.04
915	0.039
916	0.039
916	0.039
916	0.038
917	0.038
917	0.037
918	0.037
918	0.036
918	0.036
919	0.035
919	0.035
920	0.035
920	0.035
921	0.035
921	0.035
921	0.034
922	0.035
922	0.035
923	0.035
923	0.036
924	0.036
924	0.037
924	0.037
925	0.038
925	0.038
926	0.038
926	0.038
927	0.038
927	0.038
927	0.038
928	0.038
928	0.038
929	0.038
929	0.038
930	0.038
930	0.038
930	0.038
931	0.038
931	0.038
932	0.038
932	0.038
933	0.038
933	0.038
933	0.038
934	0.039
934	0.039
935	0.039
935	0.039
935	0.039
936	0.039
936	0.039
937	0.039
937	0.039
938	0.039
938	0.038
938	0.037
939	0.037
939	0.036
940	0.035
940	0.034
941	0.034
941	0.033
941	0.033
942	0.032
942	0.032
943	0.032
943	0.032
944	0.032
944	0.032
944	0.032
945	0.032
945	0.033
946	0.033
946	0.033
946	0.034
947	0.034
947	0.035
948	0.035
948	0.036
949	0.037
949	0.037
949	0.038
950	0.038
950	0.039
951	0.039
951	0.039
952	0.039
952	0.038
952	0.038
953	0.037
953	0.036
954	0.036
954	0.035
955	0.034
955	0.034
955	0.033
956	0.033
956	0.033
957	0.033
957	0.033
957	0.033
958	0.033
958	0.034
959	0.034
959	0.034
960	0.034
960	0.035
960	0.035
961	0.035
961	0.036
962	0.036
962	0.036
963	0.036
963	0.036
963	0.037
964	0.037
964	0.037
965	0.038
965	0.038
966	0.039
966	0.039
966	0.04
967	0.04
967	0.041
968	0.041
968	0.041
968	0.041
969	0.041
969	0.04
970	0.04
970	0.039
971	0.038
971	0.037
971	0.036
972	0.035
972	0.035
973	0.034
973	0.033
974	0.033
974	0.033
974	0.033
975	0.033
975	0.034
976	0.034
976	0.034
976	0.035
977	0.035
977	0.035
978	0.035
978	0.035
979	0.035
979	0.035
979	0.035
980	0.035
980	0.034
981	0.034
981	0.034
982	0.034
982	0.034
982	0.034
983	0.034
983	0.034
984	0.035
984	0.035
984	0.035
985	0.035
985	0.035
986	0.035
986	0.034
987	0.034
987	0.034
987	0.034
988	0.034
988	0.034
989	0.033
989	0.033
990	0.033
990	0.032
990	0.032
991	0.032
991	0.032
992	0.032
992	0.031
992	0.031
993	0.03
993	0.03
994	0.03
994	0.03
995	0.03
995	0.03
995	0.03
996	0.03
996	0.03
997	0.031
997	0.031
997	0.031
998	0.032
998	0.032
999	0.033
999	0.034
1000	0.034
1000	0.035
1000	0.035
1001	0.035
1001	0.035
1002	0.035
1002	0.034
1003	0.034
1003	0.033
1003	0.032
1004	0.032
1004	0.031
1005	0.03
1005	0.029
1005	0.028
1006	0.027
1006	0.027
1007	0.027
1007	0.026
1008	0.026
1008	0.026
1008	0.027
1009	0.027
1009	0.027
1010	0.027
1010	0.028
1010	0.028
1011	0.028
1011	0.028
1012	0.029
1012	0.028
1013	0.028
1013	0.028
1013	0.028
1014	0.028
1014	0.028
1015	0.028
1015	0.027
1016	0.027
1016	0.027
1016	0.026
1017	0.026
1017	0.025
1018	0.025
1018	0.025
1018	0.025
1019	0.024
1019	0.024
1020	0.024
1020	0.024
1021	0.025
1021	0.025
1021	0.025
1022	0.026
1022	0.026
1023	0.026
1023	0.026
1023	0.027
1024	0.027
1024	0.027
1025	0.027
1025	0.027
1026	0.027
1026	0.027
1026	0.026
1027	0.026
1027	0.026
1028	0.026
1028	0.026
1028	0.026
1029	0.026
1029	0.026
1030	0.026
1030	0.027
1031	0.027
1031	0.027
1031	0.027
1032	0.027
1032	0.028
1033	0.028
1033	0.028
1033	0.028
1034	0.028
1034	0.027
1035	0.027
1035	0.027
1036	0.027
1036	0.026
1036	0.026
1037	0.026
1037	0.025
1038	0.025
1038	0.025
1039	0.025
1039	0.025
1039	0.025
1040	0.025
1040	0.025
1041	0.026
1041	0.026
1041	0.026
1042	0.026
1042	0.027
1043	0.027
1043	0.027
1044	0.028
1044	0.028
1044	0.029
1045	0.029
1045	0.029
1046	0.03
1046	0.03
1046	0.031
1047	0.031
1047	0.032
1048	0.032
1048	0.032
1049	0.032
1049	0.033
1049	0.033
1050	0.033
1050	0.033
1051	0.033
1051	0.033
1051	0.033
1052	0.032
1052	0.032
1053	0.032
1053	0.031
1053	0.031
1054	0.031
1054	0.031
1055	0.03
1055	0.03
1056	0.029
1056	0.029
1056	0.028
1057	0.028
1057	0.027
1058	0.027
1058	0.026
1058	0.026
1059	0.025
1059	0.025
1060	0.024
1060	0.024
1061	0.024
1061	0.024
1061	0.024
1062	0.024
1062	0.024
1063	0.025
1063	0.025
1063	0.025
1064	0.025
1064	0.025
1065	0.025
1065	0.025
1066	0.025
1066	0.025
1066	0.025
1067	0.024
1067	0.025
1068	0.024
1068	0.025
1068	0.025
1069	0.025
1069	0.024
1070	0.024
1070	0.024
1071	0.024
1071	0.024
1071	0.024
1072	0.023
1072	0.023
1073	0.023
1073	0.022
1073	0.022
1074	0.022
1074	0.022
1075	0.022
1075	0.022
1076	0.022
1076	0.022
1076	0.023
1077	0.023
1077	0.023
1078	0.023
1078	0.023
1078	0.022
1079	0.022
1079	0.022
1080	0.021
1080	0.021
1080	0.021
1081	0.02
1081	0.02
1082	0.02
1082	0.021
1083	0.021
1083	0.021
1083	0.021
1084	0.021
1084	0.022
1085	0.022
1085	0.022
1085	0.022
1086	0.023
1086	0.022
1087	0.022
1087	0.022
1088	0.022
1088	0.022
1088	0.022
1089	0.021
1089	0.02
1090	0.019
1090	0.019
1090	0.018
1091	0.018
1091	0.018
1092	0.018
1092	0.018
1092	0.018
1093	0.018
1093	0.018
1094	0.019
1094	0.018
1095	0.018
1095	0.018
1095	0.017
1096	0.016
1096	0.015
1097	0.014
1097	0.014
1097	0.014
1098	0.013
1098	0.012
1099	0.012
1099	0.012
1100	0.012
1100	0.011
1100	0.011
1101	0.01
1101	0.01
1102	0.01
1102	0.009
1102	0.009
1103	0.009
1103	0.009
1104	0.008
1104	0.008
1104	0.008
1105	0.008
1105	0.006
1106	0.005
1106	0.004
1107	0.004
1107	0.003
1107	0.003
1108	0.002
1108	0.001
1109	-0
1109	-0.001
1109	-0.001
1110	0
1110	-0.002
1111	0.002
1111	-0.003
