Data from reversibility-20sec_Absorbance__520__000000000000520.txt Node

Date: Tue Dec 05 15:06:25 CET 2023
User: Marek
Spectrometer: MAYP115816
Trigger mode: 0
Integration Time (sec): 2.000000E-1
Scans to average: 10
Electric dark correction enabled: true
Nonlinearity correction enabled: true
Boxcar width: 5
XAxis mode: Wavelengths
Number of Pixels in Spectrum: 2068
>>>>>Begin Spectral Data<<<<<
199	-0.191
199	-0.153
200	-0.078
200	-0.03
201	-0.003
201	0.012
202	0.022
202	0.03
203	0.037
203	0.042
204	0.058
204	0.071
205	0.083
205	0.086
205	0.084
206	0.083
206	0.083
207	0.087
207	0.088
208	0.089
208	0.087
209	0.085
209	0.083
210	0.083
210	0.084
211	0.086
211	0.088
212	0.086
212	0.087
213	0.09
213	0.089
213	0.086
214	0.09
214	0.091
215	0.092
215	0.09
216	0.09
216	0.09
217	0.095
217	0.096
218	0.096
218	0.103
219	0.111
219	0.114
220	0.115
220	0.116
221	0.117
221	0.121
221	0.125
222	0.128
222	0.135
223	0.138
223	0.137
224	0.142
224	0.151
225	0.16
225	0.171
226	0.179
226	0.19
227	0.201
227	0.212
228	0.224
228	0.24
229	0.259
229	0.28
229	0.302
230	0.328
230	0.354
231	0.39
231	0.427
232	0.461
232	0.502
233	0.546
233	0.594
234	0.643
234	0.694
235	0.742
235	0.791
236	0.843
236	0.891
236	0.941
237	0.994
237	1.043
238	1.089
238	1.133
239	1.182
239	1.224
240	1.265
240	1.301
241	1.336
241	1.371
242	1.403
242	1.435
243	1.463
243	1.489
243	1.514
244	1.532
244	1.553
245	1.572
245	1.593
246	1.612
246	1.627
247	1.639
247	1.652
248	1.667
248	1.681
249	1.687
249	1.696
250	1.703
250	1.707
250	1.711
251	1.712
251	1.713
252	1.715
252	1.714
253	1.714
253	1.71
254	1.708
254	1.707
255	1.702
255	1.703
256	1.702
256	1.7
257	1.701
257	1.7
258	1.7
258	1.698
258	1.698
259	1.699
259	1.698
260	1.698
260	1.699
261	1.699
261	1.701
262	1.702
262	1.703
263	1.705
263	1.708
264	1.706
264	1.707
265	1.709
265	1.709
265	1.709
266	1.709
266	1.71
267	1.709
267	1.711
268	1.71
268	1.71
269	1.712
269	1.711
270	1.709
270	1.71
271	1.707
271	1.706
272	1.701
272	1.698
272	1.693
273	1.686
273	1.679
274	1.672
274	1.665
275	1.658
275	1.65
276	1.643
276	1.634
277	1.625
277	1.615
278	1.604
278	1.592
278	1.578
279	1.561
279	1.54
280	1.514
280	1.481
281	1.444
281	1.403
282	1.361
282	1.319
283	1.276
283	1.235
284	1.196
284	1.158
285	1.123
285	1.092
285	1.064
286	1.04
286	1.019
287	1
287	0.985
288	0.972
288	0.961
289	0.951
289	0.943
290	0.937
290	0.931
291	0.926
291	0.922
292	0.918
292	0.915
292	0.912
293	0.909
293	0.906
294	0.904
294	0.901
295	0.899
295	0.897
296	0.895
296	0.893
297	0.891
297	0.889
298	0.887
298	0.885
298	0.882
299	0.881
299	0.879
300	0.877
300	0.875
301	0.873
301	0.871
302	0.869
302	0.867
303	0.866
303	0.864
304	0.862
304	0.86
305	0.859
305	0.856
305	0.854
306	0.853
306	0.851
307	0.849
307	0.847
308	0.844
308	0.842
309	0.84
309	0.837
310	0.835
310	0.833
311	0.83
311	0.827
311	0.824
312	0.821
312	0.819
313	0.815
313	0.812
314	0.809
314	0.805
315	0.801
315	0.797
316	0.794
316	0.79
317	0.785
317	0.781
318	0.776
318	0.771
318	0.766
319	0.761
319	0.756
320	0.751
320	0.745
321	0.74
321	0.734
322	0.728
322	0.723
323	0.717
323	0.711
324	0.704
324	0.698
324	0.692
325	0.686
325	0.679
326	0.673
326	0.666
327	0.659
327	0.653
328	0.647
328	0.64
329	0.633
329	0.627
330	0.619
330	0.613
330	0.606
331	0.599
331	0.593
332	0.586
332	0.579
333	0.573
333	0.566
334	0.559
334	0.553
335	0.547
335	0.54
336	0.534
336	0.528
336	0.521
337	0.515
337	0.509
338	0.503
338	0.497
339	0.491
339	0.485
340	0.48
340	0.474
341	0.469
341	0.463
342	0.458
342	0.453
342	0.448
343	0.443
343	0.438
344	0.433
344	0.428
345	0.424
345	0.419
346	0.415
346	0.411
347	0.407
347	0.402
348	0.398
348	0.395
348	0.391
349	0.387
349	0.384
350	0.38
350	0.377
351	0.374
351	0.371
352	0.368
352	0.365
353	0.362
353	0.36
354	0.357
354	0.354
354	0.351
355	0.349
355	0.346
356	0.343
356	0.341
357	0.337
357	0.335
358	0.332
358	0.33
359	0.327
359	0.325
360	0.323
360	0.321
360	0.319
361	0.317
361	0.316
362	0.315
362	0.313
363	0.312
363	0.31
364	0.308
364	0.307
365	0.305
365	0.303
366	0.302
366	0.3
366	0.299
367	0.297
367	0.295
368	0.294
368	0.292
369	0.291
369	0.289
370	0.288
370	0.287
371	0.285
371	0.284
372	0.283
372	0.282
372	0.281
373	0.28
373	0.279
374	0.278
374	0.277
375	0.276
375	0.275
376	0.274
376	0.273
377	0.272
377	0.271
378	0.27
378	0.269
378	0.269
379	0.268
379	0.267
380	0.267
380	0.266
381	0.265
381	0.264
382	0.264
382	0.263
383	0.262
383	0.262
383	0.261
384	0.26
384	0.26
385	0.259
385	0.259
386	0.258
386	0.258
387	0.257
387	0.257
388	0.256
388	0.256
389	0.255
389	0.255
389	0.255
390	0.254
390	0.254
391	0.253
391	0.253
392	0.253
392	0.252
393	0.252
393	0.252
394	0.251
394	0.251
394	0.25
395	0.25
395	0.25
396	0.249
396	0.249
397	0.249
397	0.248
398	0.248
398	0.247
399	0.247
399	0.247
400	0.247
400	0.246
400	0.246
401	0.246
401	0.245
402	0.245
402	0.244
403	0.244
403	0.244
404	0.244
404	0.243
405	0.243
405	0.243
405	0.243
406	0.242
406	0.242
407	0.241
407	0.241
408	0.241
408	0.24
409	0.24
409	0.24
410	0.24
410	0.239
411	0.239
411	0.239
411	0.239
412	0.239
412	0.238
413	0.238
413	0.238
414	0.238
414	0.237
415	0.237
415	0.237
416	0.236
416	0.236
416	0.236
417	0.235
417	0.235
418	0.235
418	0.235
419	0.234
419	0.234
420	0.234
420	0.234
421	0.233
421	0.233
421	0.233
422	0.233
422	0.233
423	0.232
423	0.232
424	0.232
424	0.231
425	0.231
425	0.231
426	0.231
426	0.231
427	0.23
427	0.23
427	0.23
428	0.23
428	0.23
429	0.229
429	0.229
430	0.229
430	0.229
431	0.229
431	0.229
432	0.229
432	0.228
432	0.228
433	0.228
433	0.228
434	0.227
434	0.227
435	0.227
435	0.227
436	0.227
436	0.227
437	0.226
437	0.226
437	0.226
438	0.226
438	0.226
439	0.226
439	0.226
440	0.225
440	0.225
441	0.225
441	0.225
442	0.225
442	0.225
442	0.224
443	0.224
443	0.224
444	0.224
444	0.224
445	0.224
445	0.224
446	0.223
446	0.223
447	0.223
447	0.223
447	0.223
448	0.222
448	0.222
449	0.222
449	0.222
450	0.222
450	0.222
451	0.222
451	0.222
452	0.222
452	0.222
452	0.222
453	0.222
453	0.222
454	0.222
454	0.221
455	0.221
455	0.221
456	0.221
456	0.221
457	0.221
457	0.221
458	0.221
458	0.22
458	0.22
459	0.22
459	0.22
460	0.22
460	0.22
461	0.22
461	0.22
462	0.219
462	0.219
463	0.219
463	0.219
463	0.219
464	0.219
464	0.218
465	0.218
465	0.218
466	0.218
466	0.218
467	0.218
467	0.218
467	0.218
468	0.218
468	0.218
469	0.218
469	0.219
470	0.219
470	0.219
471	0.219
471	0.219
472	0.219
472	0.219
472	0.219
473	0.219
473	0.219
474	0.22
474	0.219
475	0.22
475	0.22
476	0.22
476	0.22
477	0.22
477	0.221
477	0.221
478	0.221
478	0.221
479	0.221
479	0.222
480	0.222
480	0.222
481	0.222
481	0.222
482	0.222
482	0.223
482	0.223
483	0.223
483	0.224
484	0.224
484	0.224
485	0.225
485	0.225
486	0.225
486	0.225
487	0.226
487	0.226
487	0.226
488	0.226
488	0.227
489	0.227
489	0.228
490	0.229
490	0.229
491	0.23
491	0.231
492	0.232
492	0.232
492	0.233
493	0.234
493	0.234
494	0.235
494	0.235
495	0.236
495	0.237
496	0.237
496	0.238
496	0.239
497	0.239
497	0.24
498	0.241
498	0.241
499	0.242
499	0.243
500	0.244
500	0.244
501	0.245
501	0.246
501	0.246
502	0.247
502	0.248
503	0.249
503	0.249
504	0.25
504	0.25
505	0.251
505	0.252
506	0.252
506	0.253
506	0.253
507	0.254
507	0.255
508	0.255
508	0.255
509	0.256
509	0.257
510	0.257
510	0.258
511	0.259
511	0.26
511	0.261
512	0.262
512	0.262
513	0.263
513	0.264
514	0.264
514	0.265
515	0.266
515	0.266
515	0.267
516	0.267
516	0.268
517	0.268
517	0.268
518	0.269
518	0.269
519	0.269
519	0.27
520	0.27
520	0.27
520	0.27
521	0.27
521	0.271
522	0.271
522	0.271
523	0.271
523	0.272
524	0.272
524	0.272
524	0.272
525	0.273
525	0.273
526	0.273
526	0.273
527	0.273
527	0.273
528	0.273
528	0.273
529	0.273
529	0.272
529	0.272
530	0.272
530	0.272
531	0.272
531	0.272
532	0.271
532	0.271
533	0.271
533	0.271
533	0.27
534	0.27
534	0.27
535	0.27
535	0.269
536	0.269
536	0.268
537	0.268
537	0.268
538	0.267
538	0.266
538	0.266
539	0.265
539	0.264
540	0.264
540	0.263
541	0.262
541	0.262
542	0.261
542	0.261
542	0.26
543	0.259
543	0.259
544	0.258
544	0.258
545	0.258
545	0.257
546	0.257
546	0.256
547	0.255
547	0.255
547	0.254
548	0.253
548	0.253
549	0.252
549	0.251
550	0.25
550	0.249
551	0.248
551	0.247
551	0.247
552	0.246
552	0.245
553	0.245
553	0.244
554	0.243
554	0.242
555	0.242
555	0.241
556	0.241
556	0.24
556	0.24
557	0.239
557	0.239
558	0.239
558	0.238
559	0.238
559	0.237
560	0.237
560	0.236
560	0.235
561	0.235
561	0.234
562	0.233
562	0.232
563	0.231
563	0.23
564	0.229
564	0.229
564	0.228
565	0.228
565	0.227
566	0.226
566	0.226
567	0.225
567	0.225
568	0.224
568	0.224
568	0.223
569	0.223
569	0.222
570	0.222
570	0.221
571	0.22
571	0.22
572	0.219
572	0.218
573	0.218
573	0.217
573	0.217
574	0.216
574	0.216
575	0.216
575	0.216
576	0.215
576	0.215
577	0.214
577	0.214
577	0.213
578	0.213
578	0.213
579	0.212
579	0.212
580	0.211
580	0.21
581	0.209
581	0.209
581	0.209
582	0.209
582	0.208
583	0.208
583	0.208
584	0.207
584	0.205
585	0.205
585	0.205
585	0.204
586	0.203
586	0.203
587	0.202
587	0.201
588	0.2
588	0.2
589	0.199
589	0.199
590	0.199
590	0.199
590	0.199
591	0.199
591	0.199
592	0.198
592	0.198
593	0.197
593	0.197
594	0.197
594	0.196
594	0.195
595	0.195
595	0.194
596	0.194
596	0.194
597	0.194
597	0.194
598	0.194
598	0.194
598	0.194
599	0.193
599	0.193
600	0.192
600	0.192
601	0.191
601	0.191
602	0.19
602	0.189
602	0.189
603	0.188
603	0.188
604	0.188
604	0.188
605	0.188
605	0.188
606	0.188
606	0.187
606	0.187
607	0.187
607	0.187
608	0.186
608	0.185
609	0.185
609	0.185
610	0.184
610	0.184
610	0.184
611	0.184
611	0.183
612	0.183
612	0.184
613	0.183
613	0.183
614	0.183
614	0.182
614	0.182
615	0.182
615	0.181
616	0.181
616	0.18
617	0.18
617	0.179
618	0.179
618	0.179
618	0.179
619	0.179
619	0.179
620	0.179
620	0.179
621	0.178
621	0.178
622	0.178
622	0.178
622	0.177
623	0.177
623	0.177
624	0.177
624	0.176
625	0.176
625	0.176
626	0.175
626	0.175
626	0.175
627	0.175
627	0.174
628	0.174
628	0.173
629	0.173
629	0.173
630	0.172
630	0.172
630	0.172
631	0.172
631	0.172
632	0.172
632	0.172
633	0.172
633	0.173
634	0.173
634	0.174
634	0.174
635	0.174
635	0.174
636	0.174
636	0.174
637	0.174
637	0.173
638	0.173
638	0.172
638	0.171
639	0.171
639	0.17
640	0.17
640	0.169
641	0.169
641	0.169
642	0.168
642	0.168
642	0.168
643	0.168
643	0.168
644	0.168
644	0.168
645	0.168
645	0.168
646	0.168
646	0.168
646	0.169
647	0.169
647	0.169
648	0.169
648	0.169
649	0.168
649	0.168
650	0.168
650	0.168
650	0.168
651	0.168
651	0.168
652	0.168
652	0.167
653	0.168
653	0.17
653	0.175
654	0.139
654	0.111
655	0.112
655	0.112
656	0.113
656	0.113
657	0.113
657	0.114
657	0.114
658	0.113
658	0.103
659	0.13
659	0.166
660	0.17
660	0.17
661	0.17
661	0.17
661	0.17
662	0.17
662	0.169
663	0.169
663	0.169
664	0.168
664	0.168
665	0.168
665	0.168
665	0.168
666	0.168
666	0.168
667	0.168
667	0.168
668	0.168
668	0.168
669	0.168
669	0.168
669	0.168
670	0.168
670	0.168
671	0.167
671	0.167
672	0.167
672	0.166
672	0.166
673	0.166
673	0.166
674	0.166
674	0.166
675	0.166
675	0.167
676	0.167
676	0.167
676	0.168
677	0.168
677	0.168
678	0.168
678	0.168
679	0.168
679	0.168
680	0.169
680	0.169
680	0.169
681	0.169
681	0.17
682	0.17
682	0.17
683	0.171
683	0.171
684	0.172
684	0.172
684	0.171
685	0.172
685	0.172
686	0.172
686	0.172
687	0.171
687	0.171
687	0.172
688	0.171
688	0.171
689	0.172
689	0.172
690	0.172
690	0.172
691	0.172
691	0.172
691	0.173
692	0.173
692	0.173
693	0.174
693	0.174
694	0.174
694	0.174
695	0.174
695	0.176
695	0.176
696	0.176
696	0.176
697	0.176
697	0.175
698	0.175
698	0.175
698	0.175
699	0.176
699	0.176
700	0.175
700	0.175
701	0.176
701	0.176
702	0.175
702	0.175
702	0.175
703	0.175
703	0.175
704	0.174
704	0.174
705	0.174
705	0.174
705	0.174
706	0.174
706	0.174
707	0.174
707	0.175
708	0.175
708	0.176
709	0.176
709	0.176
709	0.176
710	0.176
710	0.176
711	0.177
711	0.177
712	0.177
712	0.177
713	0.177
713	0.177
713	0.177
714	0.177
714	0.177
715	0.177
715	0.177
716	0.177
716	0.177
716	0.177
717	0.177
717	0.177
718	0.176
718	0.176
719	0.176
719	0.177
720	0.177
720	0.178
720	0.178
721	0.179
721	0.179
722	0.18
722	0.18
723	0.18
723	0.18
723	0.18
724	0.18
724	0.179
725	0.178
725	0.178
726	0.177
726	0.176
727	0.176
727	0.176
727	0.176
728	0.176
728	0.176
729	0.177
729	0.177
730	0.178
730	0.178
730	0.179
731	0.18
731	0.18
732	0.181
732	0.181
733	0.18
733	0.18
734	0.18
734	0.18
734	0.18
735	0.18
735	0.18
736	0.179
736	0.179
737	0.179
737	0.179
737	0.179
738	0.178
738	0.178
739	0.178
739	0.178
740	0.177
740	0.177
741	0.178
741	0.178
741	0.178
742	0.178
742	0.178
743	0.179
743	0.18
744	0.181
744	0.181
744	0.181
745	0.182
745	0.182
746	0.182
746	0.182
747	0.182
747	0.182
748	0.182
748	0.182
748	0.182
749	0.182
749	0.181
750	0.181
750	0.181
751	0.18
751	0.18
751	0.18
752	0.179
752	0.179
753	0.179
753	0.179
754	0.18
754	0.18
754	0.181
755	0.181
755	0.182
756	0.181
756	0.181
757	0.18
757	0.18
758	0.18
758	0.179
758	0.179
759	0.179
759	0.179
760	0.179
760	0.179
761	0.18
761	0.181
761	0.182
762	0.183
762	0.184
763	0.184
763	0.184
764	0.184
764	0.184
764	0.184
765	0.183
765	0.183
766	0.182
766	0.182
767	0.181
767	0.18
768	0.179
768	0.179
768	0.179
769	0.179
769	0.179
770	0.179
770	0.179
771	0.179
771	0.179
771	0.18
772	0.18
772	0.181
773	0.181
773	0.181
774	0.181
774	0.181
775	0.182
775	0.182
775	0.182
776	0.182
776	0.182
777	0.183
777	0.183
778	0.183
778	0.183
778	0.183
779	0.183
779	0.183
780	0.182
780	0.182
781	0.182
781	0.182
781	0.182
782	0.182
782	0.183
783	0.183
783	0.184
784	0.184
784	0.184
784	0.184
785	0.185
785	0.185
786	0.185
786	0.185
787	0.185
787	0.185
788	0.185
788	0.185
788	0.184
789	0.184
789	0.184
790	0.184
790	0.184
791	0.183
791	0.183
791	0.182
792	0.183
792	0.182
793	0.182
793	0.182
794	0.181
794	0.181
794	0.18
795	0.18
795	0.181
796	0.181
796	0.181
797	0.181
797	0.181
797	0.181
798	0.181
798	0.182
799	0.182
799	0.182
800	0.182
800	0.182
801	0.182
801	0.182
801	0.182
802	0.182
802	0.182
803	0.182
803	0.182
804	0.183
804	0.183
804	0.184
805	0.184
805	0.185
806	0.185
806	0.185
807	0.185
807	0.186
807	0.186
808	0.186
808	0.187
809	0.187
809	0.187
810	0.187
810	0.187
810	0.187
811	0.188
811	0.188
812	0.189
812	0.189
813	0.189
813	0.189
813	0.19
814	0.19
814	0.19
815	0.191
815	0.191
816	0.191
816	0.19
817	0.19
817	0.19
817	0.189
818	0.189
818	0.189
819	0.188
819	0.188
820	0.187
820	0.187
820	0.186
821	0.186
821	0.186
822	0.185
822	0.185
823	0.185
823	0.185
823	0.186
824	0.187
824	0.187
825	0.188
825	0.188
826	0.189
826	0.188
826	0.189
827	0.189
827	0.189
828	0.188
828	0.188
829	0.187
829	0.187
829	0.186
830	0.186
830	0.186
831	0.187
831	0.187
832	0.187
832	0.187
832	0.187
833	0.187
833	0.187
834	0.187
834	0.187
835	0.187
835	0.187
835	0.187
836	0.187
836	0.187
837	0.187
837	0.187
838	0.187
838	0.186
839	0.185
839	0.184
839	0.183
840	0.182
840	0.181
841	0.179
841	0.178
842	0.177
842	0.177
842	0.176
843	0.176
843	0.175
844	0.175
844	0.175
845	0.175
845	0.175
845	0.175
846	0.175
846	0.176
847	0.176
847	0.176
848	0.177
848	0.177
848	0.178
849	0.178
849	0.179
850	0.179
850	0.179
851	0.18
851	0.18
851	0.18
852	0.179
852	0.178
853	0.178
853	0.177
854	0.177
854	0.177
854	0.177
855	0.177
855	0.177
856	0.177
856	0.177
857	0.177
857	0.177
857	0.177
858	0.177
858	0.176
859	0.175
859	0.174
860	0.173
860	0.172
860	0.171
861	0.17
861	0.169
862	0.168
862	0.167
863	0.166
863	0.165
863	0.165
864	0.165
864	0.164
865	0.164
865	0.164
866	0.164
866	0.164
866	0.165
867	0.165
867	0.165
868	0.166
868	0.166
869	0.166
869	0.166
869	0.166
870	0.166
870	0.166
871	0.166
871	0.166
872	0.166
872	0.166
872	0.166
873	0.166
873	0.165
874	0.164
874	0.164
875	0.163
875	0.162
875	0.162
876	0.162
876	0.161
877	0.161
877	0.161
878	0.162
878	0.162
878	0.163
879	0.164
879	0.164
880	0.165
880	0.165
881	0.165
881	0.164
881	0.164
882	0.163
882	0.162
883	0.161
883	0.159
884	0.158
884	0.157
884	0.156
885	0.154
885	0.153
886	0.152
886	0.151
887	0.15
887	0.149
887	0.149
888	0.148
888	0.148
889	0.147
889	0.147
890	0.147
890	0.147
890	0.148
891	0.148
891	0.149
892	0.149
892	0.15
893	0.151
893	0.151
893	0.151
894	0.152
894	0.152
895	0.152
895	0.151
895	0.151
896	0.15
896	0.149
897	0.148
897	0.147
898	0.146
898	0.145
898	0.145
899	0.144
899	0.143
900	0.143
900	0.142
901	0.142
901	0.142
901	0.142
902	0.142
902	0.141
903	0.141
903	0.141
904	0.14
904	0.139
904	0.139
905	0.138
905	0.137
906	0.137
906	0.137
907	0.136
907	0.136
907	0.136
908	0.136
908	0.136
909	0.136
909	0.136
910	0.136
910	0.136
910	0.136
911	0.136
911	0.135
912	0.135
912	0.135
913	0.134
913	0.134
913	0.134
914	0.134
914	0.133
915	0.133
915	0.132
916	0.132
916	0.131
916	0.131
917	0.13
917	0.129
918	0.129
918	0.128
918	0.127
919	0.127
919	0.127
920	0.127
920	0.127
921	0.127
921	0.128
921	0.128
922	0.128
922	0.128
923	0.128
923	0.128
924	0.129
924	0.129
924	0.129
925	0.129
925	0.129
926	0.129
926	0.129
927	0.129
927	0.129
927	0.129
928	0.128
928	0.128
929	0.128
929	0.127
930	0.127
930	0.126
930	0.125
931	0.125
931	0.124
932	0.124
932	0.123
933	0.122
933	0.122
933	0.121
934	0.12
934	0.12
935	0.119
935	0.119
935	0.118
936	0.117
936	0.117
937	0.116
937	0.116
938	0.115
938	0.115
938	0.114
939	0.114
939	0.114
940	0.113
940	0.114
941	0.114
941	0.114
941	0.114
942	0.114
942	0.114
943	0.115
943	0.115
944	0.115
944	0.115
944	0.115
945	0.115
945	0.115
946	0.115
946	0.115
946	0.115
947	0.115
947	0.114
948	0.114
948	0.113
949	0.113
949	0.112
949	0.112
950	0.111
950	0.111
951	0.11
951	0.109
952	0.109
952	0.108
952	0.107
953	0.106
953	0.105
954	0.104
954	0.103
955	0.102
955	0.101
955	0.1
956	0.1
956	0.1
957	0.099
957	0.099
957	0.099
958	0.099
958	0.099
959	0.099
959	0.099
960	0.099
960	0.099
960	0.099
961	0.099
961	0.098
962	0.098
962	0.098
963	0.097
963	0.097
963	0.097
964	0.096
964	0.096
965	0.096
965	0.096
966	0.096
966	0.096
966	0.096
967	0.096
967	0.097
968	0.097
968	0.098
968	0.098
969	0.098
969	0.098
970	0.098
970	0.098
971	0.097
971	0.097
971	0.096
972	0.096
972	0.095
973	0.095
973	0.095
974	0.094
974	0.094
974	0.095
975	0.095
975	0.095
976	0.095
976	0.096
976	0.096
977	0.096
977	0.095
978	0.095
978	0.095
979	0.094
979	0.093
979	0.092
980	0.091
980	0.09
981	0.089
981	0.088
982	0.087
982	0.087
982	0.086
983	0.085
983	0.084
984	0.083
984	0.082
984	0.082
985	0.081
985	0.081
986	0.08
986	0.08
987	0.079
987	0.079
987	0.079
988	0.078
988	0.078
989	0.078
989	0.077
990	0.077
990	0.077
990	0.076
991	0.076
991	0.076
992	0.076
992	0.075
992	0.075
993	0.075
993	0.074
994	0.074
994	0.074
995	0.073
995	0.073
995	0.074
996	0.074
996	0.074
997	0.075
997	0.075
997	0.076
998	0.077
998	0.078
999	0.079
999	0.08
1000	0.081
1000	0.081
1000	0.082
1001	0.082
1001	0.082
1002	0.082
1002	0.082
1003	0.083
1003	0.083
1003	0.082
1004	0.082
1004	0.082
1005	0.082
1005	0.081
1005	0.081
1006	0.081
1006	0.08
1007	0.08
1007	0.079
1008	0.079
1008	0.079
1008	0.078
1009	0.078
1009	0.078
1010	0.078
1010	0.078
1010	0.078
1011	0.077
1011	0.077
1012	0.077
1012	0.077
1013	0.077
1013	0.077
1013	0.076
1014	0.076
1014	0.076
1015	0.075
1015	0.075
1016	0.075
1016	0.075
1016	0.074
1017	0.074
1017	0.073
1018	0.073
1018	0.073
1018	0.073
1019	0.072
1019	0.072
1020	0.072
1020	0.071
1021	0.071
1021	0.071
1021	0.071
1022	0.071
1022	0.07
1023	0.07
1023	0.07
1023	0.069
1024	0.069
1024	0.069
1025	0.068
1025	0.068
1026	0.067
1026	0.066
1026	0.066
1027	0.065
1027	0.065
1028	0.064
1028	0.064
1028	0.063
1029	0.063
1029	0.063
1030	0.063
1030	0.063
1031	0.063
1031	0.063
1031	0.062
1032	0.062
1032	0.062
1033	0.062
1033	0.062
1033	0.062
1034	0.062
1034	0.061
1035	0.061
1035	0.061
1036	0.06
1036	0.06
1036	0.06
1037	0.06
1037	0.06
1038	0.06
1038	0.06
1039	0.06
1039	0.06
1039	0.06
1040	0.06
1040	0.06
1041	0.06
1041	0.06
1041	0.06
1042	0.06
1042	0.06
1043	0.061
1043	0.061
1044	0.061
1044	0.061
1044	0.062
1045	0.062
1045	0.063
1046	0.063
1046	0.064
1046	0.065
1047	0.065
1047	0.066
1048	0.066
1048	0.067
1049	0.067
1049	0.067
1049	0.066
1050	0.066
1050	0.065
1051	0.065
1051	0.064
1051	0.064
1052	0.063
1052	0.062
1053	0.061
1053	0.061
1053	0.06
1054	0.059
1054	0.059
1055	0.059
1055	0.058
1056	0.057
1056	0.057
1056	0.056
1057	0.055
1057	0.054
1058	0.054
1058	0.053
1058	0.052
1059	0.051
1059	0.051
1060	0.05
1060	0.05
1061	0.049
1061	0.048
1061	0.048
1062	0.048
1062	0.047
1063	0.047
1063	0.047
1063	0.046
1064	0.045
1064	0.045
1065	0.045
1065	0.044
1066	0.044
1066	0.044
1066	0.044
1067	0.044
1067	0.043
1068	0.043
1068	0.043
1068	0.042
1069	0.042
1069	0.041
1070	0.041
1070	0.04
1071	0.039
1071	0.039
1071	0.038
1072	0.038
1072	0.037
1073	0.037
1073	0.036
1073	0.035
1074	0.036
1074	0.036
1075	0.036
1075	0.036
1076	0.037
1076	0.037
1076	0.038
1077	0.038
1077	0.039
1078	0.039
1078	0.04
1078	0.04
1079	0.04
1079	0.04
1080	0.04
1080	0.041
1080	0.041
1081	0.041
1081	0.041
1082	0.041
1082	0.041
1083	0.041
1083	0.041
1083	0.041
1084	0.04
1084	0.041
1085	0.04
1085	0.039
1085	0.039
1086	0.039
1086	0.038
1087	0.038
1087	0.037
1088	0.036
1088	0.036
1088	0.036
1089	0.036
1089	0.035
1090	0.034
1090	0.033
1090	0.032
1091	0.032
1091	0.032
1092	0.032
1092	0.032
1092	0.032
1093	0.031
1093	0.031
1094	0.031
1094	0.031
1095	0.031
1095	0.03
1095	0.03
1096	0.03
1096	0.029
1097	0.028
1097	0.028
1097	0.028
1098	0.027
1098	0.026
1099	0.026
1099	0.025
1100	0.024
1100	0.023
1100	0.022
1101	0.021
1101	0.02
1102	0.02
1102	0.019
1102	0.018
1103	0.018
1103	0.018
1104	0.018
1104	0.018
1104	0.017
1105	0.017
1105	0.015
1106	0.014
1106	0.013
1107	0.013
1107	0.013
1107	0.012
1108	0.011
1108	0.01
1109	0.009
1109	0.008
1109	0.008
1110	0.012
1110	0.012
1111	0.013
1111	0.013
