Data from reversibility-20sec_Absorbance__3910__000000000003910.txt Node

Date: Wed Dec 06 09:56:26 CET 2023
User: Marek
Spectrometer: MAYP115816
Trigger mode: 0
Integration Time (sec): 2.000000E-1
Scans to average: 10
Electric dark correction enabled: true
Nonlinearity correction enabled: true
Boxcar width: 5
XAxis mode: Wavelengths
Number of Pixels in Spectrum: 2068
>>>>>Begin Spectral Data<<<<<
199	-0.073
199	-0.035
200	0.018
200	0.069
201	0.098
201	0.11
202	0.121
202	0.133
203	0.138
203	0.141
204	0.157
204	0.17
205	0.176
205	0.185
205	0.182
206	0.182
206	0.183
207	0.185
207	0.183
208	0.183
208	0.181
209	0.183
209	0.18
210	0.182
210	0.182
211	0.18
211	0.184
212	0.184
212	0.184
213	0.186
213	0.187
213	0.187
214	0.189
214	0.189
215	0.193
215	0.194
216	0.197
216	0.193
217	0.196
217	0.198
218	0.199
218	0.204
219	0.209
219	0.207
220	0.211
220	0.211
221	0.214
221	0.217
221	0.222
222	0.228
222	0.235
223	0.236
223	0.234
224	0.24
224	0.25
225	0.257
225	0.268
226	0.275
226	0.284
227	0.296
227	0.308
228	0.322
228	0.339
229	0.359
229	0.383
229	0.409
230	0.433
230	0.458
231	0.487
231	0.526
232	0.561
232	0.601
233	0.645
233	0.694
234	0.746
234	0.797
235	0.847
235	0.9
236	0.955
236	1.012
236	1.064
237	1.114
237	1.165
238	1.212
238	1.259
239	1.303
239	1.345
240	1.382
240	1.419
241	1.454
241	1.485
242	1.514
242	1.547
243	1.576
243	1.599
243	1.621
244	1.643
244	1.663
245	1.683
245	1.704
246	1.722
246	1.741
247	1.753
247	1.767
248	1.78
248	1.794
249	1.803
249	1.808
250	1.812
250	1.815
250	1.816
251	1.816
251	1.815
252	1.819
252	1.816
253	1.813
253	1.807
254	1.804
254	1.804
255	1.803
255	1.801
256	1.798
256	1.797
257	1.796
257	1.792
258	1.791
258	1.791
258	1.791
259	1.791
259	1.792
260	1.791
260	1.792
261	1.794
261	1.798
262	1.801
262	1.803
263	1.807
263	1.808
264	1.81
264	1.811
265	1.812
265	1.813
265	1.815
266	1.816
266	1.814
267	1.812
267	1.813
268	1.813
268	1.813
269	1.815
269	1.814
270	1.812
270	1.811
271	1.809
271	1.808
272	1.805
272	1.802
272	1.797
273	1.79
273	1.783
274	1.773
274	1.764
275	1.756
275	1.747
276	1.738
276	1.729
277	1.72
277	1.709
278	1.697
278	1.683
278	1.668
279	1.649
279	1.627
280	1.598
280	1.564
281	1.524
281	1.481
282	1.435
282	1.39
283	1.345
283	1.302
284	1.261
284	1.221
285	1.185
285	1.151
285	1.122
286	1.097
286	1.075
287	1.055
287	1.039
288	1.025
288	1.014
289	1.004
289	0.996
290	0.989
290	0.982
291	0.977
291	0.972
292	0.968
292	0.964
292	0.96
293	0.957
293	0.954
294	0.951
294	0.949
295	0.946
295	0.943
296	0.94
296	0.938
297	0.935
297	0.933
298	0.93
298	0.928
298	0.925
299	0.922
299	0.92
300	0.918
300	0.915
301	0.913
301	0.911
302	0.909
302	0.907
303	0.905
303	0.903
304	0.901
304	0.899
305	0.897
305	0.895
305	0.893
306	0.891
306	0.889
307	0.887
307	0.885
308	0.882
308	0.88
309	0.877
309	0.875
310	0.872
310	0.869
311	0.867
311	0.864
311	0.861
312	0.858
312	0.854
313	0.851
313	0.848
314	0.844
314	0.84
315	0.836
315	0.832
316	0.828
316	0.824
317	0.819
317	0.815
318	0.81
318	0.805
318	0.8
319	0.795
319	0.789
320	0.784
320	0.778
321	0.773
321	0.767
322	0.761
322	0.755
323	0.749
323	0.742
324	0.736
324	0.73
324	0.723
325	0.717
325	0.71
326	0.704
326	0.697
327	0.69
327	0.683
328	0.677
328	0.67
329	0.663
329	0.656
330	0.649
330	0.642
330	0.635
331	0.629
331	0.622
332	0.615
332	0.609
333	0.602
333	0.595
334	0.588
334	0.582
335	0.575
335	0.568
336	0.562
336	0.555
336	0.549
337	0.543
337	0.536
338	0.53
338	0.524
339	0.518
339	0.513
340	0.507
340	0.501
341	0.496
341	0.49
342	0.485
342	0.479
342	0.475
343	0.47
343	0.465
344	0.46
344	0.455
345	0.45
345	0.446
346	0.441
346	0.437
347	0.433
347	0.429
348	0.425
348	0.421
348	0.417
349	0.413
349	0.41
350	0.406
350	0.403
351	0.4
351	0.397
352	0.394
352	0.39
353	0.388
353	0.385
354	0.382
354	0.379
354	0.376
355	0.374
355	0.371
356	0.368
356	0.365
357	0.362
357	0.359
358	0.357
358	0.354
359	0.352
359	0.35
360	0.348
360	0.346
360	0.344
361	0.343
361	0.341
362	0.34
362	0.338
363	0.336
363	0.335
364	0.333
364	0.331
365	0.329
365	0.327
366	0.325
366	0.324
366	0.322
367	0.32
367	0.319
368	0.317
368	0.316
369	0.314
369	0.313
370	0.312
370	0.31
371	0.309
371	0.308
372	0.307
372	0.306
372	0.305
373	0.304
373	0.303
374	0.302
374	0.301
375	0.3
375	0.3
376	0.299
376	0.298
377	0.297
377	0.296
378	0.295
378	0.294
378	0.293
379	0.293
379	0.292
380	0.291
380	0.29
381	0.29
381	0.289
382	0.289
382	0.288
383	0.287
383	0.287
383	0.287
384	0.286
384	0.286
385	0.285
385	0.285
386	0.284
386	0.284
387	0.284
387	0.283
388	0.283
388	0.283
389	0.282
389	0.282
389	0.281
390	0.281
390	0.281
391	0.28
391	0.28
392	0.28
392	0.279
393	0.279
393	0.279
394	0.278
394	0.278
394	0.278
395	0.278
395	0.277
396	0.277
396	0.277
397	0.277
397	0.276
398	0.276
398	0.275
399	0.275
399	0.275
400	0.274
400	0.274
400	0.274
401	0.273
401	0.273
402	0.273
402	0.273
403	0.272
403	0.272
404	0.272
404	0.272
405	0.272
405	0.272
405	0.271
406	0.271
406	0.271
407	0.271
407	0.27
408	0.27
408	0.27
409	0.269
409	0.269
410	0.269
410	0.269
411	0.268
411	0.268
411	0.268
412	0.268
412	0.267
413	0.267
413	0.267
414	0.267
414	0.266
415	0.266
415	0.266
416	0.265
416	0.265
416	0.265
417	0.264
417	0.264
418	0.264
418	0.264
419	0.263
419	0.263
420	0.263
420	0.262
421	0.262
421	0.261
421	0.261
422	0.261
422	0.26
423	0.26
423	0.26
424	0.259
424	0.259
425	0.259
425	0.258
426	0.258
426	0.258
427	0.258
427	0.257
427	0.257
428	0.257
428	0.256
429	0.256
429	0.256
430	0.255
430	0.255
431	0.255
431	0.255
432	0.255
432	0.255
432	0.254
433	0.254
433	0.254
434	0.254
434	0.254
435	0.254
435	0.254
436	0.253
436	0.253
437	0.253
437	0.253
437	0.253
438	0.252
438	0.252
439	0.252
439	0.251
440	0.251
440	0.25
441	0.25
441	0.25
442	0.25
442	0.249
442	0.249
443	0.249
443	0.249
444	0.249
444	0.249
445	0.249
445	0.248
446	0.248
446	0.248
447	0.248
447	0.247
447	0.247
448	0.247
448	0.247
449	0.247
449	0.247
450	0.246
450	0.246
451	0.246
451	0.246
452	0.246
452	0.246
452	0.245
453	0.245
453	0.245
454	0.245
454	0.245
455	0.244
455	0.244
456	0.244
456	0.244
457	0.243
457	0.243
458	0.243
458	0.242
458	0.242
459	0.242
459	0.242
460	0.242
460	0.242
461	0.242
461	0.241
462	0.241
462	0.241
463	0.241
463	0.241
463	0.24
464	0.24
464	0.239
465	0.239
465	0.239
466	0.238
466	0.239
467	0.238
467	0.238
467	0.238
468	0.238
468	0.238
469	0.238
469	0.238
470	0.238
470	0.238
471	0.238
471	0.238
472	0.238
472	0.238
472	0.238
473	0.238
473	0.238
474	0.237
474	0.237
475	0.237
475	0.237
476	0.237
476	0.237
477	0.237
477	0.236
477	0.236
478	0.236
478	0.236
479	0.236
479	0.237
480	0.237
480	0.237
481	0.237
481	0.237
482	0.237
482	0.237
482	0.237
483	0.237
483	0.237
484	0.237
484	0.237
485	0.237
485	0.237
486	0.237
486	0.237
487	0.237
487	0.237
487	0.238
488	0.238
488	0.238
489	0.238
489	0.238
490	0.239
490	0.239
491	0.239
491	0.24
492	0.24
492	0.241
492	0.241
493	0.242
493	0.242
494	0.243
494	0.243
495	0.243
495	0.244
496	0.244
496	0.245
496	0.245
497	0.245
497	0.246
498	0.246
498	0.246
499	0.247
499	0.247
500	0.248
500	0.248
501	0.249
501	0.249
501	0.249
502	0.249
502	0.25
503	0.25
503	0.25
504	0.25
504	0.251
505	0.251
505	0.252
506	0.252
506	0.252
506	0.253
507	0.254
507	0.254
508	0.254
508	0.255
509	0.255
509	0.255
510	0.256
510	0.256
511	0.257
511	0.257
511	0.258
512	0.258
512	0.259
513	0.259
513	0.26
514	0.26
514	0.261
515	0.262
515	0.262
515	0.262
516	0.262
516	0.263
517	0.263
517	0.263
518	0.264
518	0.264
519	0.264
519	0.264
520	0.264
520	0.264
520	0.265
521	0.265
521	0.265
522	0.265
522	0.266
523	0.266
523	0.267
524	0.267
524	0.267
524	0.268
525	0.268
525	0.268
526	0.268
526	0.268
527	0.268
527	0.268
528	0.268
528	0.269
529	0.269
529	0.269
529	0.269
530	0.269
530	0.269
531	0.269
531	0.269
532	0.269
532	0.269
533	0.269
533	0.268
533	0.268
534	0.268
534	0.268
535	0.268
535	0.267
536	0.267
536	0.267
537	0.267
537	0.267
538	0.267
538	0.267
538	0.267
539	0.267
539	0.267
540	0.267
540	0.267
541	0.267
541	0.267
542	0.266
542	0.266
542	0.266
543	0.266
543	0.266
544	0.266
544	0.266
545	0.266
545	0.266
546	0.266
546	0.266
547	0.265
547	0.265
547	0.264
548	0.264
548	0.264
549	0.264
549	0.264
550	0.263
550	0.263
551	0.262
551	0.262
551	0.262
552	0.262
552	0.261
553	0.261
553	0.261
554	0.261
554	0.26
555	0.259
555	0.259
556	0.259
556	0.258
556	0.258
557	0.258
557	0.258
558	0.258
558	0.258
559	0.258
559	0.258
560	0.258
560	0.258
560	0.258
561	0.258
561	0.258
562	0.257
562	0.256
563	0.256
563	0.255
564	0.254
564	0.254
564	0.254
565	0.253
565	0.253
566	0.253
566	0.252
567	0.252
567	0.252
568	0.252
568	0.251
568	0.251
569	0.251
569	0.25
570	0.249
570	0.249
571	0.248
571	0.248
572	0.247
572	0.247
573	0.247
573	0.247
573	0.246
574	0.246
574	0.246
575	0.246
575	0.246
576	0.246
576	0.246
577	0.245
577	0.245
577	0.244
578	0.244
578	0.243
579	0.243
579	0.243
580	0.243
580	0.242
581	0.242
581	0.241
581	0.242
582	0.242
582	0.242
583	0.242
583	0.241
584	0.241
584	0.24
585	0.24
585	0.24
585	0.24
586	0.239
586	0.239
587	0.238
587	0.238
588	0.238
588	0.237
589	0.237
589	0.237
590	0.236
590	0.236
590	0.236
591	0.236
591	0.235
592	0.235
592	0.234
593	0.233
593	0.233
594	0.232
594	0.232
594	0.231
595	0.231
595	0.231
596	0.23
596	0.23
597	0.231
597	0.231
598	0.232
598	0.232
598	0.232
599	0.232
599	0.232
600	0.231
600	0.231
601	0.231
601	0.23
602	0.23
602	0.229
602	0.228
603	0.228
603	0.228
604	0.228
604	0.228
605	0.228
605	0.228
606	0.227
606	0.227
606	0.227
607	0.226
607	0.226
608	0.226
608	0.225
609	0.225
609	0.224
610	0.224
610	0.223
610	0.223
611	0.223
611	0.223
612	0.224
612	0.224
613	0.224
613	0.224
614	0.224
614	0.223
614	0.224
615	0.224
615	0.223
616	0.223
616	0.223
617	0.223
617	0.223
618	0.223
618	0.223
618	0.223
619	0.223
619	0.222
620	0.222
620	0.222
621	0.222
621	0.221
622	0.221
622	0.22
622	0.22
623	0.219
623	0.219
624	0.219
624	0.219
625	0.218
625	0.218
626	0.218
626	0.218
626	0.218
627	0.218
627	0.218
628	0.218
628	0.218
629	0.217
629	0.217
630	0.217
630	0.217
630	0.217
631	0.217
631	0.217
632	0.217
632	0.216
633	0.217
633	0.217
634	0.217
634	0.218
634	0.218
635	0.218
635	0.217
636	0.217
636	0.218
637	0.217
637	0.217
638	0.217
638	0.217
638	0.217
639	0.216
639	0.216
640	0.216
640	0.216
641	0.215
641	0.215
642	0.214
642	0.214
642	0.214
643	0.214
643	0.214
644	0.214
644	0.214
645	0.214
645	0.214
646	0.215
646	0.215
646	0.215
647	0.215
647	0.215
648	0.214
648	0.214
649	0.214
649	0.214
650	0.213
650	0.213
650	0.213
651	0.213
651	0.212
652	0.213
652	0.213
653	0.213
653	0.215
653	0.22
654	0.172
654	0.137
655	0.139
655	0.139
656	0.14
656	0.14
657	0.14
657	0.141
657	0.141
658	0.14
658	0.129
659	0.164
659	0.212
660	0.215
660	0.215
661	0.215
661	0.214
661	0.214
662	0.213
662	0.213
663	0.212
663	0.212
664	0.212
664	0.212
665	0.211
665	0.211
665	0.211
666	0.212
666	0.212
667	0.212
667	0.213
668	0.213
668	0.213
669	0.213
669	0.213
669	0.214
670	0.214
670	0.214
671	0.214
671	0.213
672	0.213
672	0.212
672	0.212
673	0.211
673	0.211
674	0.21
674	0.21
675	0.21
675	0.21
676	0.21
676	0.21
676	0.211
677	0.211
677	0.211
678	0.212
678	0.212
679	0.212
679	0.212
680	0.213
680	0.213
680	0.213
681	0.213
681	0.213
682	0.214
682	0.214
683	0.214
683	0.214
684	0.214
684	0.214
684	0.214
685	0.214
685	0.214
686	0.214
686	0.214
687	0.214
687	0.215
687	0.215
688	0.215
688	0.215
689	0.216
689	0.217
690	0.217
690	0.217
691	0.218
691	0.218
691	0.218
692	0.218
692	0.218
693	0.218
693	0.218
694	0.218
694	0.218
695	0.218
695	0.219
695	0.22
696	0.22
696	0.22
697	0.22
697	0.22
698	0.22
698	0.22
698	0.22
699	0.22
699	0.219
700	0.219
700	0.218
701	0.218
701	0.217
702	0.217
702	0.216
702	0.216
703	0.216
703	0.215
704	0.215
704	0.215
705	0.216
705	0.216
705	0.216
706	0.217
706	0.217
707	0.218
707	0.218
708	0.218
708	0.218
709	0.219
709	0.218
709	0.218
710	0.218
710	0.218
711	0.218
711	0.218
712	0.218
712	0.218
713	0.218
713	0.219
713	0.219
714	0.219
714	0.219
715	0.219
715	0.219
716	0.218
716	0.218
716	0.218
717	0.217
717	0.217
718	0.216
718	0.216
719	0.216
719	0.216
720	0.217
720	0.218
720	0.219
721	0.219
721	0.22
722	0.221
722	0.222
723	0.222
723	0.222
723	0.222
724	0.222
724	0.222
725	0.221
725	0.22
726	0.219
726	0.218
727	0.218
727	0.218
727	0.218
728	0.218
728	0.218
729	0.219
729	0.219
730	0.22
730	0.221
730	0.222
731	0.223
731	0.223
732	0.224
732	0.224
733	0.224
733	0.225
734	0.225
734	0.225
734	0.225
735	0.225
735	0.225
736	0.225
736	0.224
737	0.224
737	0.224
737	0.224
738	0.223
738	0.223
739	0.222
739	0.222
740	0.222
740	0.222
741	0.223
741	0.223
741	0.223
742	0.223
742	0.224
743	0.224
743	0.225
744	0.225
744	0.226
744	0.226
745	0.226
745	0.225
746	0.226
746	0.226
747	0.226
747	0.226
748	0.226
748	0.226
748	0.226
749	0.226
749	0.226
750	0.226
750	0.227
751	0.227
751	0.227
751	0.227
752	0.227
752	0.226
753	0.226
753	0.225
754	0.225
754	0.224
754	0.224
755	0.224
755	0.224
756	0.224
756	0.223
757	0.223
757	0.223
758	0.223
758	0.223
758	0.224
759	0.224
759	0.224
760	0.223
760	0.223
761	0.223
761	0.224
761	0.224
762	0.224
762	0.224
763	0.224
763	0.224
764	0.224
764	0.224
764	0.224
765	0.224
765	0.224
766	0.224
766	0.224
767	0.224
767	0.223
768	0.223
768	0.223
768	0.223
769	0.223
769	0.224
770	0.224
770	0.224
771	0.224
771	0.225
771	0.225
772	0.225
772	0.226
773	0.226
773	0.226
774	0.227
774	0.227
775	0.228
775	0.228
775	0.228
776	0.229
776	0.229
777	0.23
777	0.23
778	0.23
778	0.23
778	0.23
779	0.229
779	0.229
780	0.228
780	0.227
781	0.227
781	0.226
781	0.226
782	0.225
782	0.225
783	0.225
783	0.226
784	0.226
784	0.226
784	0.227
785	0.227
785	0.227
786	0.228
786	0.228
787	0.229
787	0.229
788	0.228
788	0.228
788	0.228
789	0.228
789	0.228
790	0.228
790	0.228
791	0.228
791	0.227
791	0.227
792	0.228
792	0.229
793	0.229
793	0.229
794	0.229
794	0.229
794	0.229
795	0.23
795	0.23
796	0.23
796	0.23
797	0.23
797	0.23
797	0.23
798	0.23
798	0.23
799	0.23
799	0.23
800	0.23
800	0.229
801	0.229
801	0.229
801	0.229
802	0.229
802	0.229
803	0.229
803	0.229
804	0.229
804	0.23
804	0.23
805	0.23
805	0.23
806	0.231
806	0.231
807	0.231
807	0.231
807	0.231
808	0.231
808	0.232
809	0.232
809	0.232
810	0.232
810	0.232
810	0.232
811	0.233
811	0.233
812	0.234
812	0.234
813	0.235
813	0.235
813	0.236
814	0.236
814	0.237
815	0.238
815	0.238
816	0.238
816	0.238
817	0.237
817	0.236
817	0.236
818	0.235
818	0.235
819	0.234
819	0.233
820	0.233
820	0.232
820	0.232
821	0.233
821	0.233
822	0.233
822	0.234
823	0.234
823	0.235
823	0.236
824	0.237
824	0.238
825	0.239
825	0.24
826	0.241
826	0.241
826	0.242
827	0.242
827	0.242
828	0.243
828	0.242
829	0.242
829	0.242
829	0.242
830	0.242
830	0.242
831	0.242
831	0.242
832	0.242
832	0.242
832	0.242
833	0.242
833	0.242
834	0.241
834	0.241
835	0.241
835	0.241
835	0.24
836	0.24
836	0.24
837	0.239
837	0.239
838	0.238
838	0.237
839	0.237
839	0.236
839	0.235
840	0.235
840	0.234
841	0.234
841	0.233
842	0.233
842	0.233
842	0.233
843	0.233
843	0.233
844	0.234
844	0.234
845	0.234
845	0.234
845	0.234
846	0.235
846	0.235
847	0.236
847	0.236
848	0.236
848	0.236
848	0.236
849	0.236
849	0.236
850	0.236
850	0.235
851	0.235
851	0.235
851	0.234
852	0.234
852	0.233
853	0.233
853	0.233
854	0.234
854	0.234
854	0.235
855	0.236
855	0.237
856	0.237
856	0.238
857	0.238
857	0.239
857	0.239
858	0.239
858	0.239
859	0.238
859	0.237
860	0.237
860	0.236
860	0.235
861	0.234
861	0.233
862	0.232
862	0.231
863	0.231
863	0.231
863	0.231
864	0.231
864	0.231
865	0.232
865	0.232
866	0.232
866	0.232
866	0.233
867	0.233
867	0.234
868	0.234
868	0.234
869	0.234
869	0.233
869	0.233
870	0.232
870	0.232
871	0.232
871	0.231
872	0.231
872	0.231
872	0.231
873	0.231
873	0.23
874	0.23
874	0.23
875	0.23
875	0.23
875	0.229
876	0.229
876	0.229
877	0.228
877	0.228
878	0.228
878	0.228
878	0.229
879	0.229
879	0.229
880	0.229
880	0.229
881	0.229
881	0.229
881	0.23
882	0.229
882	0.23
883	0.229
883	0.229
884	0.23
884	0.23
884	0.23
885	0.23
885	0.23
886	0.23
886	0.23
887	0.229
887	0.229
887	0.229
888	0.228
888	0.228
889	0.228
889	0.228
890	0.227
890	0.227
890	0.227
891	0.227
891	0.226
892	0.226
892	0.226
893	0.226
893	0.225
893	0.225
894	0.224
894	0.224
895	0.223
895	0.223
895	0.222
896	0.222
896	0.222
897	0.221
897	0.22
898	0.22
898	0.219
898	0.219
899	0.218
899	0.218
900	0.217
900	0.217
901	0.217
901	0.217
901	0.217
902	0.217
902	0.217
903	0.217
903	0.217
904	0.216
904	0.216
904	0.216
905	0.217
905	0.217
906	0.217
906	0.218
907	0.218
907	0.219
907	0.219
908	0.22
908	0.22
909	0.22
909	0.22
910	0.22
910	0.22
910	0.219
911	0.219
911	0.218
912	0.218
912	0.217
913	0.217
913	0.216
913	0.216
914	0.215
914	0.215
915	0.214
915	0.214
916	0.214
916	0.213
916	0.213
917	0.212
917	0.212
918	0.211
918	0.211
918	0.21
919	0.209
919	0.209
920	0.209
920	0.208
921	0.208
921	0.207
921	0.207
922	0.207
922	0.207
923	0.207
923	0.207
924	0.207
924	0.208
924	0.208
925	0.208
925	0.208
926	0.208
926	0.208
927	0.208
927	0.207
927	0.207
928	0.207
928	0.206
929	0.206
929	0.206
930	0.205
930	0.205
930	0.204
931	0.204
931	0.204
932	0.204
932	0.203
933	0.203
933	0.203
933	0.203
934	0.203
934	0.202
935	0.202
935	0.203
935	0.202
936	0.202
936	0.202
937	0.202
937	0.201
938	0.201
938	0.2
938	0.2
939	0.199
939	0.198
940	0.197
940	0.196
941	0.195
941	0.195
941	0.194
942	0.194
942	0.193
943	0.193
943	0.192
944	0.192
944	0.192
944	0.191
945	0.191
945	0.191
946	0.19
946	0.19
946	0.19
947	0.19
947	0.19
948	0.19
948	0.19
949	0.19
949	0.19
949	0.19
950	0.19
950	0.19
951	0.19
951	0.189
952	0.189
952	0.188
952	0.187
953	0.186
953	0.185
954	0.184
954	0.183
955	0.182
955	0.181
955	0.181
956	0.181
956	0.181
957	0.18
957	0.18
957	0.18
958	0.18
958	0.18
959	0.18
959	0.18
960	0.18
960	0.18
960	0.179
961	0.179
961	0.178
962	0.178
962	0.178
963	0.177
963	0.177
963	0.177
964	0.177
964	0.177
965	0.177
965	0.177
966	0.178
966	0.178
966	0.178
967	0.178
967	0.179
968	0.179
968	0.179
968	0.179
969	0.179
969	0.178
970	0.178
970	0.177
971	0.177
971	0.176
971	0.175
972	0.175
972	0.174
973	0.174
973	0.173
974	0.173
974	0.173
974	0.173
975	0.173
975	0.173
976	0.173
976	0.173
976	0.172
977	0.172
977	0.171
978	0.171
978	0.17
979	0.169
979	0.169
979	0.168
980	0.168
980	0.167
981	0.166
981	0.165
982	0.164
982	0.164
982	0.164
983	0.164
983	0.164
984	0.163
984	0.163
984	0.163
985	0.163
985	0.163
986	0.163
986	0.162
987	0.162
987	0.162
987	0.161
988	0.161
988	0.16
989	0.16
989	0.159
990	0.158
990	0.158
990	0.157
991	0.157
991	0.157
992	0.156
992	0.156
992	0.155
993	0.155
993	0.154
994	0.154
994	0.153
995	0.153
995	0.152
995	0.152
996	0.152
996	0.151
997	0.151
997	0.151
997	0.151
998	0.151
998	0.152
999	0.152
999	0.152
1000	0.153
1000	0.153
1000	0.153
1001	0.154
1001	0.154
1002	0.153
1002	0.153
1003	0.153
1003	0.152
1003	0.152
1004	0.151
1004	0.15
1005	0.149
1005	0.148
1005	0.147
1006	0.147
1006	0.146
1007	0.146
1007	0.145
1008	0.145
1008	0.145
1008	0.146
1009	0.146
1009	0.146
1010	0.146
1010	0.147
1010	0.147
1011	0.147
1011	0.148
1012	0.148
1012	0.148
1013	0.148
1013	0.148
1013	0.148
1014	0.147
1014	0.147
1015	0.147
1015	0.146
1016	0.146
1016	0.145
1016	0.145
1017	0.144
1017	0.143
1018	0.143
1018	0.142
1018	0.142
1019	0.141
1019	0.141
1020	0.141
1020	0.14
1021	0.14
1021	0.14
1021	0.14
1022	0.14
1022	0.14
1023	0.14
1023	0.14
1023	0.14
1024	0.139
1024	0.139
1025	0.139
1025	0.139
1026	0.139
1026	0.138
1026	0.138
1027	0.138
1027	0.138
1028	0.137
1028	0.137
1028	0.137
1029	0.137
1029	0.137
1030	0.137
1030	0.137
1031	0.137
1031	0.137
1031	0.137
1032	0.137
1032	0.137
1033	0.137
1033	0.136
1033	0.136
1034	0.136
1034	0.136
1035	0.135
1035	0.135
1036	0.134
1036	0.134
1036	0.134
1037	0.133
1037	0.132
1038	0.132
1038	0.131
1039	0.131
1039	0.131
1039	0.13
1040	0.13
1040	0.13
1041	0.13
1041	0.13
1041	0.129
1042	0.129
1042	0.13
1043	0.13
1043	0.13
1044	0.129
1044	0.129
1044	0.13
1045	0.13
1045	0.13
1046	0.13
1046	0.13
1046	0.13
1047	0.131
1047	0.131
1048	0.131
1048	0.131
1049	0.131
1049	0.131
1049	0.131
1050	0.131
1050	0.131
1051	0.13
1051	0.13
1051	0.13
1052	0.13
1052	0.129
1053	0.129
1053	0.129
1053	0.128
1054	0.128
1054	0.128
1055	0.127
1055	0.127
1056	0.126
1056	0.126
1056	0.125
1057	0.124
1057	0.124
1058	0.123
1058	0.122
1058	0.121
1059	0.121
1059	0.12
1060	0.119
1060	0.118
1061	0.118
1061	0.117
1061	0.117
1062	0.116
1062	0.116
1063	0.116
1063	0.116
1063	0.116
1064	0.115
1064	0.115
1065	0.115
1065	0.115
1066	0.115
1066	0.114
1066	0.114
1067	0.113
1067	0.113
1068	0.112
1068	0.112
1068	0.112
1069	0.112
1069	0.111
1070	0.111
1070	0.11
1071	0.11
1071	0.11
1071	0.109
1072	0.109
1072	0.109
1073	0.108
1073	0.107
1073	0.107
1074	0.107
1074	0.106
1075	0.106
1075	0.106
1076	0.106
1076	0.106
1076	0.106
1077	0.106
1077	0.106
1078	0.106
1078	0.106
1078	0.106
1079	0.105
1079	0.105
1080	0.105
1080	0.104
1080	0.104
1081	0.103
1081	0.103
1082	0.104
1082	0.104
1083	0.104
1083	0.104
1083	0.104
1084	0.104
1084	0.104
1085	0.104
1085	0.103
1085	0.103
1086	0.103
1086	0.102
1087	0.101
1087	0.1
1088	0.1
1088	0.1
1088	0.1
1089	0.099
1089	0.098
1090	0.098
1090	0.097
1090	0.097
1091	0.097
1091	0.097
1092	0.097
1092	0.097
1092	0.097
1093	0.097
1093	0.097
1094	0.097
1094	0.096
1095	0.096
1095	0.096
1095	0.095
1096	0.095
1096	0.094
1097	0.094
1097	0.093
1097	0.093
1098	0.092
1098	0.092
1099	0.092
1099	0.091
1100	0.09
1100	0.09
1100	0.089
1101	0.089
1101	0.088
1102	0.088
1102	0.087
1102	0.086
1103	0.086
1103	0.086
1104	0.086
1104	0.086
1104	0.086
1105	0.084
1105	0.082
1106	0.081
1106	0.08
1107	0.08
1107	0.079
1107	0.078
1108	0.076
1108	0.075
1109	0.074
1109	0.072
1109	0.073
1110	0.075
1110	0.074
1111	0.077
1111	0.073
