Data from reversibility-20sec_Absorbance__5587__000000000005587.txt Node

Date: Wed Dec 06 19:15:25 CET 2023
User: Marek
Spectrometer: MAYP115816
Trigger mode: 0
Integration Time (sec): 2.000000E-1
Scans to average: 10
Electric dark correction enabled: true
Nonlinearity correction enabled: true
Boxcar width: 5
XAxis mode: Wavelengths
Number of Pixels in Spectrum: 2068
>>>>>Begin Spectral Data<<<<<
199	-0.204
199	-0.177
200	-0.104
200	-0.053
201	-0.021
201	-0.004
202	0.008
202	0.018
203	0.025
203	0.028
204	0.045
204	0.057
205	0.07
205	0.075
205	0.076
206	0.075
206	0.076
207	0.077
207	0.076
208	0.077
208	0.076
209	0.076
209	0.074
210	0.076
210	0.076
211	0.076
211	0.076
212	0.074
212	0.076
213	0.079
213	0.081
213	0.081
214	0.086
214	0.089
215	0.087
215	0.088
216	0.09
216	0.09
217	0.093
217	0.093
218	0.092
218	0.094
219	0.097
219	0.095
220	0.098
220	0.101
221	0.102
221	0.103
221	0.11
222	0.116
222	0.118
223	0.124
223	0.13
224	0.136
224	0.144
225	0.152
225	0.161
226	0.168
226	0.181
227	0.19
227	0.198
228	0.218
228	0.233
229	0.25
229	0.274
229	0.296
230	0.323
230	0.351
231	0.383
231	0.42
232	0.458
232	0.5
233	0.543
233	0.592
234	0.64
234	0.692
235	0.745
235	0.798
236	0.849
236	0.903
236	0.956
237	1.006
237	1.057
238	1.103
238	1.149
239	1.198
239	1.239
240	1.28
240	1.316
241	1.354
241	1.387
242	1.416
242	1.448
243	1.477
243	1.503
243	1.525
244	1.545
244	1.567
245	1.584
245	1.608
246	1.625
246	1.645
247	1.657
247	1.674
248	1.69
248	1.704
249	1.717
249	1.725
250	1.733
250	1.741
250	1.743
251	1.749
251	1.75
252	1.759
252	1.759
253	1.76
253	1.758
254	1.757
254	1.76
255	1.76
255	1.761
256	1.762
256	1.762
257	1.762
257	1.758
258	1.758
258	1.757
258	1.758
259	1.758
259	1.759
260	1.759
260	1.76
261	1.76
261	1.762
262	1.764
262	1.766
263	1.768
263	1.77
264	1.77
264	1.772
265	1.77
265	1.77
265	1.771
266	1.771
266	1.772
267	1.771
267	1.772
268	1.77
268	1.77
269	1.772
269	1.771
270	1.77
270	1.768
271	1.766
271	1.766
272	1.762
272	1.76
272	1.758
273	1.754
273	1.748
274	1.743
274	1.739
275	1.734
275	1.73
276	1.723
276	1.716
277	1.708
277	1.699
278	1.689
278	1.677
278	1.665
279	1.65
279	1.632
280	1.61
280	1.584
281	1.553
281	1.519
282	1.482
282	1.444
283	1.406
283	1.369
284	1.332
284	1.295
285	1.261
285	1.23
285	1.202
286	1.176
286	1.154
287	1.135
287	1.118
288	1.103
288	1.091
289	1.08
289	1.071
290	1.063
290	1.056
291	1.049
291	1.043
292	1.038
292	1.033
292	1.029
293	1.024
293	1.02
294	1.016
294	1.013
295	1.01
295	1.007
296	1.003
296	1
297	0.997
297	0.994
298	0.991
298	0.988
298	0.985
299	0.982
299	0.979
300	0.976
300	0.973
301	0.97
301	0.968
302	0.965
302	0.962
303	0.96
303	0.957
304	0.955
304	0.952
305	0.949
305	0.947
305	0.944
306	0.942
306	0.939
307	0.936
307	0.934
308	0.931
308	0.928
309	0.925
309	0.922
310	0.92
310	0.917
311	0.914
311	0.911
311	0.907
312	0.904
312	0.9
313	0.896
313	0.893
314	0.889
314	0.885
315	0.88
315	0.876
316	0.872
316	0.867
317	0.862
317	0.857
318	0.853
318	0.847
318	0.842
319	0.837
319	0.831
320	0.826
320	0.82
321	0.814
321	0.808
322	0.802
322	0.796
323	0.79
323	0.783
324	0.777
324	0.77
324	0.764
325	0.757
325	0.75
326	0.743
326	0.737
327	0.73
327	0.723
328	0.716
328	0.709
329	0.702
329	0.695
330	0.688
330	0.682
330	0.674
331	0.668
331	0.661
332	0.654
332	0.647
333	0.64
333	0.633
334	0.627
334	0.62
335	0.613
335	0.607
336	0.6
336	0.594
336	0.587
337	0.581
337	0.575
338	0.569
338	0.563
339	0.557
339	0.551
340	0.545
340	0.539
341	0.534
341	0.528
342	0.523
342	0.518
342	0.512
343	0.507
343	0.502
344	0.497
344	0.492
345	0.488
345	0.483
346	0.478
346	0.474
347	0.47
347	0.466
348	0.462
348	0.458
348	0.454
349	0.45
349	0.447
350	0.443
350	0.439
351	0.436
351	0.433
352	0.429
352	0.426
353	0.423
353	0.42
354	0.417
354	0.414
354	0.411
355	0.408
355	0.406
356	0.403
356	0.4
357	0.397
357	0.394
358	0.391
358	0.389
359	0.386
359	0.384
360	0.382
360	0.38
360	0.378
361	0.376
361	0.374
362	0.373
362	0.371
363	0.369
363	0.368
364	0.366
364	0.364
365	0.362
365	0.36
366	0.358
366	0.357
366	0.355
367	0.353
367	0.351
368	0.349
368	0.348
369	0.346
369	0.345
370	0.343
370	0.342
371	0.34
371	0.339
372	0.338
372	0.336
372	0.335
373	0.334
373	0.333
374	0.332
374	0.331
375	0.33
375	0.329
376	0.328
376	0.327
377	0.326
377	0.325
378	0.324
378	0.323
378	0.322
379	0.321
379	0.321
380	0.32
380	0.319
381	0.318
381	0.317
382	0.317
382	0.316
383	0.316
383	0.315
383	0.314
384	0.313
384	0.313
385	0.312
385	0.312
386	0.311
386	0.311
387	0.31
387	0.31
388	0.309
388	0.309
389	0.308
389	0.308
389	0.307
390	0.306
390	0.306
391	0.306
391	0.305
392	0.305
392	0.305
393	0.304
393	0.304
394	0.303
394	0.303
394	0.302
395	0.302
395	0.302
396	0.301
396	0.301
397	0.3
397	0.3
398	0.3
398	0.299
399	0.299
399	0.298
400	0.298
400	0.297
400	0.297
401	0.297
401	0.297
402	0.296
402	0.296
403	0.295
403	0.295
404	0.295
404	0.295
405	0.294
405	0.294
405	0.294
406	0.293
406	0.293
407	0.292
407	0.292
408	0.292
408	0.291
409	0.291
409	0.291
410	0.29
410	0.29
411	0.29
411	0.29
411	0.289
412	0.289
412	0.289
413	0.288
413	0.288
414	0.288
414	0.287
415	0.287
415	0.287
416	0.286
416	0.286
416	0.285
417	0.285
417	0.285
418	0.285
418	0.284
419	0.284
419	0.283
420	0.283
420	0.282
421	0.282
421	0.281
421	0.281
422	0.281
422	0.281
423	0.28
423	0.28
424	0.279
424	0.279
425	0.279
425	0.279
426	0.279
426	0.278
427	0.278
427	0.278
427	0.277
428	0.277
428	0.277
429	0.276
429	0.276
430	0.276
430	0.276
431	0.275
431	0.275
432	0.275
432	0.275
432	0.275
433	0.274
433	0.274
434	0.274
434	0.274
435	0.274
435	0.274
436	0.274
436	0.273
437	0.273
437	0.273
437	0.272
438	0.272
438	0.272
439	0.272
439	0.272
440	0.272
440	0.271
441	0.271
441	0.271
442	0.271
442	0.271
442	0.271
443	0.27
443	0.27
444	0.27
444	0.27
445	0.27
445	0.27
446	0.269
446	0.269
447	0.269
447	0.269
447	0.269
448	0.268
448	0.268
449	0.268
449	0.268
450	0.268
450	0.268
451	0.268
451	0.268
452	0.268
452	0.268
452	0.268
453	0.268
453	0.268
454	0.268
454	0.268
455	0.267
455	0.267
456	0.267
456	0.267
457	0.267
457	0.267
458	0.267
458	0.267
458	0.267
459	0.267
459	0.267
460	0.267
460	0.267
461	0.266
461	0.266
462	0.266
462	0.266
463	0.266
463	0.266
463	0.266
464	0.266
464	0.266
465	0.265
465	0.265
466	0.265
466	0.266
467	0.266
467	0.266
467	0.266
468	0.266
468	0.266
469	0.266
469	0.267
470	0.267
470	0.268
471	0.268
471	0.268
472	0.269
472	0.269
472	0.269
473	0.27
473	0.27
474	0.27
474	0.27
475	0.27
475	0.271
476	0.271
476	0.271
477	0.272
477	0.272
477	0.272
478	0.273
478	0.273
479	0.274
479	0.274
480	0.274
480	0.275
481	0.275
481	0.275
482	0.276
482	0.276
482	0.277
483	0.277
483	0.278
484	0.278
484	0.279
485	0.279
485	0.28
486	0.28
486	0.28
487	0.281
487	0.281
487	0.282
488	0.283
488	0.283
489	0.284
489	0.286
490	0.287
490	0.287
491	0.288
491	0.29
492	0.29
492	0.291
492	0.292
493	0.293
493	0.294
494	0.295
494	0.296
495	0.297
495	0.298
496	0.299
496	0.3
496	0.301
497	0.302
497	0.303
498	0.303
498	0.304
499	0.305
499	0.307
500	0.308
500	0.309
501	0.31
501	0.311
501	0.312
502	0.313
502	0.314
503	0.315
503	0.316
504	0.317
504	0.318
505	0.319
505	0.32
506	0.321
506	0.322
506	0.323
507	0.324
507	0.325
508	0.325
508	0.326
509	0.327
509	0.328
510	0.329
510	0.329
511	0.33
511	0.331
511	0.332
512	0.333
512	0.333
513	0.334
513	0.335
514	0.336
514	0.337
515	0.338
515	0.338
515	0.339
516	0.34
516	0.34
517	0.341
517	0.342
518	0.342
518	0.342
519	0.343
519	0.342
520	0.342
520	0.342
520	0.343
521	0.342
521	0.342
522	0.342
522	0.342
523	0.342
523	0.342
524	0.342
524	0.342
524	0.342
525	0.342
525	0.341
526	0.341
526	0.341
527	0.341
527	0.34
528	0.34
528	0.339
529	0.339
529	0.338
529	0.337
530	0.336
530	0.335
531	0.335
531	0.334
532	0.333
532	0.332
533	0.331
533	0.33
533	0.329
534	0.329
534	0.328
535	0.327
535	0.326
536	0.325
536	0.324
537	0.323
537	0.322
538	0.321
538	0.32
538	0.319
539	0.318
539	0.317
540	0.315
540	0.314
541	0.312
541	0.311
542	0.31
542	0.308
542	0.307
543	0.305
543	0.304
544	0.302
544	0.301
545	0.3
545	0.298
546	0.297
546	0.295
547	0.293
547	0.291
547	0.29
548	0.289
548	0.287
549	0.286
549	0.284
550	0.283
550	0.282
551	0.28
551	0.279
551	0.277
552	0.276
552	0.274
553	0.273
553	0.272
554	0.27
554	0.268
555	0.266
555	0.265
556	0.263
556	0.262
556	0.26
557	0.259
557	0.258
558	0.257
558	0.256
559	0.255
559	0.254
560	0.253
560	0.252
560	0.251
561	0.25
561	0.248
562	0.247
562	0.245
563	0.243
563	0.242
564	0.24
564	0.239
564	0.238
565	0.236
565	0.235
566	0.234
566	0.233
567	0.232
567	0.23
568	0.229
568	0.228
568	0.227
569	0.226
569	0.225
570	0.223
570	0.222
571	0.221
571	0.22
572	0.218
572	0.217
573	0.216
573	0.215
573	0.214
574	0.212
574	0.212
575	0.211
575	0.21
576	0.21
576	0.209
577	0.208
577	0.206
577	0.206
578	0.205
578	0.204
579	0.204
579	0.203
580	0.202
580	0.2
581	0.199
581	0.198
581	0.198
582	0.197
582	0.197
583	0.197
583	0.196
584	0.195
584	0.193
585	0.192
585	0.192
585	0.191
586	0.19
586	0.189
587	0.188
587	0.187
588	0.186
588	0.185
589	0.184
589	0.184
590	0.184
590	0.183
590	0.183
591	0.183
591	0.183
592	0.182
592	0.181
593	0.181
593	0.18
594	0.18
594	0.179
594	0.178
595	0.177
595	0.176
596	0.175
596	0.175
597	0.175
597	0.175
598	0.175
598	0.174
598	0.174
599	0.173
599	0.172
600	0.172
600	0.171
601	0.17
601	0.17
602	0.169
602	0.169
602	0.168
603	0.167
603	0.167
604	0.167
604	0.167
605	0.167
605	0.167
606	0.166
606	0.165
606	0.164
607	0.164
607	0.163
608	0.163
608	0.162
609	0.161
609	0.161
610	0.16
610	0.16
610	0.16
611	0.159
611	0.159
612	0.159
612	0.159
613	0.159
613	0.159
614	0.159
614	0.158
614	0.158
615	0.157
615	0.157
616	0.157
616	0.157
617	0.157
617	0.156
618	0.156
618	0.156
618	0.156
619	0.156
619	0.156
620	0.156
620	0.156
621	0.156
621	0.155
622	0.155
622	0.154
622	0.153
623	0.153
623	0.152
624	0.152
624	0.151
625	0.15
625	0.15
626	0.149
626	0.149
626	0.148
627	0.148
627	0.148
628	0.147
628	0.147
629	0.146
629	0.146
630	0.145
630	0.145
630	0.145
631	0.144
631	0.144
632	0.144
632	0.143
633	0.143
633	0.143
634	0.144
634	0.144
634	0.144
635	0.144
635	0.144
636	0.144
636	0.144
637	0.143
637	0.143
638	0.143
638	0.143
638	0.142
639	0.142
639	0.141
640	0.141
640	0.141
641	0.141
641	0.14
642	0.14
642	0.14
642	0.14
643	0.14
643	0.14
644	0.14
644	0.14
645	0.14
645	0.14
646	0.14
646	0.139
646	0.139
647	0.139
647	0.138
648	0.138
648	0.137
649	0.137
649	0.137
650	0.137
650	0.137
650	0.137
651	0.137
651	0.137
652	0.137
652	0.137
653	0.138
653	0.139
653	0.145
654	0.116
654	0.093
655	0.092
655	0.092
656	0.092
656	0.092
657	0.093
657	0.093
657	0.093
658	0.092
658	0.083
659	0.104
659	0.132
660	0.138
660	0.138
661	0.138
661	0.137
661	0.137
662	0.136
662	0.136
663	0.135
663	0.135
664	0.135
664	0.134
665	0.134
665	0.134
665	0.135
666	0.135
666	0.135
667	0.136
667	0.136
668	0.137
668	0.137
669	0.137
669	0.137
669	0.138
670	0.138
670	0.137
671	0.137
671	0.136
672	0.136
672	0.135
672	0.135
673	0.134
673	0.134
674	0.134
674	0.134
675	0.133
675	0.133
676	0.134
676	0.134
676	0.133
677	0.133
677	0.133
678	0.133
678	0.132
679	0.131
679	0.131
680	0.131
680	0.131
680	0.13
681	0.13
681	0.131
682	0.131
682	0.131
683	0.132
683	0.133
684	0.133
684	0.134
684	0.134
685	0.134
685	0.134
686	0.134
686	0.134
687	0.134
687	0.134
687	0.134
688	0.133
688	0.133
689	0.134
689	0.134
690	0.133
690	0.133
691	0.133
691	0.133
691	0.133
692	0.133
692	0.133
693	0.133
693	0.134
694	0.134
694	0.134
695	0.135
695	0.136
695	0.136
696	0.136
696	0.136
697	0.136
697	0.136
698	0.135
698	0.135
698	0.135
699	0.135
699	0.135
700	0.134
700	0.134
701	0.135
701	0.135
702	0.135
702	0.135
702	0.135
703	0.135
703	0.135
704	0.134
704	0.134
705	0.134
705	0.134
705	0.134
706	0.133
706	0.134
707	0.134
707	0.133
708	0.134
708	0.134
709	0.134
709	0.134
709	0.133
710	0.133
710	0.133
711	0.133
711	0.133
712	0.132
712	0.132
713	0.132
713	0.132
713	0.132
714	0.132
714	0.132
715	0.132
715	0.132
716	0.132
716	0.132
716	0.132
717	0.131
717	0.131
718	0.13
718	0.13
719	0.13
719	0.13
720	0.131
720	0.131
720	0.132
721	0.132
721	0.133
722	0.133
722	0.134
723	0.134
723	0.135
723	0.135
724	0.135
724	0.134
725	0.134
725	0.133
726	0.132
726	0.132
727	0.131
727	0.131
727	0.131
728	0.13
728	0.13
729	0.13
729	0.13
730	0.13
730	0.13
730	0.131
731	0.131
731	0.132
732	0.132
732	0.132
733	0.132
733	0.132
734	0.133
734	0.133
734	0.134
735	0.134
735	0.134
736	0.134
736	0.134
737	0.134
737	0.134
737	0.134
738	0.133
738	0.132
739	0.132
739	0.132
740	0.131
740	0.131
741	0.132
741	0.131
741	0.131
742	0.131
742	0.132
743	0.133
743	0.134
744	0.134
744	0.135
744	0.135
745	0.135
745	0.135
746	0.136
746	0.136
747	0.136
747	0.137
748	0.137
748	0.137
748	0.136
749	0.136
749	0.136
750	0.135
750	0.134
751	0.133
751	0.133
751	0.132
752	0.131
752	0.13
753	0.13
753	0.129
754	0.129
754	0.129
754	0.13
755	0.13
755	0.131
756	0.13
756	0.13
757	0.13
757	0.13
758	0.13
758	0.131
758	0.131
759	0.132
759	0.131
760	0.131
760	0.131
761	0.131
761	0.132
761	0.132
762	0.132
762	0.132
763	0.131
763	0.13
764	0.13
764	0.129
764	0.129
765	0.128
765	0.128
766	0.128
766	0.128
767	0.127
767	0.126
768	0.126
768	0.126
768	0.126
769	0.126
769	0.127
770	0.127
770	0.128
771	0.128
771	0.128
771	0.129
772	0.13
772	0.131
773	0.131
773	0.131
774	0.131
774	0.131
775	0.131
775	0.13
775	0.13
776	0.129
776	0.129
777	0.129
777	0.128
778	0.128
778	0.128
778	0.128
779	0.128
779	0.128
780	0.128
780	0.128
781	0.128
781	0.128
781	0.128
782	0.128
782	0.128
783	0.129
783	0.129
784	0.129
784	0.129
784	0.129
785	0.129
785	0.129
786	0.129
786	0.129
787	0.129
787	0.128
788	0.127
788	0.126
788	0.125
789	0.124
789	0.123
790	0.123
790	0.122
791	0.121
791	0.121
791	0.12
792	0.121
792	0.12
793	0.12
793	0.12
794	0.119
794	0.119
794	0.118
795	0.118
795	0.119
796	0.119
796	0.119
797	0.118
797	0.118
797	0.118
798	0.118
798	0.119
799	0.119
799	0.118
800	0.118
800	0.118
801	0.117
801	0.117
801	0.117
802	0.117
802	0.118
803	0.118
803	0.118
804	0.118
804	0.119
804	0.119
805	0.118
805	0.118
806	0.117
806	0.117
807	0.116
807	0.116
807	0.115
808	0.115
808	0.114
809	0.114
809	0.114
810	0.115
810	0.115
810	0.115
811	0.115
811	0.116
812	0.117
812	0.117
813	0.118
813	0.118
813	0.118
814	0.119
814	0.119
815	0.119
815	0.119
816	0.119
816	0.118
817	0.118
817	0.117
817	0.117
818	0.116
818	0.116
819	0.115
819	0.115
820	0.114
820	0.114
820	0.113
821	0.113
821	0.113
822	0.113
822	0.113
823	0.112
823	0.112
823	0.112
824	0.112
824	0.113
825	0.113
825	0.113
826	0.113
826	0.113
826	0.113
827	0.113
827	0.114
828	0.114
828	0.114
829	0.114
829	0.114
829	0.114
830	0.114
830	0.114
831	0.115
831	0.115
832	0.115
832	0.115
832	0.115
833	0.115
833	0.114
834	0.114
834	0.114
835	0.113
835	0.113
835	0.112
836	0.112
836	0.112
837	0.112
837	0.111
838	0.111
838	0.11
839	0.109
839	0.109
839	0.108
840	0.107
840	0.106
841	0.105
841	0.103
842	0.103
842	0.102
842	0.101
843	0.1
843	0.099
844	0.098
844	0.097
845	0.096
845	0.096
845	0.095
846	0.095
846	0.095
847	0.095
847	0.095
848	0.096
848	0.096
848	0.097
849	0.098
849	0.099
850	0.1
850	0.1
851	0.101
851	0.101
851	0.101
852	0.1
852	0.1
853	0.099
853	0.099
854	0.099
854	0.099
854	0.099
855	0.099
855	0.099
856	0.098
856	0.099
857	0.099
857	0.099
857	0.099
858	0.098
858	0.097
859	0.096
859	0.095
860	0.094
860	0.093
860	0.092
861	0.091
861	0.091
862	0.09
862	0.09
863	0.09
863	0.09
863	0.09
864	0.091
864	0.091
865	0.091
865	0.092
866	0.092
866	0.092
866	0.092
867	0.093
867	0.093
868	0.094
868	0.094
869	0.094
869	0.095
869	0.094
870	0.095
870	0.095
871	0.095
871	0.095
872	0.095
872	0.094
872	0.094
873	0.094
873	0.093
874	0.092
874	0.092
875	0.091
875	0.09
875	0.09
876	0.09
876	0.089
877	0.089
877	0.089
878	0.088
878	0.088
878	0.089
879	0.088
879	0.088
880	0.088
880	0.088
881	0.088
881	0.088
881	0.088
882	0.088
882	0.088
883	0.088
883	0.088
884	0.088
884	0.088
884	0.088
885	0.088
885	0.087
886	0.087
886	0.087
887	0.086
887	0.085
887	0.085
888	0.084
888	0.083
889	0.083
889	0.083
890	0.083
890	0.083
890	0.083
891	0.083
891	0.083
892	0.083
892	0.083
893	0.082
893	0.082
893	0.082
894	0.081
894	0.081
895	0.08
895	0.08
895	0.08
896	0.08
896	0.081
897	0.081
897	0.082
898	0.082
898	0.082
898	0.083
899	0.083
899	0.083
900	0.083
900	0.083
901	0.082
901	0.082
901	0.082
902	0.081
902	0.081
903	0.08
903	0.08
904	0.08
904	0.079
904	0.079
905	0.078
905	0.078
906	0.078
906	0.078
907	0.078
907	0.078
907	0.078
908	0.078
908	0.078
909	0.077
909	0.077
910	0.077
910	0.076
910	0.076
911	0.075
911	0.074
912	0.074
912	0.074
913	0.073
913	0.073
913	0.073
914	0.073
914	0.073
915	0.074
915	0.074
916	0.074
916	0.074
916	0.074
917	0.074
917	0.073
918	0.073
918	0.073
918	0.072
919	0.072
919	0.072
920	0.072
920	0.072
921	0.072
921	0.072
921	0.072
922	0.072
922	0.072
923	0.072
923	0.072
924	0.073
924	0.073
924	0.074
925	0.074
925	0.075
926	0.076
926	0.076
927	0.077
927	0.077
927	0.077
928	0.077
928	0.077
929	0.076
929	0.076
930	0.075
930	0.074
930	0.073
931	0.072
931	0.072
932	0.071
932	0.071
933	0.07
933	0.07
933	0.069
934	0.069
934	0.069
935	0.068
935	0.068
935	0.068
936	0.068
936	0.067
937	0.067
937	0.067
938	0.067
938	0.067
938	0.066
939	0.066
939	0.066
940	0.066
940	0.066
941	0.066
941	0.066
941	0.067
942	0.067
942	0.067
943	0.067
943	0.067
944	0.067
944	0.067
944	0.067
945	0.068
945	0.068
946	0.068
946	0.068
946	0.068
947	0.068
947	0.068
948	0.068
948	0.067
949	0.067
949	0.067
949	0.067
950	0.066
950	0.066
951	0.066
951	0.065
952	0.065
952	0.065
952	0.064
953	0.064
953	0.064
954	0.064
954	0.064
955	0.064
955	0.063
955	0.063
956	0.063
956	0.063
957	0.063
957	0.063
957	0.063
958	0.063
958	0.062
959	0.062
959	0.062
960	0.061
960	0.061
960	0.061
961	0.061
961	0.061
962	0.061
962	0.061
963	0.061
963	0.062
963	0.062
964	0.062
964	0.063
965	0.063
965	0.063
966	0.064
966	0.064
966	0.064
967	0.064
967	0.064
968	0.064
968	0.064
968	0.063
969	0.063
969	0.062
970	0.062
970	0.061
971	0.061
971	0.06
971	0.06
972	0.06
972	0.06
973	0.059
973	0.059
974	0.06
974	0.06
974	0.061
975	0.061
975	0.062
976	0.063
976	0.063
976	0.063
977	0.064
977	0.064
978	0.063
978	0.063
979	0.063
979	0.062
979	0.062
980	0.061
980	0.06
981	0.059
981	0.059
982	0.058
982	0.057
982	0.056
983	0.055
983	0.055
984	0.054
984	0.054
984	0.054
985	0.053
985	0.053
986	0.053
986	0.053
987	0.053
987	0.053
987	0.053
988	0.053
988	0.053
989	0.053
989	0.052
990	0.052
990	0.052
990	0.052
991	0.051
991	0.051
992	0.051
992	0.05
992	0.049
993	0.049
993	0.048
994	0.048
994	0.047
995	0.047
995	0.046
995	0.046
996	0.046
996	0.046
997	0.046
997	0.047
997	0.047
998	0.048
998	0.049
999	0.049
999	0.05
1000	0.051
1000	0.052
1000	0.053
1001	0.053
1001	0.054
1002	0.054
1002	0.054
1003	0.053
1003	0.053
1003	0.052
1004	0.051
1004	0.05
1005	0.049
1005	0.048
1005	0.047
1006	0.046
1006	0.046
1007	0.046
1007	0.045
1008	0.045
1008	0.046
1008	0.046
1009	0.046
1009	0.047
1010	0.047
1010	0.048
1010	0.048
1011	0.048
1011	0.048
1012	0.048
1012	0.048
1013	0.048
1013	0.048
1013	0.047
1014	0.047
1014	0.047
1015	0.047
1015	0.048
1016	0.048
1016	0.048
1016	0.048
1017	0.048
1017	0.048
1018	0.048
1018	0.048
1018	0.048
1019	0.048
1019	0.048
1020	0.048
1020	0.049
1021	0.049
1021	0.05
1021	0.05
1022	0.05
1022	0.051
1023	0.051
1023	0.051
1023	0.051
1024	0.051
1024	0.051
1025	0.052
1025	0.051
1026	0.051
1026	0.051
1026	0.051
1027	0.051
1027	0.05
1028	0.05
1028	0.05
1028	0.05
1029	0.05
1029	0.049
1030	0.049
1030	0.049
1031	0.049
1031	0.049
1031	0.048
1032	0.049
1032	0.049
1033	0.049
1033	0.049
1033	0.048
1034	0.048
1034	0.048
1035	0.048
1035	0.048
1036	0.047
1036	0.047
1036	0.047
1037	0.047
1037	0.047
1038	0.047
1038	0.047
1039	0.047
1039	0.047
1039	0.047
1040	0.048
1040	0.048
1041	0.048
1041	0.048
1041	0.047
1042	0.047
1042	0.047
1043	0.047
1043	0.047
1044	0.047
1044	0.047
1044	0.047
1045	0.047
1045	0.047
1046	0.048
1046	0.048
1046	0.049
1047	0.049
1047	0.05
1048	0.05
1048	0.051
1049	0.051
1049	0.051
1049	0.051
1050	0.051
1050	0.051
1051	0.05
1051	0.05
1051	0.049
1052	0.049
1052	0.048
1053	0.047
1053	0.046
1053	0.045
1054	0.045
1054	0.044
1055	0.044
1055	0.043
1056	0.042
1056	0.042
1056	0.041
1057	0.04
1057	0.04
1058	0.039
1058	0.039
1058	0.038
1059	0.038
1059	0.037
1060	0.037
1060	0.037
1061	0.037
1061	0.036
1061	0.037
1062	0.037
1062	0.037
1063	0.037
1063	0.037
1063	0.037
1064	0.037
1064	0.037
1065	0.037
1065	0.037
1066	0.037
1066	0.037
1066	0.037
1067	0.037
1067	0.037
1068	0.037
1068	0.037
1068	0.036
1069	0.036
1069	0.035
1070	0.035
1070	0.034
1071	0.033
1071	0.033
1071	0.032
1072	0.031
1072	0.031
1073	0.03
1073	0.029
1073	0.029
1074	0.029
1074	0.029
1075	0.029
1075	0.029
1076	0.029
1076	0.029
1076	0.029
1077	0.029
1077	0.029
1078	0.029
1078	0.03
1078	0.03
1079	0.03
1079	0.03
1080	0.03
1080	0.03
1080	0.03
1081	0.03
1081	0.03
1082	0.03
1082	0.031
1083	0.03
1083	0.03
1083	0.03
1084	0.03
1084	0.03
1085	0.03
1085	0.03
1085	0.031
1086	0.031
1086	0.031
1087	0.031
1087	0.031
1088	0.032
1088	0.031
1088	0.032
1089	0.032
1089	0.031
1090	0.03
1090	0.029
1090	0.028
1091	0.028
1091	0.027
1092	0.028
1092	0.028
1092	0.028
1093	0.027
1093	0.027
1094	0.027
1094	0.027
1095	0.027
1095	0.027
1095	0.027
1096	0.026
1096	0.025
1097	0.024
1097	0.024
1097	0.024
1098	0.023
1098	0.022
1099	0.021
1099	0.02
1100	0.019
1100	0.018
1100	0.016
1101	0.015
1101	0.015
1102	0.013
1102	0.011
1102	0.01
1103	0.009
1103	0.008
1104	0.008
1104	0.007
1104	0.007
1105	0.005
1105	0.003
1106	0.001
1106	0
1107	-0
1107	-0.001
1107	-0.002
1108	-0.003
1108	-0.004
1109	-0.006
1109	-0.008
1109	-0.008
1110	-0.006
1110	-0.007
1111	-0.006
1111	-0.009
