Data from reversibility-20sec_Absorbance__5421__000000000005421.txt Node

Date: Wed Dec 06 18:20:06 CET 2023
User: Marek
Spectrometer: MAYP115816
Trigger mode: 0
Integration Time (sec): 2.000000E-1
Scans to average: 10
Electric dark correction enabled: true
Nonlinearity correction enabled: true
Boxcar width: 5
XAxis mode: Wavelengths
Number of Pixels in Spectrum: 2068
>>>>>Begin Spectral Data<<<<<
199	-0.172
199	-0.14
200	-0.069
200	-0.012
201	0.016
201	0.034
202	0.047
202	0.055
203	0.064
203	0.067
204	0.081
204	0.095
205	0.106
205	0.11
205	0.107
206	0.108
206	0.107
207	0.11
207	0.109
208	0.107
208	0.108
209	0.11
209	0.108
210	0.11
210	0.11
211	0.112
211	0.113
212	0.111
212	0.109
213	0.113
213	0.112
213	0.11
214	0.114
214	0.115
215	0.116
215	0.116
216	0.117
216	0.115
217	0.121
217	0.124
218	0.121
218	0.128
219	0.131
219	0.131
220	0.134
220	0.134
221	0.136
221	0.136
221	0.142
222	0.146
222	0.15
223	0.156
223	0.16
224	0.164
224	0.169
225	0.176
225	0.187
226	0.195
226	0.208
227	0.217
227	0.225
228	0.241
228	0.256
229	0.27
229	0.295
229	0.318
230	0.342
230	0.371
231	0.403
231	0.437
232	0.475
232	0.518
233	0.562
233	0.611
234	0.662
234	0.715
235	0.771
235	0.82
236	0.87
236	0.922
236	0.974
237	1.028
237	1.078
238	1.123
238	1.167
239	1.215
239	1.257
240	1.295
240	1.334
241	1.37
241	1.404
242	1.436
242	1.468
243	1.497
243	1.523
243	1.55
244	1.571
244	1.593
245	1.61
245	1.634
246	1.654
246	1.673
247	1.686
247	1.699
248	1.711
248	1.726
249	1.737
249	1.743
250	1.747
250	1.754
250	1.759
251	1.76
251	1.761
252	1.765
252	1.764
253	1.766
253	1.765
254	1.762
254	1.763
255	1.762
255	1.762
256	1.76
256	1.76
257	1.759
257	1.758
258	1.758
258	1.757
258	1.757
259	1.758
259	1.758
260	1.759
260	1.761
261	1.761
261	1.764
262	1.769
262	1.771
263	1.775
263	1.778
264	1.778
264	1.78
265	1.783
265	1.786
265	1.786
266	1.787
266	1.787
267	1.785
267	1.785
268	1.783
268	1.783
269	1.785
269	1.784
270	1.781
270	1.78
271	1.778
271	1.776
272	1.772
272	1.77
272	1.766
273	1.76
273	1.753
274	1.745
274	1.738
275	1.731
275	1.724
276	1.717
276	1.709
277	1.702
277	1.692
278	1.68
278	1.667
278	1.653
279	1.635
279	1.613
280	1.585
280	1.552
281	1.513
281	1.47
282	1.425
282	1.38
283	1.336
283	1.294
284	1.253
284	1.213
285	1.178
285	1.145
285	1.116
286	1.09
286	1.068
287	1.049
287	1.033
288	1.019
288	1.007
289	0.998
289	0.989
290	0.982
290	0.976
291	0.97
291	0.966
292	0.961
292	0.957
292	0.954
293	0.95
293	0.947
294	0.944
294	0.941
295	0.938
295	0.935
296	0.932
296	0.93
297	0.927
297	0.924
298	0.922
298	0.919
298	0.916
299	0.914
299	0.911
300	0.909
300	0.906
301	0.904
301	0.902
302	0.899
302	0.897
303	0.895
303	0.893
304	0.89
304	0.888
305	0.886
305	0.884
305	0.882
306	0.88
306	0.878
307	0.876
307	0.873
308	0.871
308	0.869
309	0.866
309	0.864
310	0.861
310	0.858
311	0.855
311	0.852
311	0.849
312	0.845
312	0.842
313	0.839
313	0.835
314	0.831
314	0.827
315	0.824
315	0.82
316	0.815
316	0.811
317	0.807
317	0.802
318	0.797
318	0.792
318	0.787
319	0.782
319	0.777
320	0.771
320	0.765
321	0.76
321	0.754
322	0.748
322	0.741
323	0.735
323	0.729
324	0.723
324	0.716
324	0.709
325	0.703
325	0.696
326	0.689
326	0.682
327	0.675
327	0.669
328	0.662
328	0.655
329	0.648
329	0.641
330	0.634
330	0.628
330	0.621
331	0.614
331	0.607
332	0.6
332	0.593
333	0.586
333	0.58
334	0.573
334	0.566
335	0.559
335	0.552
336	0.546
336	0.539
336	0.533
337	0.527
337	0.521
338	0.515
338	0.509
339	0.503
339	0.497
340	0.491
340	0.486
341	0.48
341	0.474
342	0.469
342	0.463
342	0.458
343	0.453
343	0.448
344	0.443
344	0.438
345	0.433
345	0.429
346	0.424
346	0.42
347	0.416
347	0.412
348	0.408
348	0.404
348	0.4
349	0.396
349	0.393
350	0.389
350	0.386
351	0.382
351	0.379
352	0.376
352	0.373
353	0.37
353	0.367
354	0.364
354	0.362
354	0.359
355	0.356
355	0.353
356	0.35
356	0.348
357	0.345
357	0.343
358	0.34
358	0.338
359	0.335
359	0.333
360	0.331
360	0.329
360	0.328
361	0.326
361	0.324
362	0.322
362	0.321
363	0.319
363	0.317
364	0.315
364	0.314
365	0.312
365	0.31
366	0.308
366	0.307
366	0.305
367	0.304
367	0.302
368	0.301
368	0.299
369	0.298
369	0.297
370	0.295
370	0.294
371	0.293
371	0.291
372	0.29
372	0.289
372	0.288
373	0.287
373	0.286
374	0.285
374	0.284
375	0.283
375	0.282
376	0.282
376	0.281
377	0.28
377	0.279
378	0.278
378	0.278
378	0.277
379	0.276
379	0.276
380	0.275
380	0.274
381	0.274
381	0.273
382	0.273
382	0.272
383	0.272
383	0.271
383	0.271
384	0.27
384	0.269
385	0.269
385	0.268
386	0.268
386	0.267
387	0.267
387	0.266
388	0.266
388	0.266
389	0.265
389	0.265
389	0.265
390	0.265
390	0.264
391	0.264
391	0.264
392	0.263
392	0.263
393	0.263
393	0.263
394	0.262
394	0.262
394	0.262
395	0.261
395	0.261
396	0.261
396	0.26
397	0.26
397	0.259
398	0.259
398	0.259
399	0.259
399	0.258
400	0.258
400	0.258
400	0.258
401	0.258
401	0.258
402	0.257
402	0.257
403	0.257
403	0.257
404	0.257
404	0.256
405	0.256
405	0.256
405	0.256
406	0.256
406	0.255
407	0.255
407	0.255
408	0.255
408	0.254
409	0.254
409	0.254
410	0.254
410	0.253
411	0.253
411	0.253
411	0.253
412	0.252
412	0.252
413	0.252
413	0.251
414	0.251
414	0.251
415	0.25
415	0.25
416	0.25
416	0.249
416	0.249
417	0.249
417	0.249
418	0.248
418	0.248
419	0.247
419	0.247
420	0.247
420	0.246
421	0.246
421	0.245
421	0.245
422	0.245
422	0.244
423	0.244
423	0.244
424	0.243
424	0.243
425	0.243
425	0.243
426	0.242
426	0.242
427	0.242
427	0.241
427	0.241
428	0.241
428	0.24
429	0.24
429	0.24
430	0.239
430	0.239
431	0.239
431	0.239
432	0.239
432	0.238
432	0.238
433	0.238
433	0.238
434	0.238
434	0.238
435	0.237
435	0.237
436	0.237
436	0.236
437	0.236
437	0.236
437	0.236
438	0.236
438	0.235
439	0.235
439	0.235
440	0.235
440	0.235
441	0.235
441	0.235
442	0.234
442	0.234
442	0.234
443	0.234
443	0.234
444	0.233
444	0.233
445	0.233
445	0.233
446	0.233
446	0.232
447	0.232
447	0.231
447	0.231
448	0.231
448	0.231
449	0.23
449	0.23
450	0.23
450	0.23
451	0.229
451	0.229
452	0.229
452	0.229
452	0.229
453	0.229
453	0.228
454	0.228
454	0.228
455	0.228
455	0.227
456	0.227
456	0.227
457	0.227
457	0.226
458	0.226
458	0.226
458	0.226
459	0.226
459	0.226
460	0.225
460	0.225
461	0.224
461	0.224
462	0.224
462	0.224
463	0.224
463	0.223
463	0.223
464	0.222
464	0.222
465	0.222
465	0.221
466	0.221
466	0.221
467	0.221
467	0.221
467	0.221
468	0.221
468	0.221
469	0.221
469	0.221
470	0.221
470	0.221
471	0.221
471	0.221
472	0.221
472	0.221
472	0.221
473	0.221
473	0.221
474	0.221
474	0.221
475	0.221
475	0.221
476	0.22
476	0.22
477	0.22
477	0.22
477	0.22
478	0.22
478	0.22
479	0.22
479	0.22
480	0.219
480	0.219
481	0.219
481	0.219
482	0.219
482	0.219
482	0.219
483	0.219
483	0.219
484	0.219
484	0.219
485	0.219
485	0.219
486	0.219
486	0.219
487	0.219
487	0.22
487	0.22
488	0.22
488	0.22
489	0.22
489	0.221
490	0.221
490	0.222
491	0.222
491	0.222
492	0.222
492	0.222
492	0.223
493	0.223
493	0.224
494	0.224
494	0.224
495	0.224
495	0.224
496	0.224
496	0.225
496	0.225
497	0.226
497	0.226
498	0.226
498	0.226
499	0.227
499	0.227
500	0.228
500	0.228
501	0.229
501	0.229
501	0.229
502	0.229
502	0.229
503	0.23
503	0.23
504	0.23
504	0.23
505	0.231
505	0.231
506	0.231
506	0.232
506	0.232
507	0.233
507	0.233
508	0.233
508	0.233
509	0.234
509	0.234
510	0.234
510	0.235
511	0.235
511	0.236
511	0.236
512	0.237
512	0.237
513	0.238
513	0.238
514	0.239
514	0.239
515	0.239
515	0.24
515	0.24
516	0.24
516	0.241
517	0.241
517	0.241
518	0.242
518	0.242
519	0.242
519	0.243
520	0.243
520	0.243
520	0.244
521	0.244
521	0.244
522	0.244
522	0.244
523	0.244
523	0.244
524	0.244
524	0.245
524	0.245
525	0.246
525	0.245
526	0.246
526	0.246
527	0.246
527	0.246
528	0.247
528	0.247
529	0.247
529	0.247
529	0.246
530	0.246
530	0.247
531	0.247
531	0.246
532	0.246
532	0.246
533	0.246
533	0.246
533	0.246
534	0.246
534	0.246
535	0.246
535	0.246
536	0.246
536	0.247
537	0.247
537	0.247
538	0.247
538	0.247
538	0.247
539	0.247
539	0.247
540	0.247
540	0.246
541	0.246
541	0.246
542	0.245
542	0.245
542	0.245
543	0.245
543	0.245
544	0.245
544	0.245
545	0.245
545	0.245
546	0.245
546	0.245
547	0.244
547	0.244
547	0.244
548	0.244
548	0.244
549	0.244
549	0.243
550	0.243
550	0.243
551	0.242
551	0.242
551	0.242
552	0.242
552	0.241
553	0.241
553	0.241
554	0.24
554	0.24
555	0.239
555	0.239
556	0.238
556	0.238
556	0.238
557	0.238
557	0.238
558	0.239
558	0.239
559	0.239
559	0.239
560	0.239
560	0.239
560	0.238
561	0.238
561	0.238
562	0.238
562	0.237
563	0.236
563	0.235
564	0.235
564	0.234
564	0.234
565	0.234
565	0.234
566	0.234
566	0.234
567	0.234
567	0.234
568	0.234
568	0.234
568	0.234
569	0.234
569	0.233
570	0.233
570	0.232
571	0.232
571	0.231
572	0.231
572	0.23
573	0.23
573	0.23
573	0.229
574	0.228
574	0.228
575	0.228
575	0.229
576	0.229
576	0.228
577	0.227
577	0.227
577	0.227
578	0.226
578	0.226
579	0.226
579	0.226
580	0.226
580	0.225
581	0.224
581	0.224
581	0.224
582	0.224
582	0.224
583	0.225
583	0.225
584	0.224
584	0.223
585	0.223
585	0.223
585	0.223
586	0.222
586	0.222
587	0.221
587	0.22
588	0.22
588	0.219
589	0.219
589	0.219
590	0.219
590	0.219
590	0.22
591	0.22
591	0.22
592	0.219
592	0.219
593	0.219
593	0.218
594	0.218
594	0.217
594	0.217
595	0.217
595	0.216
596	0.216
596	0.216
597	0.216
597	0.217
598	0.216
598	0.216
598	0.216
599	0.216
599	0.215
600	0.215
600	0.214
601	0.214
601	0.214
602	0.213
602	0.213
602	0.213
603	0.212
603	0.213
604	0.213
604	0.213
605	0.213
605	0.213
606	0.213
606	0.212
606	0.212
607	0.212
607	0.212
608	0.211
608	0.211
609	0.21
609	0.21
610	0.21
610	0.209
610	0.21
611	0.21
611	0.21
612	0.21
612	0.21
613	0.21
613	0.21
614	0.21
614	0.21
614	0.21
615	0.21
615	0.21
616	0.21
616	0.21
617	0.209
617	0.209
618	0.209
618	0.209
618	0.209
619	0.209
619	0.209
620	0.209
620	0.209
621	0.208
621	0.208
622	0.208
622	0.208
622	0.207
623	0.207
623	0.207
624	0.206
624	0.206
625	0.205
625	0.205
626	0.205
626	0.205
626	0.204
627	0.204
627	0.204
628	0.204
628	0.203
629	0.203
629	0.202
630	0.202
630	0.202
630	0.202
631	0.202
631	0.202
632	0.202
632	0.202
633	0.202
633	0.202
634	0.203
634	0.204
634	0.203
635	0.203
635	0.203
636	0.203
636	0.203
637	0.203
637	0.202
638	0.202
638	0.201
638	0.201
639	0.201
639	0.201
640	0.201
640	0.2
641	0.2
641	0.2
642	0.2
642	0.2
642	0.2
643	0.2
643	0.2
644	0.2
644	0.2
645	0.199
645	0.2
646	0.2
646	0.2
646	0.2
647	0.2
647	0.2
648	0.199
648	0.199
649	0.199
649	0.199
650	0.198
650	0.198
650	0.198
651	0.198
651	0.197
652	0.197
652	0.197
653	0.198
653	0.199
653	0.206
654	0.161
654	0.129
655	0.13
655	0.13
656	0.131
656	0.131
657	0.131
657	0.132
657	0.132
658	0.131
658	0.12
659	0.151
659	0.195
660	0.199
660	0.199
661	0.199
661	0.198
661	0.198
662	0.198
662	0.197
663	0.197
663	0.197
664	0.197
664	0.196
665	0.197
665	0.197
665	0.197
666	0.198
666	0.198
667	0.198
667	0.199
668	0.199
668	0.2
669	0.2
669	0.201
669	0.202
670	0.202
670	0.202
671	0.202
671	0.202
672	0.201
672	0.201
672	0.201
673	0.2
673	0.2
674	0.199
674	0.198
675	0.198
675	0.198
676	0.198
676	0.198
676	0.197
677	0.197
677	0.197
678	0.197
678	0.196
679	0.196
679	0.196
680	0.196
680	0.196
680	0.196
681	0.196
681	0.196
682	0.197
682	0.197
683	0.198
683	0.199
684	0.2
684	0.2
684	0.2
685	0.2
685	0.201
686	0.201
686	0.2
687	0.2
687	0.2
687	0.2
688	0.2
688	0.2
689	0.2
689	0.201
690	0.2
690	0.2
691	0.2
691	0.2
691	0.2
692	0.199
692	0.199
693	0.199
693	0.2
694	0.199
694	0.199
695	0.2
695	0.201
695	0.201
696	0.201
696	0.201
697	0.201
697	0.201
698	0.201
698	0.2
698	0.2
699	0.2
699	0.2
700	0.2
700	0.2
701	0.2
701	0.2
702	0.2
702	0.201
702	0.201
703	0.202
703	0.202
704	0.202
704	0.202
705	0.202
705	0.202
705	0.202
706	0.203
706	0.203
707	0.203
707	0.204
708	0.204
708	0.204
709	0.204
709	0.204
709	0.204
710	0.204
710	0.204
711	0.204
711	0.204
712	0.204
712	0.204
713	0.203
713	0.203
713	0.203
714	0.203
714	0.203
715	0.203
715	0.202
716	0.202
716	0.202
716	0.201
717	0.201
717	0.201
718	0.2
718	0.2
719	0.201
719	0.201
720	0.201
720	0.202
720	0.202
721	0.203
721	0.203
722	0.204
722	0.204
723	0.205
723	0.205
723	0.206
724	0.206
724	0.206
725	0.205
725	0.205
726	0.204
726	0.204
727	0.204
727	0.203
727	0.203
728	0.203
728	0.203
729	0.203
729	0.203
730	0.203
730	0.203
730	0.203
731	0.204
731	0.204
732	0.205
732	0.205
733	0.205
733	0.205
734	0.206
734	0.206
734	0.206
735	0.207
735	0.207
736	0.207
736	0.207
737	0.207
737	0.207
737	0.208
738	0.207
738	0.207
739	0.206
739	0.206
740	0.206
740	0.206
741	0.206
741	0.207
741	0.207
742	0.207
742	0.208
743	0.209
743	0.21
744	0.21
744	0.211
744	0.211
745	0.211
745	0.212
746	0.212
746	0.212
747	0.212
747	0.212
748	0.212
748	0.212
748	0.212
749	0.212
749	0.212
750	0.211
750	0.211
751	0.21
751	0.21
751	0.21
752	0.209
752	0.208
753	0.207
753	0.207
754	0.206
754	0.206
754	0.206
755	0.207
755	0.207
756	0.207
756	0.206
757	0.206
757	0.207
758	0.207
758	0.207
758	0.208
759	0.209
759	0.208
760	0.208
760	0.209
761	0.209
761	0.21
761	0.21
762	0.21
762	0.21
763	0.211
763	0.21
764	0.21
764	0.21
764	0.21
765	0.21
765	0.21
766	0.21
766	0.21
767	0.21
767	0.209
768	0.208
768	0.208
768	0.209
769	0.209
769	0.209
770	0.209
770	0.21
771	0.21
771	0.21
771	0.211
772	0.212
772	0.213
773	0.213
773	0.213
774	0.214
774	0.214
775	0.215
775	0.215
775	0.215
776	0.215
776	0.215
777	0.216
777	0.216
778	0.216
778	0.216
778	0.216
779	0.216
779	0.216
780	0.216
780	0.215
781	0.215
781	0.215
781	0.215
782	0.215
782	0.215
783	0.216
783	0.216
784	0.216
784	0.217
784	0.217
785	0.218
785	0.218
786	0.218
786	0.219
787	0.219
787	0.218
788	0.218
788	0.217
788	0.216
789	0.215
789	0.215
790	0.214
790	0.214
791	0.213
791	0.213
791	0.212
792	0.213
792	0.213
793	0.213
793	0.213
794	0.213
794	0.213
794	0.213
795	0.213
795	0.214
796	0.214
796	0.215
797	0.215
797	0.215
797	0.216
798	0.216
798	0.216
799	0.216
799	0.216
800	0.216
800	0.215
801	0.215
801	0.216
801	0.216
802	0.216
802	0.216
803	0.216
803	0.216
804	0.217
804	0.217
804	0.217
805	0.217
805	0.217
806	0.217
806	0.216
807	0.216
807	0.216
807	0.216
808	0.216
808	0.216
809	0.217
809	0.217
810	0.218
810	0.218
810	0.219
811	0.219
811	0.22
812	0.221
812	0.221
813	0.222
813	0.222
813	0.223
814	0.223
814	0.224
815	0.225
815	0.225
816	0.225
816	0.225
817	0.225
817	0.225
817	0.225
818	0.224
818	0.224
819	0.224
819	0.223
820	0.223
820	0.222
820	0.222
821	0.222
821	0.222
822	0.222
822	0.222
823	0.222
823	0.222
823	0.223
824	0.223
824	0.224
825	0.225
825	0.226
826	0.226
826	0.226
826	0.226
827	0.226
827	0.227
828	0.227
828	0.227
829	0.227
829	0.227
829	0.227
830	0.227
830	0.228
831	0.228
831	0.229
832	0.229
832	0.229
832	0.229
833	0.229
833	0.229
834	0.228
834	0.228
835	0.228
835	0.228
835	0.228
836	0.228
836	0.228
837	0.228
837	0.227
838	0.227
838	0.227
839	0.227
839	0.226
839	0.225
840	0.224
840	0.223
841	0.222
841	0.221
842	0.221
842	0.22
842	0.219
843	0.218
843	0.218
844	0.217
844	0.217
845	0.216
845	0.216
845	0.216
846	0.216
846	0.216
847	0.216
847	0.217
848	0.217
848	0.218
848	0.218
849	0.219
849	0.22
850	0.22
850	0.221
851	0.221
851	0.222
851	0.222
852	0.222
852	0.222
853	0.221
853	0.221
854	0.221
854	0.222
854	0.222
855	0.223
855	0.224
856	0.224
856	0.225
857	0.225
857	0.226
857	0.226
858	0.226
858	0.226
859	0.225
859	0.224
860	0.224
860	0.223
860	0.222
861	0.222
861	0.221
862	0.221
862	0.22
863	0.22
863	0.22
863	0.221
864	0.221
864	0.221
865	0.222
865	0.222
866	0.222
866	0.222
866	0.222
867	0.223
867	0.223
868	0.224
868	0.225
869	0.225
869	0.225
869	0.225
870	0.226
870	0.226
871	0.227
871	0.227
872	0.227
872	0.227
872	0.227
873	0.227
873	0.226
874	0.225
874	0.225
875	0.224
875	0.224
875	0.223
876	0.223
876	0.222
877	0.221
877	0.221
878	0.221
878	0.221
878	0.221
879	0.221
879	0.221
880	0.221
880	0.221
881	0.221
881	0.221
881	0.221
882	0.221
882	0.221
883	0.221
883	0.221
884	0.221
884	0.221
884	0.221
885	0.221
885	0.221
886	0.221
886	0.22
887	0.22
887	0.219
887	0.218
888	0.217
888	0.217
889	0.216
889	0.216
890	0.215
890	0.215
890	0.215
891	0.214
891	0.214
892	0.214
892	0.214
893	0.214
893	0.214
893	0.214
894	0.214
894	0.214
895	0.214
895	0.214
895	0.215
896	0.215
896	0.215
897	0.215
897	0.215
898	0.215
898	0.215
898	0.215
899	0.215
899	0.215
900	0.214
900	0.214
901	0.213
901	0.213
901	0.212
902	0.212
902	0.211
903	0.21
903	0.21
904	0.209
904	0.208
904	0.208
905	0.208
905	0.207
906	0.207
906	0.207
907	0.207
907	0.208
907	0.208
908	0.208
908	0.208
909	0.208
909	0.208
910	0.207
910	0.207
910	0.207
911	0.206
911	0.206
912	0.205
912	0.205
913	0.205
913	0.205
913	0.205
914	0.205
914	0.205
915	0.205
915	0.205
916	0.205
916	0.205
916	0.205
917	0.204
917	0.204
918	0.204
918	0.203
918	0.203
919	0.203
919	0.203
920	0.203
920	0.202
921	0.202
921	0.202
921	0.202
922	0.201
922	0.201
923	0.201
923	0.201
924	0.202
924	0.202
924	0.202
925	0.203
925	0.203
926	0.204
926	0.204
927	0.205
927	0.205
927	0.205
928	0.204
928	0.204
929	0.203
929	0.202
930	0.201
930	0.2
930	0.199
931	0.198
931	0.197
932	0.197
932	0.196
933	0.196
933	0.195
933	0.195
934	0.195
934	0.195
935	0.194
935	0.194
935	0.194
936	0.194
936	0.194
937	0.193
937	0.193
938	0.192
938	0.192
938	0.191
939	0.19
939	0.189
940	0.189
940	0.188
941	0.188
941	0.188
941	0.187
942	0.187
942	0.187
943	0.186
943	0.186
944	0.186
944	0.186
944	0.186
945	0.186
945	0.186
946	0.186
946	0.186
946	0.186
947	0.187
947	0.187
948	0.187
948	0.187
949	0.186
949	0.186
949	0.186
950	0.185
950	0.185
951	0.185
951	0.184
952	0.183
952	0.183
952	0.182
953	0.182
953	0.182
954	0.181
954	0.181
955	0.181
955	0.18
955	0.18
956	0.18
956	0.18
957	0.18
957	0.18
957	0.179
958	0.179
958	0.179
959	0.178
959	0.178
960	0.178
960	0.177
960	0.177
961	0.176
961	0.175
962	0.175
962	0.175
963	0.175
963	0.175
963	0.175
964	0.175
964	0.175
965	0.175
965	0.175
966	0.176
966	0.176
966	0.176
967	0.176
967	0.176
968	0.176
968	0.176
968	0.176
969	0.175
969	0.174
970	0.174
970	0.173
971	0.172
971	0.172
971	0.171
972	0.17
972	0.17
973	0.169
973	0.169
974	0.169
974	0.169
974	0.169
975	0.169
975	0.169
976	0.169
976	0.169
976	0.169
977	0.169
977	0.169
978	0.169
978	0.169
979	0.168
979	0.168
979	0.168
980	0.167
980	0.167
981	0.166
981	0.165
982	0.165
982	0.164
982	0.164
983	0.163
983	0.162
984	0.162
984	0.161
984	0.161
985	0.161
985	0.161
986	0.161
986	0.16
987	0.16
987	0.16
987	0.16
988	0.16
988	0.159
989	0.159
989	0.159
990	0.158
990	0.158
990	0.157
991	0.156
991	0.156
992	0.155
992	0.154
992	0.152
993	0.152
993	0.151
994	0.15
994	0.149
995	0.148
995	0.147
995	0.147
996	0.147
996	0.147
997	0.148
997	0.148
997	0.149
998	0.149
998	0.15
999	0.151
999	0.152
1000	0.153
1000	0.153
1000	0.154
1001	0.154
1001	0.154
1002	0.154
1002	0.153
1003	0.153
1003	0.152
1003	0.151
1004	0.15
1004	0.149
1005	0.148
1005	0.148
1005	0.147
1006	0.146
1006	0.146
1007	0.145
1007	0.145
1008	0.145
1008	0.145
1008	0.146
1009	0.146
1009	0.146
1010	0.147
1010	0.147
1010	0.147
1011	0.147
1011	0.147
1012	0.146
1012	0.146
1013	0.146
1013	0.146
1013	0.145
1014	0.144
1014	0.144
1015	0.144
1015	0.144
1016	0.144
1016	0.143
1016	0.143
1017	0.142
1017	0.142
1018	0.142
1018	0.142
1018	0.142
1019	0.141
1019	0.141
1020	0.141
1020	0.14
1021	0.14
1021	0.141
1021	0.141
1022	0.141
1022	0.141
1023	0.142
1023	0.142
1023	0.142
1024	0.142
1024	0.142
1025	0.143
1025	0.143
1026	0.142
1026	0.142
1026	0.142
1027	0.142
1027	0.141
1028	0.141
1028	0.141
1028	0.14
1029	0.14
1029	0.14
1030	0.14
1030	0.14
1031	0.139
1031	0.139
1031	0.139
1032	0.139
1032	0.139
1033	0.139
1033	0.139
1033	0.139
1034	0.139
1034	0.138
1035	0.138
1035	0.137
1036	0.137
1036	0.137
1036	0.137
1037	0.137
1037	0.137
1038	0.137
1038	0.137
1039	0.137
1039	0.137
1039	0.137
1040	0.137
1040	0.137
1041	0.137
1041	0.136
1041	0.136
1042	0.136
1042	0.136
1043	0.136
1043	0.135
1044	0.135
1044	0.135
1044	0.135
1045	0.135
1045	0.135
1046	0.135
1046	0.135
1046	0.135
1047	0.135
1047	0.135
1048	0.136
1048	0.136
1049	0.135
1049	0.135
1049	0.135
1050	0.135
1050	0.134
1051	0.134
1051	0.133
1051	0.133
1052	0.132
1052	0.131
1053	0.13
1053	0.128
1053	0.127
1054	0.126
1054	0.126
1055	0.125
1055	0.124
1056	0.124
1056	0.123
1056	0.122
1057	0.122
1057	0.121
1058	0.121
1058	0.12
1058	0.119
1059	0.118
1059	0.118
1060	0.117
1060	0.116
1061	0.116
1061	0.115
1061	0.115
1062	0.114
1062	0.114
1063	0.114
1063	0.114
1063	0.114
1064	0.114
1064	0.114
1065	0.113
1065	0.113
1066	0.112
1066	0.112
1066	0.112
1067	0.111
1067	0.111
1068	0.111
1068	0.11
1068	0.11
1069	0.109
1069	0.108
1070	0.108
1070	0.107
1071	0.107
1071	0.106
1071	0.105
1072	0.104
1072	0.103
1073	0.102
1073	0.102
1073	0.101
1074	0.101
1074	0.102
1075	0.101
1075	0.101
1076	0.102
1076	0.103
1076	0.103
1077	0.103
1077	0.102
1078	0.102
1078	0.102
1078	0.102
1079	0.102
1079	0.101
1080	0.1
1080	0.1
1080	0.099
1081	0.099
1081	0.099
1082	0.099
1082	0.099
1083	0.099
1083	0.099
1083	0.098
1084	0.098
1084	0.099
1085	0.099
1085	0.099
1085	0.098
1086	0.099
1086	0.098
1087	0.098
1087	0.097
1088	0.097
1088	0.097
1088	0.098
1089	0.097
1089	0.096
1090	0.095
1090	0.095
1090	0.094
1091	0.093
1091	0.092
1092	0.092
1092	0.092
1092	0.091
1093	0.091
1093	0.09
1094	0.09
1094	0.09
1095	0.09
1095	0.089
1095	0.09
1096	0.09
1096	0.088
1097	0.088
1097	0.087
1097	0.087
1098	0.086
1098	0.084
1099	0.083
1099	0.082
1100	0.08
1100	0.078
1100	0.076
1101	0.075
1101	0.074
1102	0.073
1102	0.071
1102	0.069
1103	0.068
1103	0.067
1104	0.066
1104	0.065
1104	0.064
1105	0.063
1105	0.061
1106	0.058
1106	0.057
1107	0.056
1107	0.056
1107	0.055
1108	0.054
1108	0.053
1109	0.051
1109	0.051
1109	0.052
1110	0.055
1110	0.055
1111	0.055
1111	0.055
