Data from reversibility-20sec_Absorbance__1113__000000000001113.txt Node

Date: Tue Dec 05 18:24:06 CET 2023
User: Marek
Spectrometer: MAYP115816
Trigger mode: 0
Integration Time (sec): 2.000000E-1
Scans to average: 10
Electric dark correction enabled: true
Nonlinearity correction enabled: true
Boxcar width: 5
XAxis mode: Wavelengths
Number of Pixels in Spectrum: 2068
>>>>>Begin Spectral Data<<<<<
199	-0.189
199	-0.147
200	-0.081
200	-0.026
201	0.002
201	0.019
202	0.034
202	0.046
203	0.054
203	0.061
204	0.072
204	0.087
205	0.1
205	0.106
205	0.106
206	0.105
206	0.104
207	0.108
207	0.103
208	0.102
208	0.098
209	0.103
209	0.098
210	0.097
210	0.099
211	0.097
211	0.099
212	0.099
212	0.1
213	0.106
213	0.108
213	0.108
214	0.11
214	0.115
215	0.116
215	0.114
216	0.116
216	0.115
217	0.12
217	0.121
218	0.117
218	0.12
219	0.123
219	0.125
220	0.128
220	0.129
221	0.132
221	0.135
221	0.141
222	0.144
222	0.149
223	0.156
223	0.16
224	0.166
224	0.173
225	0.178
225	0.187
226	0.195
226	0.207
227	0.214
227	0.223
228	0.235
228	0.249
229	0.266
229	0.289
229	0.312
230	0.342
230	0.372
231	0.405
231	0.442
232	0.481
232	0.527
233	0.572
233	0.623
234	0.671
234	0.725
235	0.776
235	0.828
236	0.882
236	0.935
236	0.986
237	1.042
237	1.091
238	1.142
238	1.193
239	1.247
239	1.292
240	1.337
240	1.375
241	1.417
241	1.457
242	1.493
242	1.532
243	1.569
243	1.599
243	1.628
244	1.654
244	1.68
245	1.7
245	1.728
246	1.749
246	1.77
247	1.786
247	1.803
248	1.821
248	1.84
249	1.852
249	1.863
250	1.872
250	1.884
250	1.889
251	1.895
251	1.9
252	1.91
252	1.912
253	1.915
253	1.912
254	1.913
254	1.916
255	1.916
255	1.919
256	1.921
256	1.92
257	1.923
257	1.922
258	1.922
258	1.923
258	1.926
259	1.928
259	1.928
260	1.93
260	1.934
261	1.936
261	1.944
262	1.948
262	1.953
263	1.96
263	1.964
264	1.967
264	1.97
265	1.976
265	1.98
265	1.982
266	1.986
266	1.987
267	1.986
267	1.99
268	1.992
268	1.998
269	2.004
269	2.006
270	2.007
270	2.007
271	2.006
271	2.007
272	2.004
272	2.003
272	1.996
273	1.987
273	1.975
274	1.965
274	1.957
275	1.949
275	1.942
276	1.934
276	1.926
277	1.919
277	1.908
278	1.897
278	1.885
278	1.869
279	1.849
279	1.821
280	1.785
280	1.743
281	1.695
281	1.641
282	1.588
282	1.536
283	1.486
283	1.438
284	1.392
284	1.348
285	1.309
285	1.273
285	1.243
286	1.215
286	1.192
287	1.172
287	1.155
288	1.139
288	1.127
289	1.116
289	1.108
290	1.1
290	1.094
291	1.088
291	1.083
292	1.078
292	1.075
292	1.071
293	1.068
293	1.065
294	1.062
294	1.059
295	1.056
295	1.054
296	1.051
296	1.048
297	1.046
297	1.043
298	1.04
298	1.038
298	1.036
299	1.034
299	1.032
300	1.029
300	1.027
301	1.025
301	1.023
302	1.02
302	1.018
303	1.016
303	1.014
304	1.012
304	1.01
305	1.008
305	1.005
305	1.003
306	1.001
306	0.999
307	0.997
307	0.994
308	0.992
308	0.989
309	0.986
309	0.983
310	0.98
310	0.978
311	0.975
311	0.971
311	0.968
312	0.965
312	0.961
313	0.958
313	0.954
314	0.95
314	0.946
315	0.942
315	0.937
316	0.933
316	0.929
317	0.924
317	0.919
318	0.914
318	0.909
318	0.904
319	0.898
319	0.893
320	0.887
320	0.881
321	0.875
321	0.869
322	0.862
322	0.856
323	0.85
323	0.843
324	0.837
324	0.83
324	0.823
325	0.816
325	0.809
326	0.802
326	0.795
327	0.788
327	0.781
328	0.774
328	0.766
329	0.759
329	0.752
330	0.744
330	0.737
330	0.729
331	0.722
331	0.715
332	0.708
332	0.701
333	0.693
333	0.686
334	0.679
334	0.672
335	0.665
335	0.658
336	0.651
336	0.644
336	0.637
337	0.631
337	0.624
338	0.618
338	0.611
339	0.605
339	0.599
340	0.593
340	0.587
341	0.581
341	0.575
342	0.569
342	0.563
342	0.558
343	0.552
343	0.547
344	0.542
344	0.537
345	0.532
345	0.527
346	0.522
346	0.518
347	0.513
347	0.509
348	0.505
348	0.501
348	0.497
349	0.493
349	0.489
350	0.485
350	0.481
351	0.478
351	0.474
352	0.471
352	0.468
353	0.465
353	0.461
354	0.458
354	0.455
354	0.452
355	0.449
355	0.446
356	0.443
356	0.44
357	0.437
357	0.434
358	0.431
358	0.429
359	0.426
359	0.424
360	0.422
360	0.42
360	0.417
361	0.415
361	0.413
362	0.412
362	0.41
363	0.408
363	0.406
364	0.404
364	0.402
365	0.4
365	0.398
366	0.396
366	0.394
366	0.393
367	0.391
367	0.389
368	0.387
368	0.386
369	0.384
369	0.382
370	0.381
370	0.379
371	0.378
371	0.376
372	0.375
372	0.373
372	0.372
373	0.371
373	0.37
374	0.369
374	0.367
375	0.366
375	0.365
376	0.365
376	0.364
377	0.363
377	0.362
378	0.361
378	0.36
378	0.359
379	0.358
379	0.357
380	0.356
380	0.355
381	0.354
381	0.353
382	0.353
382	0.352
383	0.351
383	0.35
383	0.35
384	0.349
384	0.348
385	0.348
385	0.347
386	0.346
386	0.346
387	0.345
387	0.344
388	0.344
388	0.343
389	0.342
389	0.342
389	0.341
390	0.341
390	0.34
391	0.34
391	0.339
392	0.339
392	0.339
393	0.338
393	0.337
394	0.337
394	0.337
394	0.336
395	0.336
395	0.335
396	0.335
396	0.334
397	0.333
397	0.333
398	0.332
398	0.332
399	0.331
399	0.331
400	0.33
400	0.33
400	0.33
401	0.329
401	0.329
402	0.328
402	0.328
403	0.328
403	0.327
404	0.327
404	0.327
405	0.327
405	0.326
405	0.326
406	0.325
406	0.325
407	0.324
407	0.324
408	0.324
408	0.323
409	0.323
409	0.322
410	0.322
410	0.321
411	0.321
411	0.321
411	0.321
412	0.32
412	0.32
413	0.319
413	0.319
414	0.319
414	0.318
415	0.318
415	0.317
416	0.317
416	0.317
416	0.316
417	0.315
417	0.315
418	0.315
418	0.315
419	0.314
419	0.314
420	0.313
420	0.313
421	0.313
421	0.312
421	0.312
422	0.312
422	0.311
423	0.311
423	0.31
424	0.31
424	0.309
425	0.309
425	0.308
426	0.308
426	0.308
427	0.307
427	0.307
427	0.307
428	0.307
428	0.306
429	0.306
429	0.306
430	0.305
430	0.305
431	0.305
431	0.304
432	0.304
432	0.304
432	0.303
433	0.303
433	0.303
434	0.302
434	0.302
435	0.302
435	0.302
436	0.302
436	0.302
437	0.301
437	0.301
437	0.301
438	0.301
438	0.3
439	0.3
439	0.3
440	0.3
440	0.299
441	0.299
441	0.299
442	0.298
442	0.298
442	0.298
443	0.298
443	0.298
444	0.297
444	0.297
445	0.297
445	0.297
446	0.297
446	0.296
447	0.296
447	0.296
447	0.296
448	0.295
448	0.295
449	0.295
449	0.294
450	0.294
450	0.294
451	0.294
451	0.293
452	0.293
452	0.293
452	0.293
453	0.293
453	0.293
454	0.293
454	0.292
455	0.292
455	0.292
456	0.292
456	0.291
457	0.291
457	0.291
458	0.29
458	0.29
458	0.29
459	0.29
459	0.289
460	0.289
460	0.289
461	0.289
461	0.288
462	0.288
462	0.288
463	0.288
463	0.287
463	0.287
464	0.287
464	0.287
465	0.286
465	0.286
466	0.286
466	0.286
467	0.286
467	0.286
467	0.286
468	0.286
468	0.286
469	0.286
469	0.286
470	0.286
470	0.286
471	0.286
471	0.286
472	0.286
472	0.286
472	0.286
473	0.286
473	0.286
474	0.286
474	0.285
475	0.285
475	0.285
476	0.285
476	0.286
477	0.286
477	0.286
477	0.286
478	0.286
478	0.286
479	0.286
479	0.286
480	0.286
480	0.287
481	0.287
481	0.287
482	0.287
482	0.287
482	0.287
483	0.287
483	0.288
484	0.288
484	0.288
485	0.288
485	0.288
486	0.288
486	0.288
487	0.289
487	0.289
487	0.289
488	0.289
488	0.29
489	0.29
489	0.291
490	0.291
490	0.292
491	0.293
491	0.293
492	0.293
492	0.294
492	0.294
493	0.295
493	0.296
494	0.296
494	0.297
495	0.297
495	0.298
496	0.299
496	0.299
496	0.3
497	0.3
497	0.301
498	0.301
498	0.302
499	0.302
499	0.303
500	0.304
500	0.304
501	0.305
501	0.305
501	0.306
502	0.306
502	0.306
503	0.307
503	0.308
504	0.308
504	0.309
505	0.309
505	0.31
506	0.31
506	0.311
506	0.311
507	0.312
507	0.312
508	0.313
508	0.313
509	0.314
509	0.314
510	0.315
510	0.316
511	0.316
511	0.317
511	0.318
512	0.318
512	0.319
513	0.319
513	0.32
514	0.32
514	0.321
515	0.321
515	0.322
515	0.322
516	0.323
516	0.323
517	0.324
517	0.324
518	0.324
518	0.325
519	0.325
519	0.325
520	0.325
520	0.326
520	0.326
521	0.326
521	0.326
522	0.326
522	0.326
523	0.326
523	0.327
524	0.327
524	0.327
524	0.327
525	0.328
525	0.328
526	0.328
526	0.328
527	0.328
527	0.328
528	0.328
528	0.327
529	0.327
529	0.327
529	0.326
530	0.326
530	0.326
531	0.326
531	0.326
532	0.325
532	0.325
533	0.325
533	0.325
533	0.325
534	0.324
534	0.324
535	0.324
535	0.324
536	0.323
536	0.323
537	0.323
537	0.322
538	0.322
538	0.321
538	0.32
539	0.32
539	0.32
540	0.319
540	0.318
541	0.318
541	0.317
542	0.317
542	0.316
542	0.316
543	0.315
543	0.315
544	0.314
544	0.314
545	0.313
545	0.313
546	0.313
546	0.312
547	0.311
547	0.31
547	0.31
548	0.309
548	0.309
549	0.308
549	0.307
550	0.307
550	0.306
551	0.305
551	0.304
551	0.304
552	0.303
552	0.302
553	0.301
553	0.301
554	0.3
554	0.299
555	0.298
555	0.297
556	0.296
556	0.296
556	0.295
557	0.295
557	0.295
558	0.295
558	0.294
559	0.294
559	0.294
560	0.294
560	0.293
560	0.293
561	0.292
561	0.292
562	0.291
562	0.29
563	0.289
563	0.288
564	0.287
564	0.286
564	0.286
565	0.285
565	0.285
566	0.284
566	0.283
567	0.283
567	0.283
568	0.282
568	0.282
568	0.282
569	0.281
569	0.281
570	0.28
570	0.279
571	0.279
571	0.278
572	0.277
572	0.277
573	0.276
573	0.276
573	0.275
574	0.274
574	0.274
575	0.273
575	0.273
576	0.273
576	0.272
577	0.271
577	0.27
577	0.27
578	0.27
578	0.269
579	0.269
579	0.269
580	0.269
580	0.268
581	0.267
581	0.266
581	0.266
582	0.267
582	0.266
583	0.266
583	0.266
584	0.264
584	0.263
585	0.263
585	0.262
585	0.262
586	0.261
586	0.26
587	0.259
587	0.258
588	0.257
588	0.256
589	0.256
589	0.256
590	0.255
590	0.255
590	0.256
591	0.256
591	0.255
592	0.255
592	0.255
593	0.254
593	0.254
594	0.253
594	0.253
594	0.252
595	0.252
595	0.251
596	0.25
596	0.251
597	0.251
597	0.251
598	0.251
598	0.251
598	0.251
599	0.251
599	0.25
600	0.249
600	0.249
601	0.248
601	0.248
602	0.247
602	0.246
602	0.246
603	0.245
603	0.245
604	0.245
604	0.245
605	0.245
605	0.244
606	0.244
606	0.243
606	0.243
607	0.243
607	0.242
608	0.242
608	0.241
609	0.24
609	0.24
610	0.24
610	0.239
610	0.239
611	0.239
611	0.239
612	0.239
612	0.239
613	0.239
613	0.238
614	0.238
614	0.237
614	0.237
615	0.237
615	0.237
616	0.237
616	0.236
617	0.236
617	0.235
618	0.235
618	0.235
618	0.235
619	0.235
619	0.235
620	0.235
620	0.235
621	0.235
621	0.234
622	0.234
622	0.234
622	0.233
623	0.232
623	0.232
624	0.232
624	0.231
625	0.231
625	0.231
626	0.23
626	0.23
626	0.23
627	0.23
627	0.229
628	0.229
628	0.229
629	0.229
629	0.228
630	0.228
630	0.227
630	0.227
631	0.227
631	0.227
632	0.227
632	0.227
633	0.227
633	0.227
634	0.227
634	0.228
634	0.227
635	0.227
635	0.227
636	0.227
636	0.227
637	0.226
637	0.226
638	0.225
638	0.225
638	0.224
639	0.224
639	0.223
640	0.223
640	0.223
641	0.223
641	0.222
642	0.222
642	0.222
642	0.222
643	0.222
643	0.222
644	0.222
644	0.222
645	0.222
645	0.222
646	0.222
646	0.222
646	0.222
647	0.221
647	0.221
648	0.221
648	0.22
649	0.22
649	0.22
650	0.22
650	0.22
650	0.22
651	0.22
651	0.22
652	0.22
652	0.22
653	0.22
653	0.222
653	0.23
654	0.179
654	0.142
655	0.144
655	0.145
656	0.145
656	0.145
657	0.146
657	0.146
657	0.145
658	0.144
658	0.132
659	0.167
659	0.217
660	0.22
660	0.22
661	0.219
661	0.219
661	0.219
662	0.218
662	0.218
663	0.218
663	0.218
664	0.217
664	0.217
665	0.217
665	0.217
665	0.217
666	0.217
666	0.217
667	0.218
667	0.218
668	0.218
668	0.218
669	0.218
669	0.218
669	0.218
670	0.219
670	0.218
671	0.218
671	0.218
672	0.218
672	0.218
672	0.218
673	0.217
673	0.218
674	0.217
674	0.217
675	0.216
675	0.216
676	0.217
676	0.217
676	0.217
677	0.217
677	0.217
678	0.217
678	0.216
679	0.216
679	0.217
680	0.217
680	0.217
680	0.217
681	0.217
681	0.217
682	0.218
682	0.218
683	0.219
683	0.22
684	0.22
684	0.22
684	0.22
685	0.22
685	0.221
686	0.221
686	0.221
687	0.221
687	0.22
687	0.22
688	0.22
688	0.22
689	0.22
689	0.221
690	0.22
690	0.22
691	0.22
691	0.221
691	0.221
692	0.221
692	0.221
693	0.222
693	0.222
694	0.222
694	0.222
695	0.223
695	0.224
695	0.225
696	0.225
696	0.225
697	0.225
697	0.225
698	0.224
698	0.224
698	0.224
699	0.224
699	0.223
700	0.223
700	0.223
701	0.223
701	0.223
702	0.223
702	0.223
702	0.224
703	0.224
703	0.223
704	0.223
704	0.223
705	0.223
705	0.223
705	0.222
706	0.222
706	0.223
707	0.222
707	0.222
708	0.223
708	0.223
709	0.223
709	0.223
709	0.223
710	0.223
710	0.223
711	0.223
711	0.223
712	0.223
712	0.224
713	0.224
713	0.224
713	0.225
714	0.225
714	0.225
715	0.225
715	0.224
716	0.224
716	0.224
716	0.223
717	0.223
717	0.222
718	0.222
718	0.221
719	0.222
719	0.222
720	0.222
720	0.222
720	0.223
721	0.223
721	0.223
722	0.224
722	0.224
723	0.225
723	0.226
723	0.226
724	0.226
724	0.225
725	0.225
725	0.224
726	0.224
726	0.224
727	0.223
727	0.223
727	0.223
728	0.223
728	0.223
729	0.223
729	0.223
730	0.223
730	0.223
730	0.224
731	0.224
731	0.224
732	0.225
732	0.225
733	0.225
733	0.225
734	0.225
734	0.225
734	0.225
735	0.225
735	0.225
736	0.225
736	0.225
737	0.225
737	0.225
737	0.225
738	0.224
738	0.224
739	0.224
739	0.223
740	0.223
740	0.223
741	0.224
741	0.224
741	0.223
742	0.223
742	0.223
743	0.224
743	0.224
744	0.225
744	0.225
744	0.225
745	0.225
745	0.225
746	0.225
746	0.225
747	0.225
747	0.226
748	0.226
748	0.226
748	0.226
749	0.226
749	0.226
750	0.227
750	0.226
751	0.226
751	0.226
751	0.227
752	0.226
752	0.226
753	0.226
753	0.225
754	0.226
754	0.226
754	0.226
755	0.226
755	0.226
756	0.226
756	0.224
757	0.224
757	0.223
758	0.223
758	0.223
758	0.223
759	0.223
759	0.222
760	0.222
760	0.222
761	0.223
761	0.224
761	0.225
762	0.226
762	0.226
763	0.227
763	0.227
764	0.227
764	0.227
764	0.227
765	0.226
765	0.226
766	0.225
766	0.225
767	0.224
767	0.223
768	0.221
768	0.221
768	0.221
769	0.22
769	0.22
770	0.22
770	0.22
771	0.221
771	0.221
771	0.221
772	0.222
772	0.223
773	0.224
773	0.224
774	0.225
774	0.226
775	0.226
775	0.227
775	0.227
776	0.228
776	0.228
777	0.228
777	0.228
778	0.228
778	0.227
778	0.227
779	0.227
779	0.226
780	0.225
780	0.225
781	0.224
781	0.224
781	0.224
782	0.223
782	0.223
783	0.223
783	0.224
784	0.224
784	0.224
784	0.224
785	0.224
785	0.225
786	0.225
786	0.225
787	0.226
787	0.226
788	0.225
788	0.225
788	0.225
789	0.225
789	0.225
790	0.225
790	0.225
791	0.225
791	0.225
791	0.225
792	0.226
792	0.226
793	0.226
793	0.226
794	0.226
794	0.226
794	0.225
795	0.225
795	0.225
796	0.225
796	0.225
797	0.225
797	0.225
797	0.225
798	0.225
798	0.225
799	0.225
799	0.225
800	0.225
800	0.225
801	0.225
801	0.225
801	0.225
802	0.225
802	0.225
803	0.226
803	0.226
804	0.227
804	0.227
804	0.228
805	0.228
805	0.228
806	0.228
806	0.227
807	0.227
807	0.227
807	0.226
808	0.226
808	0.226
809	0.226
809	0.226
810	0.226
810	0.226
810	0.225
811	0.225
811	0.226
812	0.226
812	0.227
813	0.227
813	0.227
813	0.227
814	0.228
814	0.228
815	0.229
815	0.229
816	0.229
816	0.229
817	0.229
817	0.229
817	0.229
818	0.228
818	0.228
819	0.227
819	0.227
820	0.226
820	0.225
820	0.225
821	0.225
821	0.224
822	0.224
822	0.224
823	0.224
823	0.224
823	0.224
824	0.225
824	0.226
825	0.227
825	0.228
826	0.229
826	0.229
826	0.229
827	0.229
827	0.229
828	0.229
828	0.229
829	0.229
829	0.228
829	0.228
830	0.227
830	0.227
831	0.228
831	0.228
832	0.228
832	0.228
832	0.229
833	0.229
833	0.229
834	0.229
834	0.229
835	0.229
835	0.229
835	0.229
836	0.229
836	0.229
837	0.229
837	0.229
838	0.229
838	0.228
839	0.227
839	0.226
839	0.225
840	0.224
840	0.223
841	0.222
841	0.22
842	0.22
842	0.219
842	0.218
843	0.218
843	0.218
844	0.218
844	0.218
845	0.218
845	0.218
845	0.218
846	0.218
846	0.218
847	0.219
847	0.219
848	0.219
848	0.22
848	0.22
849	0.221
849	0.221
850	0.221
850	0.221
851	0.221
851	0.221
851	0.221
852	0.221
852	0.22
853	0.22
853	0.219
854	0.219
854	0.219
854	0.219
855	0.219
855	0.219
856	0.219
856	0.219
857	0.219
857	0.219
857	0.219
858	0.219
858	0.218
859	0.217
859	0.216
860	0.214
860	0.213
860	0.212
861	0.211
861	0.21
862	0.209
862	0.208
863	0.207
863	0.207
863	0.206
864	0.206
864	0.206
865	0.207
865	0.207
866	0.207
866	0.206
866	0.206
867	0.206
867	0.206
868	0.206
868	0.206
869	0.206
869	0.205
869	0.205
870	0.204
870	0.204
871	0.204
871	0.204
872	0.204
872	0.204
872	0.204
873	0.204
873	0.204
874	0.203
874	0.203
875	0.203
875	0.203
875	0.203
876	0.202
876	0.202
877	0.202
877	0.203
878	0.203
878	0.204
878	0.205
879	0.206
879	0.207
880	0.207
880	0.207
881	0.207
881	0.207
881	0.207
882	0.206
882	0.205
883	0.204
883	0.203
884	0.202
884	0.201
884	0.199
885	0.198
885	0.197
886	0.196
886	0.195
887	0.195
887	0.194
887	0.193
888	0.193
888	0.192
889	0.192
889	0.192
890	0.192
890	0.192
890	0.192
891	0.192
891	0.192
892	0.193
892	0.193
893	0.193
893	0.194
893	0.194
894	0.194
894	0.194
895	0.193
895	0.193
895	0.193
896	0.192
896	0.192
897	0.191
897	0.191
898	0.19
898	0.189
898	0.189
899	0.188
899	0.188
900	0.188
900	0.187
901	0.187
901	0.187
901	0.187
902	0.186
902	0.186
903	0.186
903	0.185
904	0.184
904	0.184
904	0.183
905	0.182
905	0.181
906	0.181
906	0.181
907	0.181
907	0.182
907	0.182
908	0.182
908	0.183
909	0.183
909	0.184
910	0.184
910	0.184
910	0.184
911	0.184
911	0.183
912	0.182
912	0.182
913	0.181
913	0.18
913	0.18
914	0.18
914	0.179
915	0.178
915	0.178
916	0.177
916	0.177
916	0.176
917	0.175
917	0.174
918	0.173
918	0.172
918	0.171
919	0.17
919	0.169
920	0.169
920	0.168
921	0.168
921	0.167
921	0.167
922	0.167
922	0.167
923	0.167
923	0.167
924	0.168
924	0.168
924	0.168
925	0.168
925	0.168
926	0.167
926	0.167
927	0.167
927	0.167
927	0.166
928	0.166
928	0.166
929	0.166
929	0.165
930	0.165
930	0.164
930	0.164
931	0.164
931	0.164
932	0.163
932	0.163
933	0.163
933	0.163
933	0.162
934	0.162
934	0.162
935	0.162
935	0.161
935	0.161
936	0.161
936	0.16
937	0.16
937	0.159
938	0.159
938	0.158
938	0.157
939	0.157
939	0.157
940	0.156
940	0.156
941	0.156
941	0.156
941	0.156
942	0.156
942	0.156
943	0.155
943	0.155
944	0.155
944	0.154
944	0.154
945	0.153
945	0.153
946	0.153
946	0.152
946	0.152
947	0.152
947	0.152
948	0.151
948	0.151
949	0.151
949	0.15
949	0.15
950	0.15
950	0.149
951	0.149
951	0.148
952	0.147
952	0.147
952	0.146
953	0.145
953	0.144
954	0.143
954	0.143
955	0.142
955	0.141
955	0.141
956	0.141
956	0.141
957	0.141
957	0.141
957	0.142
958	0.142
958	0.143
959	0.143
959	0.143
960	0.143
960	0.143
960	0.143
961	0.143
961	0.143
962	0.142
962	0.142
963	0.141
963	0.141
963	0.14
964	0.14
964	0.139
965	0.139
965	0.138
966	0.138
966	0.138
966	0.138
967	0.138
967	0.138
968	0.138
968	0.139
968	0.138
969	0.138
969	0.138
970	0.138
970	0.138
971	0.138
971	0.137
971	0.137
972	0.137
972	0.136
973	0.136
973	0.136
974	0.136
974	0.136
974	0.136
975	0.136
975	0.136
976	0.136
976	0.136
976	0.136
977	0.136
977	0.136
978	0.136
978	0.136
979	0.136
979	0.136
979	0.135
980	0.135
980	0.134
981	0.134
981	0.133
982	0.133
982	0.133
982	0.132
983	0.132
983	0.131
984	0.131
984	0.13
984	0.129
985	0.128
985	0.128
986	0.127
986	0.126
987	0.125
987	0.124
987	0.124
988	0.123
988	0.123
989	0.122
989	0.122
990	0.121
990	0.121
990	0.12
991	0.12
991	0.12
992	0.119
992	0.118
992	0.117
993	0.117
993	0.116
994	0.115
994	0.115
995	0.114
995	0.114
995	0.114
996	0.114
996	0.114
997	0.114
997	0.114
997	0.115
998	0.115
998	0.116
999	0.116
999	0.117
1000	0.118
1000	0.119
1000	0.119
1001	0.119
1001	0.12
1002	0.12
1002	0.12
1003	0.121
1003	0.121
1003	0.121
1004	0.12
1004	0.12
1005	0.12
1005	0.12
1005	0.119
1006	0.119
1006	0.119
1007	0.118
1007	0.118
1008	0.117
1008	0.117
1008	0.117
1009	0.116
1009	0.116
1010	0.116
1010	0.115
1010	0.115
1011	0.115
1011	0.114
1012	0.114
1012	0.114
1013	0.113
1013	0.113
1013	0.112
1014	0.112
1014	0.111
1015	0.111
1015	0.11
1016	0.11
1016	0.109
1016	0.109
1017	0.108
1017	0.107
1018	0.107
1018	0.106
1018	0.106
1019	0.105
1019	0.105
1020	0.105
1020	0.104
1021	0.104
1021	0.104
1021	0.104
1022	0.103
1022	0.103
1023	0.103
1023	0.103
1023	0.103
1024	0.103
1024	0.103
1025	0.102
1025	0.102
1026	0.102
1026	0.101
1026	0.101
1027	0.101
1027	0.1
1028	0.1
1028	0.1
1028	0.1
1029	0.1
1029	0.1
1030	0.1
1030	0.1
1031	0.1
1031	0.101
1031	0.101
1032	0.101
1032	0.101
1033	0.101
1033	0.1
1033	0.1
1034	0.1
1034	0.099
1035	0.099
1035	0.098
1036	0.098
1036	0.098
1036	0.098
1037	0.098
1037	0.098
1038	0.097
1038	0.098
1039	0.097
1039	0.097
1039	0.098
1040	0.098
1040	0.098
1041	0.098
1041	0.098
1041	0.098
1042	0.098
1042	0.098
1043	0.098
1043	0.098
1044	0.098
1044	0.098
1044	0.098
1045	0.099
1045	0.099
1046	0.099
1046	0.099
1046	0.099
1047	0.099
1047	0.1
1048	0.1
1048	0.101
1049	0.101
1049	0.101
1049	0.101
1050	0.101
1050	0.101
1051	0.101
1051	0.1
1051	0.1
1052	0.099
1052	0.098
1053	0.097
1053	0.096
1053	0.095
1054	0.094
1054	0.093
1055	0.093
1055	0.092
1056	0.091
1056	0.091
1056	0.09
1057	0.089
1057	0.089
1058	0.088
1058	0.087
1058	0.086
1059	0.085
1059	0.085
1060	0.084
1060	0.084
1061	0.083
1061	0.083
1061	0.083
1062	0.083
1062	0.083
1063	0.083
1063	0.083
1063	0.083
1064	0.082
1064	0.083
1065	0.083
1065	0.083
1066	0.083
1066	0.083
1066	0.083
1067	0.083
1067	0.083
1068	0.083
1068	0.083
1068	0.082
1069	0.082
1069	0.081
1070	0.08
1070	0.079
1071	0.078
1071	0.077
1071	0.076
1072	0.075
1072	0.074
1073	0.073
1073	0.072
1073	0.072
1074	0.072
1074	0.072
1075	0.072
1075	0.072
1076	0.073
1076	0.073
1076	0.074
1077	0.074
1077	0.074
1078	0.075
1078	0.075
1078	0.075
1079	0.074
1079	0.074
1080	0.073
1080	0.073
1080	0.073
1081	0.073
1081	0.073
1082	0.073
1082	0.073
1083	0.073
1083	0.073
1083	0.073
1084	0.073
1084	0.073
1085	0.073
1085	0.072
1085	0.072
1086	0.072
1086	0.071
1087	0.07
1087	0.07
1088	0.069
1088	0.069
1088	0.069
1089	0.068
1089	0.067
1090	0.066
1090	0.065
1090	0.065
1091	0.064
1091	0.064
1092	0.064
1092	0.064
1092	0.064
1093	0.063
1093	0.064
1094	0.064
1094	0.064
1095	0.063
1095	0.063
1095	0.063
1096	0.063
1096	0.061
1097	0.061
1097	0.06
1097	0.059
1098	0.058
1098	0.057
1099	0.055
1099	0.055
1100	0.053
1100	0.052
1100	0.05
1101	0.049
1101	0.048
1102	0.047
1102	0.046
1102	0.045
1103	0.044
1103	0.044
1104	0.044
1104	0.044
1104	0.044
1105	0.044
1105	0.042
1106	0.04
1106	0.037
1107	0.036
1107	0.036
1107	0.036
1108	0.035
1108	0.033
1109	0.031
1109	0.03
1109	0.03
1110	0.032
1110	0.033
1111	0.035
1111	0.038
