Data from reversibility-20sec_Absorbance__3898__000000000003898.txt Node

Date: Wed Dec 06 09:52:26 CET 2023
User: Marek
Spectrometer: MAYP115816
Trigger mode: 0
Integration Time (sec): 2.000000E-1
Scans to average: 10
Electric dark correction enabled: true
Nonlinearity correction enabled: true
Boxcar width: 5
XAxis mode: Wavelengths
Number of Pixels in Spectrum: 2068
>>>>>Begin Spectral Data<<<<<
199	-0.059
199	-0.039
200	0.02
200	0.069
201	0.092
201	0.106
202	0.121
202	0.126
203	0.133
203	0.135
204	0.146
204	0.158
205	0.168
205	0.175
205	0.172
206	0.17
206	0.169
207	0.168
207	0.166
208	0.164
208	0.164
209	0.164
209	0.16
210	0.161
210	0.161
211	0.162
211	0.167
212	0.168
212	0.169
213	0.176
213	0.178
213	0.177
214	0.184
214	0.187
215	0.192
215	0.192
216	0.195
216	0.194
217	0.196
217	0.198
218	0.196
218	0.202
219	0.205
219	0.204
220	0.206
220	0.202
221	0.198
221	0.2
221	0.205
222	0.212
222	0.216
223	0.223
223	0.223
224	0.232
224	0.241
225	0.25
225	0.265
226	0.28
226	0.289
227	0.3
227	0.306
228	0.323
228	0.335
229	0.352
229	0.375
229	0.397
230	0.418
230	0.443
231	0.474
231	0.514
232	0.549
232	0.594
233	0.637
233	0.686
234	0.738
234	0.788
235	0.841
235	0.897
236	0.948
236	1.003
236	1.052
237	1.103
237	1.152
238	1.198
238	1.245
239	1.292
239	1.333
240	1.372
240	1.41
241	1.444
241	1.474
242	1.505
242	1.541
243	1.568
243	1.594
243	1.619
244	1.639
244	1.662
245	1.681
245	1.701
246	1.72
246	1.741
247	1.755
247	1.762
248	1.775
248	1.787
249	1.795
249	1.798
250	1.802
250	1.807
250	1.808
251	1.811
251	1.809
252	1.81
252	1.81
253	1.809
253	1.806
254	1.804
254	1.805
255	1.803
255	1.803
256	1.802
256	1.8
257	1.798
257	1.796
258	1.798
258	1.798
258	1.798
259	1.798
259	1.796
260	1.795
260	1.796
261	1.797
261	1.798
262	1.8
262	1.802
263	1.804
263	1.806
264	1.807
264	1.808
265	1.81
265	1.812
265	1.812
266	1.812
266	1.812
267	1.811
267	1.812
268	1.809
268	1.808
269	1.81
269	1.81
270	1.809
270	1.807
271	1.806
271	1.805
272	1.802
272	1.799
272	1.795
273	1.79
273	1.782
274	1.774
274	1.766
275	1.756
275	1.75
276	1.74
276	1.732
277	1.724
277	1.713
278	1.7
278	1.686
278	1.671
279	1.653
279	1.631
280	1.604
280	1.571
281	1.533
281	1.489
282	1.445
282	1.401
283	1.358
283	1.316
284	1.276
284	1.237
285	1.201
285	1.169
285	1.14
286	1.114
286	1.093
287	1.073
287	1.057
288	1.043
288	1.031
289	1.021
289	1.013
290	1.005
290	0.999
291	0.993
291	0.988
292	0.984
292	0.98
292	0.976
293	0.973
293	0.97
294	0.967
294	0.965
295	0.962
295	0.959
296	0.957
296	0.954
297	0.951
297	0.948
298	0.945
298	0.943
298	0.94
299	0.938
299	0.935
300	0.932
300	0.93
301	0.927
301	0.925
302	0.923
302	0.921
303	0.919
303	0.917
304	0.914
304	0.913
305	0.911
305	0.909
305	0.907
306	0.904
306	0.903
307	0.9
307	0.898
308	0.896
308	0.894
309	0.891
309	0.888
310	0.886
310	0.883
311	0.88
311	0.877
311	0.873
312	0.87
312	0.867
313	0.863
313	0.86
314	0.856
314	0.852
315	0.848
315	0.844
316	0.84
316	0.836
317	0.831
317	0.826
318	0.822
318	0.817
318	0.812
319	0.807
319	0.802
320	0.796
320	0.791
321	0.785
321	0.779
322	0.773
322	0.767
323	0.76
323	0.754
324	0.748
324	0.741
324	0.735
325	0.728
325	0.722
326	0.715
326	0.708
327	0.701
327	0.695
328	0.688
328	0.681
329	0.674
329	0.667
330	0.66
330	0.654
330	0.647
331	0.64
331	0.633
332	0.627
332	0.62
333	0.613
333	0.606
334	0.6
334	0.593
335	0.586
335	0.579
336	0.573
336	0.566
336	0.56
337	0.554
337	0.548
338	0.541
338	0.535
339	0.529
339	0.523
340	0.518
340	0.512
341	0.507
341	0.501
342	0.496
342	0.491
342	0.486
343	0.481
343	0.476
344	0.471
344	0.466
345	0.462
345	0.457
346	0.453
346	0.448
347	0.444
347	0.44
348	0.436
348	0.432
348	0.428
349	0.424
349	0.421
350	0.418
350	0.414
351	0.411
351	0.408
352	0.405
352	0.402
353	0.399
353	0.396
354	0.393
354	0.39
354	0.387
355	0.385
355	0.382
356	0.379
356	0.376
357	0.373
357	0.37
358	0.368
358	0.365
359	0.363
359	0.36
360	0.359
360	0.357
360	0.355
361	0.353
361	0.351
362	0.35
362	0.348
363	0.347
363	0.345
364	0.343
364	0.342
365	0.34
365	0.338
366	0.336
366	0.335
366	0.333
367	0.331
367	0.33
368	0.328
368	0.326
369	0.325
369	0.324
370	0.322
370	0.321
371	0.32
371	0.318
372	0.317
372	0.316
372	0.315
373	0.314
373	0.313
374	0.312
374	0.311
375	0.31
375	0.309
376	0.309
376	0.308
377	0.307
377	0.306
378	0.305
378	0.304
378	0.303
379	0.302
379	0.301
380	0.301
380	0.3
381	0.299
381	0.298
382	0.298
382	0.297
383	0.297
383	0.296
383	0.296
384	0.295
384	0.295
385	0.294
385	0.294
386	0.293
386	0.293
387	0.293
387	0.292
388	0.292
388	0.291
389	0.291
389	0.291
389	0.29
390	0.29
390	0.289
391	0.289
391	0.288
392	0.288
392	0.288
393	0.287
393	0.287
394	0.287
394	0.286
394	0.286
395	0.286
395	0.286
396	0.285
396	0.285
397	0.285
397	0.284
398	0.284
398	0.284
399	0.283
399	0.283
400	0.283
400	0.282
400	0.282
401	0.282
401	0.281
402	0.281
402	0.281
403	0.28
403	0.28
404	0.28
404	0.279
405	0.279
405	0.279
405	0.279
406	0.278
406	0.278
407	0.278
407	0.278
408	0.277
408	0.277
409	0.276
409	0.276
410	0.276
410	0.276
411	0.275
411	0.275
411	0.275
412	0.275
412	0.275
413	0.274
413	0.274
414	0.274
414	0.273
415	0.273
415	0.273
416	0.272
416	0.272
416	0.272
417	0.271
417	0.271
418	0.271
418	0.271
419	0.27
419	0.27
420	0.27
420	0.269
421	0.269
421	0.269
421	0.268
422	0.268
422	0.268
423	0.267
423	0.267
424	0.267
424	0.266
425	0.266
425	0.266
426	0.266
426	0.265
427	0.265
427	0.264
427	0.264
428	0.264
428	0.263
429	0.263
429	0.263
430	0.262
430	0.262
431	0.262
431	0.262
432	0.262
432	0.261
432	0.261
433	0.261
433	0.261
434	0.26
434	0.26
435	0.26
435	0.26
436	0.26
436	0.26
437	0.26
437	0.26
437	0.26
438	0.259
438	0.259
439	0.259
439	0.259
440	0.258
440	0.258
441	0.258
441	0.258
442	0.257
442	0.257
442	0.257
443	0.256
443	0.256
444	0.256
444	0.256
445	0.256
445	0.255
446	0.255
446	0.255
447	0.255
447	0.254
447	0.254
448	0.254
448	0.254
449	0.254
449	0.254
450	0.254
450	0.254
451	0.253
451	0.253
452	0.253
452	0.253
452	0.253
453	0.253
453	0.253
454	0.253
454	0.252
455	0.252
455	0.252
456	0.252
456	0.251
457	0.251
457	0.251
458	0.25
458	0.25
458	0.25
459	0.25
459	0.25
460	0.25
460	0.25
461	0.25
461	0.25
462	0.249
462	0.249
463	0.249
463	0.249
463	0.248
464	0.248
464	0.247
465	0.247
465	0.247
466	0.247
466	0.247
467	0.247
467	0.247
467	0.247
468	0.247
468	0.247
469	0.247
469	0.247
470	0.248
470	0.247
471	0.247
471	0.247
472	0.247
472	0.247
472	0.247
473	0.247
473	0.248
474	0.247
474	0.247
475	0.247
475	0.247
476	0.247
476	0.247
477	0.247
477	0.247
477	0.247
478	0.247
478	0.247
479	0.248
479	0.248
480	0.248
480	0.248
481	0.248
481	0.248
482	0.248
482	0.249
482	0.249
483	0.249
483	0.25
484	0.25
484	0.25
485	0.25
485	0.25
486	0.25
486	0.25
487	0.25
487	0.25
487	0.25
488	0.25
488	0.251
489	0.251
489	0.252
490	0.252
490	0.253
491	0.254
491	0.254
492	0.255
492	0.256
492	0.256
493	0.257
493	0.257
494	0.258
494	0.259
495	0.259
495	0.259
496	0.26
496	0.26
496	0.261
497	0.261
497	0.261
498	0.262
498	0.262
499	0.263
499	0.264
500	0.264
500	0.265
501	0.265
501	0.266
501	0.266
502	0.267
502	0.267
503	0.268
503	0.268
504	0.269
504	0.269
505	0.27
505	0.271
506	0.271
506	0.272
506	0.273
507	0.273
507	0.274
508	0.274
508	0.275
509	0.275
509	0.275
510	0.276
510	0.276
511	0.277
511	0.277
511	0.278
512	0.278
512	0.278
513	0.279
513	0.28
514	0.28
514	0.281
515	0.281
515	0.282
515	0.282
516	0.283
516	0.283
517	0.284
517	0.284
518	0.285
518	0.285
519	0.285
519	0.285
520	0.286
520	0.286
520	0.286
521	0.286
521	0.286
522	0.286
522	0.287
523	0.287
523	0.287
524	0.288
524	0.288
524	0.288
525	0.289
525	0.288
526	0.288
526	0.289
527	0.289
527	0.289
528	0.288
528	0.289
529	0.288
529	0.288
529	0.288
530	0.288
530	0.288
531	0.288
531	0.287
532	0.287
532	0.287
533	0.286
533	0.286
533	0.286
534	0.286
534	0.285
535	0.285
535	0.285
536	0.284
536	0.284
537	0.284
537	0.283
538	0.283
538	0.282
538	0.282
539	0.282
539	0.281
540	0.281
540	0.281
541	0.28
541	0.28
542	0.28
542	0.279
542	0.279
543	0.279
543	0.278
544	0.278
544	0.277
545	0.277
545	0.277
546	0.276
546	0.276
547	0.275
547	0.275
547	0.274
548	0.274
548	0.273
549	0.272
549	0.272
550	0.271
550	0.271
551	0.27
551	0.269
551	0.269
552	0.268
552	0.268
553	0.267
553	0.267
554	0.266
554	0.265
555	0.264
555	0.264
556	0.263
556	0.263
556	0.262
557	0.262
557	0.262
558	0.262
558	0.261
559	0.261
559	0.261
560	0.261
560	0.261
560	0.261
561	0.26
561	0.26
562	0.259
562	0.258
563	0.257
563	0.257
564	0.256
564	0.255
564	0.255
565	0.254
565	0.253
566	0.253
566	0.252
567	0.252
567	0.251
568	0.251
568	0.25
568	0.25
569	0.249
569	0.248
570	0.247
570	0.247
571	0.246
571	0.245
572	0.245
572	0.244
573	0.244
573	0.244
573	0.243
574	0.243
574	0.242
575	0.242
575	0.242
576	0.242
576	0.241
577	0.24
577	0.239
577	0.239
578	0.239
578	0.238
579	0.238
579	0.238
580	0.237
580	0.237
581	0.236
581	0.236
581	0.236
582	0.236
582	0.235
583	0.235
583	0.235
584	0.234
584	0.233
585	0.232
585	0.232
585	0.232
586	0.231
586	0.231
587	0.23
587	0.23
588	0.229
588	0.229
589	0.228
589	0.228
590	0.228
590	0.228
590	0.228
591	0.228
591	0.227
592	0.226
592	0.225
593	0.225
593	0.224
594	0.224
594	0.223
594	0.222
595	0.222
595	0.221
596	0.221
596	0.221
597	0.222
597	0.222
598	0.222
598	0.222
598	0.222
599	0.222
599	0.221
600	0.221
600	0.221
601	0.22
601	0.22
602	0.219
602	0.218
602	0.218
603	0.217
603	0.217
604	0.217
604	0.217
605	0.217
605	0.217
606	0.216
606	0.216
606	0.216
607	0.215
607	0.215
608	0.214
608	0.214
609	0.213
609	0.213
610	0.213
610	0.212
610	0.212
611	0.212
611	0.212
612	0.212
612	0.212
613	0.212
613	0.212
614	0.212
614	0.211
614	0.211
615	0.211
615	0.211
616	0.211
616	0.211
617	0.211
617	0.21
618	0.21
618	0.21
618	0.21
619	0.21
619	0.21
620	0.21
620	0.21
621	0.21
621	0.209
622	0.209
622	0.208
622	0.208
623	0.207
623	0.207
624	0.207
624	0.206
625	0.206
625	0.206
626	0.206
626	0.205
626	0.206
627	0.206
627	0.206
628	0.206
628	0.205
629	0.205
629	0.205
630	0.205
630	0.205
630	0.205
631	0.205
631	0.204
632	0.204
632	0.204
633	0.204
633	0.204
634	0.204
634	0.204
634	0.205
635	0.204
635	0.204
636	0.204
636	0.204
637	0.204
637	0.204
638	0.203
638	0.203
638	0.203
639	0.202
639	0.202
640	0.202
640	0.201
641	0.201
641	0.201
642	0.2
642	0.2
642	0.2
643	0.2
643	0.2
644	0.2
644	0.2
645	0.2
645	0.201
646	0.201
646	0.201
646	0.202
647	0.202
647	0.202
648	0.201
648	0.201
649	0.2
649	0.2
650	0.2
650	0.2
650	0.199
651	0.199
651	0.199
652	0.199
652	0.199
653	0.2
653	0.201
653	0.206
654	0.161
654	0.129
655	0.13
655	0.131
656	0.131
656	0.131
657	0.132
657	0.132
657	0.132
658	0.131
658	0.121
659	0.153
659	0.197
660	0.201
660	0.2
661	0.2
661	0.199
661	0.198
662	0.198
662	0.197
663	0.197
663	0.197
664	0.197
664	0.196
665	0.196
665	0.196
665	0.197
666	0.197
666	0.197
667	0.198
667	0.198
668	0.198
668	0.198
669	0.198
669	0.198
669	0.198
670	0.199
670	0.198
671	0.198
671	0.198
672	0.197
672	0.197
672	0.196
673	0.196
673	0.196
674	0.196
674	0.195
675	0.195
675	0.195
676	0.195
676	0.195
676	0.196
677	0.196
677	0.196
678	0.197
678	0.197
679	0.197
679	0.197
680	0.198
680	0.198
680	0.198
681	0.198
681	0.198
682	0.199
682	0.199
683	0.199
683	0.199
684	0.199
684	0.199
684	0.199
685	0.199
685	0.199
686	0.199
686	0.198
687	0.198
687	0.199
687	0.199
688	0.199
688	0.199
689	0.2
689	0.201
690	0.201
690	0.201
691	0.202
691	0.202
691	0.203
692	0.203
692	0.203
693	0.203
693	0.203
694	0.203
694	0.203
695	0.204
695	0.205
695	0.205
696	0.205
696	0.205
697	0.205
697	0.205
698	0.205
698	0.205
698	0.205
699	0.205
699	0.204
700	0.204
700	0.203
701	0.203
701	0.202
702	0.202
702	0.201
702	0.201
703	0.2
703	0.2
704	0.2
704	0.2
705	0.2
705	0.2
705	0.2
706	0.2
706	0.201
707	0.201
707	0.201
708	0.202
708	0.202
709	0.202
709	0.202
709	0.201
710	0.201
710	0.201
711	0.201
711	0.201
712	0.201
712	0.201
713	0.201
713	0.201
713	0.201
714	0.201
714	0.201
715	0.201
715	0.201
716	0.2
716	0.2
716	0.199
717	0.199
717	0.198
718	0.198
718	0.197
719	0.198
719	0.198
720	0.199
720	0.2
720	0.2
721	0.201
721	0.202
722	0.203
722	0.203
723	0.203
723	0.203
723	0.203
724	0.203
724	0.202
725	0.201
725	0.2
726	0.199
726	0.199
727	0.199
727	0.198
727	0.199
728	0.199
728	0.199
729	0.2
729	0.2
730	0.201
730	0.202
730	0.202
731	0.203
731	0.203
732	0.204
732	0.204
733	0.204
733	0.205
734	0.205
734	0.205
734	0.205
735	0.206
735	0.205
736	0.205
736	0.205
737	0.204
737	0.204
737	0.204
738	0.203
738	0.203
739	0.203
739	0.202
740	0.202
740	0.202
741	0.203
741	0.203
741	0.203
742	0.203
742	0.204
743	0.204
743	0.205
744	0.205
744	0.205
744	0.206
745	0.206
745	0.206
746	0.206
746	0.206
747	0.207
747	0.207
748	0.207
748	0.207
748	0.207
749	0.207
749	0.207
750	0.207
750	0.207
751	0.207
751	0.207
751	0.207
752	0.207
752	0.206
753	0.205
753	0.205
754	0.205
754	0.204
754	0.204
755	0.204
755	0.204
756	0.203
756	0.202
757	0.202
757	0.202
758	0.203
758	0.203
758	0.203
759	0.203
759	0.203
760	0.203
760	0.203
761	0.203
761	0.204
761	0.204
762	0.204
762	0.204
763	0.204
763	0.204
764	0.204
764	0.204
764	0.204
765	0.204
765	0.204
766	0.203
766	0.203
767	0.203
767	0.203
768	0.202
768	0.202
768	0.202
769	0.202
769	0.202
770	0.203
770	0.203
771	0.204
771	0.204
771	0.205
772	0.205
772	0.206
773	0.206
773	0.206
774	0.207
774	0.207
775	0.208
775	0.208
775	0.209
776	0.209
776	0.21
777	0.21
777	0.21
778	0.21
778	0.21
778	0.209
779	0.209
779	0.209
780	0.208
780	0.207
781	0.207
781	0.206
781	0.206
782	0.206
782	0.206
783	0.206
783	0.207
784	0.207
784	0.207
784	0.208
785	0.208
785	0.209
786	0.209
786	0.21
787	0.21
787	0.211
788	0.211
788	0.21
788	0.21
789	0.21
789	0.21
790	0.21
790	0.21
791	0.209
791	0.209
791	0.209
792	0.209
792	0.209
793	0.209
793	0.209
794	0.209
794	0.209
794	0.209
795	0.21
795	0.21
796	0.21
796	0.21
797	0.21
797	0.21
797	0.211
798	0.211
798	0.211
799	0.211
799	0.211
800	0.21
800	0.21
801	0.21
801	0.21
801	0.21
802	0.21
802	0.21
803	0.21
803	0.21
804	0.21
804	0.211
804	0.211
805	0.211
805	0.211
806	0.212
806	0.212
807	0.212
807	0.212
807	0.213
808	0.213
808	0.213
809	0.213
809	0.214
810	0.214
810	0.214
810	0.214
811	0.214
811	0.214
812	0.215
812	0.215
813	0.215
813	0.215
813	0.216
814	0.216
814	0.217
815	0.217
815	0.217
816	0.217
816	0.216
817	0.215
817	0.215
817	0.214
818	0.213
818	0.213
819	0.213
819	0.212
820	0.212
820	0.212
820	0.212
821	0.212
821	0.212
822	0.213
822	0.213
823	0.214
823	0.214
823	0.215
824	0.216
824	0.217
825	0.218
825	0.219
826	0.22
826	0.22
826	0.22
827	0.221
827	0.221
828	0.221
828	0.221
829	0.222
829	0.222
829	0.222
830	0.222
830	0.222
831	0.222
831	0.222
832	0.222
832	0.222
832	0.222
833	0.222
833	0.222
834	0.221
834	0.22
835	0.22
835	0.219
835	0.218
836	0.217
836	0.217
837	0.216
837	0.216
838	0.215
838	0.214
839	0.214
839	0.213
839	0.213
840	0.212
840	0.212
841	0.211
841	0.211
842	0.21
842	0.21
842	0.21
843	0.209
843	0.209
844	0.209
844	0.209
845	0.21
845	0.21
845	0.21
846	0.211
846	0.211
847	0.211
847	0.211
848	0.211
848	0.211
848	0.211
849	0.211
849	0.211
850	0.21
850	0.21
851	0.209
851	0.209
851	0.208
852	0.208
852	0.207
853	0.207
853	0.207
854	0.207
854	0.207
854	0.207
855	0.208
855	0.208
856	0.209
856	0.209
857	0.21
857	0.21
857	0.21
858	0.21
858	0.209
859	0.209
859	0.208
860	0.207
860	0.206
860	0.205
861	0.204
861	0.203
862	0.202
862	0.202
863	0.201
863	0.201
863	0.201
864	0.201
864	0.201
865	0.202
865	0.202
866	0.202
866	0.203
866	0.203
867	0.203
867	0.203
868	0.203
868	0.202
869	0.202
869	0.201
869	0.2
870	0.2
870	0.199
871	0.199
871	0.199
872	0.199
872	0.199
872	0.199
873	0.199
873	0.199
874	0.198
874	0.198
875	0.198
875	0.197
875	0.197
876	0.197
876	0.196
877	0.196
877	0.196
878	0.197
878	0.197
878	0.198
879	0.198
879	0.198
880	0.199
880	0.199
881	0.199
881	0.199
881	0.199
882	0.198
882	0.198
883	0.198
883	0.198
884	0.197
884	0.197
884	0.197
885	0.197
885	0.196
886	0.196
886	0.195
887	0.195
887	0.194
887	0.194
888	0.193
888	0.192
889	0.192
889	0.191
890	0.191
890	0.19
890	0.19
891	0.19
891	0.189
892	0.189
892	0.188
893	0.188
893	0.188
893	0.187
894	0.187
894	0.186
895	0.186
895	0.186
895	0.185
896	0.185
896	0.185
897	0.184
897	0.184
898	0.183
898	0.182
898	0.182
899	0.182
899	0.181
900	0.181
900	0.181
901	0.181
901	0.181
901	0.181
902	0.181
902	0.181
903	0.181
903	0.181
904	0.181
904	0.181
904	0.181
905	0.181
905	0.182
906	0.182
906	0.183
907	0.183
907	0.184
907	0.184
908	0.185
908	0.185
909	0.185
909	0.185
910	0.185
910	0.184
910	0.183
911	0.183
911	0.182
912	0.181
912	0.181
913	0.181
913	0.18
913	0.18
914	0.179
914	0.179
915	0.179
915	0.178
916	0.178
916	0.178
916	0.177
917	0.176
917	0.176
918	0.175
918	0.174
918	0.173
919	0.173
919	0.172
920	0.171
920	0.171
921	0.17
921	0.17
921	0.169
922	0.169
922	0.169
923	0.169
923	0.169
924	0.169
924	0.169
924	0.169
925	0.169
925	0.169
926	0.169
926	0.17
927	0.17
927	0.17
927	0.17
928	0.17
928	0.169
929	0.169
929	0.169
930	0.169
930	0.168
930	0.168
931	0.167
931	0.167
932	0.167
932	0.166
933	0.166
933	0.166
933	0.165
934	0.165
934	0.165
935	0.165
935	0.165
935	0.164
936	0.164
936	0.164
937	0.164
937	0.163
938	0.163
938	0.162
938	0.162
939	0.161
939	0.16
940	0.159
940	0.158
941	0.157
941	0.157
941	0.156
942	0.156
942	0.155
943	0.155
943	0.154
944	0.154
944	0.153
944	0.153
945	0.152
945	0.152
946	0.152
946	0.151
946	0.151
947	0.152
947	0.152
948	0.152
948	0.153
949	0.153
949	0.153
949	0.154
950	0.153
950	0.153
951	0.153
951	0.152
952	0.151
952	0.15
952	0.149
953	0.148
953	0.146
954	0.145
954	0.144
955	0.143
955	0.142
955	0.142
956	0.142
956	0.142
957	0.142
957	0.142
957	0.142
958	0.143
958	0.143
959	0.143
959	0.143
960	0.143
960	0.143
960	0.143
961	0.143
961	0.143
962	0.143
962	0.143
963	0.142
963	0.142
963	0.142
964	0.142
964	0.142
965	0.143
965	0.143
966	0.143
966	0.143
966	0.143
967	0.144
967	0.144
968	0.144
968	0.144
968	0.144
969	0.144
969	0.143
970	0.143
970	0.142
971	0.141
971	0.14
971	0.14
972	0.139
972	0.138
973	0.137
973	0.137
974	0.136
974	0.136
974	0.136
975	0.136
975	0.136
976	0.136
976	0.135
976	0.135
977	0.135
977	0.134
978	0.134
978	0.133
979	0.132
979	0.131
979	0.131
980	0.13
980	0.13
981	0.129
981	0.128
982	0.128
982	0.128
982	0.128
983	0.128
983	0.128
984	0.128
984	0.128
984	0.128
985	0.128
985	0.128
986	0.128
986	0.127
987	0.127
987	0.126
987	0.126
988	0.125
988	0.125
989	0.124
989	0.124
990	0.123
990	0.123
990	0.123
991	0.122
991	0.122
992	0.122
992	0.122
992	0.121
993	0.121
993	0.121
994	0.121
994	0.12
995	0.12
995	0.12
995	0.12
996	0.12
996	0.119
997	0.12
997	0.12
997	0.12
998	0.12
998	0.12
999	0.12
999	0.121
1000	0.121
1000	0.121
1000	0.121
1001	0.121
1001	0.121
1002	0.121
1002	0.12
1003	0.12
1003	0.119
1003	0.118
1004	0.117
1004	0.116
1005	0.115
1005	0.115
1005	0.114
1006	0.113
1006	0.113
1007	0.112
1007	0.112
1008	0.112
1008	0.112
1008	0.113
1009	0.113
1009	0.114
1010	0.114
1010	0.115
1010	0.116
1011	0.116
1011	0.117
1012	0.117
1012	0.117
1013	0.117
1013	0.117
1013	0.117
1014	0.117
1014	0.116
1015	0.116
1015	0.116
1016	0.115
1016	0.114
1016	0.114
1017	0.113
1017	0.112
1018	0.112
1018	0.111
1018	0.111
1019	0.11
1019	0.11
1020	0.11
1020	0.109
1021	0.109
1021	0.109
1021	0.11
1022	0.11
1022	0.109
1023	0.109
1023	0.109
1023	0.11
1024	0.11
1024	0.109
1025	0.109
1025	0.109
1026	0.109
1026	0.108
1026	0.108
1027	0.108
1027	0.108
1028	0.107
1028	0.107
1028	0.107
1029	0.107
1029	0.107
1030	0.107
1030	0.107
1031	0.107
1031	0.107
1031	0.107
1032	0.106
1032	0.106
1033	0.107
1033	0.106
1033	0.106
1034	0.106
1034	0.105
1035	0.105
1035	0.104
1036	0.104
1036	0.104
1036	0.103
1037	0.103
1037	0.102
1038	0.102
1038	0.102
1039	0.101
1039	0.101
1039	0.101
1040	0.101
1040	0.101
1041	0.101
1041	0.1
1041	0.1
1042	0.1
1042	0.1
1043	0.1
1043	0.1
1044	0.1
1044	0.1
1044	0.1
1045	0.1
1045	0.1
1046	0.1
1046	0.1
1046	0.101
1047	0.101
1047	0.101
1048	0.101
1048	0.102
1049	0.102
1049	0.102
1049	0.102
1050	0.102
1050	0.102
1051	0.102
1051	0.101
1051	0.101
1052	0.101
1052	0.101
1053	0.1
1053	0.1
1053	0.1
1054	0.099
1054	0.099
1055	0.099
1055	0.099
1056	0.098
1056	0.098
1056	0.097
1057	0.097
1057	0.096
1058	0.096
1058	0.095
1058	0.094
1059	0.093
1059	0.093
1060	0.093
1060	0.092
1061	0.091
1061	0.091
1061	0.091
1062	0.091
1062	0.091
1063	0.091
1063	0.091
1063	0.091
1064	0.091
1064	0.09
1065	0.09
1065	0.09
1066	0.09
1066	0.09
1066	0.089
1067	0.089
1067	0.088
1068	0.088
1068	0.088
1068	0.088
1069	0.088
1069	0.087
1070	0.087
1070	0.086
1071	0.086
1071	0.085
1071	0.085
1072	0.085
1072	0.084
1073	0.083
1073	0.082
1073	0.081
1074	0.081
1074	0.081
1075	0.081
1075	0.081
1076	0.081
1076	0.081
1076	0.081
1077	0.082
1077	0.082
1078	0.082
1078	0.082
1078	0.083
1079	0.082
1079	0.082
1080	0.082
1080	0.082
1080	0.082
1081	0.082
1081	0.081
1082	0.081
1082	0.082
1083	0.082
1083	0.081
1083	0.081
1084	0.081
1084	0.081
1085	0.081
1085	0.081
1085	0.081
1086	0.081
1086	0.08
1087	0.08
1087	0.079
1088	0.079
1088	0.078
1088	0.078
1089	0.077
1089	0.077
1090	0.076
1090	0.076
1090	0.075
1091	0.074
1091	0.074
1092	0.075
1092	0.076
1092	0.076
1093	0.076
1093	0.076
1094	0.076
1094	0.076
1095	0.076
1095	0.076
1095	0.077
1096	0.076
1096	0.076
1097	0.074
1097	0.074
1097	0.074
1098	0.074
1098	0.073
1099	0.072
1099	0.071
1100	0.07
1100	0.069
1100	0.069
1101	0.067
1101	0.067
1102	0.067
1102	0.065
1102	0.063
1103	0.064
1103	0.064
1104	0.064
1104	0.065
1104	0.064
1105	0.063
1105	0.061
1106	0.061
1106	0.059
1107	0.059
1107	0.06
1107	0.058
1108	0.057
1108	0.055
1109	0.054
1109	0.053
1109	0.053
1110	0.056
1110	0.054
1111	0.055
1111	0.057
