Data from reversibility-20sec_Absorbance__1236__000000000001236.txt Node

Date: Tue Dec 05 19:05:06 CET 2023
User: Marek
Spectrometer: MAYP115816
Trigger mode: 0
Integration Time (sec): 2.000000E-1
Scans to average: 10
Electric dark correction enabled: true
Nonlinearity correction enabled: true
Boxcar width: 5
XAxis mode: Wavelengths
Number of Pixels in Spectrum: 2068
>>>>>Begin Spectral Data<<<<<
199	-0.227
199	-0.194
200	-0.123
200	-0.067
201	-0.037
201	-0.018
202	-0.006
202	0.004
203	0.012
203	0.017
204	0.03
204	0.044
205	0.059
205	0.064
205	0.063
206	0.064
206	0.062
207	0.064
207	0.061
208	0.061
208	0.059
209	0.063
209	0.062
210	0.06
210	0.061
211	0.06
211	0.063
212	0.063
212	0.065
213	0.069
213	0.07
213	0.069
214	0.075
214	0.076
215	0.078
215	0.077
216	0.079
216	0.077
217	0.078
217	0.08
218	0.081
218	0.084
219	0.093
219	0.091
220	0.093
220	0.093
221	0.095
221	0.099
221	0.107
222	0.115
222	0.117
223	0.124
223	0.126
224	0.129
224	0.14
225	0.152
225	0.163
226	0.173
226	0.183
227	0.191
227	0.201
228	0.215
228	0.23
229	0.249
229	0.272
229	0.294
230	0.318
230	0.348
231	0.38
231	0.42
232	0.457
232	0.5
233	0.546
233	0.597
234	0.648
234	0.697
235	0.75
235	0.804
236	0.856
236	0.91
236	0.961
237	1.016
237	1.068
238	1.117
238	1.166
239	1.216
239	1.265
240	1.308
240	1.346
241	1.387
241	1.426
242	1.463
242	1.5
243	1.535
243	1.566
243	1.593
244	1.617
244	1.643
245	1.665
245	1.692
246	1.714
246	1.734
247	1.748
247	1.764
248	1.78
248	1.796
249	1.811
249	1.825
250	1.836
250	1.851
250	1.862
251	1.871
251	1.879
252	1.892
252	1.899
253	1.905
253	1.907
254	1.911
254	1.917
255	1.917
255	1.918
256	1.921
256	1.922
257	1.925
257	1.924
258	1.925
258	1.927
258	1.931
259	1.932
259	1.931
260	1.933
260	1.937
261	1.938
261	1.943
262	1.946
262	1.947
263	1.955
263	1.958
264	1.959
264	1.963
265	1.967
265	1.968
265	1.97
266	1.972
266	1.976
267	1.975
267	1.98
268	1.98
268	1.981
269	1.984
269	1.983
270	1.984
270	1.986
271	1.983
271	1.984
272	1.981
272	1.982
272	1.979
273	1.973
273	1.968
274	1.965
274	1.961
275	1.954
275	1.949
276	1.943
276	1.935
277	1.928
277	1.917
278	1.906
278	1.896
278	1.883
279	1.865
279	1.845
280	1.822
280	1.792
281	1.757
281	1.717
282	1.674
282	1.631
283	1.589
283	1.547
284	1.507
284	1.468
285	1.431
285	1.397
285	1.366
286	1.339
286	1.314
287	1.293
287	1.274
288	1.259
288	1.245
289	1.233
289	1.222
290	1.213
290	1.205
291	1.197
291	1.191
292	1.186
292	1.181
292	1.176
293	1.172
293	1.168
294	1.164
294	1.16
295	1.157
295	1.153
296	1.15
296	1.146
297	1.143
297	1.139
298	1.136
298	1.132
298	1.129
299	1.126
299	1.123
300	1.12
300	1.117
301	1.114
301	1.112
302	1.108
302	1.106
303	1.103
303	1.1
304	1.097
304	1.095
305	1.092
305	1.089
305	1.086
306	1.083
306	1.081
307	1.078
307	1.075
308	1.072
308	1.069
309	1.066
309	1.063
310	1.06
310	1.056
311	1.053
311	1.049
311	1.046
312	1.042
312	1.038
313	1.034
313	1.029
314	1.025
314	1.021
315	1.017
315	1.012
316	1.007
316	1.003
317	0.998
317	0.993
318	0.987
318	0.982
318	0.977
319	0.971
319	0.965
320	0.959
320	0.953
321	0.947
321	0.94
322	0.934
322	0.927
323	0.921
323	0.914
324	0.907
324	0.9
324	0.894
325	0.887
325	0.88
326	0.873
326	0.866
327	0.859
327	0.852
328	0.844
328	0.837
329	0.83
329	0.823
330	0.815
330	0.808
330	0.801
331	0.794
331	0.786
332	0.779
332	0.772
333	0.765
333	0.758
334	0.75
334	0.743
335	0.736
335	0.729
336	0.722
336	0.716
336	0.709
337	0.702
337	0.696
338	0.69
338	0.683
339	0.677
339	0.671
340	0.665
340	0.659
341	0.653
341	0.648
342	0.642
342	0.636
342	0.631
343	0.625
343	0.62
344	0.615
344	0.61
345	0.605
345	0.6
346	0.595
346	0.59
347	0.586
347	0.581
348	0.577
348	0.573
348	0.569
349	0.564
349	0.561
350	0.557
350	0.553
351	0.55
351	0.546
352	0.543
352	0.54
353	0.536
353	0.533
354	0.53
354	0.527
354	0.524
355	0.521
355	0.517
356	0.514
356	0.512
357	0.507
357	0.505
358	0.502
358	0.499
359	0.496
359	0.493
360	0.491
360	0.488
360	0.486
361	0.484
361	0.482
362	0.481
362	0.478
363	0.476
363	0.474
364	0.472
364	0.47
365	0.468
365	0.466
366	0.464
366	0.462
366	0.46
367	0.458
367	0.456
368	0.454
368	0.452
369	0.45
369	0.449
370	0.447
370	0.445
371	0.443
371	0.442
372	0.44
372	0.439
372	0.437
373	0.436
373	0.434
374	0.433
374	0.432
375	0.43
375	0.429
376	0.428
376	0.427
377	0.426
377	0.424
378	0.423
378	0.422
378	0.421
379	0.42
379	0.418
380	0.417
380	0.416
381	0.415
381	0.414
382	0.413
382	0.412
383	0.411
383	0.41
383	0.41
384	0.409
384	0.408
385	0.407
385	0.406
386	0.405
386	0.404
387	0.403
387	0.402
388	0.401
388	0.401
389	0.4
389	0.399
389	0.398
390	0.398
390	0.397
391	0.396
391	0.396
392	0.395
392	0.394
393	0.394
393	0.393
394	0.392
394	0.392
394	0.391
395	0.39
395	0.39
396	0.389
396	0.388
397	0.387
397	0.387
398	0.386
398	0.385
399	0.384
399	0.384
400	0.383
400	0.382
400	0.382
401	0.381
401	0.381
402	0.38
402	0.38
403	0.379
403	0.379
404	0.379
404	0.378
405	0.378
405	0.377
405	0.377
406	0.376
406	0.375
407	0.375
407	0.374
408	0.374
408	0.373
409	0.372
409	0.372
410	0.371
410	0.371
411	0.37
411	0.37
411	0.37
412	0.369
412	0.369
413	0.368
413	0.368
414	0.368
414	0.367
415	0.367
415	0.366
416	0.366
416	0.365
416	0.364
417	0.364
417	0.364
418	0.363
418	0.363
419	0.362
419	0.362
420	0.361
420	0.361
421	0.361
421	0.36
421	0.36
422	0.36
422	0.359
423	0.359
423	0.359
424	0.358
424	0.358
425	0.357
425	0.357
426	0.357
426	0.356
427	0.356
427	0.355
427	0.355
428	0.355
428	0.354
429	0.354
429	0.353
430	0.353
430	0.353
431	0.352
431	0.352
432	0.352
432	0.351
432	0.351
433	0.351
433	0.351
434	0.351
434	0.351
435	0.35
435	0.35
436	0.35
436	0.35
437	0.35
437	0.35
437	0.349
438	0.349
438	0.349
439	0.349
439	0.349
440	0.348
440	0.348
441	0.348
441	0.348
442	0.348
442	0.348
442	0.347
443	0.347
443	0.347
444	0.347
444	0.347
445	0.347
445	0.347
446	0.347
446	0.346
447	0.346
447	0.346
447	0.346
448	0.346
448	0.346
449	0.345
449	0.345
450	0.345
450	0.345
451	0.345
451	0.345
452	0.345
452	0.345
452	0.345
453	0.345
453	0.344
454	0.344
454	0.344
455	0.344
455	0.344
456	0.345
456	0.345
457	0.345
457	0.345
458	0.345
458	0.345
458	0.345
459	0.345
459	0.345
460	0.345
460	0.345
461	0.346
461	0.346
462	0.346
462	0.345
463	0.346
463	0.346
463	0.346
464	0.346
464	0.346
465	0.346
465	0.346
466	0.346
466	0.347
467	0.347
467	0.348
467	0.348
468	0.348
468	0.348
469	0.349
469	0.349
470	0.35
470	0.35
471	0.35
471	0.351
472	0.351
472	0.352
472	0.353
473	0.353
473	0.354
474	0.354
474	0.355
475	0.355
475	0.355
476	0.356
476	0.357
477	0.358
477	0.358
477	0.359
478	0.359
478	0.36
479	0.361
479	0.362
480	0.362
480	0.363
481	0.364
481	0.364
482	0.365
482	0.366
482	0.367
483	0.368
483	0.369
484	0.37
484	0.371
485	0.372
485	0.373
486	0.373
486	0.375
487	0.376
487	0.376
487	0.378
488	0.379
488	0.38
489	0.381
489	0.383
490	0.384
490	0.386
491	0.387
491	0.389
492	0.39
492	0.391
492	0.393
493	0.395
493	0.396
494	0.398
494	0.399
495	0.401
495	0.402
496	0.404
496	0.405
496	0.407
497	0.408
497	0.41
498	0.411
498	0.413
499	0.414
499	0.416
500	0.418
500	0.42
501	0.421
501	0.423
501	0.424
502	0.426
502	0.428
503	0.429
503	0.431
504	0.432
504	0.433
505	0.435
505	0.436
506	0.438
506	0.439
506	0.441
507	0.442
507	0.443
508	0.445
508	0.446
509	0.447
509	0.449
510	0.45
510	0.452
511	0.453
511	0.455
511	0.456
512	0.458
512	0.459
513	0.46
513	0.461
514	0.462
514	0.464
515	0.464
515	0.465
515	0.466
516	0.466
516	0.467
517	0.468
517	0.468
518	0.469
518	0.469
519	0.47
519	0.47
520	0.47
520	0.47
520	0.47
521	0.47
521	0.47
522	0.469
522	0.469
523	0.469
523	0.469
524	0.468
524	0.468
524	0.468
525	0.468
525	0.467
526	0.466
526	0.466
527	0.465
527	0.464
528	0.463
528	0.462
529	0.461
529	0.46
529	0.458
530	0.456
530	0.455
531	0.454
531	0.452
532	0.45
532	0.448
533	0.447
533	0.445
533	0.443
534	0.441
534	0.44
535	0.438
535	0.436
536	0.434
536	0.432
537	0.43
537	0.427
538	0.425
538	0.423
538	0.42
539	0.418
539	0.416
540	0.414
540	0.411
541	0.409
541	0.406
542	0.404
542	0.402
542	0.399
543	0.396
543	0.394
544	0.391
544	0.388
545	0.385
545	0.383
546	0.38
546	0.377
547	0.374
547	0.372
547	0.369
548	0.366
548	0.363
549	0.361
549	0.358
550	0.355
550	0.353
551	0.349
551	0.346
551	0.343
552	0.341
552	0.338
553	0.335
553	0.333
554	0.33
554	0.327
555	0.324
555	0.321
556	0.319
556	0.316
556	0.314
557	0.312
557	0.31
558	0.307
558	0.305
559	0.303
559	0.3
560	0.298
560	0.295
560	0.293
561	0.291
561	0.288
562	0.286
562	0.283
563	0.28
563	0.278
564	0.275
564	0.273
564	0.271
565	0.268
565	0.266
566	0.264
566	0.261
567	0.259
567	0.258
568	0.256
568	0.254
568	0.252
569	0.251
569	0.249
570	0.247
570	0.244
571	0.243
571	0.241
572	0.239
572	0.237
573	0.235
573	0.233
573	0.231
574	0.229
574	0.227
575	0.226
575	0.225
576	0.223
576	0.221
577	0.219
577	0.218
577	0.216
578	0.215
578	0.213
579	0.212
579	0.211
580	0.209
580	0.207
581	0.205
581	0.204
581	0.203
582	0.202
582	0.201
583	0.2
583	0.198
584	0.196
584	0.194
585	0.193
585	0.191
585	0.19
586	0.188
586	0.187
587	0.185
587	0.184
588	0.182
588	0.181
589	0.18
589	0.179
590	0.178
590	0.177
590	0.177
591	0.176
591	0.175
592	0.173
592	0.172
593	0.171
593	0.17
594	0.169
594	0.168
594	0.167
595	0.166
595	0.165
596	0.164
596	0.163
597	0.163
597	0.162
598	0.161
598	0.161
598	0.16
599	0.159
599	0.158
600	0.157
600	0.156
601	0.155
601	0.155
602	0.153
602	0.152
602	0.151
603	0.15
603	0.15
604	0.149
604	0.148
605	0.148
605	0.147
606	0.146
606	0.145
606	0.144
607	0.143
607	0.143
608	0.142
608	0.141
609	0.14
609	0.139
610	0.138
610	0.137
610	0.136
611	0.136
611	0.136
612	0.135
612	0.135
613	0.134
613	0.134
614	0.133
614	0.132
614	0.132
615	0.131
615	0.131
616	0.13
616	0.129
617	0.129
617	0.128
618	0.128
618	0.127
618	0.127
619	0.127
619	0.127
620	0.127
620	0.126
621	0.125
621	0.125
622	0.124
622	0.123
622	0.122
623	0.121
623	0.12
624	0.12
624	0.119
625	0.118
625	0.118
626	0.117
626	0.117
626	0.116
627	0.116
627	0.116
628	0.115
628	0.115
629	0.114
629	0.114
630	0.113
630	0.113
630	0.113
631	0.112
631	0.112
632	0.111
632	0.111
633	0.11
633	0.11
634	0.11
634	0.11
634	0.109
635	0.108
635	0.107
636	0.107
636	0.106
637	0.106
637	0.105
638	0.105
638	0.104
638	0.104
639	0.103
639	0.103
640	0.103
640	0.102
641	0.102
641	0.102
642	0.101
642	0.101
642	0.101
643	0.101
643	0.101
644	0.101
644	0.1
645	0.1
645	0.1
646	0.099
646	0.099
646	0.099
647	0.099
647	0.098
648	0.097
648	0.097
649	0.096
649	0.096
650	0.095
650	0.095
650	0.095
651	0.095
651	0.094
652	0.094
652	0.094
653	0.094
653	0.096
653	0.103
654	0.083
654	0.068
655	0.066
655	0.066
656	0.066
656	0.066
657	0.066
657	0.066
657	0.066
658	0.064
658	0.056
659	0.07
659	0.088
660	0.092
660	0.092
661	0.091
661	0.09
661	0.09
662	0.089
662	0.088
663	0.087
663	0.087
664	0.086
664	0.086
665	0.085
665	0.085
665	0.085
666	0.085
666	0.084
667	0.084
667	0.084
668	0.085
668	0.085
669	0.085
669	0.085
669	0.085
670	0.086
670	0.085
671	0.085
671	0.085
672	0.085
672	0.085
672	0.084
673	0.084
673	0.084
674	0.083
674	0.082
675	0.082
675	0.081
676	0.081
676	0.081
676	0.08
677	0.08
677	0.079
678	0.079
678	0.078
679	0.078
679	0.078
680	0.078
680	0.078
680	0.078
681	0.078
681	0.078
682	0.079
682	0.079
683	0.079
683	0.08
684	0.08
684	0.08
684	0.079
685	0.079
685	0.079
686	0.079
686	0.079
687	0.078
687	0.078
687	0.078
688	0.077
688	0.077
689	0.077
689	0.077
690	0.077
690	0.076
691	0.076
691	0.076
691	0.077
692	0.077
692	0.077
693	0.077
693	0.077
694	0.077
694	0.077
695	0.078
695	0.078
695	0.078
696	0.078
696	0.077
697	0.077
697	0.076
698	0.076
698	0.075
698	0.075
699	0.075
699	0.074
700	0.074
700	0.074
701	0.074
701	0.074
702	0.074
702	0.074
702	0.074
703	0.074
703	0.074
704	0.074
704	0.073
705	0.073
705	0.072
705	0.072
706	0.071
706	0.071
707	0.071
707	0.071
708	0.071
708	0.07
709	0.07
709	0.07
709	0.069
710	0.069
710	0.069
711	0.07
711	0.069
712	0.069
712	0.069
713	0.069
713	0.069
713	0.069
714	0.069
714	0.069
715	0.069
715	0.069
716	0.068
716	0.068
716	0.068
717	0.067
717	0.067
718	0.066
718	0.066
719	0.066
719	0.066
720	0.066
720	0.066
720	0.066
721	0.066
721	0.067
722	0.067
722	0.067
723	0.067
723	0.067
723	0.067
724	0.067
724	0.067
725	0.066
725	0.065
726	0.065
726	0.064
727	0.064
727	0.063
727	0.063
728	0.063
728	0.062
729	0.062
729	0.062
730	0.062
730	0.062
730	0.062
731	0.063
731	0.063
732	0.063
732	0.063
733	0.063
733	0.062
734	0.062
734	0.062
734	0.063
735	0.063
735	0.062
736	0.062
736	0.062
737	0.062
737	0.063
737	0.062
738	0.062
738	0.061
739	0.06
739	0.06
740	0.059
740	0.059
741	0.058
741	0.058
741	0.057
742	0.057
742	0.057
743	0.058
743	0.058
744	0.059
744	0.059
744	0.059
745	0.059
745	0.059
746	0.059
746	0.059
747	0.059
747	0.06
748	0.06
748	0.06
748	0.06
749	0.06
749	0.06
750	0.06
750	0.06
751	0.06
751	0.06
751	0.06
752	0.059
752	0.059
753	0.058
753	0.058
754	0.058
754	0.058
754	0.058
755	0.058
755	0.058
756	0.057
756	0.055
757	0.055
757	0.054
758	0.054
758	0.053
758	0.053
759	0.053
759	0.052
760	0.052
760	0.052
761	0.053
761	0.054
761	0.055
762	0.055
762	0.056
763	0.056
763	0.056
764	0.056
764	0.056
764	0.056
765	0.055
765	0.054
766	0.054
766	0.053
767	0.052
767	0.051
768	0.05
768	0.049
768	0.049
769	0.049
769	0.049
770	0.049
770	0.049
771	0.049
771	0.049
771	0.049
772	0.05
772	0.05
773	0.051
773	0.051
774	0.051
774	0.051
775	0.051
775	0.051
775	0.051
776	0.051
776	0.051
777	0.051
777	0.051
778	0.051
778	0.05
778	0.05
779	0.05
779	0.049
780	0.048
780	0.048
781	0.047
781	0.047
781	0.046
782	0.046
782	0.046
783	0.046
783	0.046
784	0.046
784	0.046
784	0.047
785	0.047
785	0.047
786	0.047
786	0.047
787	0.047
787	0.047
788	0.046
788	0.046
788	0.046
789	0.045
789	0.046
790	0.046
790	0.046
791	0.046
791	0.046
791	0.046
792	0.047
792	0.047
793	0.047
793	0.047
794	0.047
794	0.047
794	0.046
795	0.047
795	0.047
796	0.047
796	0.046
797	0.046
797	0.046
797	0.046
798	0.046
798	0.046
799	0.045
799	0.045
800	0.045
800	0.044
801	0.044
801	0.044
801	0.044
802	0.044
802	0.045
803	0.045
803	0.046
804	0.047
804	0.047
804	0.048
805	0.048
805	0.048
806	0.047
806	0.047
807	0.046
807	0.046
807	0.045
808	0.045
808	0.045
809	0.044
809	0.044
810	0.044
810	0.044
810	0.044
811	0.045
811	0.045
812	0.046
812	0.046
813	0.046
813	0.046
813	0.046
814	0.046
814	0.046
815	0.047
815	0.047
816	0.047
816	0.047
817	0.046
817	0.046
817	0.046
818	0.046
818	0.046
819	0.045
819	0.044
820	0.043
820	0.043
820	0.042
821	0.042
821	0.042
822	0.041
822	0.041
823	0.041
823	0.041
823	0.042
824	0.043
824	0.043
825	0.044
825	0.045
826	0.045
826	0.045
826	0.045
827	0.046
827	0.046
828	0.045
828	0.045
829	0.045
829	0.045
829	0.045
830	0.045
830	0.046
831	0.046
831	0.047
832	0.047
832	0.047
832	0.048
833	0.048
833	0.048
834	0.048
834	0.048
835	0.048
835	0.048
835	0.048
836	0.048
836	0.048
837	0.048
837	0.048
838	0.048
838	0.048
839	0.047
839	0.046
839	0.045
840	0.044
840	0.042
841	0.041
841	0.04
842	0.039
842	0.039
842	0.038
843	0.038
843	0.037
844	0.037
844	0.038
845	0.038
845	0.038
845	0.038
846	0.038
846	0.038
847	0.038
847	0.038
848	0.039
848	0.039
848	0.04
849	0.041
849	0.041
850	0.042
850	0.043
851	0.043
851	0.043
851	0.043
852	0.042
852	0.042
853	0.041
853	0.04
854	0.04
854	0.04
854	0.04
855	0.04
855	0.04
856	0.039
856	0.04
857	0.04
857	0.04
857	0.04
858	0.04
858	0.039
859	0.038
859	0.038
860	0.037
860	0.036
860	0.036
861	0.035
861	0.035
862	0.033
862	0.032
863	0.032
863	0.031
863	0.031
864	0.03
864	0.03
865	0.03
865	0.03
866	0.03
866	0.029
866	0.029
867	0.03
867	0.03
868	0.031
868	0.031
869	0.032
869	0.032
869	0.032
870	0.032
870	0.032
871	0.033
871	0.033
872	0.034
872	0.034
872	0.034
873	0.034
873	0.034
874	0.034
874	0.034
875	0.034
875	0.034
875	0.034
876	0.035
876	0.035
877	0.035
877	0.036
878	0.036
878	0.037
878	0.039
879	0.04
879	0.04
880	0.041
880	0.042
881	0.042
881	0.042
881	0.042
882	0.042
882	0.041
883	0.04
883	0.039
884	0.038
884	0.037
884	0.036
885	0.035
885	0.034
886	0.034
886	0.033
887	0.033
887	0.032
887	0.032
888	0.032
888	0.031
889	0.031
889	0.032
890	0.032
890	0.032
890	0.033
891	0.033
891	0.034
892	0.034
892	0.034
893	0.035
893	0.035
893	0.035
894	0.035
894	0.035
895	0.034
895	0.034
895	0.034
896	0.033
896	0.033
897	0.032
897	0.032
898	0.031
898	0.031
898	0.031
899	0.03
899	0.03
900	0.03
900	0.031
901	0.031
901	0.031
901	0.032
902	0.032
902	0.032
903	0.032
903	0.032
904	0.032
904	0.032
904	0.032
905	0.032
905	0.032
906	0.032
906	0.033
907	0.033
907	0.033
907	0.034
908	0.034
908	0.034
909	0.035
909	0.035
910	0.035
910	0.035
910	0.035
911	0.035
911	0.035
912	0.034
912	0.034
913	0.034
913	0.034
913	0.034
914	0.033
914	0.033
915	0.033
915	0.033
916	0.032
916	0.032
916	0.032
917	0.031
917	0.031
918	0.03
918	0.029
918	0.029
919	0.029
919	0.029
920	0.029
920	0.029
921	0.029
921	0.03
921	0.03
922	0.03
922	0.031
923	0.031
923	0.031
924	0.032
924	0.032
924	0.032
925	0.032
925	0.032
926	0.032
926	0.032
927	0.032
927	0.032
927	0.032
928	0.032
928	0.032
929	0.032
929	0.033
930	0.033
930	0.033
930	0.033
931	0.033
931	0.033
932	0.034
932	0.034
933	0.035
933	0.035
933	0.035
934	0.035
934	0.034
935	0.034
935	0.034
935	0.034
936	0.033
936	0.033
937	0.033
937	0.033
938	0.033
938	0.033
938	0.033
939	0.033
939	0.033
940	0.034
940	0.034
941	0.035
941	0.035
941	0.035
942	0.036
942	0.036
943	0.036
943	0.035
944	0.035
944	0.035
944	0.034
945	0.034
945	0.034
946	0.033
946	0.033
946	0.033
947	0.033
947	0.033
948	0.033
948	0.033
949	0.033
949	0.034
949	0.034
950	0.034
950	0.034
951	0.034
951	0.034
952	0.034
952	0.034
952	0.034
953	0.033
953	0.033
954	0.033
954	0.032
955	0.032
955	0.032
955	0.032
956	0.032
956	0.033
957	0.033
957	0.033
957	0.034
958	0.035
958	0.035
959	0.036
959	0.036
960	0.036
960	0.036
960	0.036
961	0.036
961	0.036
962	0.036
962	0.036
963	0.035
963	0.035
963	0.035
964	0.035
964	0.035
965	0.036
965	0.036
966	0.036
966	0.037
966	0.037
967	0.037
967	0.038
968	0.038
968	0.038
968	0.039
969	0.039
969	0.039
970	0.038
970	0.038
971	0.038
971	0.038
971	0.038
972	0.038
972	0.038
973	0.038
973	0.038
974	0.039
974	0.039
974	0.04
975	0.04
975	0.04
976	0.04
976	0.04
976	0.04
977	0.04
977	0.04
978	0.039
978	0.038
979	0.038
979	0.037
979	0.037
980	0.036
980	0.035
981	0.034
981	0.034
982	0.033
982	0.033
982	0.033
983	0.033
983	0.032
984	0.032
984	0.032
984	0.031
985	0.031
985	0.031
986	0.031
986	0.031
987	0.03
987	0.03
987	0.029
988	0.029
988	0.029
989	0.028
989	0.028
990	0.028
990	0.027
990	0.027
991	0.027
991	0.026
992	0.026
992	0.026
992	0.025
993	0.025
993	0.025
994	0.024
994	0.024
995	0.024
995	0.024
995	0.024
996	0.024
996	0.024
997	0.025
997	0.025
997	0.026
998	0.027
998	0.028
999	0.029
999	0.03
1000	0.031
1000	0.032
1000	0.033
1001	0.034
1001	0.034
1002	0.035
1002	0.035
1003	0.035
1003	0.034
1003	0.034
1004	0.034
1004	0.033
1005	0.033
1005	0.032
1005	0.032
1006	0.031
1006	0.031
1007	0.031
1007	0.03
1008	0.03
1008	0.03
1008	0.029
1009	0.029
1009	0.029
1010	0.029
1010	0.029
1010	0.029
1011	0.029
1011	0.029
1012	0.029
1012	0.028
1013	0.028
1013	0.028
1013	0.028
1014	0.027
1014	0.027
1015	0.027
1015	0.026
1016	0.026
1016	0.026
1016	0.025
1017	0.025
1017	0.024
1018	0.024
1018	0.024
1018	0.024
1019	0.024
1019	0.024
1020	0.024
1020	0.024
1021	0.024
1021	0.024
1021	0.025
1022	0.025
1022	0.025
1023	0.025
1023	0.025
1023	0.025
1024	0.025
1024	0.025
1025	0.025
1025	0.025
1026	0.025
1026	0.024
1026	0.024
1027	0.024
1027	0.024
1028	0.024
1028	0.024
1028	0.023
1029	0.024
1029	0.024
1030	0.024
1030	0.024
1031	0.024
1031	0.024
1031	0.024
1032	0.025
1032	0.025
1033	0.025
1033	0.025
1033	0.025
1034	0.025
1034	0.025
1035	0.025
1035	0.025
1036	0.025
1036	0.025
1036	0.025
1037	0.025
1037	0.025
1038	0.025
1038	0.026
1039	0.026
1039	0.027
1039	0.027
1040	0.027
1040	0.028
1041	0.029
1041	0.029
1041	0.029
1042	0.029
1042	0.03
1043	0.03
1043	0.03
1044	0.03
1044	0.03
1044	0.03
1045	0.03
1045	0.03
1046	0.031
1046	0.031
1046	0.031
1047	0.032
1047	0.033
1048	0.033
1048	0.034
1049	0.034
1049	0.034
1049	0.034
1050	0.034
1050	0.034
1051	0.034
1051	0.033
1051	0.033
1052	0.032
1052	0.031
1053	0.03
1053	0.029
1053	0.029
1054	0.028
1054	0.027
1055	0.027
1055	0.027
1056	0.026
1056	0.026
1056	0.025
1057	0.025
1057	0.025
1058	0.024
1058	0.024
1058	0.023
1059	0.022
1059	0.022
1060	0.021
1060	0.021
1061	0.02
1061	0.02
1061	0.02
1062	0.02
1062	0.02
1063	0.02
1063	0.02
1063	0.02
1064	0.02
1064	0.02
1065	0.02
1065	0.02
1066	0.02
1066	0.02
1066	0.02
1067	0.021
1067	0.021
1068	0.02
1068	0.02
1068	0.02
1069	0.02
1069	0.019
1070	0.019
1070	0.019
1071	0.018
1071	0.017
1071	0.016
1072	0.016
1072	0.016
1073	0.015
1073	0.014
1073	0.014
1074	0.014
1074	0.014
1075	0.014
1075	0.014
1076	0.015
1076	0.016
1076	0.016
1077	0.017
1077	0.017
1078	0.017
1078	0.017
1078	0.018
1079	0.018
1079	0.017
1080	0.017
1080	0.017
1080	0.017
1081	0.017
1081	0.017
1082	0.018
1082	0.018
1083	0.018
1083	0.018
1083	0.018
1084	0.018
1084	0.018
1085	0.018
1085	0.017
1085	0.018
1086	0.017
1086	0.016
1087	0.016
1087	0.016
1088	0.015
1088	0.015
1088	0.015
1089	0.014
1089	0.014
1090	0.013
1090	0.013
1090	0.012
1091	0.011
1091	0.011
1092	0.011
1092	0.012
1092	0.011
1093	0.01
1093	0.011
1094	0.011
1094	0.01
1095	0.01
1095	0.01
1095	0.009
1096	0.008
1096	0.007
1097	0.007
1097	0.006
1097	0.005
1098	0.005
1098	0.004
1099	0.004
1099	0.003
1100	0.002
1100	0.002
1100	0.001
1101	0
1101	-0.001
1102	-0.001
1102	-0.002
1102	-0.003
1103	-0.004
1103	-0.004
1104	-0.004
1104	-0.005
1104	-0.005
1105	-0.006
1105	-0.008
1106	-0.009
1106	-0.01
1107	-0.01
1107	-0.011
1107	-0.012
1108	-0.013
1108	-0.013
1109	-0.015
1109	-0.016
1109	-0.016
1110	-0.012
1110	-0.014
1111	-0.016
1111	-0.016
