Data from reversibility-20sec_Absorbance__5842__000000000005842.txt Node

Date: Wed Dec 06 20:40:25 CET 2023
User: Marek
Spectrometer: MAYP115816
Trigger mode: 0
Integration Time (sec): 2.000000E-1
Scans to average: 10
Electric dark correction enabled: true
Nonlinearity correction enabled: true
Boxcar width: 5
XAxis mode: Wavelengths
Number of Pixels in Spectrum: 2068
>>>>>Begin Spectral Data<<<<<
199	-0.212
199	-0.179
200	-0.103
200	-0.054
201	-0.025
201	-0.007
202	0.003
202	0.013
203	0.02
203	0.022
204	0.037
204	0.052
205	0.064
205	0.067
205	0.066
206	0.066
206	0.066
207	0.068
207	0.066
208	0.063
208	0.063
209	0.062
209	0.06
210	0.06
210	0.06
211	0.059
211	0.06
212	0.057
212	0.058
213	0.062
213	0.066
213	0.069
214	0.075
214	0.077
215	0.079
215	0.079
216	0.083
216	0.08
217	0.083
217	0.086
218	0.085
218	0.088
219	0.092
219	0.092
220	0.095
220	0.096
221	0.097
221	0.101
221	0.109
222	0.114
222	0.12
223	0.125
223	0.13
224	0.133
224	0.141
225	0.148
225	0.158
226	0.17
226	0.179
227	0.189
227	0.198
228	0.212
228	0.227
229	0.241
229	0.266
229	0.288
230	0.312
230	0.341
231	0.37
231	0.408
232	0.446
232	0.489
233	0.533
233	0.583
234	0.634
234	0.685
235	0.738
235	0.793
236	0.845
236	0.9
236	0.95
237	1.002
237	1.05
238	1.096
238	1.145
239	1.192
239	1.232
240	1.271
240	1.307
241	1.344
241	1.376
242	1.41
242	1.444
243	1.474
243	1.501
243	1.522
244	1.543
244	1.566
245	1.583
245	1.605
246	1.623
246	1.643
247	1.656
247	1.67
248	1.685
248	1.699
249	1.711
249	1.719
250	1.729
250	1.738
250	1.744
251	1.751
251	1.754
252	1.761
252	1.761
253	1.765
253	1.764
254	1.766
254	1.77
255	1.769
255	1.77
256	1.769
256	1.768
257	1.768
257	1.767
258	1.768
258	1.766
258	1.765
259	1.765
259	1.765
260	1.765
260	1.766
261	1.766
261	1.768
262	1.769
262	1.77
263	1.774
263	1.775
264	1.777
264	1.778
265	1.779
265	1.779
265	1.779
266	1.78
266	1.78
267	1.78
267	1.782
268	1.78
268	1.779
269	1.78
269	1.779
270	1.778
270	1.778
271	1.776
271	1.775
272	1.772
272	1.77
272	1.767
273	1.762
273	1.758
274	1.754
274	1.749
275	1.743
275	1.737
276	1.73
276	1.724
277	1.718
277	1.709
278	1.697
278	1.687
278	1.674
279	1.66
279	1.644
280	1.624
280	1.602
281	1.574
281	1.542
282	1.508
282	1.472
283	1.436
283	1.401
284	1.366
284	1.331
285	1.297
285	1.266
285	1.238
286	1.212
286	1.19
287	1.17
287	1.153
288	1.138
288	1.124
289	1.113
289	1.103
290	1.095
290	1.087
291	1.08
291	1.074
292	1.069
292	1.064
292	1.059
293	1.055
293	1.051
294	1.047
294	1.043
295	1.04
295	1.036
296	1.033
296	1.029
297	1.025
297	1.022
298	1.019
298	1.016
298	1.012
299	1.009
299	1.006
300	1.003
300	0.999
301	0.996
301	0.994
302	0.991
302	0.988
303	0.986
303	0.983
304	0.98
304	0.978
305	0.975
305	0.973
305	0.97
306	0.968
306	0.965
307	0.962
307	0.959
308	0.956
308	0.954
309	0.95
309	0.947
310	0.944
310	0.941
311	0.938
311	0.934
311	0.931
312	0.927
312	0.923
313	0.919
313	0.915
314	0.911
314	0.907
315	0.903
315	0.899
316	0.894
316	0.889
317	0.885
317	0.88
318	0.875
318	0.869
318	0.864
319	0.858
319	0.853
320	0.848
320	0.841
321	0.836
321	0.83
322	0.823
322	0.817
323	0.811
323	0.805
324	0.798
324	0.792
324	0.785
325	0.778
325	0.772
326	0.765
326	0.758
327	0.751
327	0.744
328	0.737
328	0.73
329	0.723
329	0.716
330	0.709
330	0.702
330	0.695
331	0.688
331	0.681
332	0.674
332	0.667
333	0.661
333	0.654
334	0.647
334	0.64
335	0.634
335	0.627
336	0.62
336	0.613
336	0.607
337	0.601
337	0.595
338	0.588
338	0.582
339	0.576
339	0.57
340	0.564
340	0.559
341	0.553
341	0.548
342	0.542
342	0.537
342	0.532
343	0.527
343	0.522
344	0.517
344	0.512
345	0.507
345	0.502
346	0.498
346	0.493
347	0.489
347	0.485
348	0.481
348	0.477
348	0.473
349	0.469
349	0.466
350	0.462
350	0.458
351	0.455
351	0.452
352	0.448
352	0.445
353	0.442
353	0.439
354	0.436
354	0.433
354	0.43
355	0.427
355	0.424
356	0.421
356	0.418
357	0.415
357	0.412
358	0.409
358	0.406
359	0.404
359	0.402
360	0.4
360	0.398
360	0.396
361	0.394
361	0.392
362	0.391
362	0.389
363	0.387
363	0.385
364	0.383
364	0.381
365	0.379
365	0.377
366	0.375
366	0.373
366	0.371
367	0.369
367	0.368
368	0.366
368	0.364
369	0.363
369	0.361
370	0.36
370	0.358
371	0.357
371	0.355
372	0.354
372	0.353
372	0.351
373	0.35
373	0.349
374	0.348
374	0.346
375	0.345
375	0.344
376	0.343
376	0.343
377	0.341
377	0.34
378	0.339
378	0.338
378	0.337
379	0.337
379	0.336
380	0.335
380	0.334
381	0.333
381	0.332
382	0.331
382	0.331
383	0.33
383	0.329
383	0.329
384	0.328
384	0.327
385	0.327
385	0.326
386	0.325
386	0.325
387	0.324
387	0.323
388	0.323
388	0.322
389	0.322
389	0.321
389	0.32
390	0.32
390	0.319
391	0.319
391	0.319
392	0.318
392	0.318
393	0.317
393	0.317
394	0.316
394	0.316
394	0.315
395	0.315
395	0.314
396	0.314
396	0.313
397	0.312
397	0.312
398	0.312
398	0.311
399	0.311
399	0.31
400	0.31
400	0.31
400	0.309
401	0.309
401	0.308
402	0.308
402	0.308
403	0.307
403	0.307
404	0.306
404	0.306
405	0.306
405	0.305
405	0.305
406	0.304
406	0.304
407	0.304
407	0.303
408	0.303
408	0.303
409	0.302
409	0.302
410	0.301
410	0.301
411	0.301
411	0.3
411	0.3
412	0.3
412	0.299
413	0.299
413	0.298
414	0.298
414	0.298
415	0.297
415	0.297
416	0.297
416	0.296
416	0.296
417	0.296
417	0.295
418	0.295
418	0.295
419	0.294
419	0.293
420	0.293
420	0.293
421	0.292
421	0.292
421	0.291
422	0.291
422	0.29
423	0.29
423	0.29
424	0.289
424	0.289
425	0.289
425	0.289
426	0.289
426	0.288
427	0.288
427	0.287
427	0.287
428	0.287
428	0.287
429	0.286
429	0.286
430	0.286
430	0.285
431	0.285
431	0.285
432	0.285
432	0.285
432	0.285
433	0.285
433	0.285
434	0.285
434	0.285
435	0.284
435	0.284
436	0.284
436	0.284
437	0.284
437	0.283
437	0.283
438	0.283
438	0.282
439	0.282
439	0.282
440	0.282
440	0.282
441	0.282
441	0.281
442	0.281
442	0.281
442	0.281
443	0.28
443	0.281
444	0.28
444	0.28
445	0.28
445	0.28
446	0.28
446	0.28
447	0.279
447	0.279
447	0.279
448	0.279
448	0.279
449	0.279
449	0.279
450	0.279
450	0.279
451	0.279
451	0.279
452	0.279
452	0.279
452	0.28
453	0.28
453	0.279
454	0.279
454	0.279
455	0.279
455	0.279
456	0.279
456	0.279
457	0.279
457	0.279
458	0.279
458	0.279
458	0.279
459	0.279
459	0.279
460	0.279
460	0.279
461	0.279
461	0.279
462	0.279
462	0.279
463	0.279
463	0.279
463	0.279
464	0.279
464	0.279
465	0.279
465	0.279
466	0.279
466	0.279
467	0.28
467	0.28
467	0.28
468	0.28
468	0.281
469	0.281
469	0.282
470	0.282
470	0.283
471	0.283
471	0.283
472	0.284
472	0.284
472	0.284
473	0.285
473	0.285
474	0.285
474	0.286
475	0.286
475	0.286
476	0.287
476	0.288
477	0.288
477	0.289
477	0.289
478	0.29
478	0.29
479	0.291
479	0.292
480	0.292
480	0.293
481	0.293
481	0.293
482	0.294
482	0.295
482	0.295
483	0.296
483	0.297
484	0.298
484	0.299
485	0.299
485	0.3
486	0.301
486	0.301
487	0.302
487	0.303
487	0.304
488	0.305
488	0.305
489	0.306
489	0.308
490	0.309
490	0.31
491	0.312
491	0.313
492	0.314
492	0.315
492	0.316
493	0.317
493	0.318
494	0.319
494	0.32
495	0.322
495	0.323
496	0.324
496	0.326
496	0.327
497	0.328
497	0.329
498	0.331
498	0.332
499	0.334
499	0.335
500	0.337
500	0.338
501	0.339
501	0.34
501	0.341
502	0.343
502	0.344
503	0.345
503	0.346
504	0.347
504	0.349
505	0.35
505	0.351
506	0.352
506	0.354
506	0.355
507	0.356
507	0.357
508	0.358
508	0.359
509	0.36
509	0.361
510	0.362
510	0.363
511	0.364
511	0.365
511	0.366
512	0.368
512	0.369
513	0.37
513	0.37
514	0.372
514	0.373
515	0.373
515	0.374
515	0.374
516	0.375
516	0.376
517	0.376
517	0.377
518	0.378
518	0.378
519	0.378
519	0.378
520	0.379
520	0.379
520	0.379
521	0.379
521	0.379
522	0.379
522	0.378
523	0.378
523	0.378
524	0.377
524	0.377
524	0.377
525	0.377
525	0.376
526	0.376
526	0.376
527	0.375
527	0.374
528	0.373
528	0.373
529	0.372
529	0.371
529	0.37
530	0.369
530	0.368
531	0.366
531	0.365
532	0.364
532	0.363
533	0.361
533	0.36
533	0.359
534	0.358
534	0.356
535	0.355
535	0.354
536	0.352
536	0.351
537	0.349
537	0.347
538	0.346
538	0.344
538	0.342
539	0.341
539	0.339
540	0.337
540	0.335
541	0.333
541	0.332
542	0.33
542	0.328
542	0.326
543	0.324
543	0.322
544	0.32
544	0.318
545	0.315
545	0.314
546	0.312
546	0.31
547	0.307
547	0.305
547	0.303
548	0.301
548	0.299
549	0.297
549	0.295
550	0.293
550	0.291
551	0.289
551	0.286
551	0.284
552	0.282
552	0.28
553	0.277
553	0.275
554	0.273
554	0.271
555	0.268
555	0.266
556	0.264
556	0.262
556	0.26
557	0.258
557	0.257
558	0.255
558	0.254
559	0.252
559	0.25
560	0.249
560	0.247
560	0.245
561	0.244
561	0.242
562	0.24
562	0.238
563	0.235
563	0.234
564	0.232
564	0.23
564	0.228
565	0.226
565	0.224
566	0.223
566	0.221
567	0.219
567	0.218
568	0.216
568	0.215
568	0.213
569	0.212
569	0.21
570	0.208
570	0.206
571	0.205
571	0.203
572	0.202
572	0.2
573	0.198
573	0.197
573	0.196
574	0.194
574	0.193
575	0.192
575	0.191
576	0.19
576	0.189
577	0.187
577	0.186
577	0.185
578	0.184
578	0.183
579	0.182
579	0.181
580	0.18
580	0.178
581	0.176
581	0.175
581	0.174
582	0.174
582	0.173
583	0.173
583	0.172
584	0.17
584	0.168
585	0.167
585	0.166
585	0.165
586	0.164
586	0.163
587	0.161
587	0.16
588	0.158
588	0.157
589	0.156
589	0.156
590	0.155
590	0.154
590	0.154
591	0.154
591	0.152
592	0.152
592	0.151
593	0.15
593	0.149
594	0.148
594	0.147
594	0.147
595	0.146
595	0.145
596	0.144
596	0.144
597	0.144
597	0.144
598	0.143
598	0.142
598	0.141
599	0.141
599	0.14
600	0.139
600	0.138
601	0.138
601	0.137
602	0.136
602	0.135
602	0.134
603	0.134
603	0.134
604	0.133
604	0.133
605	0.132
605	0.132
606	0.131
606	0.13
606	0.129
607	0.129
607	0.128
608	0.128
608	0.127
609	0.126
609	0.126
610	0.125
610	0.124
610	0.124
611	0.124
611	0.123
612	0.123
612	0.123
613	0.123
613	0.122
614	0.122
614	0.121
614	0.121
615	0.12
615	0.12
616	0.12
616	0.119
617	0.119
617	0.118
618	0.117
618	0.117
618	0.117
619	0.117
619	0.117
620	0.117
620	0.117
621	0.116
621	0.116
622	0.115
622	0.114
622	0.114
623	0.113
623	0.112
624	0.112
624	0.111
625	0.11
625	0.109
626	0.109
626	0.109
626	0.109
627	0.109
627	0.108
628	0.108
628	0.108
629	0.107
629	0.107
630	0.106
630	0.106
630	0.105
631	0.105
631	0.104
632	0.103
632	0.103
633	0.102
633	0.102
634	0.102
634	0.103
634	0.103
635	0.102
635	0.102
636	0.102
636	0.102
637	0.102
637	0.102
638	0.102
638	0.101
638	0.101
639	0.1
639	0.099
640	0.099
640	0.099
641	0.098
641	0.098
642	0.097
642	0.097
642	0.097
643	0.097
643	0.097
644	0.097
644	0.096
645	0.096
645	0.096
646	0.096
646	0.096
646	0.095
647	0.095
647	0.095
648	0.094
648	0.094
649	0.093
649	0.093
650	0.093
650	0.092
650	0.092
651	0.092
651	0.092
652	0.092
652	0.092
653	0.092
653	0.094
653	0.1
654	0.081
654	0.066
655	0.063
655	0.063
656	0.063
656	0.064
657	0.064
657	0.064
657	0.064
658	0.063
658	0.055
659	0.069
659	0.087
660	0.092
660	0.093
661	0.092
661	0.092
661	0.091
662	0.091
662	0.09
663	0.09
663	0.09
664	0.089
664	0.089
665	0.089
665	0.088
665	0.088
666	0.088
666	0.088
667	0.088
667	0.088
668	0.088
668	0.088
669	0.089
669	0.089
669	0.09
670	0.09
670	0.09
671	0.09
671	0.09
672	0.089
672	0.089
672	0.089
673	0.088
673	0.087
674	0.087
674	0.086
675	0.085
675	0.085
676	0.085
676	0.085
676	0.085
677	0.085
677	0.084
678	0.084
678	0.084
679	0.083
679	0.083
680	0.083
680	0.083
680	0.082
681	0.082
681	0.082
682	0.082
682	0.082
683	0.083
683	0.083
684	0.083
684	0.083
684	0.083
685	0.083
685	0.083
686	0.083
686	0.083
687	0.083
687	0.082
687	0.082
688	0.082
688	0.082
689	0.082
689	0.082
690	0.082
690	0.081
691	0.081
691	0.081
691	0.081
692	0.081
692	0.081
693	0.081
693	0.082
694	0.081
694	0.081
695	0.082
695	0.083
695	0.082
696	0.082
696	0.082
697	0.082
697	0.081
698	0.081
698	0.08
698	0.08
699	0.081
699	0.08
700	0.079
700	0.08
701	0.08
701	0.08
702	0.08
702	0.08
702	0.08
703	0.08
703	0.08
704	0.079
704	0.079
705	0.079
705	0.079
705	0.078
706	0.078
706	0.078
707	0.078
707	0.078
708	0.078
708	0.079
709	0.079
709	0.078
709	0.078
710	0.078
710	0.078
711	0.078
711	0.078
712	0.078
712	0.077
713	0.077
713	0.077
713	0.077
714	0.077
714	0.077
715	0.077
715	0.077
716	0.076
716	0.076
716	0.076
717	0.075
717	0.075
718	0.074
718	0.074
719	0.074
719	0.074
720	0.074
720	0.074
720	0.074
721	0.074
721	0.075
722	0.075
722	0.075
723	0.075
723	0.076
723	0.076
724	0.076
724	0.076
725	0.075
725	0.074
726	0.074
726	0.073
727	0.073
727	0.072
727	0.072
728	0.071
728	0.071
729	0.071
729	0.07
730	0.07
730	0.071
730	0.071
731	0.071
731	0.072
732	0.072
732	0.073
733	0.073
733	0.073
734	0.073
734	0.073
734	0.073
735	0.074
735	0.073
736	0.073
736	0.073
737	0.073
737	0.073
737	0.073
738	0.072
738	0.071
739	0.071
739	0.07
740	0.069
740	0.069
741	0.069
741	0.069
741	0.068
742	0.068
742	0.068
743	0.069
743	0.07
744	0.07
744	0.071
744	0.071
745	0.071
745	0.071
746	0.072
746	0.072
747	0.072
747	0.072
748	0.072
748	0.071
748	0.071
749	0.071
749	0.071
750	0.07
750	0.07
751	0.07
751	0.07
751	0.069
752	0.068
752	0.068
753	0.067
753	0.066
754	0.066
754	0.065
754	0.065
755	0.064
755	0.064
756	0.064
756	0.063
757	0.062
757	0.063
758	0.063
758	0.063
758	0.064
759	0.064
759	0.064
760	0.064
760	0.064
761	0.064
761	0.065
761	0.065
762	0.064
762	0.064
763	0.064
763	0.063
764	0.062
764	0.062
764	0.061
765	0.06
765	0.06
766	0.06
766	0.059
767	0.058
767	0.057
768	0.057
768	0.056
768	0.057
769	0.057
769	0.057
770	0.057
770	0.058
771	0.058
771	0.059
771	0.059
772	0.06
772	0.061
773	0.062
773	0.062
774	0.062
774	0.062
775	0.062
775	0.063
775	0.062
776	0.062
776	0.063
777	0.062
777	0.062
778	0.062
778	0.062
778	0.061
779	0.062
779	0.061
780	0.06
780	0.06
781	0.06
781	0.059
781	0.059
782	0.059
782	0.059
783	0.06
783	0.06
784	0.06
784	0.06
784	0.061
785	0.062
785	0.062
786	0.063
786	0.063
787	0.063
787	0.062
788	0.061
788	0.06
788	0.059
789	0.058
789	0.057
790	0.056
790	0.055
791	0.054
791	0.053
791	0.053
792	0.053
792	0.053
793	0.053
793	0.053
794	0.053
794	0.052
794	0.052
795	0.052
795	0.052
796	0.052
796	0.052
797	0.052
797	0.052
797	0.053
798	0.053
798	0.053
799	0.054
799	0.054
800	0.054
800	0.054
801	0.053
801	0.054
801	0.054
802	0.054
802	0.054
803	0.054
803	0.054
804	0.055
804	0.055
804	0.055
805	0.054
805	0.054
806	0.053
806	0.053
807	0.052
807	0.052
807	0.051
808	0.051
808	0.051
809	0.051
809	0.052
810	0.052
810	0.053
810	0.053
811	0.053
811	0.054
812	0.055
812	0.055
813	0.055
813	0.055
813	0.055
814	0.056
814	0.056
815	0.056
815	0.056
816	0.056
816	0.055
817	0.055
817	0.054
817	0.054
818	0.054
818	0.054
819	0.053
819	0.053
820	0.052
820	0.052
820	0.051
821	0.051
821	0.051
822	0.051
822	0.051
823	0.051
823	0.051
823	0.051
824	0.052
824	0.052
825	0.053
825	0.053
826	0.054
826	0.053
826	0.054
827	0.054
827	0.054
828	0.054
828	0.054
829	0.054
829	0.055
829	0.055
830	0.055
830	0.055
831	0.056
831	0.056
832	0.056
832	0.056
832	0.056
833	0.056
833	0.055
834	0.055
834	0.054
835	0.054
835	0.054
835	0.053
836	0.053
836	0.053
837	0.053
837	0.053
838	0.053
838	0.053
839	0.053
839	0.052
839	0.051
840	0.05
840	0.05
841	0.049
841	0.048
842	0.047
842	0.046
842	0.045
843	0.044
843	0.043
844	0.042
844	0.041
845	0.04
845	0.039
845	0.038
846	0.038
846	0.038
847	0.038
847	0.038
848	0.039
848	0.039
848	0.041
849	0.042
849	0.043
850	0.044
850	0.045
851	0.046
851	0.046
851	0.046
852	0.046
852	0.045
853	0.045
853	0.045
854	0.044
854	0.044
854	0.044
855	0.044
855	0.044
856	0.044
856	0.045
857	0.045
857	0.046
857	0.046
858	0.047
858	0.047
859	0.047
859	0.046
860	0.046
860	0.045
860	0.045
861	0.044
861	0.044
862	0.043
862	0.042
863	0.041
863	0.041
863	0.04
864	0.04
864	0.04
865	0.041
865	0.041
866	0.041
866	0.041
866	0.042
867	0.043
867	0.044
868	0.044
868	0.045
869	0.045
869	0.045
869	0.045
870	0.045
870	0.046
871	0.046
871	0.046
872	0.046
872	0.046
872	0.046
873	0.046
873	0.045
874	0.045
874	0.045
875	0.045
875	0.045
875	0.044
876	0.044
876	0.044
877	0.044
877	0.044
878	0.044
878	0.044
878	0.045
879	0.045
879	0.045
880	0.045
880	0.046
881	0.046
881	0.046
881	0.046
882	0.046
882	0.046
883	0.046
883	0.046
884	0.046
884	0.046
884	0.046
885	0.046
885	0.045
886	0.044
886	0.044
887	0.043
887	0.043
887	0.042
888	0.041
888	0.041
889	0.04
889	0.04
890	0.04
890	0.04
890	0.04
891	0.04
891	0.04
892	0.039
892	0.039
893	0.039
893	0.039
893	0.038
894	0.038
894	0.038
895	0.038
895	0.038
895	0.038
896	0.039
896	0.039
897	0.04
897	0.04
898	0.04
898	0.04
898	0.04
899	0.04
899	0.04
900	0.04
900	0.04
901	0.039
901	0.039
901	0.039
902	0.038
902	0.038
903	0.037
903	0.037
904	0.037
904	0.036
904	0.036
905	0.036
905	0.036
906	0.036
906	0.036
907	0.036
907	0.037
907	0.037
908	0.037
908	0.037
909	0.037
909	0.037
910	0.037
910	0.037
910	0.036
911	0.036
911	0.036
912	0.035
912	0.035
913	0.035
913	0.035
913	0.035
914	0.036
914	0.036
915	0.037
915	0.037
916	0.037
916	0.038
916	0.038
917	0.038
917	0.038
918	0.038
918	0.038
918	0.038
919	0.038
919	0.037
920	0.037
920	0.037
921	0.037
921	0.037
921	0.037
922	0.037
922	0.037
923	0.037
923	0.037
924	0.037
924	0.038
924	0.038
925	0.038
925	0.039
926	0.039
926	0.04
927	0.041
927	0.041
927	0.041
928	0.041
928	0.041
929	0.041
929	0.041
930	0.041
930	0.041
930	0.04
931	0.04
931	0.039
932	0.039
932	0.039
933	0.038
933	0.038
933	0.038
934	0.037
934	0.037
935	0.037
935	0.037
935	0.037
936	0.036
936	0.036
937	0.036
937	0.036
938	0.036
938	0.036
938	0.036
939	0.035
939	0.035
940	0.035
940	0.035
941	0.035
941	0.035
941	0.035
942	0.035
942	0.035
943	0.035
943	0.035
944	0.035
944	0.035
944	0.035
945	0.035
945	0.035
946	0.036
946	0.036
946	0.036
947	0.037
947	0.037
948	0.037
948	0.038
949	0.038
949	0.038
949	0.038
950	0.038
950	0.039
951	0.039
951	0.039
952	0.039
952	0.039
952	0.039
953	0.039
953	0.039
954	0.039
954	0.039
955	0.039
955	0.039
955	0.038
956	0.038
956	0.039
957	0.039
957	0.039
957	0.039
958	0.039
958	0.039
959	0.039
959	0.039
960	0.039
960	0.039
960	0.039
961	0.039
961	0.039
962	0.039
962	0.039
963	0.039
963	0.039
963	0.039
964	0.04
964	0.04
965	0.041
965	0.041
966	0.041
966	0.041
966	0.041
967	0.041
967	0.041
968	0.041
968	0.041
968	0.041
969	0.041
969	0.04
970	0.04
970	0.039
971	0.039
971	0.038
971	0.038
972	0.037
972	0.037
973	0.036
973	0.036
974	0.036
974	0.036
974	0.036
975	0.036
975	0.037
976	0.037
976	0.037
976	0.038
977	0.038
977	0.037
978	0.037
978	0.037
979	0.036
979	0.036
979	0.036
980	0.035
980	0.034
981	0.033
981	0.033
982	0.033
982	0.032
982	0.032
983	0.032
983	0.032
984	0.032
984	0.032
984	0.032
985	0.033
985	0.033
986	0.033
986	0.034
987	0.034
987	0.034
987	0.034
988	0.034
988	0.034
989	0.034
989	0.034
990	0.034
990	0.034
990	0.034
991	0.033
991	0.033
992	0.033
992	0.032
992	0.032
993	0.031
993	0.031
994	0.03
994	0.03
995	0.029
995	0.029
995	0.029
996	0.029
996	0.029
997	0.03
997	0.03
997	0.031
998	0.031
998	0.031
999	0.032
999	0.033
1000	0.033
1000	0.034
1000	0.034
1001	0.034
1001	0.034
1002	0.034
1002	0.034
1003	0.033
1003	0.033
1003	0.032
1004	0.031
1004	0.03
1005	0.029
1005	0.029
1005	0.028
1006	0.027
1006	0.026
1007	0.026
1007	0.025
1008	0.026
1008	0.026
1008	0.026
1009	0.026
1009	0.027
1010	0.027
1010	0.028
1010	0.028
1011	0.029
1011	0.029
1012	0.03
1012	0.03
1013	0.03
1013	0.03
1013	0.03
1014	0.03
1014	0.03
1015	0.03
1015	0.03
1016	0.03
1016	0.03
1016	0.029
1017	0.029
1017	0.029
1018	0.028
1018	0.028
1018	0.028
1019	0.027
1019	0.027
1020	0.027
1020	0.027
1021	0.027
1021	0.028
1021	0.028
1022	0.028
1022	0.028
1023	0.029
1023	0.029
1023	0.029
1024	0.03
1024	0.03
1025	0.03
1025	0.03
1026	0.03
1026	0.03
1026	0.03
1027	0.03
1027	0.03
1028	0.031
1028	0.031
1028	0.031
1029	0.031
1029	0.031
1030	0.031
1030	0.031
1031	0.032
1031	0.032
1031	0.032
1032	0.033
1032	0.033
1033	0.033
1033	0.033
1033	0.034
1034	0.034
1034	0.034
1035	0.034
1035	0.034
1036	0.034
1036	0.034
1036	0.034
1037	0.034
1037	0.034
1038	0.034
1038	0.034
1039	0.034
1039	0.035
1039	0.035
1040	0.035
1040	0.035
1041	0.035
1041	0.035
1041	0.035
1042	0.035
1042	0.035
1043	0.035
1043	0.035
1044	0.035
1044	0.035
1044	0.035
1045	0.034
1045	0.034
1046	0.034
1046	0.034
1046	0.034
1047	0.034
1047	0.034
1048	0.034
1048	0.034
1049	0.034
1049	0.034
1049	0.034
1050	0.034
1050	0.034
1051	0.033
1051	0.033
1051	0.032
1052	0.032
1052	0.032
1053	0.031
1053	0.031
1053	0.03
1054	0.03
1054	0.03
1055	0.03
1055	0.03
1056	0.029
1056	0.029
1056	0.029
1057	0.028
1057	0.028
1058	0.027
1058	0.027
1058	0.026
1059	0.026
1059	0.025
1060	0.024
1060	0.024
1061	0.023
1061	0.023
1061	0.023
1062	0.023
1062	0.023
1063	0.023
1063	0.023
1063	0.022
1064	0.022
1064	0.022
1065	0.022
1065	0.022
1066	0.022
1066	0.022
1066	0.022
1067	0.022
1067	0.022
1068	0.022
1068	0.022
1068	0.021
1069	0.021
1069	0.021
1070	0.02
1070	0.02
1071	0.019
1071	0.019
1071	0.019
1072	0.018
1072	0.017
1073	0.017
1073	0.016
1073	0.016
1074	0.016
1074	0.017
1075	0.017
1075	0.017
1076	0.018
1076	0.018
1076	0.018
1077	0.018
1077	0.018
1078	0.019
1078	0.019
1078	0.019
1079	0.019
1079	0.018
1080	0.018
1080	0.018
1080	0.018
1081	0.018
1081	0.018
1082	0.019
1082	0.019
1083	0.018
1083	0.018
1083	0.018
1084	0.018
1084	0.018
1085	0.018
1085	0.018
1085	0.019
1086	0.019
1086	0.018
1087	0.018
1087	0.018
1088	0.018
1088	0.018
1088	0.018
1089	0.018
1089	0.017
1090	0.016
1090	0.016
1090	0.015
1091	0.015
1091	0.015
1092	0.015
1092	0.014
1092	0.014
1093	0.014
1093	0.014
1094	0.014
1094	0.014
1095	0.014
1095	0.014
1095	0.014
1096	0.013
1096	0.012
1097	0.011
1097	0.011
1097	0.01
1098	0.009
1098	0.008
1099	0.007
1099	0.005
1100	0.004
1100	0.002
1100	0.001
1101	0
1101	-0.001
1102	-0.002
1102	-0.003
1102	-0.004
1103	-0.005
1103	-0.005
1104	-0.006
1104	-0.006
1104	-0.007
1105	-0.008
1105	-0.01
1106	-0.011
1106	-0.012
1107	-0.014
1107	-0.014
1107	-0.015
1108	-0.017
1108	-0.018
1109	-0.019
1109	-0.019
1109	-0.02
1110	-0.018
1110	-0.02
1111	-0.023
1111	-0.02
