Data from reversibility-20sec_Absorbance__5049__000000000005049.txt Node

Date: Wed Dec 06 16:16:06 CET 2023
User: Marek
Spectrometer: MAYP115816
Trigger mode: 0
Integration Time (sec): 2.000000E-1
Scans to average: 10
Electric dark correction enabled: true
Nonlinearity correction enabled: true
Boxcar width: 5
XAxis mode: Wavelengths
Number of Pixels in Spectrum: 2068
>>>>>Begin Spectral Data<<<<<
199	-0.173
199	-0.142
200	-0.072
200	-0.016
201	0.01
201	0.032
202	0.044
202	0.056
203	0.063
203	0.067
204	0.082
204	0.095
205	0.109
205	0.117
205	0.116
206	0.117
206	0.117
207	0.118
207	0.117
208	0.116
208	0.115
209	0.117
209	0.115
210	0.115
210	0.114
211	0.116
211	0.117
212	0.113
212	0.119
213	0.118
213	0.12
213	0.119
214	0.12
214	0.122
215	0.122
215	0.121
216	0.119
216	0.116
217	0.119
217	0.119
218	0.119
218	0.124
219	0.131
219	0.132
220	0.134
220	0.132
221	0.132
221	0.136
221	0.146
222	0.152
222	0.156
223	0.164
223	0.167
224	0.169
224	0.176
225	0.185
225	0.196
226	0.205
226	0.215
227	0.222
227	0.233
228	0.245
228	0.259
229	0.275
229	0.3
229	0.322
230	0.345
230	0.377
231	0.409
231	0.447
232	0.485
232	0.525
233	0.568
233	0.617
234	0.667
234	0.719
235	0.77
235	0.822
236	0.874
236	0.926
236	0.978
237	1.029
237	1.078
238	1.127
238	1.17
239	1.216
239	1.257
240	1.299
240	1.335
241	1.371
241	1.404
242	1.435
242	1.468
243	1.499
243	1.523
243	1.551
244	1.574
244	1.594
245	1.61
245	1.635
246	1.652
246	1.669
247	1.681
247	1.694
248	1.707
248	1.721
249	1.73
249	1.737
250	1.745
250	1.754
250	1.755
251	1.76
251	1.763
252	1.768
252	1.768
253	1.768
253	1.765
254	1.764
254	1.765
255	1.763
255	1.762
256	1.761
256	1.759
257	1.759
257	1.758
258	1.758
258	1.758
258	1.757
259	1.757
259	1.757
260	1.756
260	1.759
261	1.76
261	1.763
262	1.765
262	1.767
263	1.77
263	1.77
264	1.773
264	1.776
265	1.778
265	1.781
265	1.781
266	1.78
266	1.78
267	1.778
267	1.78
268	1.779
268	1.78
269	1.781
269	1.779
270	1.778
270	1.776
271	1.774
271	1.775
272	1.771
272	1.77
272	1.765
273	1.758
273	1.751
274	1.745
274	1.738
275	1.73
275	1.724
276	1.718
276	1.709
277	1.701
277	1.691
278	1.68
278	1.668
278	1.653
279	1.635
279	1.614
280	1.588
280	1.557
281	1.519
281	1.478
282	1.435
282	1.392
283	1.35
283	1.308
284	1.268
284	1.229
285	1.193
285	1.161
285	1.132
286	1.107
286	1.085
287	1.066
287	1.049
288	1.035
288	1.023
289	1.013
289	1.005
290	0.997
290	0.99
291	0.985
291	0.98
292	0.975
292	0.971
292	0.967
293	0.964
293	0.961
294	0.958
294	0.955
295	0.952
295	0.949
296	0.946
296	0.943
297	0.941
297	0.938
298	0.935
298	0.932
298	0.93
299	0.927
299	0.924
300	0.922
300	0.919
301	0.917
301	0.915
302	0.913
302	0.911
303	0.909
303	0.907
304	0.904
304	0.902
305	0.9
305	0.898
305	0.896
306	0.893
306	0.891
307	0.889
307	0.886
308	0.884
308	0.882
309	0.879
309	0.876
310	0.874
310	0.871
311	0.869
311	0.865
311	0.863
312	0.859
312	0.856
313	0.852
313	0.848
314	0.845
314	0.841
315	0.837
315	0.832
316	0.828
316	0.824
317	0.819
317	0.815
318	0.81
318	0.805
318	0.8
319	0.795
319	0.789
320	0.784
320	0.778
321	0.773
321	0.767
322	0.761
322	0.755
323	0.749
323	0.742
324	0.736
324	0.73
324	0.723
325	0.716
325	0.71
326	0.703
326	0.696
327	0.69
327	0.683
328	0.676
328	0.669
329	0.662
329	0.655
330	0.648
330	0.641
330	0.634
331	0.627
331	0.621
332	0.614
332	0.607
333	0.6
333	0.593
334	0.587
334	0.58
335	0.573
335	0.567
336	0.56
336	0.554
336	0.547
337	0.541
337	0.535
338	0.529
338	0.523
339	0.517
339	0.511
340	0.505
340	0.5
341	0.494
341	0.489
342	0.483
342	0.478
342	0.473
343	0.468
343	0.463
344	0.458
344	0.453
345	0.448
345	0.444
346	0.439
346	0.435
347	0.431
347	0.426
348	0.422
348	0.418
348	0.414
349	0.411
349	0.407
350	0.404
350	0.4
351	0.397
351	0.394
352	0.391
352	0.388
353	0.385
353	0.382
354	0.38
354	0.377
354	0.374
355	0.371
355	0.368
356	0.366
356	0.363
357	0.36
357	0.357
358	0.355
358	0.352
359	0.35
359	0.348
360	0.346
360	0.344
360	0.342
361	0.34
361	0.338
362	0.337
362	0.335
363	0.333
363	0.332
364	0.33
364	0.328
365	0.326
365	0.325
366	0.323
366	0.321
366	0.32
367	0.318
367	0.317
368	0.315
368	0.313
369	0.312
369	0.311
370	0.309
370	0.308
371	0.307
371	0.305
372	0.304
372	0.303
372	0.302
373	0.301
373	0.3
374	0.299
374	0.298
375	0.297
375	0.297
376	0.296
376	0.295
377	0.294
377	0.293
378	0.293
378	0.292
378	0.291
379	0.29
379	0.29
380	0.289
380	0.288
381	0.288
381	0.287
382	0.286
382	0.286
383	0.285
383	0.285
383	0.284
384	0.284
384	0.283
385	0.283
385	0.283
386	0.282
386	0.282
387	0.281
387	0.281
388	0.28
388	0.28
389	0.279
389	0.279
389	0.278
390	0.278
390	0.278
391	0.277
391	0.277
392	0.277
392	0.277
393	0.276
393	0.276
394	0.276
394	0.276
394	0.275
395	0.275
395	0.275
396	0.274
396	0.274
397	0.274
397	0.273
398	0.273
398	0.272
399	0.272
399	0.272
400	0.271
400	0.271
400	0.271
401	0.271
401	0.27
402	0.27
402	0.27
403	0.27
403	0.27
404	0.27
404	0.269
405	0.269
405	0.269
405	0.269
406	0.269
406	0.268
407	0.268
407	0.268
408	0.267
408	0.267
409	0.267
409	0.266
410	0.266
410	0.266
411	0.265
411	0.265
411	0.265
412	0.264
412	0.264
413	0.264
413	0.264
414	0.264
414	0.263
415	0.263
415	0.262
416	0.262
416	0.262
416	0.261
417	0.261
417	0.261
418	0.26
418	0.26
419	0.26
419	0.259
420	0.259
420	0.258
421	0.258
421	0.258
421	0.258
422	0.257
422	0.257
423	0.257
423	0.257
424	0.256
424	0.256
425	0.256
425	0.255
426	0.255
426	0.255
427	0.254
427	0.254
427	0.254
428	0.253
428	0.253
429	0.253
429	0.253
430	0.252
430	0.252
431	0.252
431	0.252
432	0.252
432	0.251
432	0.251
433	0.251
433	0.25
434	0.25
434	0.25
435	0.25
435	0.25
436	0.25
436	0.249
437	0.249
437	0.249
437	0.249
438	0.249
438	0.248
439	0.248
439	0.248
440	0.248
440	0.247
441	0.247
441	0.247
442	0.247
442	0.247
442	0.246
443	0.246
443	0.246
444	0.246
444	0.245
445	0.245
445	0.245
446	0.245
446	0.245
447	0.245
447	0.244
447	0.244
448	0.244
448	0.244
449	0.244
449	0.244
450	0.244
450	0.243
451	0.243
451	0.243
452	0.243
452	0.242
452	0.242
453	0.242
453	0.242
454	0.242
454	0.241
455	0.241
455	0.241
456	0.241
456	0.241
457	0.24
457	0.24
458	0.24
458	0.24
458	0.239
459	0.239
459	0.239
460	0.238
460	0.238
461	0.238
461	0.238
462	0.238
462	0.237
463	0.237
463	0.237
463	0.237
464	0.236
464	0.236
465	0.236
465	0.236
466	0.235
466	0.235
467	0.235
467	0.235
467	0.235
468	0.235
468	0.235
469	0.235
469	0.235
470	0.235
470	0.235
471	0.235
471	0.235
472	0.235
472	0.235
472	0.235
473	0.235
473	0.235
474	0.235
474	0.235
475	0.235
475	0.235
476	0.235
476	0.235
477	0.235
477	0.235
477	0.235
478	0.235
478	0.235
479	0.234
479	0.235
480	0.234
480	0.235
481	0.235
481	0.234
482	0.235
482	0.235
482	0.235
483	0.235
483	0.236
484	0.236
484	0.236
485	0.235
485	0.235
486	0.235
486	0.236
487	0.236
487	0.236
487	0.236
488	0.236
488	0.236
489	0.236
489	0.237
490	0.238
490	0.238
491	0.239
491	0.239
492	0.239
492	0.239
492	0.24
493	0.24
493	0.24
494	0.241
494	0.241
495	0.241
495	0.242
496	0.242
496	0.243
496	0.243
497	0.243
497	0.244
498	0.244
498	0.245
499	0.245
499	0.245
500	0.246
500	0.247
501	0.247
501	0.247
501	0.247
502	0.248
502	0.248
503	0.248
503	0.249
504	0.249
504	0.25
505	0.25
505	0.25
506	0.251
506	0.251
506	0.252
507	0.252
507	0.253
508	0.253
508	0.254
509	0.254
509	0.254
510	0.255
510	0.255
511	0.256
511	0.257
511	0.257
512	0.258
512	0.258
513	0.259
513	0.259
514	0.26
514	0.261
515	0.261
515	0.261
515	0.262
516	0.262
516	0.263
517	0.263
517	0.263
518	0.264
518	0.264
519	0.264
519	0.264
520	0.265
520	0.265
520	0.265
521	0.265
521	0.265
522	0.265
522	0.265
523	0.265
523	0.265
524	0.266
524	0.266
524	0.266
525	0.266
525	0.266
526	0.266
526	0.266
527	0.266
527	0.266
528	0.266
528	0.267
529	0.267
529	0.266
529	0.266
530	0.266
530	0.266
531	0.266
531	0.266
532	0.266
532	0.266
533	0.266
533	0.265
533	0.265
534	0.265
534	0.265
535	0.265
535	0.265
536	0.265
536	0.265
537	0.265
537	0.265
538	0.264
538	0.264
538	0.264
539	0.264
539	0.264
540	0.264
540	0.263
541	0.263
541	0.263
542	0.262
542	0.262
542	0.261
543	0.261
543	0.261
544	0.261
544	0.26
545	0.26
545	0.26
546	0.26
546	0.259
547	0.259
547	0.258
547	0.258
548	0.258
548	0.257
549	0.257
549	0.256
550	0.256
550	0.255
551	0.255
551	0.255
551	0.254
552	0.254
552	0.254
553	0.253
553	0.253
554	0.252
554	0.252
555	0.251
555	0.251
556	0.25
556	0.25
556	0.25
557	0.25
557	0.25
558	0.25
558	0.25
559	0.25
559	0.25
560	0.249
560	0.249
560	0.249
561	0.249
561	0.248
562	0.248
562	0.247
563	0.246
563	0.245
564	0.244
564	0.243
564	0.243
565	0.243
565	0.242
566	0.242
566	0.241
567	0.242
567	0.242
568	0.241
568	0.241
568	0.241
569	0.241
569	0.24
570	0.239
570	0.239
571	0.238
571	0.238
572	0.237
572	0.237
573	0.237
573	0.236
573	0.235
574	0.235
574	0.235
575	0.235
575	0.235
576	0.235
576	0.234
577	0.233
577	0.233
577	0.232
578	0.232
578	0.232
579	0.232
579	0.232
580	0.231
580	0.231
581	0.23
581	0.23
581	0.23
582	0.23
582	0.23
583	0.23
583	0.23
584	0.229
584	0.228
585	0.227
585	0.227
585	0.227
586	0.226
586	0.226
587	0.225
587	0.224
588	0.224
588	0.223
589	0.223
589	0.223
590	0.223
590	0.223
590	0.224
591	0.224
591	0.224
592	0.223
592	0.223
593	0.222
593	0.222
594	0.222
594	0.221
594	0.22
595	0.22
595	0.219
596	0.219
596	0.219
597	0.219
597	0.22
598	0.219
598	0.219
598	0.219
599	0.219
599	0.219
600	0.218
600	0.218
601	0.218
601	0.217
602	0.217
602	0.216
602	0.216
603	0.216
603	0.216
604	0.216
604	0.216
605	0.216
605	0.216
606	0.215
606	0.215
606	0.214
607	0.214
607	0.214
608	0.213
608	0.213
609	0.212
609	0.212
610	0.212
610	0.212
610	0.212
611	0.212
611	0.212
612	0.212
612	0.212
613	0.212
613	0.212
614	0.212
614	0.211
614	0.211
615	0.21
615	0.21
616	0.21
616	0.209
617	0.209
617	0.209
618	0.208
618	0.209
618	0.209
619	0.209
619	0.209
620	0.209
620	0.209
621	0.209
621	0.208
622	0.208
622	0.208
622	0.207
623	0.207
623	0.207
624	0.206
624	0.206
625	0.205
625	0.205
626	0.204
626	0.204
626	0.204
627	0.204
627	0.204
628	0.204
628	0.203
629	0.203
629	0.203
630	0.203
630	0.203
630	0.203
631	0.203
631	0.203
632	0.203
632	0.203
633	0.203
633	0.203
634	0.203
634	0.203
634	0.203
635	0.203
635	0.202
636	0.202
636	0.202
637	0.201
637	0.201
638	0.201
638	0.201
638	0.2
639	0.2
639	0.2
640	0.2
640	0.2
641	0.2
641	0.2
642	0.2
642	0.201
642	0.201
643	0.201
643	0.201
644	0.202
644	0.202
645	0.202
645	0.202
646	0.202
646	0.202
646	0.201
647	0.201
647	0.201
648	0.2
648	0.2
649	0.199
649	0.199
650	0.198
650	0.198
650	0.198
651	0.198
651	0.197
652	0.197
652	0.197
653	0.197
653	0.199
653	0.206
654	0.161
654	0.129
655	0.129
655	0.13
656	0.13
656	0.131
657	0.131
657	0.132
657	0.132
658	0.131
658	0.12
659	0.151
659	0.195
660	0.2
660	0.2
661	0.2
661	0.199
661	0.199
662	0.199
662	0.199
663	0.199
663	0.199
664	0.199
664	0.199
665	0.199
665	0.199
665	0.2
666	0.2
666	0.2
667	0.2
667	0.2
668	0.201
668	0.201
669	0.201
669	0.201
669	0.201
670	0.201
670	0.201
671	0.2
671	0.2
672	0.199
672	0.199
672	0.198
673	0.198
673	0.198
674	0.197
674	0.197
675	0.197
675	0.197
676	0.197
676	0.197
676	0.197
677	0.197
677	0.197
678	0.197
678	0.197
679	0.197
679	0.197
680	0.197
680	0.197
680	0.196
681	0.197
681	0.197
682	0.198
682	0.198
683	0.198
683	0.199
684	0.199
684	0.199
684	0.198
685	0.198
685	0.199
686	0.199
686	0.198
687	0.198
687	0.198
687	0.198
688	0.198
688	0.198
689	0.199
689	0.2
690	0.199
690	0.199
691	0.199
691	0.2
691	0.2
692	0.199
692	0.199
693	0.199
693	0.199
694	0.199
694	0.199
695	0.2
695	0.2
695	0.201
696	0.201
696	0.201
697	0.201
697	0.202
698	0.202
698	0.202
698	0.202
699	0.203
699	0.203
700	0.202
700	0.202
701	0.202
701	0.202
702	0.201
702	0.201
702	0.201
703	0.2
703	0.2
704	0.2
704	0.2
705	0.2
705	0.2
705	0.201
706	0.202
706	0.202
707	0.203
707	0.203
708	0.204
708	0.204
709	0.205
709	0.205
709	0.204
710	0.204
710	0.204
711	0.205
711	0.205
712	0.205
712	0.204
713	0.204
713	0.204
713	0.204
714	0.203
714	0.203
715	0.202
715	0.202
716	0.201
716	0.201
716	0.2
717	0.2
717	0.199
718	0.199
718	0.199
719	0.199
719	0.2
720	0.2
720	0.201
720	0.201
721	0.202
721	0.203
722	0.204
722	0.204
723	0.204
723	0.205
723	0.205
724	0.205
724	0.205
725	0.204
725	0.204
726	0.204
726	0.203
727	0.203
727	0.203
727	0.203
728	0.203
728	0.203
729	0.203
729	0.203
730	0.203
730	0.204
730	0.204
731	0.204
731	0.205
732	0.205
732	0.206
733	0.206
733	0.206
734	0.207
734	0.207
734	0.208
735	0.209
735	0.209
736	0.209
736	0.209
737	0.209
737	0.209
737	0.209
738	0.209
738	0.208
739	0.207
739	0.207
740	0.206
740	0.206
741	0.206
741	0.206
741	0.206
742	0.206
742	0.206
743	0.208
743	0.208
744	0.21
744	0.21
744	0.211
745	0.211
745	0.211
746	0.212
746	0.211
747	0.211
747	0.211
748	0.21
748	0.21
748	0.209
749	0.209
749	0.209
750	0.208
750	0.208
751	0.208
751	0.208
751	0.208
752	0.207
752	0.207
753	0.207
753	0.206
754	0.206
754	0.206
754	0.207
755	0.207
755	0.207
756	0.207
756	0.207
757	0.207
757	0.207
758	0.207
758	0.208
758	0.208
759	0.209
759	0.209
760	0.209
760	0.209
761	0.209
761	0.21
761	0.21
762	0.21
762	0.211
763	0.211
763	0.211
764	0.211
764	0.211
764	0.211
765	0.211
765	0.211
766	0.211
766	0.211
767	0.211
767	0.21
768	0.209
768	0.209
768	0.209
769	0.209
769	0.209
770	0.21
770	0.21
771	0.21
771	0.211
771	0.211
772	0.212
772	0.213
773	0.213
773	0.213
774	0.213
774	0.214
775	0.214
775	0.214
775	0.213
776	0.213
776	0.213
777	0.213
777	0.213
778	0.212
778	0.212
778	0.212
779	0.212
779	0.212
780	0.212
780	0.212
781	0.212
781	0.212
781	0.212
782	0.213
782	0.213
783	0.214
783	0.215
784	0.215
784	0.215
784	0.216
785	0.217
785	0.217
786	0.218
786	0.218
787	0.219
787	0.219
788	0.218
788	0.218
788	0.217
789	0.217
789	0.217
790	0.216
790	0.215
791	0.214
791	0.214
791	0.213
792	0.213
792	0.213
793	0.212
793	0.212
794	0.212
794	0.211
794	0.211
795	0.212
795	0.212
796	0.213
796	0.213
797	0.213
797	0.214
797	0.214
798	0.215
798	0.216
799	0.216
799	0.216
800	0.216
800	0.216
801	0.215
801	0.215
801	0.215
802	0.215
802	0.215
803	0.215
803	0.215
804	0.216
804	0.216
804	0.217
805	0.217
805	0.217
806	0.217
806	0.217
807	0.217
807	0.217
807	0.218
808	0.218
808	0.218
809	0.218
809	0.218
810	0.218
810	0.218
810	0.218
811	0.218
811	0.219
812	0.219
812	0.219
813	0.219
813	0.219
813	0.219
814	0.22
814	0.22
815	0.221
815	0.221
816	0.222
816	0.221
817	0.221
817	0.221
817	0.221
818	0.221
818	0.221
819	0.221
819	0.221
820	0.221
820	0.22
820	0.221
821	0.221
821	0.221
822	0.222
822	0.222
823	0.222
823	0.222
823	0.222
824	0.223
824	0.223
825	0.224
825	0.224
826	0.225
826	0.224
826	0.225
827	0.225
827	0.225
828	0.225
828	0.225
829	0.225
829	0.225
829	0.225
830	0.225
830	0.225
831	0.225
831	0.225
832	0.225
832	0.225
832	0.225
833	0.225
833	0.225
834	0.225
834	0.225
835	0.224
835	0.224
835	0.224
836	0.224
836	0.223
837	0.223
837	0.223
838	0.222
838	0.221
839	0.221
839	0.22
839	0.219
840	0.218
840	0.218
841	0.217
841	0.216
842	0.215
842	0.215
842	0.214
843	0.214
843	0.213
844	0.213
844	0.212
845	0.212
845	0.211
845	0.211
846	0.211
846	0.211
847	0.211
847	0.211
848	0.211
848	0.212
848	0.212
849	0.213
849	0.213
850	0.214
850	0.215
851	0.215
851	0.216
851	0.217
852	0.217
852	0.218
853	0.218
853	0.219
854	0.219
854	0.22
854	0.221
855	0.221
855	0.222
856	0.222
856	0.222
857	0.222
857	0.222
857	0.221
858	0.221
858	0.22
859	0.219
859	0.218
860	0.217
860	0.217
860	0.216
861	0.216
861	0.216
862	0.215
862	0.215
863	0.215
863	0.215
863	0.215
864	0.215
864	0.215
865	0.215
865	0.215
866	0.215
866	0.215
866	0.215
867	0.215
867	0.216
868	0.216
868	0.216
869	0.216
869	0.216
869	0.216
870	0.216
870	0.215
871	0.215
871	0.215
872	0.215
872	0.215
872	0.215
873	0.215
873	0.215
874	0.215
874	0.215
875	0.215
875	0.215
875	0.215
876	0.215
876	0.215
877	0.215
877	0.215
878	0.215
878	0.215
878	0.216
879	0.215
879	0.215
880	0.215
880	0.214
881	0.214
881	0.213
881	0.213
882	0.212
882	0.212
883	0.211
883	0.211
884	0.211
884	0.211
884	0.211
885	0.211
885	0.211
886	0.211
886	0.21
887	0.21
887	0.209
887	0.208
888	0.207
888	0.206
889	0.206
889	0.205
890	0.205
890	0.204
890	0.204
891	0.203
891	0.203
892	0.203
892	0.202
893	0.202
893	0.201
893	0.201
894	0.2
894	0.2
895	0.199
895	0.199
895	0.199
896	0.199
896	0.199
897	0.2
897	0.2
898	0.201
898	0.201
898	0.202
899	0.203
899	0.203
900	0.203
900	0.203
901	0.203
901	0.203
901	0.203
902	0.202
902	0.202
903	0.201
903	0.2
904	0.2
904	0.199
904	0.198
905	0.198
905	0.197
906	0.197
906	0.197
907	0.197
907	0.197
907	0.197
908	0.197
908	0.196
909	0.196
909	0.196
910	0.196
910	0.195
910	0.195
911	0.194
911	0.194
912	0.194
912	0.193
913	0.193
913	0.194
913	0.194
914	0.194
914	0.194
915	0.194
915	0.194
916	0.194
916	0.194
916	0.194
917	0.194
917	0.194
918	0.193
918	0.193
918	0.192
919	0.192
919	0.191
920	0.191
920	0.191
921	0.191
921	0.191
921	0.19
922	0.19
922	0.191
923	0.191
923	0.192
924	0.192
924	0.193
924	0.193
925	0.194
925	0.194
926	0.194
926	0.195
927	0.194
927	0.194
927	0.193
928	0.193
928	0.192
929	0.191
929	0.19
930	0.189
930	0.188
930	0.188
931	0.187
931	0.186
932	0.186
932	0.186
933	0.185
933	0.184
933	0.184
934	0.184
934	0.183
935	0.183
935	0.182
935	0.182
936	0.181
936	0.18
937	0.18
937	0.18
938	0.18
938	0.179
938	0.179
939	0.178
939	0.178
940	0.178
940	0.178
941	0.178
941	0.177
941	0.177
942	0.177
942	0.177
943	0.177
943	0.177
944	0.177
944	0.177
944	0.177
945	0.177
945	0.176
946	0.176
946	0.176
946	0.176
947	0.176
947	0.175
948	0.175
948	0.175
949	0.174
949	0.174
949	0.173
950	0.173
950	0.173
951	0.172
951	0.172
952	0.171
952	0.17
952	0.169
953	0.169
953	0.168
954	0.167
954	0.166
955	0.166
955	0.165
955	0.164
956	0.164
956	0.164
957	0.164
957	0.164
957	0.164
958	0.164
958	0.164
959	0.163
959	0.163
960	0.163
960	0.163
960	0.163
961	0.163
961	0.163
962	0.162
962	0.162
963	0.162
963	0.162
963	0.162
964	0.162
964	0.162
965	0.162
965	0.162
966	0.162
966	0.162
966	0.162
967	0.162
967	0.162
968	0.162
968	0.162
968	0.161
969	0.161
969	0.16
970	0.159
970	0.159
971	0.158
971	0.157
971	0.157
972	0.156
972	0.156
973	0.155
973	0.155
974	0.155
974	0.155
974	0.155
975	0.155
975	0.154
976	0.155
976	0.154
976	0.154
977	0.154
977	0.153
978	0.152
978	0.152
979	0.151
979	0.15
979	0.15
980	0.149
980	0.148
981	0.147
981	0.147
982	0.146
982	0.146
982	0.145
983	0.145
983	0.145
984	0.145
984	0.145
984	0.145
985	0.145
985	0.145
986	0.145
986	0.145
987	0.145
987	0.145
987	0.145
988	0.145
988	0.145
989	0.145
989	0.145
990	0.145
990	0.145
990	0.146
991	0.145
991	0.145
992	0.145
992	0.144
992	0.143
993	0.142
993	0.141
994	0.14
994	0.139
995	0.138
995	0.137
995	0.137
996	0.136
996	0.136
997	0.136
997	0.137
997	0.137
998	0.138
998	0.138
999	0.139
999	0.14
1000	0.141
1000	0.141
1000	0.141
1001	0.142
1001	0.142
1002	0.141
1002	0.141
1003	0.14
1003	0.14
1003	0.139
1004	0.138
1004	0.137
1005	0.136
1005	0.136
1005	0.135
1006	0.135
1006	0.134
1007	0.134
1007	0.133
1008	0.133
1008	0.133
1008	0.133
1009	0.133
1009	0.133
1010	0.133
1010	0.133
1010	0.132
1011	0.132
1011	0.131
1012	0.131
1012	0.13
1013	0.13
1013	0.129
1013	0.128
1014	0.128
1014	0.127
1015	0.127
1015	0.127
1016	0.127
1016	0.127
1016	0.126
1017	0.126
1017	0.126
1018	0.126
1018	0.126
1018	0.126
1019	0.126
1019	0.126
1020	0.126
1020	0.126
1021	0.126
1021	0.127
1021	0.127
1022	0.127
1022	0.127
1023	0.127
1023	0.127
1023	0.127
1024	0.127
1024	0.127
1025	0.127
1025	0.127
1026	0.127
1026	0.126
1026	0.126
1027	0.126
1027	0.126
1028	0.125
1028	0.125
1028	0.125
1029	0.125
1029	0.125
1030	0.125
1030	0.125
1031	0.126
1031	0.126
1031	0.126
1032	0.126
1032	0.126
1033	0.126
1033	0.126
1033	0.125
1034	0.125
1034	0.125
1035	0.124
1035	0.124
1036	0.123
1036	0.123
1036	0.123
1037	0.123
1037	0.122
1038	0.122
1038	0.122
1039	0.122
1039	0.122
1039	0.122
1040	0.122
1040	0.122
1041	0.122
1041	0.122
1041	0.122
1042	0.122
1042	0.122
1043	0.121
1043	0.121
1044	0.121
1044	0.121
1044	0.121
1045	0.121
1045	0.12
1046	0.121
1046	0.12
1046	0.121
1047	0.121
1047	0.121
1048	0.121
1048	0.121
1049	0.121
1049	0.121
1049	0.12
1050	0.12
1050	0.119
1051	0.119
1051	0.118
1051	0.117
1052	0.117
1052	0.116
1053	0.115
1053	0.115
1053	0.114
1054	0.113
1054	0.113
1055	0.112
1055	0.111
1056	0.111
1056	0.11
1056	0.109
1057	0.108
1057	0.108
1058	0.107
1058	0.106
1058	0.105
1059	0.104
1059	0.104
1060	0.103
1060	0.103
1061	0.102
1061	0.101
1061	0.101
1062	0.101
1062	0.101
1063	0.1
1063	0.1
1063	0.1
1064	0.099
1064	0.099
1065	0.098
1065	0.098
1066	0.098
1066	0.098
1066	0.098
1067	0.097
1067	0.097
1068	0.097
1068	0.097
1068	0.096
1069	0.096
1069	0.096
1070	0.096
1070	0.095
1071	0.095
1071	0.095
1071	0.094
1072	0.094
1072	0.094
1073	0.093
1073	0.093
1073	0.093
1074	0.093
1074	0.093
1075	0.093
1075	0.094
1076	0.094
1076	0.095
1076	0.095
1077	0.095
1077	0.095
1078	0.095
1078	0.095
1078	0.095
1079	0.094
1079	0.094
1080	0.093
1080	0.093
1080	0.093
1081	0.093
1081	0.093
1082	0.094
1082	0.094
1083	0.094
1083	0.093
1083	0.093
1084	0.093
1084	0.093
1085	0.093
1085	0.093
1085	0.093
1086	0.093
1086	0.092
1087	0.092
1087	0.092
1088	0.092
1088	0.092
1088	0.092
1089	0.091
1089	0.091
1090	0.09
1090	0.089
1090	0.088
1091	0.088
1091	0.088
1092	0.087
1092	0.087
1092	0.087
1093	0.086
1093	0.086
1094	0.086
1094	0.085
1095	0.085
1095	0.085
1095	0.084
1096	0.083
1096	0.082
1097	0.082
1097	0.081
1097	0.08
1098	0.079
1098	0.078
1099	0.078
1099	0.077
1100	0.075
1100	0.073
1100	0.072
1101	0.071
1101	0.07
1102	0.069
1102	0.068
1102	0.067
1103	0.066
1103	0.065
1104	0.063
1104	0.063
1104	0.062
1105	0.061
1105	0.059
1106	0.058
1106	0.056
1107	0.055
1107	0.054
1107	0.053
1108	0.051
1108	0.051
1109	0.049
1109	0.048
1109	0.047
1110	0.049
1110	0.047
1111	0.047
1111	0.043
