Data from reversibility-20sec_Absorbance__2467__000000000002467.txt Node

Date: Wed Dec 06 01:55:26 CET 2023
User: Marek
Spectrometer: MAYP115816
Trigger mode: 0
Integration Time (sec): 2.000000E-1
Scans to average: 10
Electric dark correction enabled: true
Nonlinearity correction enabled: true
Boxcar width: 5
XAxis mode: Wavelengths
Number of Pixels in Spectrum: 2068
>>>>>Begin Spectral Data<<<<<
199	-0.148
199	-0.12
200	-0.046
200	0.009
201	0.04
201	0.06
202	0.079
202	0.087
203	0.092
203	0.095
204	0.107
204	0.122
205	0.137
205	0.14
205	0.138
206	0.138
206	0.138
207	0.138
207	0.138
208	0.14
208	0.137
209	0.143
209	0.139
210	0.137
210	0.138
211	0.139
211	0.142
212	0.138
212	0.137
213	0.138
213	0.139
213	0.143
214	0.145
214	0.149
215	0.152
215	0.154
216	0.156
216	0.153
217	0.156
217	0.161
218	0.163
218	0.167
219	0.172
219	0.171
220	0.171
220	0.169
221	0.171
221	0.173
221	0.177
222	0.183
222	0.184
223	0.189
223	0.19
224	0.197
224	0.205
225	0.216
225	0.229
226	0.234
226	0.245
227	0.255
227	0.266
228	0.282
228	0.298
229	0.316
229	0.337
229	0.362
230	0.387
230	0.416
231	0.45
231	0.49
232	0.528
232	0.572
233	0.614
233	0.661
234	0.711
234	0.763
235	0.814
235	0.865
236	0.917
236	0.972
236	1.026
237	1.081
237	1.128
238	1.179
238	1.228
239	1.282
239	1.325
240	1.368
240	1.409
241	1.449
241	1.486
242	1.518
242	1.554
243	1.587
243	1.616
243	1.643
244	1.664
244	1.691
245	1.713
245	1.736
246	1.757
246	1.778
247	1.796
247	1.811
248	1.829
248	1.845
249	1.855
249	1.865
250	1.873
250	1.882
250	1.888
251	1.894
251	1.894
252	1.898
252	1.899
253	1.902
253	1.898
254	1.9
254	1.902
255	1.9
255	1.9
256	1.9
256	1.898
257	1.9
257	1.899
258	1.9
258	1.899
258	1.902
259	1.903
259	1.903
260	1.905
260	1.91
261	1.913
261	1.918
262	1.924
262	1.929
263	1.935
263	1.938
264	1.941
264	1.945
265	1.949
265	1.954
265	1.955
266	1.957
266	1.959
267	1.958
267	1.961
268	1.963
268	1.966
269	1.97
269	1.97
270	1.97
270	1.971
271	1.969
271	1.97
272	1.967
272	1.964
272	1.957
273	1.947
273	1.936
274	1.926
274	1.917
275	1.907
275	1.898
276	1.89
276	1.881
277	1.871
277	1.861
278	1.849
278	1.836
278	1.821
279	1.8
279	1.771
280	1.737
280	1.695
281	1.648
281	1.597
282	1.544
282	1.493
283	1.443
283	1.396
284	1.351
284	1.309
285	1.27
285	1.236
285	1.205
286	1.178
286	1.156
287	1.135
287	1.119
288	1.104
288	1.092
289	1.082
289	1.073
290	1.066
290	1.059
291	1.054
291	1.049
292	1.044
292	1.04
292	1.037
293	1.033
293	1.03
294	1.027
294	1.024
295	1.022
295	1.019
296	1.016
296	1.013
297	1.011
297	1.008
298	1.006
298	1.003
298	1.001
299	0.998
299	0.996
300	0.993
300	0.991
301	0.989
301	0.986
302	0.984
302	0.982
303	0.98
303	0.978
304	0.976
304	0.974
305	0.972
305	0.969
305	0.967
306	0.964
306	0.962
307	0.96
307	0.957
308	0.955
308	0.952
309	0.949
309	0.946
310	0.944
310	0.941
311	0.938
311	0.935
311	0.932
312	0.929
312	0.926
313	0.922
313	0.919
314	0.915
314	0.911
315	0.907
315	0.902
316	0.898
316	0.894
317	0.889
317	0.884
318	0.879
318	0.874
318	0.869
319	0.863
319	0.858
320	0.852
320	0.846
321	0.84
321	0.834
322	0.828
322	0.822
323	0.815
323	0.809
324	0.802
324	0.796
324	0.789
325	0.782
325	0.776
326	0.769
326	0.762
327	0.755
327	0.748
328	0.741
328	0.734
329	0.727
329	0.72
330	0.712
330	0.705
330	0.698
331	0.691
331	0.684
332	0.677
332	0.67
333	0.663
333	0.656
334	0.649
334	0.642
335	0.636
335	0.629
336	0.622
336	0.615
336	0.608
337	0.602
337	0.596
338	0.589
338	0.583
339	0.577
339	0.571
340	0.565
340	0.559
341	0.553
341	0.548
342	0.542
342	0.536
342	0.531
343	0.526
343	0.521
344	0.516
344	0.511
345	0.507
345	0.502
346	0.497
346	0.493
347	0.488
347	0.484
348	0.48
348	0.476
348	0.472
349	0.468
349	0.464
350	0.461
350	0.457
351	0.454
351	0.451
352	0.447
352	0.444
353	0.441
353	0.438
354	0.435
354	0.432
354	0.43
355	0.427
355	0.424
356	0.421
356	0.419
357	0.415
357	0.412
358	0.41
358	0.407
359	0.405
359	0.402
360	0.4
360	0.398
360	0.396
361	0.394
361	0.392
362	0.39
362	0.389
363	0.387
363	0.385
364	0.383
364	0.382
365	0.38
365	0.378
366	0.376
366	0.375
366	0.373
367	0.372
367	0.37
368	0.368
368	0.367
369	0.365
369	0.364
370	0.362
370	0.361
371	0.36
371	0.358
372	0.357
372	0.355
372	0.354
373	0.353
373	0.352
374	0.351
374	0.35
375	0.349
375	0.348
376	0.347
376	0.346
377	0.345
377	0.344
378	0.343
378	0.342
378	0.341
379	0.34
379	0.339
380	0.339
380	0.338
381	0.337
381	0.336
382	0.336
382	0.335
383	0.334
383	0.334
383	0.333
384	0.332
384	0.332
385	0.331
385	0.331
386	0.33
386	0.33
387	0.329
387	0.329
388	0.328
388	0.328
389	0.327
389	0.327
389	0.326
390	0.326
390	0.325
391	0.325
391	0.324
392	0.324
392	0.324
393	0.323
393	0.323
394	0.322
394	0.322
394	0.322
395	0.321
395	0.321
396	0.321
396	0.32
397	0.32
397	0.319
398	0.319
398	0.318
399	0.318
399	0.317
400	0.317
400	0.317
400	0.316
401	0.316
401	0.315
402	0.315
402	0.315
403	0.315
403	0.314
404	0.314
404	0.314
405	0.313
405	0.313
405	0.313
406	0.313
406	0.312
407	0.312
407	0.311
408	0.311
408	0.311
409	0.31
409	0.31
410	0.31
410	0.309
411	0.309
411	0.309
411	0.308
412	0.308
412	0.308
413	0.307
413	0.307
414	0.307
414	0.307
415	0.306
415	0.306
416	0.306
416	0.305
416	0.305
417	0.304
417	0.304
418	0.304
418	0.303
419	0.303
419	0.302
420	0.302
420	0.301
421	0.301
421	0.301
421	0.301
422	0.3
422	0.3
423	0.299
423	0.299
424	0.298
424	0.298
425	0.298
425	0.298
426	0.297
426	0.297
427	0.297
427	0.297
427	0.296
428	0.296
428	0.296
429	0.296
429	0.295
430	0.295
430	0.295
431	0.294
431	0.294
432	0.294
432	0.294
432	0.293
433	0.293
433	0.293
434	0.293
434	0.293
435	0.292
435	0.292
436	0.292
436	0.292
437	0.291
437	0.291
437	0.291
438	0.291
438	0.291
439	0.29
439	0.29
440	0.29
440	0.29
441	0.289
441	0.289
442	0.289
442	0.289
442	0.288
443	0.288
443	0.288
444	0.287
444	0.287
445	0.287
445	0.287
446	0.286
446	0.286
447	0.286
447	0.285
447	0.285
448	0.285
448	0.285
449	0.285
449	0.284
450	0.284
450	0.284
451	0.284
451	0.284
452	0.284
452	0.283
452	0.283
453	0.283
453	0.283
454	0.283
454	0.282
455	0.282
455	0.282
456	0.282
456	0.281
457	0.281
457	0.281
458	0.281
458	0.28
458	0.28
459	0.28
459	0.28
460	0.28
460	0.28
461	0.279
461	0.279
462	0.279
462	0.279
463	0.278
463	0.278
463	0.278
464	0.277
464	0.277
465	0.277
465	0.277
466	0.277
466	0.276
467	0.276
467	0.276
467	0.276
468	0.276
468	0.276
469	0.276
469	0.276
470	0.277
470	0.277
471	0.276
471	0.276
472	0.277
472	0.277
472	0.277
473	0.277
473	0.277
474	0.277
474	0.277
475	0.277
475	0.277
476	0.277
476	0.277
477	0.277
477	0.276
477	0.276
478	0.276
478	0.276
479	0.276
479	0.276
480	0.276
480	0.276
481	0.276
481	0.276
482	0.276
482	0.277
482	0.277
483	0.277
483	0.277
484	0.278
484	0.277
485	0.278
485	0.278
486	0.278
486	0.278
487	0.278
487	0.278
487	0.279
488	0.279
488	0.279
489	0.279
489	0.28
490	0.281
490	0.281
491	0.282
491	0.282
492	0.283
492	0.283
492	0.284
493	0.284
493	0.285
494	0.285
494	0.286
495	0.286
495	0.287
496	0.287
496	0.288
496	0.288
497	0.289
497	0.289
498	0.29
498	0.29
499	0.291
499	0.291
500	0.292
500	0.293
501	0.293
501	0.294
501	0.294
502	0.295
502	0.295
503	0.296
503	0.296
504	0.297
504	0.297
505	0.298
505	0.298
506	0.298
506	0.299
506	0.299
507	0.299
507	0.3
508	0.301
508	0.301
509	0.302
509	0.303
510	0.303
510	0.304
511	0.305
511	0.306
511	0.306
512	0.307
512	0.308
513	0.308
513	0.308
514	0.309
514	0.31
515	0.31
515	0.31
515	0.311
516	0.311
516	0.311
517	0.312
517	0.312
518	0.312
518	0.313
519	0.313
519	0.313
520	0.314
520	0.314
520	0.314
521	0.314
521	0.314
522	0.315
522	0.315
523	0.315
523	0.315
524	0.315
524	0.316
524	0.316
525	0.316
525	0.316
526	0.317
526	0.317
527	0.317
527	0.317
528	0.316
528	0.317
529	0.316
529	0.316
529	0.316
530	0.315
530	0.315
531	0.315
531	0.315
532	0.314
532	0.314
533	0.314
533	0.314
533	0.314
534	0.313
534	0.313
535	0.313
535	0.313
536	0.313
536	0.312
537	0.312
537	0.312
538	0.311
538	0.311
538	0.31
539	0.31
539	0.31
540	0.309
540	0.309
541	0.308
541	0.308
542	0.307
542	0.307
542	0.307
543	0.306
543	0.306
544	0.306
544	0.305
545	0.305
545	0.305
546	0.304
546	0.304
547	0.303
547	0.302
547	0.302
548	0.301
548	0.301
549	0.3
549	0.3
550	0.299
550	0.299
551	0.298
551	0.298
551	0.297
552	0.297
552	0.296
553	0.296
553	0.295
554	0.295
554	0.294
555	0.293
555	0.292
556	0.291
556	0.291
556	0.291
557	0.29
557	0.29
558	0.29
558	0.289
559	0.289
559	0.289
560	0.288
560	0.288
560	0.288
561	0.288
561	0.287
562	0.287
562	0.286
563	0.284
563	0.284
564	0.283
564	0.282
564	0.282
565	0.281
565	0.281
566	0.28
566	0.28
567	0.279
567	0.279
568	0.279
568	0.278
568	0.278
569	0.278
569	0.277
570	0.276
570	0.275
571	0.275
571	0.274
572	0.273
572	0.273
573	0.273
573	0.272
573	0.271
574	0.271
574	0.271
575	0.271
575	0.271
576	0.271
576	0.27
577	0.269
577	0.268
577	0.268
578	0.268
578	0.267
579	0.267
579	0.267
580	0.266
580	0.265
581	0.264
581	0.264
581	0.264
582	0.264
582	0.264
583	0.264
583	0.264
584	0.263
584	0.262
585	0.261
585	0.261
585	0.261
586	0.26
586	0.259
587	0.259
587	0.258
588	0.257
588	0.257
589	0.256
589	0.256
590	0.255
590	0.255
590	0.255
591	0.255
591	0.254
592	0.254
592	0.253
593	0.252
593	0.252
594	0.252
594	0.251
594	0.251
595	0.25
595	0.25
596	0.249
596	0.25
597	0.251
597	0.251
598	0.25
598	0.25
598	0.25
599	0.25
599	0.25
600	0.249
600	0.249
601	0.249
601	0.248
602	0.247
602	0.247
602	0.246
603	0.246
603	0.246
604	0.246
604	0.245
605	0.245
605	0.245
606	0.245
606	0.244
606	0.244
607	0.243
607	0.243
608	0.243
608	0.242
609	0.241
609	0.241
610	0.24
610	0.24
610	0.24
611	0.239
611	0.239
612	0.239
612	0.24
613	0.24
613	0.24
614	0.239
614	0.239
614	0.239
615	0.239
615	0.238
616	0.238
616	0.238
617	0.238
617	0.238
618	0.238
618	0.238
618	0.238
619	0.239
619	0.239
620	0.239
620	0.239
621	0.238
621	0.238
622	0.237
622	0.236
622	0.236
623	0.235
623	0.235
624	0.234
624	0.234
625	0.233
625	0.233
626	0.233
626	0.232
626	0.233
627	0.233
627	0.232
628	0.232
628	0.232
629	0.232
629	0.232
630	0.232
630	0.232
630	0.232
631	0.232
631	0.231
632	0.231
632	0.231
633	0.231
633	0.23
634	0.231
634	0.231
634	0.23
635	0.23
635	0.23
636	0.23
636	0.23
637	0.229
637	0.229
638	0.228
638	0.228
638	0.228
639	0.227
639	0.227
640	0.227
640	0.227
641	0.227
641	0.227
642	0.227
642	0.227
642	0.227
643	0.227
643	0.227
644	0.227
644	0.227
645	0.227
645	0.227
646	0.227
646	0.227
646	0.227
647	0.227
647	0.226
648	0.226
648	0.225
649	0.225
649	0.225
650	0.224
650	0.224
650	0.224
651	0.224
651	0.224
652	0.224
652	0.224
653	0.225
653	0.227
653	0.233
654	0.181
654	0.144
655	0.146
655	0.146
656	0.147
656	0.147
657	0.147
657	0.148
657	0.148
658	0.146
658	0.135
659	0.172
659	0.223
660	0.227
660	0.227
661	0.226
661	0.226
661	0.225
662	0.225
662	0.224
663	0.224
663	0.223
664	0.223
664	0.223
665	0.223
665	0.223
665	0.223
666	0.223
666	0.223
667	0.224
667	0.224
668	0.224
668	0.224
669	0.224
669	0.225
669	0.225
670	0.225
670	0.225
671	0.225
671	0.225
672	0.225
672	0.224
672	0.224
673	0.224
673	0.224
674	0.224
674	0.223
675	0.223
675	0.223
676	0.224
676	0.224
676	0.224
677	0.224
677	0.225
678	0.225
678	0.224
679	0.224
679	0.225
680	0.225
680	0.224
680	0.224
681	0.224
681	0.225
682	0.225
682	0.225
683	0.225
683	0.225
684	0.225
684	0.224
684	0.224
685	0.224
685	0.224
686	0.224
686	0.224
687	0.224
687	0.224
687	0.224
688	0.224
688	0.225
689	0.225
689	0.226
690	0.226
690	0.226
691	0.226
691	0.227
691	0.227
692	0.227
692	0.227
693	0.228
693	0.228
694	0.228
694	0.228
695	0.229
695	0.23
695	0.23
696	0.23
696	0.23
697	0.23
697	0.229
698	0.229
698	0.229
698	0.229
699	0.229
699	0.228
700	0.228
700	0.228
701	0.229
701	0.229
702	0.229
702	0.229
702	0.229
703	0.229
703	0.229
704	0.23
704	0.23
705	0.23
705	0.229
705	0.229
706	0.229
706	0.229
707	0.229
707	0.228
708	0.228
708	0.228
709	0.228
709	0.228
709	0.228
710	0.228
710	0.229
711	0.229
711	0.229
712	0.23
712	0.23
713	0.23
713	0.231
713	0.231
714	0.231
714	0.231
715	0.231
715	0.23
716	0.23
716	0.23
716	0.229
717	0.229
717	0.228
718	0.227
718	0.227
719	0.227
719	0.227
720	0.227
720	0.227
720	0.228
721	0.228
721	0.229
722	0.229
722	0.23
723	0.23
723	0.231
723	0.231
724	0.231
724	0.231
725	0.23
725	0.229
726	0.229
726	0.228
727	0.227
727	0.227
727	0.227
728	0.226
728	0.226
729	0.227
729	0.227
730	0.228
730	0.229
730	0.229
731	0.23
731	0.231
732	0.232
732	0.232
733	0.232
733	0.232
734	0.232
734	0.231
734	0.231
735	0.231
735	0.23
736	0.229
736	0.229
737	0.228
737	0.228
737	0.228
738	0.227
738	0.227
739	0.227
739	0.227
740	0.227
740	0.227
741	0.228
741	0.228
741	0.228
742	0.228
742	0.229
743	0.229
743	0.229
744	0.23
744	0.23
744	0.23
745	0.23
745	0.229
746	0.229
746	0.23
747	0.23
747	0.23
748	0.231
748	0.232
748	0.232
749	0.232
749	0.233
750	0.233
750	0.234
751	0.234
751	0.234
751	0.234
752	0.233
752	0.233
753	0.232
753	0.232
754	0.231
754	0.231
754	0.23
755	0.23
755	0.23
756	0.229
756	0.228
757	0.227
757	0.227
758	0.227
758	0.227
758	0.227
759	0.228
759	0.227
760	0.228
760	0.228
761	0.228
761	0.229
761	0.23
762	0.23
762	0.231
763	0.231
763	0.231
764	0.231
764	0.232
764	0.232
765	0.231
765	0.231
766	0.231
766	0.231
767	0.231
767	0.23
768	0.229
768	0.229
768	0.228
769	0.228
769	0.228
770	0.228
770	0.228
771	0.228
771	0.228
771	0.229
772	0.229
772	0.23
773	0.231
773	0.231
774	0.231
774	0.231
775	0.232
775	0.232
775	0.232
776	0.232
776	0.232
777	0.233
777	0.232
778	0.232
778	0.232
778	0.232
779	0.232
779	0.231
780	0.231
780	0.23
781	0.23
781	0.23
781	0.23
782	0.23
782	0.23
783	0.23
783	0.231
784	0.231
784	0.231
784	0.232
785	0.232
785	0.232
786	0.232
786	0.232
787	0.232
787	0.232
788	0.232
788	0.231
788	0.231
789	0.231
789	0.231
790	0.231
790	0.23
791	0.23
791	0.231
791	0.231
792	0.232
792	0.233
793	0.233
793	0.233
794	0.234
794	0.234
794	0.234
795	0.234
795	0.234
796	0.234
796	0.235
797	0.234
797	0.234
797	0.234
798	0.234
798	0.234
799	0.234
799	0.234
800	0.234
800	0.233
801	0.233
801	0.233
801	0.232
802	0.232
802	0.232
803	0.232
803	0.232
804	0.233
804	0.233
804	0.233
805	0.233
805	0.234
806	0.234
806	0.235
807	0.235
807	0.235
807	0.235
808	0.235
808	0.235
809	0.235
809	0.236
810	0.236
810	0.236
810	0.236
811	0.236
811	0.236
812	0.237
812	0.237
813	0.237
813	0.237
813	0.237
814	0.237
814	0.237
815	0.238
815	0.237
816	0.237
816	0.236
817	0.235
817	0.235
817	0.235
818	0.234
818	0.234
819	0.234
819	0.234
820	0.233
820	0.233
820	0.233
821	0.234
821	0.234
822	0.234
822	0.234
823	0.235
823	0.235
823	0.235
824	0.236
824	0.237
825	0.238
825	0.238
826	0.238
826	0.238
826	0.238
827	0.239
827	0.239
828	0.239
828	0.239
829	0.239
829	0.238
829	0.238
830	0.238
830	0.238
831	0.239
831	0.239
832	0.238
832	0.239
832	0.239
833	0.239
833	0.238
834	0.238
834	0.238
835	0.238
835	0.238
835	0.239
836	0.239
836	0.239
837	0.239
837	0.24
838	0.24
838	0.239
839	0.239
839	0.239
839	0.238
840	0.237
840	0.236
841	0.235
841	0.234
842	0.233
842	0.232
842	0.231
843	0.231
843	0.23
844	0.23
844	0.23
845	0.231
845	0.231
845	0.231
846	0.231
846	0.231
847	0.231
847	0.232
848	0.232
848	0.233
848	0.233
849	0.233
849	0.234
850	0.234
850	0.234
851	0.234
851	0.234
851	0.234
852	0.233
852	0.233
853	0.232
853	0.231
854	0.231
854	0.231
854	0.231
855	0.231
855	0.232
856	0.232
856	0.232
857	0.233
857	0.233
857	0.233
858	0.233
858	0.233
859	0.233
859	0.232
860	0.231
860	0.23
860	0.23
861	0.229
861	0.228
862	0.227
862	0.226
863	0.225
863	0.225
863	0.224
864	0.224
864	0.224
865	0.224
865	0.224
866	0.224
866	0.224
866	0.224
867	0.224
867	0.224
868	0.224
868	0.223
869	0.223
869	0.222
869	0.221
870	0.221
870	0.22
871	0.22
871	0.22
872	0.219
872	0.219
872	0.219
873	0.219
873	0.219
874	0.218
874	0.218
875	0.218
875	0.218
875	0.218
876	0.218
876	0.217
877	0.217
877	0.218
878	0.218
878	0.219
878	0.22
879	0.222
879	0.223
880	0.223
880	0.224
881	0.225
881	0.225
881	0.225
882	0.224
882	0.223
883	0.223
883	0.221
884	0.22
884	0.219
884	0.218
885	0.217
885	0.216
886	0.215
886	0.215
887	0.214
887	0.214
887	0.213
888	0.212
888	0.211
889	0.21
889	0.21
890	0.21
890	0.209
890	0.209
891	0.209
891	0.208
892	0.208
892	0.208
893	0.208
893	0.208
893	0.208
894	0.208
894	0.208
895	0.207
895	0.207
895	0.207
896	0.206
896	0.206
897	0.205
897	0.205
898	0.204
898	0.204
898	0.204
899	0.204
899	0.204
900	0.204
900	0.204
901	0.204
901	0.204
901	0.204
902	0.204
902	0.204
903	0.204
903	0.203
904	0.203
904	0.203
904	0.202
905	0.202
905	0.202
906	0.202
906	0.202
907	0.202
907	0.202
907	0.203
908	0.203
908	0.203
909	0.203
909	0.203
910	0.203
910	0.202
910	0.201
911	0.201
911	0.2
912	0.199
912	0.198
913	0.197
913	0.196
913	0.195
914	0.195
914	0.194
915	0.194
915	0.193
916	0.192
916	0.192
916	0.191
917	0.191
917	0.19
918	0.189
918	0.188
918	0.187
919	0.187
919	0.186
920	0.185
920	0.184
921	0.183
921	0.182
921	0.182
922	0.181
922	0.18
923	0.18
923	0.18
924	0.18
924	0.18
924	0.18
925	0.181
925	0.181
926	0.181
926	0.182
927	0.182
927	0.182
927	0.183
928	0.183
928	0.183
929	0.183
929	0.183
930	0.183
930	0.183
930	0.183
931	0.183
931	0.183
932	0.184
932	0.184
933	0.185
933	0.185
933	0.185
934	0.185
934	0.185
935	0.184
935	0.184
935	0.184
936	0.183
936	0.183
937	0.182
937	0.181
938	0.18
938	0.18
938	0.179
939	0.178
939	0.177
940	0.177
940	0.176
941	0.176
941	0.175
941	0.175
942	0.175
942	0.174
943	0.174
943	0.173
944	0.172
944	0.172
944	0.171
945	0.17
945	0.17
946	0.17
946	0.169
946	0.169
947	0.169
947	0.168
948	0.168
948	0.168
949	0.167
949	0.166
949	0.165
950	0.165
950	0.164
951	0.163
951	0.161
952	0.16
952	0.159
952	0.158
953	0.157
953	0.156
954	0.156
954	0.155
955	0.155
955	0.154
955	0.154
956	0.154
956	0.155
957	0.155
957	0.155
957	0.156
958	0.157
958	0.157
959	0.157
959	0.158
960	0.158
960	0.158
960	0.158
961	0.158
961	0.158
962	0.158
962	0.158
963	0.157
963	0.157
963	0.157
964	0.157
964	0.158
965	0.158
965	0.158
966	0.159
966	0.159
966	0.159
967	0.159
967	0.16
968	0.16
968	0.16
968	0.16
969	0.159
969	0.159
970	0.159
970	0.158
971	0.158
971	0.158
971	0.158
972	0.157
972	0.157
973	0.157
973	0.157
974	0.157
974	0.157
974	0.157
975	0.157
975	0.157
976	0.158
976	0.158
976	0.157
977	0.157
977	0.157
978	0.156
978	0.156
979	0.156
979	0.155
979	0.154
980	0.153
980	0.152
981	0.151
981	0.151
982	0.15
982	0.149
982	0.148
983	0.147
983	0.146
984	0.145
984	0.144
984	0.143
985	0.142
985	0.142
986	0.141
986	0.14
987	0.139
987	0.138
987	0.138
988	0.137
988	0.137
989	0.136
989	0.136
990	0.135
990	0.135
990	0.135
991	0.134
991	0.134
992	0.133
992	0.133
992	0.132
993	0.131
993	0.131
994	0.13
994	0.13
995	0.129
995	0.129
995	0.129
996	0.129
996	0.129
997	0.129
997	0.129
997	0.13
998	0.13
998	0.131
999	0.131
999	0.132
1000	0.133
1000	0.133
1000	0.133
1001	0.133
1001	0.134
1002	0.133
1002	0.133
1003	0.133
1003	0.133
1003	0.132
1004	0.132
1004	0.131
1005	0.13
1005	0.13
1005	0.129
1006	0.129
1006	0.128
1007	0.128
1007	0.127
1008	0.127
1008	0.127
1008	0.127
1009	0.127
1009	0.127
1010	0.127
1010	0.127
1010	0.127
1011	0.127
1011	0.127
1012	0.127
1012	0.127
1013	0.127
1013	0.126
1013	0.126
1014	0.126
1014	0.125
1015	0.125
1015	0.125
1016	0.124
1016	0.123
1016	0.123
1017	0.122
1017	0.121
1018	0.121
1018	0.12
1018	0.12
1019	0.12
1019	0.12
1020	0.12
1020	0.119
1021	0.119
1021	0.12
1021	0.12
1022	0.12
1022	0.12
1023	0.12
1023	0.12
1023	0.12
1024	0.12
1024	0.12
1025	0.12
1025	0.12
1026	0.119
1026	0.119
1026	0.119
1027	0.119
1027	0.119
1028	0.119
1028	0.119
1028	0.119
1029	0.119
1029	0.12
1030	0.12
1030	0.12
1031	0.12
1031	0.121
1031	0.121
1032	0.121
1032	0.121
1033	0.121
1033	0.121
1033	0.12
1034	0.12
1034	0.12
1035	0.12
1035	0.119
1036	0.119
1036	0.119
1036	0.118
1037	0.118
1037	0.118
1038	0.118
1038	0.118
1039	0.118
1039	0.118
1039	0.118
1040	0.118
1040	0.118
1041	0.118
1041	0.119
1041	0.119
1042	0.119
1042	0.119
1043	0.119
1043	0.119
1044	0.119
1044	0.119
1044	0.119
1045	0.119
1045	0.119
1046	0.119
1046	0.119
1046	0.119
1047	0.119
1047	0.119
1048	0.119
1048	0.12
1049	0.12
1049	0.12
1049	0.12
1050	0.12
1050	0.12
1051	0.12
1051	0.119
1051	0.119
1052	0.118
1052	0.117
1053	0.116
1053	0.116
1053	0.115
1054	0.114
1054	0.113
1055	0.113
1055	0.112
1056	0.111
1056	0.11
1056	0.109
1057	0.108
1057	0.107
1058	0.106
1058	0.105
1058	0.104
1059	0.103
1059	0.102
1060	0.101
1060	0.101
1061	0.1
1061	0.1
1061	0.1
1062	0.099
1062	0.099
1063	0.098
1063	0.098
1063	0.098
1064	0.098
1064	0.098
1065	0.098
1065	0.097
1066	0.097
1066	0.097
1066	0.097
1067	0.096
1067	0.096
1068	0.096
1068	0.095
1068	0.095
1069	0.095
1069	0.094
1070	0.094
1070	0.093
1071	0.093
1071	0.092
1071	0.092
1072	0.091
1072	0.09
1073	0.089
1073	0.089
1073	0.088
1074	0.088
1074	0.088
1075	0.088
1075	0.088
1076	0.088
1076	0.089
1076	0.089
1077	0.09
1077	0.09
1078	0.09
1078	0.091
1078	0.091
1079	0.091
1079	0.091
1080	0.09
1080	0.09
1080	0.09
1081	0.09
1081	0.09
1082	0.09
1082	0.09
1083	0.09
1083	0.09
1083	0.09
1084	0.09
1084	0.09
1085	0.089
1085	0.089
1085	0.089
1086	0.088
1086	0.087
1087	0.087
1087	0.086
1088	0.086
1088	0.086
1088	0.085
1089	0.085
1089	0.084
1090	0.083
1090	0.083
1090	0.082
1091	0.081
1091	0.081
1092	0.081
1092	0.081
1092	0.081
1093	0.08
1093	0.08
1094	0.081
1094	0.081
1095	0.08
1095	0.08
1095	0.08
1096	0.079
1096	0.078
1097	0.078
1097	0.077
1097	0.077
1098	0.077
1098	0.075
1099	0.074
1099	0.074
1100	0.073
1100	0.072
1100	0.07
1101	0.069
1101	0.068
1102	0.068
1102	0.067
1102	0.065
1103	0.065
1103	0.065
1104	0.065
1104	0.065
1104	0.065
1105	0.064
1105	0.061
1106	0.06
1106	0.059
1107	0.058
1107	0.059
1107	0.057
1108	0.056
1108	0.054
1109	0.053
1109	0.052
1109	0.053
1110	0.056
1110	0.057
1111	0.059
1111	0.062
