Data from reversibility-20sec_Absorbance__2680__000000000002680.txt Node

Date: Wed Dec 06 03:06:26 CET 2023
User: Marek
Spectrometer: MAYP115816
Trigger mode: 0
Integration Time (sec): 2.000000E-1
Scans to average: 10
Electric dark correction enabled: true
Nonlinearity correction enabled: true
Boxcar width: 5
XAxis mode: Wavelengths
Number of Pixels in Spectrum: 2068
>>>>>Begin Spectral Data<<<<<
199	-0.158
199	-0.13
200	-0.068
200	-0.018
201	0.013
201	0.03
202	0.046
202	0.057
203	0.065
203	0.067
204	0.08
204	0.094
205	0.108
205	0.115
205	0.113
206	0.112
206	0.11
207	0.111
207	0.107
208	0.107
208	0.107
209	0.112
209	0.109
210	0.11
210	0.11
211	0.113
211	0.116
212	0.116
212	0.117
213	0.123
213	0.123
213	0.122
214	0.124
214	0.127
215	0.127
215	0.128
216	0.13
216	0.129
217	0.13
217	0.131
218	0.13
218	0.135
219	0.141
219	0.141
220	0.142
220	0.142
221	0.141
221	0.142
221	0.148
222	0.157
222	0.161
223	0.167
223	0.171
224	0.174
224	0.185
225	0.194
225	0.207
226	0.217
226	0.23
227	0.241
227	0.25
228	0.266
228	0.279
229	0.295
229	0.319
229	0.341
230	0.37
230	0.398
231	0.433
231	0.472
232	0.506
232	0.546
233	0.593
233	0.642
234	0.692
234	0.741
235	0.792
235	0.841
236	0.894
236	0.945
236	0.998
237	1.054
237	1.106
238	1.155
238	1.205
239	1.257
239	1.306
240	1.35
240	1.391
241	1.432
241	1.469
242	1.503
242	1.539
243	1.573
243	1.601
243	1.631
244	1.654
244	1.678
245	1.701
245	1.726
246	1.747
246	1.768
247	1.782
247	1.8
248	1.818
248	1.837
249	1.849
249	1.861
250	1.871
250	1.883
250	1.89
251	1.894
251	1.901
252	1.908
252	1.91
253	1.915
253	1.912
254	1.912
254	1.916
255	1.915
255	1.916
256	1.917
256	1.921
257	1.921
257	1.921
258	1.92
258	1.921
258	1.923
259	1.925
259	1.925
260	1.927
260	1.928
261	1.929
261	1.932
262	1.938
262	1.942
263	1.949
263	1.953
264	1.955
264	1.958
265	1.961
265	1.964
265	1.966
266	1.969
266	1.971
267	1.968
267	1.971
268	1.971
268	1.972
269	1.975
269	1.976
270	1.978
270	1.978
271	1.974
271	1.976
272	1.973
272	1.973
272	1.967
273	1.961
273	1.952
274	1.946
274	1.937
275	1.93
275	1.923
276	1.918
276	1.91
277	1.902
277	1.89
278	1.88
278	1.866
278	1.851
279	1.832
279	1.81
280	1.78
280	1.745
281	1.703
281	1.659
282	1.613
282	1.566
283	1.521
283	1.476
284	1.434
284	1.394
285	1.356
285	1.321
285	1.29
286	1.264
286	1.24
287	1.219
287	1.202
288	1.187
288	1.174
289	1.163
289	1.154
290	1.146
290	1.138
291	1.132
291	1.127
292	1.121
292	1.117
292	1.112
293	1.108
293	1.104
294	1.101
294	1.098
295	1.094
295	1.091
296	1.088
296	1.085
297	1.082
297	1.079
298	1.076
298	1.073
298	1.07
299	1.067
299	1.064
300	1.061
300	1.058
301	1.055
301	1.052
302	1.05
302	1.047
303	1.045
303	1.043
304	1.04
304	1.037
305	1.035
305	1.033
305	1.03
306	1.028
306	1.025
307	1.023
307	1.02
308	1.017
308	1.014
309	1.011
309	1.008
310	1.006
310	1.002
311	0.999
311	0.996
311	0.993
312	0.989
312	0.985
313	0.981
313	0.977
314	0.973
314	0.969
315	0.964
315	0.96
316	0.955
316	0.95
317	0.946
317	0.94
318	0.935
318	0.93
318	0.925
319	0.919
319	0.914
320	0.908
320	0.902
321	0.896
321	0.89
322	0.883
322	0.877
323	0.87
323	0.864
324	0.857
324	0.85
324	0.843
325	0.836
325	0.829
326	0.822
326	0.815
327	0.808
327	0.801
328	0.794
328	0.787
329	0.78
329	0.773
330	0.766
330	0.759
330	0.751
331	0.744
331	0.737
332	0.73
332	0.723
333	0.716
333	0.709
334	0.702
334	0.695
335	0.688
335	0.681
336	0.674
336	0.668
336	0.661
337	0.654
337	0.648
338	0.642
338	0.635
339	0.629
339	0.623
340	0.617
340	0.611
341	0.605
341	0.599
342	0.594
342	0.588
342	0.583
343	0.578
343	0.572
344	0.567
344	0.562
345	0.558
345	0.553
346	0.548
346	0.544
347	0.539
347	0.535
348	0.53
348	0.527
348	0.523
349	0.519
349	0.515
350	0.511
350	0.508
351	0.504
351	0.501
352	0.498
352	0.494
353	0.491
353	0.488
354	0.485
354	0.482
354	0.479
355	0.476
355	0.473
356	0.471
356	0.468
357	0.464
357	0.461
358	0.459
358	0.456
359	0.453
359	0.451
360	0.449
360	0.446
360	0.444
361	0.442
361	0.44
362	0.439
362	0.437
363	0.435
363	0.433
364	0.431
364	0.429
365	0.427
365	0.425
366	0.423
366	0.421
366	0.42
367	0.418
367	0.416
368	0.414
368	0.412
369	0.411
369	0.409
370	0.408
370	0.406
371	0.405
371	0.404
372	0.402
372	0.401
372	0.4
373	0.398
373	0.397
374	0.396
374	0.395
375	0.394
375	0.393
376	0.392
376	0.39
377	0.389
377	0.388
378	0.387
378	0.386
378	0.385
379	0.384
379	0.383
380	0.382
380	0.381
381	0.38
381	0.379
382	0.379
382	0.378
383	0.377
383	0.376
383	0.375
384	0.374
384	0.373
385	0.373
385	0.372
386	0.371
386	0.371
387	0.37
387	0.369
388	0.369
388	0.368
389	0.367
389	0.367
389	0.366
390	0.366
390	0.365
391	0.365
391	0.364
392	0.364
392	0.363
393	0.363
393	0.362
394	0.362
394	0.361
394	0.361
395	0.36
395	0.36
396	0.359
396	0.359
397	0.358
397	0.357
398	0.357
398	0.356
399	0.356
399	0.355
400	0.355
400	0.354
400	0.354
401	0.353
401	0.353
402	0.352
402	0.352
403	0.352
403	0.351
404	0.351
404	0.35
405	0.35
405	0.349
405	0.349
406	0.349
406	0.348
407	0.348
407	0.347
408	0.347
408	0.346
409	0.346
409	0.345
410	0.345
410	0.345
411	0.344
411	0.344
411	0.344
412	0.343
412	0.343
413	0.343
413	0.342
414	0.342
414	0.341
415	0.341
415	0.341
416	0.34
416	0.34
416	0.339
417	0.339
417	0.339
418	0.338
418	0.338
419	0.338
419	0.337
420	0.336
420	0.336
421	0.335
421	0.335
421	0.335
422	0.334
422	0.334
423	0.333
423	0.333
424	0.333
424	0.332
425	0.332
425	0.332
426	0.331
426	0.331
427	0.331
427	0.33
427	0.33
428	0.329
428	0.329
429	0.329
429	0.328
430	0.328
430	0.328
431	0.328
431	0.328
432	0.327
432	0.327
432	0.327
433	0.327
433	0.327
434	0.326
434	0.326
435	0.326
435	0.326
436	0.326
436	0.326
437	0.325
437	0.325
437	0.325
438	0.325
438	0.324
439	0.324
439	0.324
440	0.323
440	0.323
441	0.323
441	0.323
442	0.322
442	0.322
442	0.322
443	0.322
443	0.322
444	0.321
444	0.321
445	0.321
445	0.321
446	0.321
446	0.321
447	0.321
447	0.321
447	0.32
448	0.32
448	0.32
449	0.32
449	0.32
450	0.32
450	0.32
451	0.319
451	0.319
452	0.319
452	0.319
452	0.319
453	0.319
453	0.319
454	0.319
454	0.319
455	0.318
455	0.318
456	0.318
456	0.318
457	0.318
457	0.318
458	0.318
458	0.318
458	0.318
459	0.318
459	0.318
460	0.318
460	0.318
461	0.318
461	0.318
462	0.318
462	0.318
463	0.317
463	0.317
463	0.318
464	0.317
464	0.317
465	0.317
465	0.317
466	0.317
466	0.317
467	0.318
467	0.318
467	0.318
468	0.318
468	0.318
469	0.319
469	0.319
470	0.32
470	0.32
471	0.32
471	0.321
472	0.321
472	0.321
472	0.322
473	0.322
473	0.322
474	0.322
474	0.322
475	0.322
475	0.323
476	0.323
476	0.323
477	0.324
477	0.324
477	0.324
478	0.324
478	0.325
479	0.325
479	0.326
480	0.326
480	0.327
481	0.328
481	0.328
482	0.328
482	0.329
482	0.33
483	0.331
483	0.331
484	0.332
484	0.332
485	0.333
485	0.333
486	0.334
486	0.335
487	0.335
487	0.336
487	0.337
488	0.337
488	0.338
489	0.339
489	0.34
490	0.341
490	0.342
491	0.343
491	0.344
492	0.345
492	0.347
492	0.348
493	0.349
493	0.35
494	0.352
494	0.353
495	0.354
495	0.355
496	0.356
496	0.358
496	0.359
497	0.36
497	0.361
498	0.362
498	0.363
499	0.364
499	0.365
500	0.367
500	0.368
501	0.369
501	0.37
501	0.371
502	0.372
502	0.373
503	0.375
503	0.376
504	0.377
504	0.378
505	0.379
505	0.381
506	0.382
506	0.383
506	0.384
507	0.385
507	0.386
508	0.387
508	0.388
509	0.389
509	0.39
510	0.391
510	0.392
511	0.393
511	0.394
511	0.395
512	0.396
512	0.397
513	0.398
513	0.399
514	0.4
514	0.401
515	0.402
515	0.402
515	0.403
516	0.404
516	0.404
517	0.405
517	0.406
518	0.406
518	0.406
519	0.407
519	0.407
520	0.407
520	0.407
520	0.408
521	0.408
521	0.408
522	0.407
522	0.407
523	0.408
523	0.407
524	0.407
524	0.407
524	0.407
525	0.407
525	0.406
526	0.406
526	0.406
527	0.405
527	0.405
528	0.404
528	0.404
529	0.403
529	0.402
529	0.401
530	0.401
530	0.4
531	0.399
531	0.398
532	0.397
532	0.396
533	0.395
533	0.393
533	0.392
534	0.391
534	0.39
535	0.389
535	0.388
536	0.387
536	0.385
537	0.384
537	0.382
538	0.381
538	0.379
538	0.378
539	0.377
539	0.375
540	0.374
540	0.372
541	0.37
541	0.369
542	0.367
542	0.366
542	0.365
543	0.363
543	0.361
544	0.359
544	0.357
545	0.356
545	0.354
546	0.353
546	0.351
547	0.348
547	0.347
547	0.345
548	0.343
548	0.341
549	0.34
549	0.338
550	0.336
550	0.335
551	0.333
551	0.331
551	0.33
552	0.328
552	0.327
553	0.325
553	0.323
554	0.322
554	0.32
555	0.318
555	0.316
556	0.314
556	0.312
556	0.31
557	0.309
557	0.307
558	0.306
558	0.304
559	0.303
559	0.301
560	0.3
560	0.299
560	0.297
561	0.297
561	0.295
562	0.293
562	0.291
563	0.289
563	0.287
564	0.285
564	0.284
564	0.283
565	0.281
565	0.28
566	0.278
566	0.277
567	0.275
567	0.274
568	0.273
568	0.271
568	0.27
569	0.269
569	0.267
570	0.266
570	0.264
571	0.263
571	0.262
572	0.26
572	0.259
573	0.258
573	0.257
573	0.256
574	0.254
574	0.254
575	0.253
575	0.252
576	0.251
576	0.25
577	0.248
577	0.247
577	0.246
578	0.245
578	0.244
579	0.243
579	0.243
580	0.241
580	0.239
581	0.238
581	0.237
581	0.237
582	0.237
582	0.236
583	0.236
583	0.235
584	0.234
584	0.232
585	0.231
585	0.23
585	0.229
586	0.228
586	0.227
587	0.226
587	0.225
588	0.224
588	0.223
589	0.222
589	0.222
590	0.221
590	0.22
590	0.22
591	0.219
591	0.218
592	0.216
592	0.215
593	0.214
593	0.214
594	0.213
594	0.212
594	0.211
595	0.21
595	0.209
596	0.208
596	0.209
597	0.209
597	0.209
598	0.208
598	0.208
598	0.208
599	0.207
599	0.206
600	0.206
600	0.205
601	0.204
601	0.204
602	0.202
602	0.201
602	0.201
603	0.2
603	0.2
604	0.199
604	0.199
605	0.198
605	0.198
606	0.198
606	0.197
606	0.196
607	0.196
607	0.195
608	0.195
608	0.194
609	0.193
609	0.193
610	0.192
610	0.191
610	0.191
611	0.191
611	0.19
612	0.19
612	0.19
613	0.19
613	0.19
614	0.189
614	0.189
614	0.188
615	0.188
615	0.187
616	0.187
616	0.187
617	0.186
617	0.186
618	0.185
618	0.185
618	0.185
619	0.185
619	0.186
620	0.186
620	0.185
621	0.185
621	0.184
622	0.183
622	0.183
622	0.182
623	0.181
623	0.181
624	0.18
624	0.18
625	0.179
625	0.178
626	0.178
626	0.177
626	0.177
627	0.177
627	0.177
628	0.176
628	0.176
629	0.176
629	0.175
630	0.175
630	0.175
630	0.175
631	0.175
631	0.174
632	0.174
632	0.173
633	0.173
633	0.173
634	0.173
634	0.173
634	0.173
635	0.172
635	0.172
636	0.172
636	0.172
637	0.171
637	0.171
638	0.17
638	0.17
638	0.169
639	0.168
639	0.168
640	0.168
640	0.168
641	0.168
641	0.167
642	0.167
642	0.168
642	0.168
643	0.168
643	0.168
644	0.168
644	0.168
645	0.168
645	0.168
646	0.168
646	0.168
646	0.168
647	0.167
647	0.167
648	0.166
648	0.165
649	0.165
649	0.164
650	0.164
650	0.164
650	0.164
651	0.164
651	0.163
652	0.163
652	0.163
653	0.164
653	0.166
653	0.171
654	0.135
654	0.109
655	0.109
655	0.109
656	0.109
656	0.109
657	0.11
657	0.11
657	0.11
658	0.109
658	0.099
659	0.125
659	0.16
660	0.165
660	0.165
661	0.164
661	0.164
661	0.163
662	0.162
662	0.162
663	0.161
663	0.161
664	0.16
664	0.16
665	0.159
665	0.159
665	0.159
666	0.159
666	0.159
667	0.159
667	0.159
668	0.16
668	0.16
669	0.16
669	0.16
669	0.16
670	0.16
670	0.16
671	0.16
671	0.16
672	0.159
672	0.159
672	0.158
673	0.158
673	0.158
674	0.158
674	0.157
675	0.157
675	0.157
676	0.157
676	0.157
676	0.157
677	0.158
677	0.158
678	0.157
678	0.157
679	0.156
679	0.156
680	0.156
680	0.156
680	0.155
681	0.155
681	0.155
682	0.155
682	0.155
683	0.155
683	0.156
684	0.156
684	0.156
684	0.155
685	0.156
685	0.156
686	0.156
686	0.156
687	0.156
687	0.156
687	0.156
688	0.156
688	0.156
689	0.156
689	0.157
690	0.157
690	0.156
691	0.156
691	0.157
691	0.157
692	0.157
692	0.157
693	0.157
693	0.158
694	0.157
694	0.157
695	0.158
695	0.159
695	0.159
696	0.158
696	0.158
697	0.158
697	0.158
698	0.157
698	0.157
698	0.157
699	0.157
699	0.156
700	0.156
700	0.156
701	0.156
701	0.156
702	0.156
702	0.156
702	0.156
703	0.156
703	0.155
704	0.155
704	0.155
705	0.155
705	0.155
705	0.154
706	0.154
706	0.154
707	0.153
707	0.153
708	0.153
708	0.153
709	0.153
709	0.153
709	0.153
710	0.153
710	0.153
711	0.153
711	0.154
712	0.154
712	0.154
713	0.154
713	0.155
713	0.155
714	0.155
714	0.155
715	0.155
715	0.154
716	0.154
716	0.154
716	0.153
717	0.153
717	0.152
718	0.151
718	0.151
719	0.151
719	0.151
720	0.151
720	0.151
720	0.151
721	0.151
721	0.152
722	0.153
722	0.153
723	0.154
723	0.155
723	0.155
724	0.155
724	0.155
725	0.155
725	0.154
726	0.154
726	0.153
727	0.152
727	0.152
727	0.151
728	0.151
728	0.15
729	0.151
729	0.151
730	0.151
730	0.151
730	0.152
731	0.152
731	0.153
732	0.153
732	0.154
733	0.154
733	0.154
734	0.154
734	0.153
734	0.153
735	0.153
735	0.153
736	0.152
736	0.152
737	0.151
737	0.151
737	0.151
738	0.15
738	0.149
739	0.149
739	0.149
740	0.149
740	0.149
741	0.15
741	0.15
741	0.15
742	0.15
742	0.15
743	0.151
743	0.151
744	0.151
744	0.151
744	0.151
745	0.151
745	0.15
746	0.15
746	0.15
747	0.15
747	0.15
748	0.15
748	0.15
748	0.151
749	0.151
749	0.151
750	0.152
750	0.152
751	0.152
751	0.152
751	0.152
752	0.152
752	0.151
753	0.151
753	0.15
754	0.15
754	0.149
754	0.149
755	0.148
755	0.148
756	0.147
756	0.146
757	0.146
757	0.146
758	0.146
758	0.145
758	0.145
759	0.146
759	0.145
760	0.145
760	0.145
761	0.145
761	0.146
761	0.146
762	0.146
762	0.146
763	0.146
763	0.146
764	0.146
764	0.146
764	0.146
765	0.145
765	0.145
766	0.145
766	0.145
767	0.144
767	0.143
768	0.142
768	0.142
768	0.142
769	0.142
769	0.141
770	0.141
770	0.141
771	0.141
771	0.141
771	0.142
772	0.142
772	0.142
773	0.143
773	0.143
774	0.143
774	0.143
775	0.143
775	0.143
775	0.143
776	0.143
776	0.143
777	0.143
777	0.142
778	0.142
778	0.141
778	0.141
779	0.141
779	0.14
780	0.139
780	0.138
781	0.138
781	0.137
781	0.137
782	0.136
782	0.136
783	0.136
783	0.135
784	0.135
784	0.135
784	0.135
785	0.135
785	0.135
786	0.135
786	0.135
787	0.135
787	0.135
788	0.135
788	0.134
788	0.134
789	0.133
789	0.133
790	0.133
790	0.132
791	0.132
791	0.132
791	0.131
792	0.132
792	0.132
793	0.132
793	0.132
794	0.132
794	0.132
794	0.132
795	0.132
795	0.132
796	0.132
796	0.132
797	0.132
797	0.132
797	0.132
798	0.132
798	0.131
799	0.131
799	0.13
800	0.129
800	0.128
801	0.128
801	0.127
801	0.126
802	0.126
802	0.126
803	0.126
803	0.126
804	0.126
804	0.126
804	0.126
805	0.126
805	0.126
806	0.126
806	0.126
807	0.126
807	0.126
807	0.126
808	0.126
808	0.126
809	0.126
809	0.126
810	0.126
810	0.126
810	0.126
811	0.126
811	0.126
812	0.126
812	0.125
813	0.125
813	0.125
813	0.125
814	0.124
814	0.124
815	0.124
815	0.124
816	0.123
816	0.123
817	0.122
817	0.122
817	0.121
818	0.121
818	0.12
819	0.12
819	0.119
820	0.118
820	0.117
820	0.117
821	0.117
821	0.116
822	0.116
822	0.116
823	0.116
823	0.116
823	0.117
824	0.118
824	0.119
825	0.12
825	0.12
826	0.12
826	0.12
826	0.12
827	0.12
827	0.12
828	0.119
828	0.119
829	0.119
829	0.118
829	0.118
830	0.117
830	0.118
831	0.118
831	0.118
832	0.118
832	0.118
832	0.118
833	0.118
833	0.118
834	0.118
834	0.118
835	0.117
835	0.117
835	0.117
836	0.117
836	0.117
837	0.117
837	0.116
838	0.116
838	0.115
839	0.115
839	0.114
839	0.113
840	0.112
840	0.111
841	0.11
841	0.109
842	0.108
842	0.107
842	0.106
843	0.105
843	0.104
844	0.104
844	0.104
845	0.104
845	0.103
845	0.104
846	0.104
846	0.104
847	0.104
847	0.105
848	0.105
848	0.106
848	0.106
849	0.106
849	0.106
850	0.106
850	0.106
851	0.106
851	0.105
851	0.105
852	0.104
852	0.103
853	0.102
853	0.102
854	0.101
854	0.101
854	0.101
855	0.102
855	0.102
856	0.103
856	0.103
857	0.104
857	0.105
857	0.105
858	0.105
858	0.105
859	0.104
859	0.103
860	0.103
860	0.102
860	0.101
861	0.1
861	0.099
862	0.098
862	0.098
863	0.097
863	0.097
863	0.096
864	0.096
864	0.096
865	0.096
865	0.096
866	0.096
866	0.096
866	0.096
867	0.096
867	0.096
868	0.096
868	0.095
869	0.095
869	0.094
869	0.093
870	0.093
870	0.092
871	0.092
871	0.092
872	0.092
872	0.092
872	0.092
873	0.093
873	0.093
874	0.093
874	0.093
875	0.093
875	0.092
875	0.092
876	0.092
876	0.091
877	0.091
877	0.091
878	0.091
878	0.092
878	0.093
879	0.093
879	0.094
880	0.094
880	0.095
881	0.095
881	0.095
881	0.095
882	0.095
882	0.094
883	0.094
883	0.093
884	0.092
884	0.092
884	0.091
885	0.091
885	0.09
886	0.09
886	0.089
887	0.089
887	0.088
887	0.087
888	0.086
888	0.085
889	0.085
889	0.084
890	0.083
890	0.083
890	0.082
891	0.081
891	0.081
892	0.081
892	0.081
893	0.081
893	0.081
893	0.081
894	0.081
894	0.081
895	0.081
895	0.081
895	0.081
896	0.081
896	0.081
897	0.081
897	0.081
898	0.081
898	0.081
898	0.081
899	0.081
899	0.081
900	0.081
900	0.081
901	0.081
901	0.082
901	0.082
902	0.082
902	0.082
903	0.082
903	0.081
904	0.081
904	0.081
904	0.081
905	0.081
905	0.081
906	0.081
906	0.081
907	0.082
907	0.082
907	0.083
908	0.084
908	0.084
909	0.084
909	0.085
910	0.085
910	0.085
910	0.084
911	0.084
911	0.083
912	0.083
912	0.082
913	0.081
913	0.08
913	0.079
914	0.079
914	0.078
915	0.077
915	0.077
916	0.076
916	0.076
916	0.075
917	0.075
917	0.074
918	0.074
918	0.073
918	0.073
919	0.072
919	0.072
920	0.072
920	0.071
921	0.071
921	0.07
921	0.07
922	0.069
922	0.069
923	0.069
923	0.069
924	0.069
924	0.069
924	0.069
925	0.069
925	0.07
926	0.07
926	0.07
927	0.07
927	0.071
927	0.071
928	0.071
928	0.072
929	0.073
929	0.073
930	0.073
930	0.074
930	0.075
931	0.075
931	0.076
932	0.076
932	0.077
933	0.077
933	0.078
933	0.078
934	0.078
934	0.078
935	0.079
935	0.079
935	0.079
936	0.079
936	0.079
937	0.078
937	0.078
938	0.077
938	0.077
938	0.077
939	0.076
939	0.075
940	0.075
940	0.074
941	0.074
941	0.074
941	0.074
942	0.073
942	0.073
943	0.073
943	0.073
944	0.073
944	0.073
944	0.073
945	0.073
945	0.072
946	0.072
946	0.072
946	0.072
947	0.072
947	0.072
948	0.071
948	0.071
949	0.07
949	0.07
949	0.069
950	0.068
950	0.067
951	0.067
951	0.066
952	0.065
952	0.064
952	0.063
953	0.063
953	0.063
954	0.062
954	0.062
955	0.062
955	0.062
955	0.062
956	0.063
956	0.064
957	0.064
957	0.065
957	0.066
958	0.066
958	0.067
959	0.068
959	0.068
960	0.069
960	0.069
960	0.069
961	0.069
961	0.07
962	0.07
962	0.07
963	0.07
963	0.07
963	0.07
964	0.07
964	0.07
965	0.071
965	0.071
966	0.072
966	0.072
966	0.072
967	0.073
967	0.073
968	0.073
968	0.074
968	0.073
969	0.073
969	0.073
970	0.073
970	0.072
971	0.072
971	0.071
971	0.071
972	0.071
972	0.07
973	0.07
973	0.069
974	0.069
974	0.069
974	0.07
975	0.07
975	0.07
976	0.07
976	0.07
976	0.07
977	0.07
977	0.07
978	0.07
978	0.069
979	0.069
979	0.068
979	0.068
980	0.067
980	0.066
981	0.065
981	0.065
982	0.064
982	0.064
982	0.063
983	0.063
983	0.063
984	0.062
984	0.062
984	0.061
985	0.06
985	0.06
986	0.059
986	0.059
987	0.058
987	0.058
987	0.058
988	0.057
988	0.057
989	0.057
989	0.057
990	0.057
990	0.057
990	0.057
991	0.058
991	0.058
992	0.058
992	0.058
992	0.058
993	0.058
993	0.057
994	0.057
994	0.057
995	0.056
995	0.056
995	0.056
996	0.056
996	0.056
997	0.056
997	0.057
997	0.057
998	0.057
998	0.057
999	0.057
999	0.058
1000	0.058
1000	0.058
1000	0.058
1001	0.058
1001	0.058
1002	0.058
1002	0.058
1003	0.058
1003	0.058
1003	0.058
1004	0.058
1004	0.057
1005	0.057
1005	0.057
1005	0.057
1006	0.057
1006	0.057
1007	0.057
1007	0.057
1008	0.057
1008	0.057
1008	0.057
1009	0.057
1009	0.057
1010	0.057
1010	0.057
1010	0.057
1011	0.058
1011	0.058
1012	0.058
1012	0.058
1013	0.058
1013	0.058
1013	0.058
1014	0.058
1014	0.057
1015	0.057
1015	0.057
1016	0.057
1016	0.056
1016	0.055
1017	0.055
1017	0.054
1018	0.054
1018	0.054
1018	0.054
1019	0.054
1019	0.054
1020	0.054
1020	0.054
1021	0.054
1021	0.055
1021	0.055
1022	0.056
1022	0.056
1023	0.056
1023	0.056
1023	0.057
1024	0.057
1024	0.058
1025	0.058
1025	0.058
1026	0.058
1026	0.058
1026	0.058
1027	0.058
1027	0.058
1028	0.058
1028	0.058
1028	0.057
1029	0.057
1029	0.057
1030	0.057
1030	0.057
1031	0.057
1031	0.057
1031	0.057
1032	0.057
1032	0.057
1033	0.057
1033	0.057
1033	0.057
1034	0.057
1034	0.057
1035	0.057
1035	0.056
1036	0.056
1036	0.056
1036	0.056
1037	0.056
1037	0.055
1038	0.055
1038	0.055
1039	0.056
1039	0.056
1039	0.056
1040	0.057
1040	0.057
1041	0.058
1041	0.058
1041	0.058
1042	0.058
1042	0.059
1043	0.059
1043	0.059
1044	0.06
1044	0.06
1044	0.06
1045	0.061
1045	0.061
1046	0.061
1046	0.062
1046	0.062
1047	0.062
1047	0.063
1048	0.063
1048	0.063
1049	0.064
1049	0.064
1049	0.064
1050	0.064
1050	0.064
1051	0.064
1051	0.064
1051	0.063
1052	0.063
1052	0.062
1053	0.062
1053	0.061
1053	0.06
1054	0.06
1054	0.059
1055	0.059
1055	0.059
1056	0.058
1056	0.058
1056	0.057
1057	0.056
1057	0.055
1058	0.055
1058	0.054
1058	0.053
1059	0.053
1059	0.052
1060	0.052
1060	0.051
1061	0.051
1061	0.051
1061	0.051
1062	0.05
1062	0.05
1063	0.05
1063	0.05
1063	0.05
1064	0.049
1064	0.049
1065	0.049
1065	0.048
1066	0.048
1066	0.048
1066	0.048
1067	0.047
1067	0.046
1068	0.046
1068	0.045
1068	0.045
1069	0.044
1069	0.044
1070	0.043
1070	0.043
1071	0.042
1071	0.041
1071	0.04
1072	0.04
1072	0.039
1073	0.039
1073	0.038
1073	0.038
1074	0.038
1074	0.038
1075	0.038
1075	0.038
1076	0.038
1076	0.039
1076	0.039
1077	0.04
1077	0.04
1078	0.041
1078	0.041
1078	0.041
1079	0.041
1079	0.041
1080	0.041
1080	0.041
1080	0.041
1081	0.041
1081	0.041
1082	0.041
1082	0.042
1083	0.041
1083	0.042
1083	0.042
1084	0.042
1084	0.042
1085	0.042
1085	0.042
1085	0.042
1086	0.043
1086	0.042
1087	0.042
1087	0.042
1088	0.042
1088	0.042
1088	0.042
1089	0.041
1089	0.041
1090	0.04
1090	0.04
1090	0.039
1091	0.039
1091	0.039
1092	0.039
1092	0.039
1092	0.039
1093	0.038
1093	0.039
1094	0.039
1094	0.038
1095	0.038
1095	0.038
1095	0.038
1096	0.037
1096	0.037
1097	0.036
1097	0.035
1097	0.035
1098	0.034
1098	0.033
1099	0.033
1099	0.032
1100	0.032
1100	0.03
1100	0.029
1101	0.029
1101	0.028
1102	0.028
1102	0.027
1102	0.026
1103	0.027
1103	0.026
1104	0.026
1104	0.026
1104	0.026
1105	0.026
1105	0.024
1106	0.023
1106	0.022
1107	0.022
1107	0.021
1107	0.02
1108	0.018
1108	0.017
1109	0.017
1109	0.015
1109	0.014
1110	0.015
1110	0.014
1111	0.013
1111	0.009
