Data from reversibility-20sec_Absorbance__5112__000000000005112.txt Node

Date: Wed Dec 06 16:37:06 CET 2023
User: Marek
Spectrometer: MAYP115816
Trigger mode: 0
Integration Time (sec): 2.000000E-1
Scans to average: 10
Electric dark correction enabled: true
Nonlinearity correction enabled: true
Boxcar width: 5
XAxis mode: Wavelengths
Number of Pixels in Spectrum: 2068
>>>>>Begin Spectral Data<<<<<
199	-0.178
199	-0.143
200	-0.069
200	-0.014
201	0.014
201	0.03
202	0.04
202	0.049
203	0.058
203	0.062
204	0.08
204	0.09
205	0.105
205	0.11
205	0.107
206	0.108
206	0.108
207	0.111
207	0.111
208	0.109
208	0.109
209	0.109
209	0.109
210	0.107
210	0.107
211	0.108
211	0.11
212	0.106
212	0.106
213	0.109
213	0.111
213	0.11
214	0.114
214	0.114
215	0.115
215	0.116
216	0.119
216	0.115
217	0.121
217	0.123
218	0.122
218	0.125
219	0.131
219	0.131
220	0.133
220	0.133
221	0.132
221	0.133
221	0.139
222	0.145
222	0.148
223	0.155
223	0.158
224	0.16
224	0.169
225	0.179
225	0.191
226	0.202
226	0.214
227	0.223
227	0.232
228	0.248
228	0.261
229	0.276
229	0.301
229	0.322
230	0.346
230	0.374
231	0.405
231	0.441
232	0.478
232	0.522
233	0.566
233	0.615
234	0.665
234	0.716
235	0.764
235	0.817
236	0.866
236	0.919
236	0.97
237	1.023
237	1.072
238	1.118
238	1.166
239	1.215
239	1.259
240	1.302
240	1.338
241	1.372
241	1.406
242	1.438
242	1.469
243	1.497
243	1.522
243	1.546
244	1.566
244	1.585
245	1.603
245	1.624
246	1.644
246	1.662
247	1.674
247	1.688
248	1.703
248	1.717
249	1.728
249	1.737
250	1.744
250	1.752
250	1.757
251	1.761
251	1.761
252	1.766
252	1.767
253	1.767
253	1.761
254	1.759
254	1.759
255	1.758
255	1.756
256	1.755
256	1.753
257	1.754
257	1.753
258	1.753
258	1.753
258	1.755
259	1.755
259	1.756
260	1.756
260	1.759
261	1.759
261	1.763
262	1.766
262	1.766
263	1.769
263	1.771
264	1.773
264	1.776
265	1.777
265	1.778
265	1.779
266	1.78
266	1.78
267	1.778
267	1.78
268	1.78
268	1.779
269	1.78
269	1.779
270	1.778
270	1.778
271	1.775
271	1.774
272	1.771
272	1.768
272	1.763
273	1.756
273	1.749
274	1.742
274	1.736
275	1.727
275	1.721
276	1.715
276	1.707
277	1.699
277	1.689
278	1.678
278	1.665
278	1.651
279	1.634
279	1.611
280	1.584
280	1.549
281	1.51
281	1.467
282	1.424
282	1.379
283	1.335
283	1.293
284	1.252
284	1.214
285	1.178
285	1.145
285	1.116
286	1.09
286	1.068
287	1.049
287	1.033
288	1.019
288	1.007
289	0.997
289	0.989
290	0.982
290	0.975
291	0.969
291	0.964
292	0.96
292	0.956
292	0.952
293	0.949
293	0.945
294	0.942
294	0.94
295	0.937
295	0.934
296	0.932
296	0.929
297	0.926
297	0.924
298	0.921
298	0.918
298	0.916
299	0.913
299	0.911
300	0.908
300	0.906
301	0.904
301	0.901
302	0.899
302	0.897
303	0.895
303	0.893
304	0.892
304	0.889
305	0.887
305	0.885
305	0.883
306	0.881
306	0.878
307	0.876
307	0.874
308	0.871
308	0.869
309	0.866
309	0.863
310	0.861
310	0.858
311	0.855
311	0.852
311	0.849
312	0.846
312	0.843
313	0.839
313	0.836
314	0.832
314	0.828
315	0.824
315	0.82
316	0.816
316	0.811
317	0.807
317	0.802
318	0.798
318	0.793
318	0.787
319	0.782
319	0.777
320	0.771
320	0.766
321	0.76
321	0.754
322	0.748
322	0.742
323	0.735
323	0.729
324	0.723
324	0.716
324	0.71
325	0.703
325	0.697
326	0.69
326	0.683
327	0.677
327	0.67
328	0.663
328	0.657
329	0.65
329	0.643
330	0.635
330	0.629
330	0.622
331	0.615
331	0.608
332	0.601
332	0.594
333	0.587
333	0.58
334	0.574
334	0.567
335	0.561
335	0.554
336	0.547
336	0.541
336	0.534
337	0.528
337	0.522
338	0.516
338	0.51
339	0.504
339	0.498
340	0.492
340	0.487
341	0.481
341	0.476
342	0.471
342	0.465
342	0.46
343	0.455
343	0.45
344	0.445
344	0.44
345	0.436
345	0.431
346	0.426
346	0.422
347	0.418
347	0.414
348	0.41
348	0.406
348	0.402
349	0.398
349	0.395
350	0.392
350	0.388
351	0.385
351	0.382
352	0.378
352	0.376
353	0.373
353	0.37
354	0.367
354	0.364
354	0.361
355	0.358
355	0.355
356	0.353
356	0.35
357	0.347
357	0.344
358	0.341
358	0.339
359	0.337
359	0.335
360	0.333
360	0.331
360	0.329
361	0.327
361	0.325
362	0.324
362	0.323
363	0.321
363	0.319
364	0.318
364	0.316
365	0.314
365	0.312
366	0.31
366	0.309
366	0.307
367	0.306
367	0.304
368	0.302
368	0.301
369	0.3
369	0.298
370	0.297
370	0.296
371	0.294
371	0.293
372	0.292
372	0.291
372	0.29
373	0.289
373	0.288
374	0.287
374	0.286
375	0.285
375	0.284
376	0.284
376	0.283
377	0.282
377	0.281
378	0.28
378	0.279
378	0.279
379	0.278
379	0.277
380	0.276
380	0.276
381	0.275
381	0.274
382	0.274
382	0.274
383	0.273
383	0.273
383	0.272
384	0.271
384	0.271
385	0.271
385	0.27
386	0.27
386	0.27
387	0.269
387	0.269
388	0.268
388	0.268
389	0.268
389	0.267
389	0.267
390	0.267
390	0.266
391	0.266
391	0.266
392	0.265
392	0.265
393	0.265
393	0.264
394	0.264
394	0.264
394	0.264
395	0.263
395	0.263
396	0.263
396	0.262
397	0.262
397	0.261
398	0.261
398	0.261
399	0.261
399	0.26
400	0.26
400	0.26
400	0.259
401	0.259
401	0.259
402	0.259
402	0.259
403	0.259
403	0.259
404	0.259
404	0.259
405	0.258
405	0.258
405	0.258
406	0.258
406	0.258
407	0.257
407	0.257
408	0.257
408	0.256
409	0.256
409	0.256
410	0.255
410	0.255
411	0.254
411	0.254
411	0.254
412	0.254
412	0.253
413	0.253
413	0.253
414	0.252
414	0.252
415	0.252
415	0.251
416	0.251
416	0.251
416	0.25
417	0.25
417	0.25
418	0.249
418	0.249
419	0.249
419	0.248
420	0.248
420	0.247
421	0.247
421	0.247
421	0.247
422	0.247
422	0.246
423	0.246
423	0.246
424	0.245
424	0.245
425	0.245
425	0.245
426	0.244
426	0.244
427	0.243
427	0.243
427	0.243
428	0.243
428	0.242
429	0.242
429	0.242
430	0.241
430	0.241
431	0.241
431	0.241
432	0.241
432	0.24
432	0.24
433	0.24
433	0.239
434	0.239
434	0.239
435	0.239
435	0.239
436	0.239
436	0.238
437	0.238
437	0.238
437	0.238
438	0.238
438	0.237
439	0.237
439	0.237
440	0.237
440	0.237
441	0.237
441	0.237
442	0.236
442	0.236
442	0.236
443	0.235
443	0.235
444	0.235
444	0.235
445	0.235
445	0.235
446	0.234
446	0.234
447	0.234
447	0.233
447	0.233
448	0.233
448	0.233
449	0.233
449	0.233
450	0.233
450	0.232
451	0.232
451	0.232
452	0.232
452	0.232
452	0.232
453	0.232
453	0.231
454	0.231
454	0.231
455	0.231
455	0.23
456	0.23
456	0.23
457	0.229
457	0.229
458	0.229
458	0.228
458	0.228
459	0.227
459	0.227
460	0.227
460	0.227
461	0.227
461	0.226
462	0.226
462	0.226
463	0.226
463	0.225
463	0.225
464	0.225
464	0.225
465	0.225
465	0.224
466	0.224
466	0.224
467	0.224
467	0.224
467	0.223
468	0.223
468	0.223
469	0.223
469	0.223
470	0.223
470	0.223
471	0.223
471	0.223
472	0.223
472	0.223
472	0.223
473	0.223
473	0.223
474	0.223
474	0.223
475	0.223
475	0.223
476	0.223
476	0.223
477	0.223
477	0.223
477	0.223
478	0.223
478	0.222
479	0.223
479	0.222
480	0.222
480	0.222
481	0.222
481	0.222
482	0.222
482	0.222
482	0.222
483	0.223
483	0.223
484	0.223
484	0.223
485	0.223
485	0.223
486	0.223
486	0.223
487	0.223
487	0.223
487	0.223
488	0.223
488	0.223
489	0.223
489	0.224
490	0.224
490	0.225
491	0.225
491	0.226
492	0.226
492	0.226
492	0.226
493	0.227
493	0.227
494	0.227
494	0.228
495	0.228
495	0.228
496	0.229
496	0.229
496	0.23
497	0.23
497	0.23
498	0.231
498	0.231
499	0.231
499	0.232
500	0.232
500	0.233
501	0.233
501	0.233
501	0.233
502	0.233
502	0.233
503	0.234
503	0.234
504	0.235
504	0.235
505	0.235
505	0.235
506	0.236
506	0.236
506	0.237
507	0.237
507	0.237
508	0.238
508	0.238
509	0.238
509	0.239
510	0.239
510	0.24
511	0.24
511	0.241
511	0.242
512	0.242
512	0.243
513	0.243
513	0.244
514	0.245
514	0.245
515	0.246
515	0.246
515	0.246
516	0.247
516	0.247
517	0.247
517	0.247
518	0.248
518	0.248
519	0.248
519	0.248
520	0.248
520	0.249
520	0.249
521	0.249
521	0.249
522	0.249
522	0.249
523	0.249
523	0.249
524	0.25
524	0.25
524	0.25
525	0.25
525	0.25
526	0.251
526	0.251
527	0.251
527	0.251
528	0.252
528	0.252
529	0.252
529	0.252
529	0.252
530	0.252
530	0.252
531	0.252
531	0.252
532	0.252
532	0.252
533	0.252
533	0.252
533	0.252
534	0.252
534	0.252
535	0.251
535	0.252
536	0.252
536	0.251
537	0.251
537	0.251
538	0.251
538	0.251
538	0.251
539	0.251
539	0.251
540	0.251
540	0.25
541	0.25
541	0.25
542	0.25
542	0.25
542	0.249
543	0.249
543	0.249
544	0.249
544	0.249
545	0.249
545	0.249
546	0.249
546	0.249
547	0.248
547	0.248
547	0.247
548	0.247
548	0.247
549	0.246
549	0.246
550	0.246
550	0.246
551	0.245
551	0.245
551	0.245
552	0.244
552	0.244
553	0.244
553	0.244
554	0.243
554	0.242
555	0.242
555	0.241
556	0.241
556	0.24
556	0.24
557	0.24
557	0.24
558	0.24
558	0.24
559	0.241
559	0.241
560	0.24
560	0.24
560	0.24
561	0.24
561	0.24
562	0.239
562	0.238
563	0.238
563	0.237
564	0.236
564	0.236
564	0.236
565	0.236
565	0.236
566	0.235
566	0.235
567	0.235
567	0.235
568	0.235
568	0.234
568	0.234
569	0.234
569	0.234
570	0.233
570	0.232
571	0.231
571	0.231
572	0.23
572	0.23
573	0.23
573	0.229
573	0.229
574	0.228
574	0.228
575	0.228
575	0.229
576	0.229
576	0.228
577	0.228
577	0.228
577	0.227
578	0.227
578	0.227
579	0.227
579	0.227
580	0.227
580	0.226
581	0.225
581	0.225
581	0.225
582	0.225
582	0.225
583	0.225
583	0.225
584	0.224
584	0.222
585	0.222
585	0.222
585	0.222
586	0.222
586	0.221
587	0.22
587	0.22
588	0.219
588	0.219
589	0.219
589	0.219
590	0.219
590	0.219
590	0.219
591	0.22
591	0.219
592	0.219
592	0.218
593	0.218
593	0.218
594	0.218
594	0.217
594	0.216
595	0.216
595	0.215
596	0.215
596	0.215
597	0.216
597	0.216
598	0.216
598	0.216
598	0.216
599	0.215
599	0.215
600	0.215
600	0.214
601	0.214
601	0.214
602	0.213
602	0.213
602	0.212
603	0.212
603	0.213
604	0.213
604	0.213
605	0.213
605	0.213
606	0.212
606	0.212
606	0.211
607	0.211
607	0.211
608	0.211
608	0.21
609	0.21
609	0.21
610	0.21
610	0.209
610	0.209
611	0.21
611	0.209
612	0.209
612	0.209
613	0.209
613	0.209
614	0.208
614	0.208
614	0.207
615	0.207
615	0.207
616	0.207
616	0.206
617	0.206
617	0.206
618	0.205
618	0.205
618	0.205
619	0.206
619	0.206
620	0.206
620	0.206
621	0.205
621	0.205
622	0.205
622	0.204
622	0.204
623	0.204
623	0.204
624	0.203
624	0.203
625	0.202
625	0.202
626	0.202
626	0.201
626	0.202
627	0.202
627	0.202
628	0.201
628	0.201
629	0.201
629	0.201
630	0.2
630	0.2
630	0.201
631	0.201
631	0.201
632	0.201
632	0.2
633	0.2
633	0.201
634	0.201
634	0.201
634	0.201
635	0.201
635	0.2
636	0.2
636	0.2
637	0.2
637	0.199
638	0.199
638	0.199
638	0.198
639	0.198
639	0.197
640	0.197
640	0.197
641	0.197
641	0.197
642	0.198
642	0.198
642	0.198
643	0.198
643	0.199
644	0.199
644	0.199
645	0.199
645	0.199
646	0.199
646	0.199
646	0.198
647	0.198
647	0.198
648	0.197
648	0.197
649	0.196
649	0.196
650	0.196
650	0.196
650	0.196
651	0.196
651	0.196
652	0.195
652	0.195
653	0.196
653	0.197
653	0.204
654	0.16
654	0.127
655	0.128
655	0.128
656	0.129
656	0.129
657	0.13
657	0.13
657	0.13
658	0.129
658	0.118
659	0.15
659	0.193
660	0.199
660	0.199
661	0.199
661	0.199
661	0.198
662	0.198
662	0.198
663	0.197
663	0.197
664	0.197
664	0.196
665	0.196
665	0.196
665	0.196
666	0.197
666	0.197
667	0.197
667	0.197
668	0.198
668	0.198
669	0.198
669	0.198
669	0.199
670	0.199
670	0.198
671	0.198
671	0.197
672	0.197
672	0.196
672	0.196
673	0.196
673	0.196
674	0.196
674	0.195
675	0.195
675	0.195
676	0.195
676	0.195
676	0.195
677	0.195
677	0.195
678	0.195
678	0.195
679	0.194
679	0.194
680	0.195
680	0.195
680	0.194
681	0.195
681	0.195
682	0.195
682	0.196
683	0.196
683	0.196
684	0.196
684	0.196
684	0.196
685	0.196
685	0.196
686	0.196
686	0.196
687	0.195
687	0.195
687	0.195
688	0.195
688	0.195
689	0.196
689	0.196
690	0.196
690	0.196
691	0.196
691	0.196
691	0.196
692	0.196
692	0.196
693	0.197
693	0.197
694	0.197
694	0.197
695	0.198
695	0.199
695	0.199
696	0.199
696	0.2
697	0.2
697	0.2
698	0.2
698	0.2
698	0.2
699	0.2
699	0.199
700	0.199
700	0.199
701	0.198
701	0.198
702	0.197
702	0.197
702	0.197
703	0.197
703	0.196
704	0.196
704	0.196
705	0.197
705	0.197
705	0.198
706	0.198
706	0.199
707	0.2
707	0.2
708	0.201
708	0.202
709	0.203
709	0.203
709	0.203
710	0.203
710	0.203
711	0.204
711	0.204
712	0.204
712	0.204
713	0.204
713	0.203
713	0.203
714	0.202
714	0.202
715	0.201
715	0.201
716	0.2
716	0.199
716	0.198
717	0.198
717	0.197
718	0.197
718	0.197
719	0.198
719	0.198
720	0.199
720	0.2
720	0.2
721	0.201
721	0.202
722	0.203
722	0.203
723	0.203
723	0.204
723	0.203
724	0.203
724	0.203
725	0.202
725	0.202
726	0.201
726	0.201
727	0.201
727	0.201
727	0.201
728	0.2
728	0.2
729	0.201
729	0.201
730	0.201
730	0.202
730	0.202
731	0.203
731	0.204
732	0.204
732	0.205
733	0.205
733	0.205
734	0.206
734	0.206
734	0.207
735	0.208
735	0.208
736	0.208
736	0.208
737	0.208
737	0.208
737	0.208
738	0.208
738	0.207
739	0.206
739	0.206
740	0.205
740	0.205
741	0.205
741	0.205
741	0.205
742	0.205
742	0.205
743	0.206
743	0.207
744	0.208
744	0.209
744	0.209
745	0.21
745	0.21
746	0.211
746	0.211
747	0.211
747	0.21
748	0.21
748	0.21
748	0.21
749	0.209
749	0.209
750	0.209
750	0.209
751	0.208
751	0.208
751	0.208
752	0.208
752	0.207
753	0.206
753	0.206
754	0.205
754	0.205
754	0.205
755	0.205
755	0.205
756	0.204
756	0.204
757	0.203
757	0.204
758	0.204
758	0.204
758	0.205
759	0.205
759	0.205
760	0.205
760	0.205
761	0.205
761	0.206
761	0.206
762	0.206
762	0.207
763	0.207
763	0.206
764	0.206
764	0.207
764	0.207
765	0.207
765	0.207
766	0.207
766	0.207
767	0.207
767	0.207
768	0.206
768	0.207
768	0.207
769	0.208
769	0.208
770	0.208
770	0.209
771	0.21
771	0.21
771	0.21
772	0.211
772	0.211
773	0.212
773	0.211
774	0.211
774	0.211
775	0.211
775	0.211
775	0.211
776	0.21
776	0.21
777	0.211
777	0.211
778	0.211
778	0.211
778	0.211
779	0.211
779	0.212
780	0.212
780	0.212
781	0.212
781	0.212
781	0.213
782	0.213
782	0.214
783	0.214
783	0.215
784	0.215
784	0.216
784	0.216
785	0.216
785	0.216
786	0.216
786	0.216
787	0.216
787	0.215
788	0.215
788	0.214
788	0.213
789	0.212
789	0.212
790	0.212
790	0.211
791	0.21
791	0.209
791	0.208
792	0.209
792	0.209
793	0.208
793	0.208
794	0.208
794	0.208
794	0.208
795	0.209
795	0.21
796	0.21
796	0.211
797	0.211
797	0.211
797	0.212
798	0.213
798	0.213
799	0.214
799	0.214
800	0.214
800	0.214
801	0.214
801	0.214
801	0.214
802	0.214
802	0.214
803	0.214
803	0.214
804	0.214
804	0.214
804	0.214
805	0.214
805	0.214
806	0.214
806	0.215
807	0.215
807	0.215
807	0.215
808	0.216
808	0.216
809	0.216
809	0.216
810	0.216
810	0.216
810	0.216
811	0.216
811	0.216
812	0.217
812	0.217
813	0.217
813	0.217
813	0.218
814	0.218
814	0.219
815	0.22
815	0.22
816	0.221
816	0.22
817	0.22
817	0.22
817	0.22
818	0.22
818	0.22
819	0.22
819	0.22
820	0.219
820	0.219
820	0.219
821	0.219
821	0.219
822	0.22
822	0.22
823	0.22
823	0.22
823	0.221
824	0.222
824	0.223
825	0.224
825	0.224
826	0.224
826	0.224
826	0.224
827	0.224
827	0.224
828	0.224
828	0.224
829	0.224
829	0.224
829	0.224
830	0.224
830	0.225
831	0.225
831	0.226
832	0.226
832	0.226
832	0.226
833	0.226
833	0.226
834	0.225
834	0.225
835	0.225
835	0.224
835	0.224
836	0.223
836	0.223
837	0.223
837	0.223
838	0.222
838	0.222
839	0.221
839	0.22
839	0.22
840	0.219
840	0.218
841	0.218
841	0.217
842	0.216
842	0.216
842	0.215
843	0.215
843	0.215
844	0.214
844	0.214
845	0.214
845	0.214
845	0.214
846	0.214
846	0.213
847	0.213
847	0.213
848	0.213
848	0.213
848	0.213
849	0.214
849	0.214
850	0.215
850	0.215
851	0.216
851	0.216
851	0.217
852	0.217
852	0.217
853	0.217
853	0.218
854	0.218
854	0.219
854	0.219
855	0.22
855	0.22
856	0.221
856	0.221
857	0.222
857	0.222
857	0.223
858	0.223
858	0.222
859	0.222
859	0.221
860	0.221
860	0.221
860	0.22
861	0.22
861	0.22
862	0.219
862	0.218
863	0.218
863	0.218
863	0.218
864	0.218
864	0.218
865	0.218
865	0.218
866	0.218
866	0.218
866	0.218
867	0.218
867	0.218
868	0.219
868	0.219
869	0.219
869	0.219
869	0.218
870	0.218
870	0.218
871	0.218
871	0.217
872	0.217
872	0.217
872	0.216
873	0.216
873	0.215
874	0.215
874	0.215
875	0.215
875	0.215
875	0.215
876	0.216
876	0.216
877	0.216
877	0.216
878	0.216
878	0.216
878	0.216
879	0.216
879	0.216
880	0.216
880	0.216
881	0.215
881	0.215
881	0.215
882	0.214
882	0.214
883	0.214
883	0.214
884	0.214
884	0.214
884	0.214
885	0.214
885	0.214
886	0.213
886	0.213
887	0.213
887	0.212
887	0.211
888	0.21
888	0.209
889	0.208
889	0.207
890	0.207
890	0.206
890	0.206
891	0.205
891	0.205
892	0.205
892	0.205
893	0.205
893	0.205
893	0.205
894	0.205
894	0.205
895	0.205
895	0.206
895	0.206
896	0.207
896	0.207
897	0.207
897	0.208
898	0.208
898	0.208
898	0.208
899	0.208
899	0.208
900	0.208
900	0.207
901	0.207
901	0.206
901	0.206
902	0.205
902	0.204
903	0.203
903	0.202
904	0.202
904	0.201
904	0.2
905	0.2
905	0.199
906	0.199
906	0.199
907	0.199
907	0.199
907	0.2
908	0.2
908	0.2
909	0.2
909	0.2
910	0.2
910	0.2
910	0.199
911	0.199
911	0.199
912	0.198
912	0.198
913	0.198
913	0.197
913	0.197
914	0.197
914	0.197
915	0.196
915	0.196
916	0.196
916	0.196
916	0.196
917	0.196
917	0.195
918	0.195
918	0.195
918	0.194
919	0.194
919	0.193
920	0.193
920	0.193
921	0.193
921	0.193
921	0.192
922	0.192
922	0.192
923	0.193
923	0.193
924	0.193
924	0.194
924	0.194
925	0.195
925	0.195
926	0.195
926	0.196
927	0.196
927	0.196
927	0.196
928	0.195
928	0.195
929	0.194
929	0.194
930	0.193
930	0.192
930	0.191
931	0.19
931	0.189
932	0.188
932	0.188
933	0.187
933	0.187
933	0.186
934	0.186
934	0.186
935	0.185
935	0.185
935	0.185
936	0.184
936	0.184
937	0.183
937	0.183
938	0.183
938	0.182
938	0.182
939	0.181
939	0.181
940	0.181
940	0.181
941	0.181
941	0.181
941	0.181
942	0.181
942	0.18
943	0.18
943	0.18
944	0.18
944	0.18
944	0.18
945	0.18
945	0.181
946	0.181
946	0.18
946	0.18
947	0.18
947	0.18
948	0.179
948	0.179
949	0.178
949	0.178
949	0.177
950	0.176
950	0.176
951	0.175
951	0.174
952	0.173
952	0.173
952	0.173
953	0.172
953	0.172
954	0.171
954	0.171
955	0.171
955	0.17
955	0.17
956	0.17
956	0.17
957	0.171
957	0.17
957	0.17
958	0.17
958	0.17
959	0.17
959	0.169
960	0.169
960	0.169
960	0.168
961	0.168
961	0.167
962	0.167
962	0.167
963	0.166
963	0.166
963	0.166
964	0.166
964	0.166
965	0.166
965	0.166
966	0.166
966	0.166
966	0.166
967	0.166
967	0.166
968	0.166
968	0.165
968	0.165
969	0.164
969	0.164
970	0.163
970	0.163
971	0.162
971	0.161
971	0.16
972	0.16
972	0.159
973	0.158
973	0.157
974	0.156
974	0.156
974	0.155
975	0.155
975	0.155
976	0.155
976	0.155
976	0.155
977	0.154
977	0.154
978	0.153
978	0.153
979	0.153
979	0.153
979	0.152
980	0.152
980	0.151
981	0.151
981	0.15
982	0.15
982	0.15
982	0.15
983	0.15
983	0.15
984	0.15
984	0.15
984	0.15
985	0.15
985	0.15
986	0.151
986	0.151
987	0.151
987	0.151
987	0.151
988	0.151
988	0.151
989	0.15
989	0.15
990	0.15
990	0.15
990	0.15
991	0.15
991	0.149
992	0.149
992	0.148
992	0.147
993	0.146
993	0.145
994	0.144
994	0.143
995	0.142
995	0.142
995	0.141
996	0.141
996	0.141
997	0.141
997	0.141
997	0.142
998	0.143
998	0.143
999	0.144
999	0.145
1000	0.145
1000	0.146
1000	0.146
1001	0.146
1001	0.146
1002	0.146
1002	0.145
1003	0.145
1003	0.144
1003	0.143
1004	0.142
1004	0.141
1005	0.141
1005	0.14
1005	0.14
1006	0.139
1006	0.139
1007	0.139
1007	0.138
1008	0.138
1008	0.138
1008	0.138
1009	0.138
1009	0.138
1010	0.137
1010	0.137
1010	0.137
1011	0.137
1011	0.137
1012	0.136
1012	0.136
1013	0.135
1013	0.135
1013	0.134
1014	0.134
1014	0.133
1015	0.133
1015	0.133
1016	0.132
1016	0.132
1016	0.132
1017	0.131
1017	0.131
1018	0.131
1018	0.131
1018	0.131
1019	0.131
1019	0.13
1020	0.13
1020	0.13
1021	0.13
1021	0.131
1021	0.131
1022	0.131
1022	0.131
1023	0.131
1023	0.132
1023	0.132
1024	0.132
1024	0.133
1025	0.132
1025	0.132
1026	0.132
1026	0.132
1026	0.132
1027	0.132
1027	0.131
1028	0.131
1028	0.131
1028	0.13
1029	0.13
1029	0.13
1030	0.13
1030	0.13
1031	0.129
1031	0.129
1031	0.129
1032	0.129
1032	0.129
1033	0.128
1033	0.128
1033	0.128
1034	0.128
1034	0.127
1035	0.127
1035	0.127
1036	0.126
1036	0.126
1036	0.126
1037	0.126
1037	0.125
1038	0.125
1038	0.125
1039	0.124
1039	0.124
1039	0.124
1040	0.124
1040	0.124
1041	0.124
1041	0.124
1041	0.124
1042	0.124
1042	0.123
1043	0.123
1043	0.123
1044	0.123
1044	0.122
1044	0.122
1045	0.122
1045	0.122
1046	0.122
1046	0.121
1046	0.121
1047	0.122
1047	0.122
1048	0.122
1048	0.122
1049	0.122
1049	0.121
1049	0.121
1050	0.121
1050	0.12
1051	0.119
1051	0.119
1051	0.118
1052	0.117
1052	0.117
1053	0.116
1053	0.115
1053	0.115
1054	0.114
1054	0.114
1055	0.114
1055	0.113
1056	0.113
1056	0.112
1056	0.112
1057	0.111
1057	0.11
1058	0.109
1058	0.108
1058	0.107
1059	0.107
1059	0.106
1060	0.105
1060	0.104
1061	0.103
1061	0.103
1061	0.103
1062	0.102
1062	0.102
1063	0.102
1063	0.102
1063	0.102
1064	0.101
1064	0.101
1065	0.101
1065	0.1
1066	0.101
1066	0.1
1066	0.1
1067	0.099
1067	0.1
1068	0.099
1068	0.099
1068	0.099
1069	0.099
1069	0.099
1070	0.099
1070	0.098
1071	0.098
1071	0.098
1071	0.098
1072	0.097
1072	0.097
1073	0.096
1073	0.096
1073	0.095
1074	0.095
1074	0.095
1075	0.094
1075	0.094
1076	0.094
1076	0.094
1076	0.094
1077	0.093
1077	0.093
1078	0.093
1078	0.093
1078	0.092
1079	0.092
1079	0.092
1080	0.091
1080	0.091
1080	0.09
1081	0.09
1081	0.09
1082	0.09
1082	0.09
1083	0.09
1083	0.089
1083	0.089
1084	0.089
1084	0.09
1085	0.09
1085	0.09
1085	0.091
1086	0.091
1086	0.091
1087	0.091
1087	0.091
1088	0.091
1088	0.091
1088	0.091
1089	0.09
1089	0.089
1090	0.088
1090	0.088
1090	0.086
1091	0.085
1091	0.085
1092	0.085
1092	0.085
1092	0.084
1093	0.083
1093	0.083
1094	0.083
1094	0.083
1095	0.082
1095	0.082
1095	0.082
1096	0.081
1096	0.081
1097	0.08
1097	0.08
1097	0.079
1098	0.078
1098	0.076
1099	0.075
1099	0.074
1100	0.073
1100	0.071
1100	0.07
1101	0.068
1101	0.066
1102	0.066
1102	0.064
1102	0.062
1103	0.062
1103	0.061
1104	0.061
1104	0.06
1104	0.059
1105	0.058
1105	0.057
1106	0.055
1106	0.053
1107	0.052
1107	0.052
1107	0.051
1108	0.05
1108	0.049
1109	0.047
1109	0.047
1109	0.046
1110	0.047
1110	0.046
1111	0.046
1111	0.045
