Data from reversibility-20sec_Absorbance__7512__000000000007512.txt Node

Date: Thu Dec 07 05:57:06 CET 2023
User: Marek
Spectrometer: MAYP115816
Trigger mode: 0
Integration Time (sec): 2.000000E-1
Scans to average: 10
Electric dark correction enabled: true
Nonlinearity correction enabled: true
Boxcar width: 5
XAxis mode: Wavelengths
Number of Pixels in Spectrum: 2068
>>>>>Begin Spectral Data<<<<<
199	-0.103
199	-0.079
200	-0.027
200	0.019
201	0.051
201	0.069
202	0.077
202	0.085
203	0.092
203	0.093
204	0.106
204	0.12
205	0.131
205	0.137
205	0.136
206	0.133
206	0.13
207	0.132
207	0.132
208	0.131
208	0.13
209	0.132
209	0.132
210	0.131
210	0.134
211	0.138
211	0.142
212	0.142
212	0.143
213	0.145
213	0.146
213	0.149
214	0.151
214	0.152
215	0.157
215	0.157
216	0.154
216	0.154
217	0.157
217	0.159
218	0.158
218	0.164
219	0.167
219	0.167
220	0.17
220	0.17
221	0.169
221	0.174
221	0.178
222	0.183
222	0.188
223	0.193
223	0.195
224	0.201
224	0.209
225	0.219
225	0.229
226	0.241
226	0.251
227	0.26
227	0.274
228	0.29
228	0.306
229	0.322
229	0.347
229	0.369
230	0.39
230	0.421
231	0.452
231	0.489
232	0.528
232	0.571
233	0.609
233	0.659
234	0.71
234	0.76
235	0.815
235	0.869
236	0.919
236	0.972
236	1.023
237	1.075
237	1.122
238	1.172
238	1.216
239	1.263
239	1.304
240	1.34
240	1.376
241	1.411
241	1.447
242	1.476
242	1.51
243	1.538
243	1.562
243	1.589
244	1.609
244	1.631
245	1.65
245	1.671
246	1.687
246	1.701
247	1.714
247	1.727
248	1.743
248	1.756
249	1.765
249	1.772
250	1.779
250	1.787
250	1.791
251	1.799
251	1.8
252	1.806
252	1.808
253	1.807
253	1.806
254	1.804
254	1.805
255	1.805
255	1.804
256	1.803
256	1.801
257	1.802
257	1.8
258	1.8
258	1.799
258	1.799
259	1.8
259	1.799
260	1.798
260	1.799
261	1.8
261	1.802
262	1.805
262	1.806
263	1.808
263	1.809
264	1.81
264	1.811
265	1.813
265	1.814
265	1.814
266	1.814
266	1.814
267	1.812
267	1.813
268	1.811
268	1.81
269	1.81
269	1.809
270	1.808
270	1.808
271	1.805
271	1.804
272	1.803
272	1.801
272	1.799
273	1.794
273	1.789
274	1.784
274	1.78
275	1.772
275	1.765
276	1.759
276	1.751
277	1.743
277	1.734
278	1.722
278	1.71
278	1.696
279	1.68
279	1.661
280	1.638
280	1.61
281	1.576
281	1.538
282	1.497
282	1.456
283	1.415
283	1.375
284	1.335
284	1.297
285	1.261
285	1.228
285	1.198
286	1.173
286	1.15
287	1.129
287	1.111
288	1.096
288	1.083
289	1.073
289	1.063
290	1.055
290	1.047
291	1.041
291	1.035
292	1.03
292	1.025
292	1.021
293	1.017
293	1.013
294	1.009
294	1.006
295	1.002
295	0.999
296	0.995
296	0.991
297	0.988
297	0.985
298	0.982
298	0.979
298	0.975
299	0.972
299	0.969
300	0.966
300	0.963
301	0.96
301	0.958
302	0.955
302	0.952
303	0.95
303	0.947
304	0.944
304	0.942
305	0.939
305	0.937
305	0.934
306	0.932
306	0.929
307	0.927
307	0.923
308	0.921
308	0.918
309	0.915
309	0.912
310	0.909
310	0.906
311	0.903
311	0.899
311	0.896
312	0.893
312	0.889
313	0.886
313	0.882
314	0.878
314	0.873
315	0.869
315	0.864
316	0.86
316	0.855
317	0.85
317	0.845
318	0.84
318	0.835
318	0.829
319	0.824
319	0.818
320	0.813
320	0.807
321	0.8
321	0.794
322	0.788
322	0.782
323	0.775
323	0.769
324	0.762
324	0.755
324	0.748
325	0.741
325	0.734
326	0.727
326	0.721
327	0.713
327	0.706
328	0.699
328	0.692
329	0.685
329	0.678
330	0.671
330	0.664
330	0.657
331	0.65
331	0.643
332	0.636
332	0.629
333	0.622
333	0.615
334	0.608
334	0.601
335	0.594
335	0.587
336	0.58
336	0.573
336	0.567
337	0.56
337	0.553
338	0.547
338	0.541
339	0.535
339	0.529
340	0.523
340	0.517
341	0.511
341	0.505
342	0.5
342	0.494
342	0.489
343	0.484
343	0.478
344	0.473
344	0.468
345	0.463
345	0.459
346	0.454
346	0.449
347	0.445
347	0.44
348	0.436
348	0.432
348	0.428
349	0.424
349	0.42
350	0.417
350	0.413
351	0.41
351	0.406
352	0.403
352	0.4
353	0.397
353	0.394
354	0.391
354	0.388
354	0.385
355	0.382
355	0.379
356	0.376
356	0.373
357	0.37
357	0.367
358	0.364
358	0.362
359	0.359
359	0.357
360	0.355
360	0.353
360	0.351
361	0.349
361	0.347
362	0.346
362	0.344
363	0.342
363	0.341
364	0.338
364	0.336
365	0.334
365	0.332
366	0.331
366	0.329
366	0.327
367	0.325
367	0.323
368	0.322
368	0.32
369	0.319
369	0.317
370	0.316
370	0.315
371	0.313
371	0.312
372	0.311
372	0.31
372	0.308
373	0.307
373	0.306
374	0.305
374	0.304
375	0.303
375	0.302
376	0.301
376	0.3
377	0.299
377	0.298
378	0.298
378	0.297
378	0.296
379	0.295
379	0.294
380	0.293
380	0.292
381	0.292
381	0.291
382	0.29
382	0.29
383	0.289
383	0.289
383	0.288
384	0.287
384	0.287
385	0.286
385	0.286
386	0.285
386	0.285
387	0.285
387	0.284
388	0.284
388	0.283
389	0.283
389	0.283
389	0.282
390	0.282
390	0.281
391	0.281
391	0.28
392	0.28
392	0.279
393	0.279
393	0.278
394	0.278
394	0.278
394	0.277
395	0.277
395	0.277
396	0.276
396	0.276
397	0.275
397	0.275
398	0.275
398	0.274
399	0.274
399	0.273
400	0.273
400	0.273
400	0.272
401	0.272
401	0.272
402	0.271
402	0.271
403	0.271
403	0.27
404	0.27
404	0.27
405	0.269
405	0.269
405	0.269
406	0.269
406	0.268
407	0.268
407	0.268
408	0.267
408	0.267
409	0.267
409	0.267
410	0.266
410	0.266
411	0.266
411	0.265
411	0.265
412	0.265
412	0.265
413	0.264
413	0.264
414	0.264
414	0.263
415	0.263
415	0.263
416	0.262
416	0.262
416	0.262
417	0.261
417	0.261
418	0.261
418	0.26
419	0.26
419	0.259
420	0.259
420	0.258
421	0.258
421	0.258
421	0.257
422	0.257
422	0.257
423	0.256
423	0.256
424	0.256
424	0.256
425	0.255
425	0.255
426	0.255
426	0.254
427	0.254
427	0.254
427	0.253
428	0.253
428	0.252
429	0.252
429	0.251
430	0.251
430	0.251
431	0.251
431	0.251
432	0.251
432	0.25
432	0.25
433	0.25
433	0.25
434	0.25
434	0.25
435	0.25
435	0.249
436	0.249
436	0.249
437	0.249
437	0.248
437	0.248
438	0.248
438	0.247
439	0.247
439	0.247
440	0.247
440	0.246
441	0.246
441	0.246
442	0.246
442	0.245
442	0.245
443	0.245
443	0.245
444	0.244
444	0.244
445	0.244
445	0.244
446	0.244
446	0.244
447	0.243
447	0.243
447	0.243
448	0.243
448	0.243
449	0.243
449	0.243
450	0.243
450	0.243
451	0.243
451	0.242
452	0.242
452	0.242
452	0.242
453	0.242
453	0.242
454	0.242
454	0.242
455	0.241
455	0.241
456	0.241
456	0.24
457	0.24
457	0.24
458	0.24
458	0.24
458	0.24
459	0.239
459	0.239
460	0.239
460	0.239
461	0.239
461	0.239
462	0.239
462	0.239
463	0.239
463	0.239
463	0.239
464	0.239
464	0.239
465	0.238
465	0.238
466	0.238
466	0.238
467	0.238
467	0.238
467	0.238
468	0.238
468	0.238
469	0.238
469	0.239
470	0.239
470	0.239
471	0.239
471	0.239
472	0.239
472	0.239
472	0.24
473	0.24
473	0.24
474	0.24
474	0.24
475	0.24
475	0.24
476	0.24
476	0.241
477	0.241
477	0.241
477	0.241
478	0.241
478	0.242
479	0.242
479	0.242
480	0.242
480	0.243
481	0.243
481	0.243
482	0.243
482	0.244
482	0.244
483	0.244
483	0.245
484	0.245
484	0.245
485	0.245
485	0.245
486	0.245
486	0.245
487	0.245
487	0.246
487	0.246
488	0.246
488	0.247
489	0.247
489	0.248
490	0.249
490	0.25
491	0.251
491	0.252
492	0.253
492	0.253
492	0.254
493	0.255
493	0.256
494	0.257
494	0.257
495	0.258
495	0.258
496	0.259
496	0.259
496	0.26
497	0.261
497	0.261
498	0.262
498	0.262
499	0.263
499	0.264
500	0.265
500	0.266
501	0.267
501	0.267
501	0.268
502	0.268
502	0.269
503	0.27
503	0.27
504	0.271
504	0.272
505	0.272
505	0.273
506	0.274
506	0.275
506	0.276
507	0.277
507	0.278
508	0.278
508	0.279
509	0.28
509	0.28
510	0.281
510	0.281
511	0.281
511	0.282
511	0.283
512	0.283
512	0.284
513	0.284
513	0.285
514	0.286
514	0.286
515	0.287
515	0.287
515	0.288
516	0.289
516	0.289
517	0.29
517	0.29
518	0.29
518	0.291
519	0.291
519	0.291
520	0.291
520	0.292
520	0.292
521	0.292
521	0.292
522	0.292
522	0.292
523	0.292
523	0.292
524	0.292
524	0.292
524	0.292
525	0.292
525	0.291
526	0.291
526	0.291
527	0.291
527	0.291
528	0.29
528	0.29
529	0.289
529	0.289
529	0.288
530	0.288
530	0.288
531	0.287
531	0.287
532	0.286
532	0.285
533	0.284
533	0.284
533	0.283
534	0.282
534	0.282
535	0.281
535	0.28
536	0.28
536	0.279
537	0.278
537	0.278
538	0.277
538	0.276
538	0.275
539	0.275
539	0.274
540	0.273
540	0.272
541	0.271
541	0.27
542	0.269
542	0.268
542	0.268
543	0.267
543	0.266
544	0.265
544	0.264
545	0.263
545	0.262
546	0.261
546	0.26
547	0.258
547	0.257
547	0.256
548	0.255
548	0.254
549	0.253
549	0.252
550	0.251
550	0.25
551	0.249
551	0.248
551	0.247
552	0.246
552	0.245
553	0.244
553	0.243
554	0.242
554	0.241
555	0.239
555	0.238
556	0.237
556	0.236
556	0.235
557	0.234
557	0.234
558	0.233
558	0.233
559	0.232
559	0.231
560	0.231
560	0.23
560	0.229
561	0.228
561	0.228
562	0.226
562	0.225
563	0.223
563	0.222
564	0.221
564	0.22
564	0.219
565	0.218
565	0.217
566	0.216
566	0.215
567	0.215
567	0.214
568	0.213
568	0.212
568	0.212
569	0.211
569	0.21
570	0.208
570	0.207
571	0.206
571	0.205
572	0.204
572	0.203
573	0.202
573	0.201
573	0.201
574	0.2
574	0.199
575	0.199
575	0.199
576	0.198
576	0.197
577	0.196
577	0.195
577	0.194
578	0.194
578	0.193
579	0.193
579	0.193
580	0.192
580	0.191
581	0.19
581	0.189
581	0.189
582	0.189
582	0.189
583	0.188
583	0.187
584	0.186
584	0.185
585	0.184
585	0.184
585	0.183
586	0.183
586	0.182
587	0.181
587	0.181
588	0.18
588	0.18
589	0.179
589	0.179
590	0.179
590	0.178
590	0.178
591	0.178
591	0.177
592	0.177
592	0.176
593	0.175
593	0.174
594	0.174
594	0.173
594	0.172
595	0.172
595	0.171
596	0.17
596	0.17
597	0.171
597	0.171
598	0.17
598	0.17
598	0.17
599	0.17
599	0.169
600	0.169
600	0.168
601	0.168
601	0.168
602	0.167
602	0.166
602	0.166
603	0.165
603	0.165
604	0.165
604	0.165
605	0.165
605	0.164
606	0.164
606	0.162
606	0.162
607	0.161
607	0.161
608	0.16
608	0.16
609	0.159
609	0.158
610	0.158
610	0.157
610	0.157
611	0.158
611	0.158
612	0.157
612	0.158
613	0.158
613	0.157
614	0.157
614	0.157
614	0.157
615	0.157
615	0.156
616	0.156
616	0.156
617	0.156
617	0.156
618	0.155
618	0.155
618	0.155
619	0.155
619	0.155
620	0.155
620	0.155
621	0.154
621	0.154
622	0.153
622	0.153
622	0.152
623	0.152
623	0.152
624	0.151
624	0.151
625	0.151
625	0.151
626	0.151
626	0.15
626	0.15
627	0.15
627	0.15
628	0.15
628	0.15
629	0.15
629	0.15
630	0.149
630	0.149
630	0.149
631	0.149
631	0.148
632	0.148
632	0.148
633	0.147
633	0.147
634	0.147
634	0.147
634	0.146
635	0.146
635	0.145
636	0.145
636	0.145
637	0.145
637	0.144
638	0.144
638	0.144
638	0.143
639	0.143
639	0.142
640	0.142
640	0.142
641	0.142
641	0.142
642	0.141
642	0.142
642	0.142
643	0.142
643	0.142
644	0.143
644	0.143
645	0.143
645	0.144
646	0.144
646	0.144
646	0.145
647	0.144
647	0.144
648	0.143
648	0.143
649	0.142
649	0.142
650	0.142
650	0.141
650	0.141
651	0.141
651	0.141
652	0.141
652	0.141
653	0.142
653	0.143
653	0.148
654	0.118
654	0.095
655	0.094
655	0.095
656	0.095
656	0.095
657	0.095
657	0.096
657	0.096
658	0.095
658	0.087
659	0.108
659	0.137
660	0.142
660	0.142
661	0.142
661	0.141
661	0.141
662	0.14
662	0.14
663	0.139
663	0.139
664	0.139
664	0.139
665	0.139
665	0.139
665	0.139
666	0.139
666	0.14
667	0.14
667	0.14
668	0.14
668	0.14
669	0.14
669	0.14
669	0.14
670	0.14
670	0.14
671	0.14
671	0.14
672	0.139
672	0.138
672	0.138
673	0.138
673	0.137
674	0.137
674	0.136
675	0.136
675	0.136
676	0.136
676	0.137
676	0.137
677	0.137
677	0.137
678	0.137
678	0.137
679	0.137
679	0.137
680	0.137
680	0.137
680	0.137
681	0.137
681	0.137
682	0.137
682	0.137
683	0.137
683	0.138
684	0.138
684	0.137
684	0.137
685	0.137
685	0.138
686	0.138
686	0.138
687	0.138
687	0.138
687	0.138
688	0.139
688	0.139
689	0.14
689	0.14
690	0.14
690	0.139
691	0.139
691	0.139
691	0.139
692	0.139
692	0.139
693	0.139
693	0.14
694	0.139
694	0.139
695	0.14
695	0.141
695	0.141
696	0.141
696	0.141
697	0.141
697	0.141
698	0.141
698	0.14
698	0.14
699	0.14
699	0.139
700	0.139
700	0.138
701	0.138
701	0.138
702	0.137
702	0.137
702	0.136
703	0.136
703	0.136
704	0.135
704	0.135
705	0.135
705	0.135
705	0.135
706	0.134
706	0.134
707	0.134
707	0.134
708	0.135
708	0.135
709	0.135
709	0.135
709	0.135
710	0.135
710	0.136
711	0.137
711	0.137
712	0.138
712	0.138
713	0.138
713	0.138
713	0.138
714	0.138
714	0.138
715	0.138
715	0.138
716	0.137
716	0.137
716	0.136
717	0.136
717	0.136
718	0.135
718	0.135
719	0.136
719	0.137
720	0.137
720	0.138
720	0.138
721	0.139
721	0.14
722	0.141
722	0.141
723	0.141
723	0.141
723	0.141
724	0.14
724	0.14
725	0.139
725	0.138
726	0.137
726	0.137
727	0.136
727	0.135
727	0.135
728	0.134
728	0.134
729	0.134
729	0.134
730	0.134
730	0.134
730	0.134
731	0.134
731	0.135
732	0.135
732	0.136
733	0.136
733	0.136
734	0.137
734	0.138
734	0.138
735	0.139
735	0.139
736	0.139
736	0.139
737	0.139
737	0.139
737	0.139
738	0.139
738	0.138
739	0.138
739	0.137
740	0.137
740	0.137
741	0.137
741	0.138
741	0.138
742	0.138
742	0.139
743	0.14
743	0.141
744	0.141
744	0.142
744	0.142
745	0.142
745	0.141
746	0.141
746	0.141
747	0.141
747	0.141
748	0.141
748	0.141
748	0.141
749	0.14
749	0.141
750	0.141
750	0.141
751	0.142
751	0.142
751	0.142
752	0.142
752	0.142
753	0.141
753	0.141
754	0.141
754	0.14
754	0.14
755	0.14
755	0.139
756	0.139
756	0.138
757	0.137
757	0.137
758	0.137
758	0.137
758	0.137
759	0.138
759	0.137
760	0.137
760	0.137
761	0.137
761	0.137
761	0.138
762	0.138
762	0.138
763	0.138
763	0.138
764	0.138
764	0.138
764	0.137
765	0.137
765	0.137
766	0.136
766	0.136
767	0.136
767	0.135
768	0.134
768	0.134
768	0.134
769	0.134
769	0.134
770	0.134
770	0.135
771	0.135
771	0.136
771	0.136
772	0.137
772	0.138
773	0.138
773	0.138
774	0.138
774	0.138
775	0.139
775	0.139
775	0.139
776	0.139
776	0.139
777	0.139
777	0.139
778	0.139
778	0.139
778	0.138
779	0.138
779	0.138
780	0.137
780	0.136
781	0.135
781	0.134
781	0.134
782	0.133
782	0.133
783	0.133
783	0.133
784	0.133
784	0.133
784	0.134
785	0.134
785	0.134
786	0.135
786	0.135
787	0.135
787	0.135
788	0.135
788	0.134
788	0.134
789	0.134
789	0.134
790	0.134
790	0.134
791	0.134
791	0.133
791	0.133
792	0.134
792	0.134
793	0.134
793	0.134
794	0.134
794	0.133
794	0.133
795	0.133
795	0.133
796	0.133
796	0.133
797	0.132
797	0.133
797	0.133
798	0.133
798	0.133
799	0.133
799	0.133
800	0.132
800	0.132
801	0.132
801	0.132
801	0.132
802	0.132
802	0.132
803	0.132
803	0.132
804	0.132
804	0.132
804	0.132
805	0.132
805	0.132
806	0.131
806	0.131
807	0.131
807	0.131
807	0.131
808	0.131
808	0.131
809	0.131
809	0.131
810	0.131
810	0.131
810	0.131
811	0.131
811	0.131
812	0.132
812	0.132
813	0.132
813	0.132
813	0.133
814	0.133
814	0.134
815	0.134
815	0.135
816	0.135
816	0.134
817	0.134
817	0.134
817	0.134
818	0.133
818	0.133
819	0.132
819	0.131
820	0.13
820	0.13
820	0.129
821	0.129
821	0.129
822	0.128
822	0.128
823	0.128
823	0.128
823	0.128
824	0.129
824	0.13
825	0.131
825	0.132
826	0.133
826	0.133
826	0.134
827	0.135
827	0.135
828	0.135
828	0.135
829	0.136
829	0.136
829	0.136
830	0.136
830	0.136
831	0.137
831	0.136
832	0.136
832	0.136
832	0.136
833	0.135
833	0.134
834	0.134
834	0.133
835	0.132
835	0.132
835	0.131
836	0.131
836	0.13
837	0.13
837	0.13
838	0.129
838	0.129
839	0.128
839	0.127
839	0.127
840	0.126
840	0.125
841	0.124
841	0.123
842	0.122
842	0.121
842	0.121
843	0.12
843	0.12
844	0.119
844	0.119
845	0.119
845	0.119
845	0.119
846	0.119
846	0.119
847	0.119
847	0.119
848	0.119
848	0.119
848	0.119
849	0.118
849	0.118
850	0.117
850	0.117
851	0.116
851	0.116
851	0.115
852	0.114
852	0.114
853	0.114
853	0.114
854	0.114
854	0.115
854	0.116
855	0.117
855	0.118
856	0.119
856	0.12
857	0.121
857	0.123
857	0.123
858	0.124
858	0.125
859	0.125
859	0.125
860	0.125
860	0.124
860	0.123
861	0.123
861	0.122
862	0.121
862	0.12
863	0.119
863	0.119
863	0.118
864	0.118
864	0.118
865	0.119
865	0.119
866	0.119
866	0.119
866	0.119
867	0.119
867	0.12
868	0.12
868	0.12
869	0.119
869	0.119
869	0.118
870	0.118
870	0.118
871	0.118
871	0.118
872	0.117
872	0.117
872	0.117
873	0.116
873	0.115
874	0.115
874	0.114
875	0.114
875	0.113
875	0.113
876	0.113
876	0.112
877	0.112
877	0.112
878	0.112
878	0.113
878	0.113
879	0.113
879	0.113
880	0.113
880	0.113
881	0.113
881	0.113
881	0.113
882	0.113
882	0.112
883	0.112
883	0.112
884	0.112
884	0.112
884	0.112
885	0.112
885	0.112
886	0.112
886	0.112
887	0.112
887	0.111
887	0.111
888	0.111
888	0.111
889	0.111
889	0.111
890	0.111
890	0.111
890	0.112
891	0.112
891	0.112
892	0.112
892	0.112
893	0.112
893	0.111
893	0.111
894	0.11
894	0.109
895	0.109
895	0.108
895	0.108
896	0.107
896	0.107
897	0.107
897	0.107
898	0.107
898	0.107
898	0.107
899	0.107
899	0.107
900	0.106
900	0.106
901	0.106
901	0.106
901	0.106
902	0.106
902	0.105
903	0.105
903	0.105
904	0.105
904	0.105
904	0.104
905	0.103
905	0.103
906	0.102
906	0.102
907	0.102
907	0.102
907	0.101
908	0.101
908	0.101
909	0.101
909	0.101
910	0.101
910	0.101
910	0.101
911	0.101
911	0.1
912	0.1
912	0.099
913	0.099
913	0.098
913	0.098
914	0.098
914	0.097
915	0.097
915	0.097
916	0.097
916	0.097
916	0.097
917	0.097
917	0.097
918	0.097
918	0.096
918	0.096
919	0.096
919	0.096
920	0.095
920	0.095
921	0.095
921	0.095
921	0.095
922	0.095
922	0.095
923	0.095
923	0.095
924	0.095
924	0.096
924	0.096
925	0.096
925	0.096
926	0.097
926	0.097
927	0.097
927	0.097
927	0.097
928	0.097
928	0.098
929	0.098
929	0.098
930	0.098
930	0.099
930	0.099
931	0.099
931	0.099
932	0.099
932	0.099
933	0.099
933	0.098
933	0.098
934	0.097
934	0.096
935	0.096
935	0.095
935	0.094
936	0.094
936	0.093
937	0.092
937	0.091
938	0.091
938	0.09
938	0.089
939	0.089
939	0.088
940	0.087
940	0.087
941	0.087
941	0.088
941	0.088
942	0.089
942	0.089
943	0.09
943	0.09
944	0.091
944	0.091
944	0.092
945	0.092
945	0.093
946	0.093
946	0.093
946	0.093
947	0.093
947	0.092
948	0.092
948	0.092
949	0.091
949	0.091
949	0.09
950	0.089
950	0.089
951	0.088
951	0.087
952	0.086
952	0.086
952	0.085
953	0.085
953	0.085
954	0.084
954	0.084
955	0.085
955	0.084
955	0.085
956	0.085
956	0.086
957	0.087
957	0.088
957	0.089
958	0.089
958	0.09
959	0.091
959	0.091
960	0.092
960	0.092
960	0.092
961	0.092
961	0.092
962	0.092
962	0.092
963	0.092
963	0.092
963	0.091
964	0.091
964	0.091
965	0.091
965	0.09
966	0.09
966	0.09
966	0.089
967	0.089
967	0.089
968	0.089
968	0.089
968	0.088
969	0.087
969	0.086
970	0.086
970	0.085
971	0.084
971	0.083
971	0.082
972	0.082
972	0.081
973	0.081
973	0.081
974	0.081
974	0.081
974	0.082
975	0.082
975	0.083
976	0.083
976	0.084
976	0.084
977	0.084
977	0.084
978	0.084
978	0.084
979	0.084
979	0.083
979	0.084
980	0.084
980	0.084
981	0.084
981	0.084
982	0.085
982	0.085
982	0.086
983	0.086
983	0.086
984	0.087
984	0.087
984	0.087
985	0.086
985	0.086
986	0.085
986	0.085
987	0.084
987	0.083
987	0.083
988	0.083
988	0.082
989	0.082
989	0.082
990	0.081
990	0.081
990	0.081
991	0.081
991	0.081
992	0.081
992	0.08
992	0.08
993	0.079
993	0.078
994	0.078
994	0.077
995	0.077
995	0.076
995	0.076
996	0.076
996	0.076
997	0.076
997	0.076
997	0.076
998	0.076
998	0.077
999	0.078
999	0.078
1000	0.079
1000	0.079
1000	0.08
1001	0.08
1001	0.081
1002	0.081
1002	0.081
1003	0.081
1003	0.081
1003	0.08
1004	0.08
1004	0.079
1005	0.079
1005	0.078
1005	0.078
1006	0.077
1006	0.077
1007	0.077
1007	0.076
1008	0.076
1008	0.075
1008	0.075
1009	0.075
1009	0.074
1010	0.074
1010	0.074
1010	0.073
1011	0.073
1011	0.072
1012	0.072
1012	0.072
1013	0.071
1013	0.071
1013	0.071
1014	0.07
1014	0.07
1015	0.07
1015	0.07
1016	0.07
1016	0.07
1016	0.07
1017	0.069
1017	0.069
1018	0.069
1018	0.069
1018	0.069
1019	0.069
1019	0.069
1020	0.069
1020	0.069
1021	0.069
1021	0.07
1021	0.07
1022	0.071
1022	0.071
1023	0.071
1023	0.072
1023	0.072
1024	0.072
1024	0.073
1025	0.073
1025	0.073
1026	0.072
1026	0.072
1026	0.072
1027	0.072
1027	0.072
1028	0.073
1028	0.073
1028	0.073
1029	0.073
1029	0.072
1030	0.072
1030	0.073
1031	0.073
1031	0.073
1031	0.073
1032	0.073
1032	0.073
1033	0.073
1033	0.073
1033	0.073
1034	0.073
1034	0.073
1035	0.072
1035	0.072
1036	0.072
1036	0.072
1036	0.072
1037	0.072
1037	0.072
1038	0.072
1038	0.072
1039	0.071
1039	0.071
1039	0.071
1040	0.071
1040	0.071
1041	0.071
1041	0.07
1041	0.07
1042	0.069
1042	0.069
1043	0.069
1043	0.069
1044	0.068
1044	0.068
1044	0.068
1045	0.068
1045	0.068
1046	0.068
1046	0.068
1046	0.068
1047	0.067
1047	0.067
1048	0.067
1048	0.067
1049	0.067
1049	0.067
1049	0.067
1050	0.067
1050	0.066
1051	0.066
1051	0.066
1051	0.066
1052	0.066
1052	0.065
1053	0.064
1053	0.064
1053	0.063
1054	0.062
1054	0.062
1055	0.062
1055	0.061
1056	0.061
1056	0.06
1056	0.06
1057	0.059
1057	0.059
1058	0.059
1058	0.058
1058	0.058
1059	0.058
1059	0.058
1060	0.058
1060	0.058
1061	0.057
1061	0.057
1061	0.058
1062	0.058
1062	0.058
1063	0.058
1063	0.058
1063	0.058
1064	0.058
1064	0.058
1065	0.058
1065	0.058
1066	0.058
1066	0.058
1066	0.058
1067	0.058
1067	0.058
1068	0.058
1068	0.058
1068	0.058
1069	0.058
1069	0.058
1070	0.057
1070	0.057
1071	0.057
1071	0.056
1071	0.056
1072	0.056
1072	0.055
1073	0.055
1073	0.054
1073	0.054
1074	0.055
1074	0.055
1075	0.055
1075	0.055
1076	0.056
1076	0.056
1076	0.057
1077	0.057
1077	0.057
1078	0.057
1078	0.057
1078	0.057
1079	0.057
1079	0.057
1080	0.056
1080	0.055
1080	0.055
1081	0.055
1081	0.055
1082	0.054
1082	0.055
1083	0.054
1083	0.054
1083	0.054
1084	0.054
1084	0.054
1085	0.055
1085	0.054
1085	0.055
1086	0.055
1086	0.054
1087	0.054
1087	0.054
1088	0.054
1088	0.054
1088	0.054
1089	0.053
1089	0.053
1090	0.053
1090	0.052
1090	0.051
1091	0.051
1091	0.051
1092	0.052
1092	0.052
1092	0.052
1093	0.052
1093	0.053
1094	0.052
1094	0.052
1095	0.052
1095	0.052
1095	0.051
1096	0.05
1096	0.05
1097	0.048
1097	0.047
1097	0.046
1098	0.045
1098	0.044
1099	0.043
1099	0.042
1100	0.041
1100	0.04
1100	0.039
1101	0.039
1101	0.038
1102	0.038
1102	0.037
1102	0.037
1103	0.037
1103	0.038
1104	0.038
1104	0.038
1104	0.037
1105	0.037
1105	0.036
1106	0.035
1106	0.034
1107	0.034
1107	0.034
1107	0.034
1108	0.033
1108	0.032
1109	0.03
1109	0.031
1109	0.031
1110	0.032
1110	0.03
1111	0.03
1111	0.031
