Data from reversibility-20sec_Absorbance__2381__000000000002381.txt Node

Date: Wed Dec 06 01:26:46 CET 2023
User: Marek
Spectrometer: MAYP115816
Trigger mode: 0
Integration Time (sec): 2.000000E-1
Scans to average: 10
Electric dark correction enabled: true
Nonlinearity correction enabled: true
Boxcar width: 5
XAxis mode: Wavelengths
Number of Pixels in Spectrum: 2068
>>>>>Begin Spectral Data<<<<<
199	-0.173
199	-0.143
200	-0.071
200	-0.022
201	0.01
201	0.026
202	0.042
202	0.05
203	0.054
203	0.057
204	0.073
204	0.089
205	0.103
205	0.11
205	0.11
206	0.109
206	0.111
207	0.113
207	0.113
208	0.116
208	0.117
209	0.118
209	0.113
210	0.113
210	0.112
211	0.116
211	0.118
212	0.117
212	0.12
213	0.126
213	0.128
213	0.128
214	0.131
214	0.136
215	0.137
215	0.137
216	0.136
216	0.136
217	0.137
217	0.138
218	0.135
218	0.138
219	0.142
219	0.142
220	0.143
220	0.143
221	0.145
221	0.144
221	0.149
222	0.158
222	0.16
223	0.167
223	0.169
224	0.172
224	0.182
225	0.192
225	0.205
226	0.211
226	0.225
227	0.235
227	0.241
228	0.255
228	0.269
229	0.287
229	0.312
229	0.333
230	0.359
230	0.386
231	0.421
231	0.459
232	0.495
232	0.541
233	0.586
233	0.635
234	0.685
234	0.739
235	0.79
235	0.844
236	0.898
236	0.953
236	1.006
237	1.059
237	1.109
238	1.159
238	1.209
239	1.257
239	1.302
240	1.345
240	1.38
241	1.419
241	1.456
242	1.491
242	1.533
243	1.565
243	1.595
243	1.623
244	1.649
244	1.675
245	1.696
245	1.725
246	1.747
246	1.768
247	1.781
247	1.796
248	1.815
248	1.832
249	1.845
249	1.852
250	1.862
250	1.873
250	1.88
251	1.886
251	1.891
252	1.899
252	1.901
253	1.905
253	1.904
254	1.904
254	1.91
255	1.908
255	1.909
256	1.907
256	1.909
257	1.909
257	1.91
258	1.91
258	1.911
258	1.912
259	1.914
259	1.914
260	1.916
260	1.921
261	1.924
261	1.929
262	1.934
262	1.939
263	1.946
263	1.947
264	1.95
264	1.953
265	1.956
265	1.959
265	1.962
266	1.963
266	1.966
267	1.963
267	1.965
268	1.966
268	1.968
269	1.972
269	1.972
270	1.972
270	1.972
271	1.968
271	1.97
272	1.965
272	1.964
272	1.96
273	1.951
273	1.945
274	1.937
274	1.93
275	1.923
275	1.917
276	1.909
276	1.9
277	1.893
277	1.882
278	1.87
278	1.858
278	1.843
279	1.822
279	1.797
280	1.766
280	1.729
281	1.687
281	1.642
282	1.593
282	1.544
283	1.498
283	1.453
284	1.41
284	1.37
285	1.332
285	1.298
285	1.267
286	1.24
286	1.216
287	1.196
287	1.179
288	1.165
288	1.152
289	1.142
289	1.132
290	1.124
290	1.117
291	1.111
291	1.107
292	1.102
292	1.098
292	1.093
293	1.089
293	1.086
294	1.082
294	1.079
295	1.077
295	1.074
296	1.07
296	1.067
297	1.064
297	1.061
298	1.059
298	1.056
298	1.053
299	1.05
299	1.047
300	1.044
300	1.042
301	1.039
301	1.037
302	1.034
302	1.032
303	1.029
303	1.027
304	1.025
304	1.022
305	1.02
305	1.018
305	1.015
306	1.013
306	1.01
307	1.008
307	1.005
308	1.003
308	1
309	0.997
309	0.994
310	0.991
310	0.988
311	0.985
311	0.981
311	0.978
312	0.974
312	0.971
313	0.967
313	0.963
314	0.959
314	0.955
315	0.951
315	0.946
316	0.942
316	0.938
317	0.933
317	0.928
318	0.923
318	0.918
318	0.913
319	0.907
319	0.902
320	0.896
320	0.89
321	0.884
321	0.878
322	0.871
322	0.865
323	0.858
323	0.852
324	0.845
324	0.839
324	0.832
325	0.825
325	0.818
326	0.811
326	0.804
327	0.797
327	0.79
328	0.783
328	0.776
329	0.769
329	0.762
330	0.754
330	0.747
330	0.74
331	0.733
331	0.725
332	0.718
332	0.711
333	0.704
333	0.697
334	0.69
334	0.683
335	0.676
335	0.669
336	0.662
336	0.655
336	0.649
337	0.642
337	0.636
338	0.629
338	0.623
339	0.617
339	0.611
340	0.605
340	0.599
341	0.594
341	0.588
342	0.583
342	0.577
342	0.572
343	0.567
343	0.561
344	0.556
344	0.552
345	0.547
345	0.542
346	0.537
346	0.533
347	0.528
347	0.524
348	0.52
348	0.516
348	0.512
349	0.508
349	0.504
350	0.501
350	0.497
351	0.494
351	0.49
352	0.487
352	0.484
353	0.481
353	0.478
354	0.475
354	0.472
354	0.469
355	0.466
355	0.463
356	0.46
356	0.457
357	0.454
357	0.451
358	0.448
358	0.445
359	0.443
359	0.44
360	0.438
360	0.436
360	0.434
361	0.432
361	0.43
362	0.428
362	0.426
363	0.424
363	0.423
364	0.42
364	0.418
365	0.417
365	0.415
366	0.413
366	0.411
366	0.409
367	0.408
367	0.406
368	0.404
368	0.402
369	0.401
369	0.399
370	0.398
370	0.396
371	0.395
371	0.393
372	0.392
372	0.39
372	0.389
373	0.388
373	0.387
374	0.386
374	0.385
375	0.384
375	0.383
376	0.382
376	0.381
377	0.38
377	0.379
378	0.378
378	0.377
378	0.376
379	0.375
379	0.374
380	0.373
380	0.372
381	0.371
381	0.37
382	0.369
382	0.369
383	0.368
383	0.367
383	0.366
384	0.365
384	0.365
385	0.364
385	0.364
386	0.363
386	0.362
387	0.361
387	0.361
388	0.36
388	0.36
389	0.359
389	0.358
389	0.358
390	0.357
390	0.357
391	0.356
391	0.356
392	0.355
392	0.355
393	0.355
393	0.354
394	0.353
394	0.353
394	0.353
395	0.352
395	0.352
396	0.351
396	0.351
397	0.35
397	0.349
398	0.349
398	0.349
399	0.348
399	0.348
400	0.347
400	0.347
400	0.346
401	0.346
401	0.345
402	0.345
402	0.345
403	0.344
403	0.344
404	0.343
404	0.343
405	0.342
405	0.342
405	0.342
406	0.341
406	0.341
407	0.34
407	0.34
408	0.339
408	0.339
409	0.338
409	0.338
410	0.338
410	0.337
411	0.337
411	0.337
411	0.336
412	0.336
412	0.336
413	0.335
413	0.335
414	0.335
414	0.335
415	0.334
415	0.334
416	0.333
416	0.333
416	0.333
417	0.332
417	0.332
418	0.332
418	0.331
419	0.33
419	0.33
420	0.329
420	0.329
421	0.329
421	0.328
421	0.328
422	0.327
422	0.327
423	0.327
423	0.326
424	0.326
424	0.325
425	0.325
425	0.325
426	0.324
426	0.324
427	0.324
427	0.323
427	0.323
428	0.323
428	0.323
429	0.322
429	0.322
430	0.322
430	0.322
431	0.321
431	0.321
432	0.321
432	0.321
432	0.32
433	0.32
433	0.32
434	0.32
434	0.319
435	0.319
435	0.319
436	0.319
436	0.319
437	0.319
437	0.318
437	0.318
438	0.318
438	0.318
439	0.318
439	0.317
440	0.317
440	0.317
441	0.316
441	0.316
442	0.316
442	0.315
442	0.315
443	0.315
443	0.315
444	0.315
444	0.314
445	0.314
445	0.314
446	0.314
446	0.314
447	0.313
447	0.313
447	0.313
448	0.313
448	0.313
449	0.313
449	0.312
450	0.312
450	0.312
451	0.312
451	0.312
452	0.312
452	0.312
452	0.312
453	0.311
453	0.311
454	0.311
454	0.311
455	0.31
455	0.31
456	0.31
456	0.31
457	0.31
457	0.31
458	0.31
458	0.309
458	0.309
459	0.309
459	0.309
460	0.309
460	0.309
461	0.309
461	0.309
462	0.309
462	0.309
463	0.309
463	0.309
463	0.309
464	0.309
464	0.309
465	0.308
465	0.308
466	0.308
466	0.308
467	0.309
467	0.309
467	0.308
468	0.309
468	0.309
469	0.309
469	0.309
470	0.31
470	0.31
471	0.31
471	0.31
472	0.311
472	0.311
472	0.311
473	0.311
473	0.312
474	0.312
474	0.312
475	0.311
475	0.312
476	0.312
476	0.312
477	0.312
477	0.313
477	0.313
478	0.313
478	0.313
479	0.313
479	0.314
480	0.314
480	0.315
481	0.315
481	0.315
482	0.315
482	0.316
482	0.316
483	0.317
483	0.318
484	0.318
484	0.318
485	0.319
485	0.319
486	0.32
486	0.32
487	0.321
487	0.321
487	0.322
488	0.322
488	0.323
489	0.323
489	0.325
490	0.326
490	0.327
491	0.328
491	0.329
492	0.33
492	0.33
492	0.331
493	0.332
493	0.333
494	0.334
494	0.335
495	0.336
495	0.337
496	0.338
496	0.339
496	0.34
497	0.341
497	0.341
498	0.342
498	0.343
499	0.344
499	0.345
500	0.346
500	0.348
501	0.349
501	0.349
501	0.35
502	0.352
502	0.353
503	0.354
503	0.355
504	0.356
504	0.357
505	0.358
505	0.358
506	0.359
506	0.36
506	0.361
507	0.362
507	0.363
508	0.363
508	0.364
509	0.365
509	0.366
510	0.367
510	0.367
511	0.368
511	0.37
511	0.37
512	0.371
512	0.372
513	0.373
513	0.373
514	0.374
514	0.375
515	0.376
515	0.377
515	0.377
516	0.377
516	0.378
517	0.379
517	0.379
518	0.38
518	0.38
519	0.38
519	0.38
520	0.381
520	0.381
520	0.381
521	0.382
521	0.382
522	0.382
522	0.382
523	0.382
523	0.381
524	0.381
524	0.381
524	0.381
525	0.382
525	0.381
526	0.381
526	0.381
527	0.381
527	0.381
528	0.38
528	0.38
529	0.38
529	0.379
529	0.378
530	0.377
530	0.377
531	0.376
531	0.375
532	0.374
532	0.373
533	0.372
533	0.372
533	0.371
534	0.37
534	0.369
535	0.369
535	0.368
536	0.367
536	0.366
537	0.365
537	0.364
538	0.363
538	0.362
538	0.36
539	0.359
539	0.358
540	0.357
540	0.356
541	0.355
541	0.353
542	0.352
542	0.351
542	0.35
543	0.348
543	0.347
544	0.346
544	0.345
545	0.344
545	0.343
546	0.342
546	0.34
547	0.338
547	0.337
547	0.336
548	0.335
548	0.333
549	0.332
549	0.33
550	0.329
550	0.327
551	0.326
551	0.324
551	0.323
552	0.322
552	0.321
553	0.32
553	0.318
554	0.317
554	0.315
555	0.314
555	0.312
556	0.311
556	0.309
556	0.308
557	0.307
557	0.306
558	0.305
558	0.304
559	0.303
559	0.302
560	0.301
560	0.3
560	0.299
561	0.298
561	0.297
562	0.295
562	0.293
563	0.292
563	0.29
564	0.289
564	0.287
564	0.286
565	0.285
565	0.285
566	0.283
566	0.282
567	0.282
567	0.281
568	0.28
568	0.279
568	0.278
569	0.277
569	0.276
570	0.275
570	0.273
571	0.272
571	0.271
572	0.27
572	0.269
573	0.268
573	0.267
573	0.266
574	0.265
574	0.264
575	0.264
575	0.263
576	0.262
576	0.261
577	0.26
577	0.259
577	0.258
578	0.257
578	0.256
579	0.256
579	0.255
580	0.254
580	0.253
581	0.252
581	0.251
581	0.251
582	0.25
582	0.25
583	0.25
583	0.249
584	0.248
584	0.246
585	0.246
585	0.245
585	0.244
586	0.243
586	0.242
587	0.241
587	0.24
588	0.239
588	0.238
589	0.237
589	0.237
590	0.236
590	0.236
590	0.236
591	0.235
591	0.234
592	0.233
592	0.232
593	0.232
593	0.231
594	0.23
594	0.23
594	0.229
595	0.228
595	0.228
596	0.227
596	0.227
597	0.227
597	0.227
598	0.227
598	0.227
598	0.226
599	0.226
599	0.225
600	0.224
600	0.223
601	0.223
601	0.222
602	0.221
602	0.22
602	0.219
603	0.219
603	0.219
604	0.218
604	0.218
605	0.218
605	0.217
606	0.217
606	0.216
606	0.215
607	0.215
607	0.215
608	0.214
608	0.213
609	0.212
609	0.212
610	0.211
610	0.211
610	0.211
611	0.211
611	0.21
612	0.21
612	0.21
613	0.21
613	0.21
614	0.21
614	0.209
614	0.208
615	0.208
615	0.208
616	0.208
616	0.207
617	0.207
617	0.207
618	0.206
618	0.206
618	0.207
619	0.207
619	0.207
620	0.207
620	0.207
621	0.206
621	0.206
622	0.205
622	0.204
622	0.203
623	0.203
623	0.202
624	0.202
624	0.201
625	0.2
625	0.2
626	0.2
626	0.199
626	0.199
627	0.199
627	0.199
628	0.199
628	0.198
629	0.198
629	0.198
630	0.198
630	0.197
630	0.197
631	0.197
631	0.197
632	0.196
632	0.196
633	0.196
633	0.196
634	0.196
634	0.196
634	0.196
635	0.195
635	0.195
636	0.194
636	0.194
637	0.194
637	0.193
638	0.193
638	0.193
638	0.192
639	0.191
639	0.191
640	0.191
640	0.191
641	0.191
641	0.19
642	0.19
642	0.19
642	0.19
643	0.191
643	0.191
644	0.191
644	0.191
645	0.191
645	0.191
646	0.191
646	0.191
646	0.19
647	0.19
647	0.189
648	0.189
648	0.188
649	0.188
649	0.187
650	0.187
650	0.187
650	0.187
651	0.187
651	0.187
652	0.187
652	0.187
653	0.188
653	0.189
653	0.195
654	0.153
654	0.123
655	0.123
655	0.124
656	0.124
656	0.124
657	0.124
657	0.125
657	0.125
658	0.123
658	0.113
659	0.143
659	0.184
660	0.188
660	0.188
661	0.188
661	0.187
661	0.186
662	0.186
662	0.185
663	0.185
663	0.184
664	0.184
664	0.184
665	0.184
665	0.183
665	0.183
666	0.183
666	0.184
667	0.184
667	0.184
668	0.184
668	0.184
669	0.184
669	0.184
669	0.185
670	0.185
670	0.185
671	0.185
671	0.185
672	0.184
672	0.184
672	0.184
673	0.184
673	0.184
674	0.183
674	0.183
675	0.182
675	0.182
676	0.182
676	0.183
676	0.183
677	0.183
677	0.183
678	0.183
678	0.182
679	0.182
679	0.182
680	0.183
680	0.182
680	0.182
681	0.182
681	0.182
682	0.182
682	0.182
683	0.182
683	0.183
684	0.183
684	0.182
684	0.182
685	0.182
685	0.182
686	0.182
686	0.182
687	0.181
687	0.181
687	0.181
688	0.181
688	0.181
689	0.182
689	0.183
690	0.183
690	0.182
691	0.183
691	0.183
691	0.183
692	0.184
692	0.184
693	0.184
693	0.185
694	0.185
694	0.185
695	0.185
695	0.186
695	0.186
696	0.186
696	0.185
697	0.185
697	0.185
698	0.184
698	0.183
698	0.183
699	0.184
699	0.183
700	0.183
700	0.183
701	0.183
701	0.183
702	0.183
702	0.183
702	0.184
703	0.184
703	0.184
704	0.183
704	0.183
705	0.183
705	0.182
705	0.182
706	0.181
706	0.181
707	0.181
707	0.18
708	0.18
708	0.18
709	0.18
709	0.18
709	0.179
710	0.179
710	0.18
711	0.18
711	0.18
712	0.181
712	0.181
713	0.181
713	0.182
713	0.182
714	0.182
714	0.182
715	0.182
715	0.182
716	0.182
716	0.181
716	0.181
717	0.18
717	0.18
718	0.179
718	0.179
719	0.179
719	0.179
720	0.179
720	0.179
720	0.179
721	0.18
721	0.18
722	0.181
722	0.181
723	0.181
723	0.182
723	0.182
724	0.182
724	0.182
725	0.181
725	0.181
726	0.18
726	0.179
727	0.179
727	0.178
727	0.178
728	0.178
728	0.177
729	0.178
729	0.178
730	0.178
730	0.179
730	0.18
731	0.18
731	0.181
732	0.182
732	0.182
733	0.182
733	0.182
734	0.182
734	0.181
734	0.181
735	0.181
735	0.18
736	0.18
736	0.179
737	0.179
737	0.179
737	0.178
738	0.178
738	0.177
739	0.177
739	0.177
740	0.177
740	0.178
741	0.178
741	0.178
741	0.178
742	0.178
742	0.178
743	0.179
743	0.179
744	0.18
744	0.18
744	0.18
745	0.18
745	0.18
746	0.18
746	0.18
747	0.18
747	0.181
748	0.181
748	0.182
748	0.182
749	0.183
749	0.183
750	0.184
750	0.184
751	0.184
751	0.184
751	0.184
752	0.184
752	0.183
753	0.183
753	0.182
754	0.182
754	0.182
754	0.182
755	0.181
755	0.181
756	0.18
756	0.179
757	0.179
757	0.179
758	0.179
758	0.179
758	0.179
759	0.179
759	0.179
760	0.179
760	0.179
761	0.179
761	0.18
761	0.18
762	0.18
762	0.181
763	0.181
763	0.181
764	0.18
764	0.18
764	0.18
765	0.18
765	0.18
766	0.18
766	0.179
767	0.179
767	0.178
768	0.178
768	0.177
768	0.177
769	0.177
769	0.177
770	0.177
770	0.177
771	0.177
771	0.177
771	0.177
772	0.177
772	0.178
773	0.178
773	0.178
774	0.179
774	0.179
775	0.179
775	0.18
775	0.18
776	0.18
776	0.18
777	0.18
777	0.18
778	0.179
778	0.179
778	0.179
779	0.178
779	0.178
780	0.177
780	0.176
781	0.176
781	0.176
781	0.176
782	0.175
782	0.175
783	0.175
783	0.176
784	0.176
784	0.176
784	0.176
785	0.176
785	0.176
786	0.176
786	0.176
787	0.176
787	0.175
788	0.175
788	0.174
788	0.174
789	0.173
789	0.173
790	0.173
790	0.173
791	0.173
791	0.173
791	0.173
792	0.174
792	0.174
793	0.174
793	0.175
794	0.175
794	0.175
794	0.175
795	0.175
795	0.175
796	0.175
796	0.175
797	0.175
797	0.174
797	0.174
798	0.174
798	0.174
799	0.173
799	0.173
800	0.172
800	0.171
801	0.171
801	0.171
801	0.17
802	0.17
802	0.17
803	0.17
803	0.17
804	0.17
804	0.17
804	0.17
805	0.17
805	0.17
806	0.17
806	0.17
807	0.17
807	0.17
807	0.17
808	0.17
808	0.17
809	0.17
809	0.17
810	0.17
810	0.17
810	0.17
811	0.17
811	0.17
812	0.17
812	0.17
813	0.17
813	0.169
813	0.169
814	0.169
814	0.169
815	0.168
815	0.168
816	0.167
816	0.166
817	0.165
817	0.165
817	0.164
818	0.164
818	0.164
819	0.163
819	0.162
820	0.161
820	0.161
820	0.161
821	0.161
821	0.161
822	0.16
822	0.16
823	0.16
823	0.16
823	0.16
824	0.161
824	0.162
825	0.163
825	0.163
826	0.163
826	0.163
826	0.163
827	0.163
827	0.163
828	0.162
828	0.162
829	0.162
829	0.161
829	0.161
830	0.161
830	0.161
831	0.161
831	0.161
832	0.161
832	0.161
832	0.161
833	0.16
833	0.16
834	0.16
834	0.16
835	0.159
835	0.159
835	0.159
836	0.159
836	0.159
837	0.159
837	0.159
838	0.159
838	0.158
839	0.158
839	0.157
839	0.156
840	0.155
840	0.154
841	0.152
841	0.151
842	0.15
842	0.149
842	0.148
843	0.147
843	0.146
844	0.146
844	0.146
845	0.146
845	0.146
845	0.146
846	0.146
846	0.145
847	0.146
847	0.146
848	0.146
848	0.147
848	0.147
849	0.148
849	0.148
850	0.148
850	0.148
851	0.148
851	0.148
851	0.147
852	0.146
852	0.146
853	0.145
853	0.144
854	0.143
854	0.143
854	0.143
855	0.143
855	0.143
856	0.143
856	0.144
857	0.144
857	0.144
857	0.144
858	0.144
858	0.143
859	0.142
859	0.141
860	0.14
860	0.139
860	0.138
861	0.138
861	0.137
862	0.136
862	0.135
863	0.134
863	0.134
863	0.134
864	0.134
864	0.134
865	0.134
865	0.134
866	0.134
866	0.134
866	0.133
867	0.133
867	0.133
868	0.133
868	0.133
869	0.132
869	0.132
869	0.131
870	0.13
870	0.13
871	0.129
871	0.129
872	0.129
872	0.129
872	0.129
873	0.129
873	0.129
874	0.128
874	0.128
875	0.128
875	0.128
875	0.127
876	0.127
876	0.127
877	0.127
877	0.127
878	0.127
878	0.128
878	0.129
879	0.13
879	0.131
880	0.132
880	0.133
881	0.133
881	0.133
881	0.133
882	0.132
882	0.131
883	0.13
883	0.128
884	0.127
884	0.126
884	0.125
885	0.124
885	0.123
886	0.122
886	0.122
887	0.122
887	0.121
887	0.12
888	0.12
888	0.119
889	0.118
889	0.118
890	0.117
890	0.117
890	0.116
891	0.116
891	0.115
892	0.115
892	0.115
893	0.115
893	0.115
893	0.115
894	0.115
894	0.115
895	0.115
895	0.114
895	0.114
896	0.114
896	0.114
897	0.113
897	0.113
898	0.113
898	0.113
898	0.113
899	0.113
899	0.113
900	0.113
900	0.113
901	0.113
901	0.113
901	0.114
902	0.114
902	0.114
903	0.113
903	0.113
904	0.113
904	0.113
904	0.112
905	0.112
905	0.112
906	0.112
906	0.112
907	0.112
907	0.112
907	0.113
908	0.113
908	0.114
909	0.114
909	0.114
910	0.114
910	0.114
910	0.113
911	0.113
911	0.112
912	0.111
912	0.111
913	0.11
913	0.109
913	0.108
914	0.108
914	0.107
915	0.106
915	0.106
916	0.105
916	0.104
916	0.104
917	0.103
917	0.103
918	0.102
918	0.101
918	0.1
919	0.1
919	0.099
920	0.098
920	0.098
921	0.097
921	0.097
921	0.096
922	0.095
922	0.095
923	0.095
923	0.095
924	0.095
924	0.095
924	0.095
925	0.096
925	0.096
926	0.097
926	0.097
927	0.097
927	0.098
927	0.098
928	0.098
928	0.099
929	0.099
929	0.099
930	0.1
930	0.1
930	0.1
931	0.1
931	0.101
932	0.101
932	0.102
933	0.102
933	0.102
933	0.103
934	0.103
934	0.103
935	0.103
935	0.103
935	0.102
936	0.102
936	0.102
937	0.101
937	0.101
938	0.101
938	0.1
938	0.099
939	0.098
939	0.098
940	0.097
940	0.097
941	0.097
941	0.097
941	0.096
942	0.096
942	0.096
943	0.096
943	0.095
944	0.095
944	0.095
944	0.095
945	0.094
945	0.094
946	0.094
946	0.094
946	0.094
947	0.094
947	0.093
948	0.093
948	0.092
949	0.092
949	0.091
949	0.09
950	0.09
950	0.089
951	0.088
951	0.087
952	0.086
952	0.085
952	0.084
953	0.084
953	0.083
954	0.083
954	0.082
955	0.082
955	0.082
955	0.082
956	0.082
956	0.083
957	0.084
957	0.084
957	0.085
958	0.086
958	0.087
959	0.087
959	0.088
960	0.088
960	0.089
960	0.089
961	0.089
961	0.089
962	0.089
962	0.089
963	0.089
963	0.089
963	0.089
964	0.09
964	0.09
965	0.09
965	0.09
966	0.091
966	0.091
966	0.091
967	0.091
967	0.092
968	0.092
968	0.092
968	0.092
969	0.092
969	0.092
970	0.091
970	0.091
971	0.091
971	0.091
971	0.091
972	0.091
972	0.09
973	0.09
973	0.09
974	0.09
974	0.09
974	0.09
975	0.09
975	0.09
976	0.091
976	0.091
976	0.091
977	0.091
977	0.091
978	0.091
978	0.09
979	0.09
979	0.09
979	0.089
980	0.089
980	0.088
981	0.087
981	0.087
982	0.086
982	0.085
982	0.085
983	0.084
983	0.083
984	0.082
984	0.081
984	0.08
985	0.08
985	0.079
986	0.078
986	0.078
987	0.077
987	0.076
987	0.076
988	0.075
988	0.075
989	0.075
989	0.075
990	0.075
990	0.074
990	0.074
991	0.074
991	0.074
992	0.074
992	0.074
992	0.074
993	0.073
993	0.073
994	0.072
994	0.072
995	0.072
995	0.072
995	0.072
996	0.072
996	0.072
997	0.072
997	0.073
997	0.073
998	0.073
998	0.074
999	0.075
999	0.075
1000	0.076
1000	0.077
1000	0.077
1001	0.077
1001	0.077
1002	0.077
1002	0.077
1003	0.077
1003	0.077
1003	0.076
1004	0.076
1004	0.075
1005	0.075
1005	0.074
1005	0.073
1006	0.073
1006	0.073
1007	0.073
1007	0.073
1008	0.072
1008	0.072
1008	0.072
1009	0.072
1009	0.073
1010	0.073
1010	0.073
1010	0.073
1011	0.073
1011	0.073
1012	0.073
1012	0.073
1013	0.073
1013	0.073
1013	0.073
1014	0.072
1014	0.072
1015	0.072
1015	0.072
1016	0.072
1016	0.071
1016	0.071
1017	0.07
1017	0.07
1018	0.069
1018	0.069
1018	0.069
1019	0.069
1019	0.068
1020	0.068
1020	0.068
1021	0.068
1021	0.069
1021	0.069
1022	0.069
1022	0.069
1023	0.069
1023	0.069
1023	0.069
1024	0.07
1024	0.07
1025	0.07
1025	0.07
1026	0.07
1026	0.07
1026	0.07
1027	0.07
1027	0.07
1028	0.07
1028	0.071
1028	0.071
1029	0.071
1029	0.071
1030	0.071
1030	0.071
1031	0.072
1031	0.072
1031	0.072
1032	0.072
1032	0.072
1033	0.072
1033	0.072
1033	0.071
1034	0.071
1034	0.071
1035	0.07
1035	0.07
1036	0.069
1036	0.069
1036	0.069
1037	0.069
1037	0.069
1038	0.069
1038	0.069
1039	0.07
1039	0.07
1039	0.07
1040	0.071
1040	0.071
1041	0.072
1041	0.072
1041	0.072
1042	0.073
1042	0.073
1043	0.073
1043	0.073
1044	0.073
1044	0.073
1044	0.073
1045	0.074
1045	0.073
1046	0.074
1046	0.074
1046	0.074
1047	0.075
1047	0.075
1048	0.075
1048	0.076
1049	0.076
1049	0.076
1049	0.076
1050	0.076
1050	0.075
1051	0.075
1051	0.075
1051	0.074
1052	0.073
1052	0.073
1053	0.072
1053	0.071
1053	0.07
1054	0.069
1054	0.068
1055	0.068
1055	0.067
1056	0.066
1056	0.066
1056	0.065
1057	0.064
1057	0.063
1058	0.063
1058	0.062
1058	0.061
1059	0.06
1059	0.059
1060	0.059
1060	0.058
1061	0.058
1061	0.057
1061	0.057
1062	0.057
1062	0.057
1063	0.057
1063	0.057
1063	0.057
1064	0.057
1064	0.057
1065	0.057
1065	0.057
1066	0.056
1066	0.056
1066	0.055
1067	0.055
1067	0.055
1068	0.054
1068	0.054
1068	0.054
1069	0.053
1069	0.053
1070	0.052
1070	0.052
1071	0.051
1071	0.051
1071	0.05
1072	0.049
1072	0.049
1073	0.048
1073	0.047
1073	0.047
1074	0.047
1074	0.047
1075	0.047
1075	0.048
1076	0.049
1076	0.05
1076	0.05
1077	0.05
1077	0.051
1078	0.051
1078	0.051
1078	0.052
1079	0.052
1079	0.052
1080	0.051
1080	0.052
1080	0.051
1081	0.051
1081	0.052
1082	0.052
1082	0.052
1083	0.052
1083	0.052
1083	0.052
1084	0.052
1084	0.052
1085	0.052
1085	0.051
1085	0.051
1086	0.051
1086	0.05
1087	0.049
1087	0.049
1088	0.049
1088	0.048
1088	0.049
1089	0.048
1089	0.047
1090	0.047
1090	0.046
1090	0.045
1091	0.045
1091	0.045
1092	0.045
1092	0.045
1092	0.045
1093	0.044
1093	0.044
1094	0.045
1094	0.044
1095	0.044
1095	0.044
1095	0.044
1096	0.044
1096	0.043
1097	0.042
1097	0.042
1097	0.042
1098	0.042
1098	0.04
1099	0.04
1099	0.039
1100	0.038
1100	0.037
1100	0.037
1101	0.036
1101	0.035
1102	0.034
1102	0.032
1102	0.031
1103	0.032
1103	0.032
1104	0.033
1104	0.032
1104	0.031
1105	0.03
1105	0.028
1106	0.028
1106	0.027
1107	0.027
1107	0.026
1107	0.025
1108	0.024
1108	0.022
1109	0.021
1109	0.02
1109	0.02
1110	0.021
1110	0.019
1111	0.022
1111	0.018
