Data from reversibility-20sec_Absorbance__2429__000000000002429.txt Node

Date: Wed Dec 06 01:42:46 CET 2023
User: Marek
Spectrometer: MAYP115816
Trigger mode: 0
Integration Time (sec): 2.000000E-1
Scans to average: 10
Electric dark correction enabled: true
Nonlinearity correction enabled: true
Boxcar width: 5
XAxis mode: Wavelengths
Number of Pixels in Spectrum: 2068
>>>>>Begin Spectral Data<<<<<
199	-0.186
199	-0.162
200	-0.088
200	-0.039
201	-0.014
201	0.003
202	0.018
202	0.031
203	0.038
203	0.041
204	0.053
204	0.068
205	0.081
205	0.084
205	0.082
206	0.085
206	0.084
207	0.086
207	0.082
208	0.083
208	0.081
209	0.082
209	0.08
210	0.079
210	0.082
211	0.085
211	0.088
212	0.087
212	0.089
213	0.095
213	0.097
213	0.101
214	0.105
214	0.105
215	0.107
215	0.105
216	0.106
216	0.104
217	0.109
217	0.111
218	0.11
218	0.114
219	0.118
219	0.119
220	0.122
220	0.122
221	0.126
221	0.128
221	0.134
222	0.143
222	0.149
223	0.153
223	0.154
224	0.157
224	0.165
225	0.173
225	0.185
226	0.194
226	0.205
227	0.213
227	0.217
228	0.23
228	0.245
229	0.264
229	0.29
229	0.313
230	0.338
230	0.367
231	0.4
231	0.439
232	0.477
232	0.524
233	0.569
233	0.62
234	0.672
234	0.723
235	0.775
235	0.83
236	0.882
236	0.936
236	0.988
237	1.044
237	1.091
238	1.137
238	1.185
239	1.235
239	1.28
240	1.324
240	1.364
241	1.404
241	1.438
242	1.474
242	1.509
243	1.545
243	1.576
243	1.604
244	1.626
244	1.652
245	1.675
245	1.701
246	1.722
246	1.746
247	1.763
247	1.779
248	1.796
248	1.813
249	1.827
249	1.838
250	1.848
250	1.859
250	1.864
251	1.873
251	1.877
252	1.886
252	1.889
253	1.893
253	1.895
254	1.898
254	1.902
255	1.902
255	1.904
256	1.908
256	1.907
257	1.91
257	1.91
258	1.912
258	1.912
258	1.912
259	1.915
259	1.915
260	1.917
260	1.919
261	1.92
261	1.924
262	1.929
262	1.93
263	1.935
263	1.938
264	1.94
264	1.94
265	1.945
265	1.946
265	1.949
266	1.952
266	1.954
267	1.952
267	1.955
268	1.956
268	1.957
269	1.962
269	1.962
270	1.962
270	1.963
271	1.961
271	1.96
272	1.958
272	1.958
272	1.954
273	1.949
273	1.942
274	1.935
274	1.928
275	1.921
275	1.915
276	1.909
276	1.902
277	1.895
277	1.884
278	1.873
278	1.862
278	1.849
279	1.834
279	1.816
280	1.792
280	1.763
281	1.727
281	1.688
282	1.647
282	1.606
283	1.564
283	1.523
284	1.483
284	1.444
285	1.407
285	1.373
285	1.343
286	1.315
286	1.291
287	1.27
287	1.251
288	1.235
288	1.221
289	1.209
289	1.198
290	1.189
290	1.181
291	1.174
291	1.168
292	1.162
292	1.157
292	1.153
293	1.148
293	1.144
294	1.14
294	1.136
295	1.133
295	1.129
296	1.125
296	1.122
297	1.119
297	1.115
298	1.112
298	1.109
298	1.105
299	1.102
299	1.099
300	1.095
300	1.093
301	1.09
301	1.087
302	1.084
302	1.081
303	1.078
303	1.076
304	1.073
304	1.07
305	1.067
305	1.064
305	1.061
306	1.059
306	1.056
307	1.053
307	1.05
308	1.047
308	1.044
309	1.041
309	1.038
310	1.034
310	1.031
311	1.028
311	1.024
311	1.02
312	1.016
312	1.012
313	1.008
313	1.004
314	1
314	0.996
315	0.991
315	0.987
316	0.982
316	0.977
317	0.973
317	0.968
318	0.963
318	0.957
318	0.952
319	0.946
319	0.94
320	0.935
320	0.929
321	0.923
321	0.916
322	0.91
322	0.904
323	0.897
323	0.891
324	0.884
324	0.877
324	0.871
325	0.864
325	0.857
326	0.85
326	0.843
327	0.836
327	0.828
328	0.821
328	0.814
329	0.807
329	0.8
330	0.792
330	0.785
330	0.778
331	0.771
331	0.764
332	0.757
332	0.75
333	0.743
333	0.735
334	0.728
334	0.722
335	0.715
335	0.708
336	0.701
336	0.695
336	0.688
337	0.682
337	0.675
338	0.669
338	0.663
339	0.657
339	0.651
340	0.645
340	0.639
341	0.633
341	0.628
342	0.622
342	0.617
342	0.611
343	0.606
343	0.601
344	0.596
344	0.591
345	0.585
345	0.58
346	0.576
346	0.571
347	0.567
347	0.562
348	0.558
348	0.554
348	0.55
349	0.546
349	0.543
350	0.539
350	0.535
351	0.532
351	0.528
352	0.525
352	0.522
353	0.519
353	0.516
354	0.513
354	0.51
354	0.506
355	0.504
355	0.501
356	0.498
356	0.495
357	0.492
357	0.489
358	0.486
358	0.483
359	0.481
359	0.478
360	0.476
360	0.473
360	0.471
361	0.469
361	0.467
362	0.464
362	0.462
363	0.46
363	0.458
364	0.456
364	0.454
365	0.452
365	0.45
366	0.448
366	0.446
366	0.444
367	0.442
367	0.44
368	0.439
368	0.437
369	0.435
369	0.434
370	0.432
370	0.43
371	0.429
371	0.427
372	0.426
372	0.424
372	0.423
373	0.421
373	0.42
374	0.419
374	0.418
375	0.416
375	0.415
376	0.414
376	0.413
377	0.411
377	0.41
378	0.409
378	0.408
378	0.407
379	0.406
379	0.404
380	0.403
380	0.402
381	0.401
381	0.4
382	0.399
382	0.399
383	0.398
383	0.397
383	0.396
384	0.395
384	0.394
385	0.394
385	0.393
386	0.392
386	0.392
387	0.391
387	0.39
388	0.389
388	0.388
389	0.388
389	0.387
389	0.386
390	0.386
390	0.385
391	0.384
391	0.384
392	0.383
392	0.383
393	0.382
393	0.381
394	0.381
394	0.38
394	0.38
395	0.379
395	0.378
396	0.377
396	0.377
397	0.376
397	0.375
398	0.375
398	0.374
399	0.374
399	0.373
400	0.373
400	0.372
400	0.372
401	0.371
401	0.371
402	0.37
402	0.37
403	0.369
403	0.369
404	0.368
404	0.368
405	0.367
405	0.367
405	0.366
406	0.366
406	0.365
407	0.365
407	0.364
408	0.363
408	0.363
409	0.362
409	0.362
410	0.362
410	0.361
411	0.361
411	0.36
411	0.36
412	0.36
412	0.359
413	0.359
413	0.359
414	0.358
414	0.358
415	0.358
415	0.357
416	0.357
416	0.356
416	0.356
417	0.355
417	0.355
418	0.355
418	0.355
419	0.354
419	0.354
420	0.353
420	0.353
421	0.352
421	0.352
421	0.351
422	0.351
422	0.351
423	0.35
423	0.35
424	0.349
424	0.349
425	0.349
425	0.348
426	0.348
426	0.348
427	0.348
427	0.347
427	0.347
428	0.346
428	0.346
429	0.346
429	0.345
430	0.345
430	0.345
431	0.345
431	0.345
432	0.344
432	0.344
432	0.344
433	0.344
433	0.344
434	0.343
434	0.343
435	0.343
435	0.343
436	0.343
436	0.343
437	0.343
437	0.342
437	0.342
438	0.342
438	0.342
439	0.342
439	0.341
440	0.341
440	0.341
441	0.341
441	0.34
442	0.34
442	0.34
442	0.34
443	0.339
443	0.339
444	0.339
444	0.339
445	0.339
445	0.339
446	0.339
446	0.338
447	0.338
447	0.338
447	0.338
448	0.338
448	0.338
449	0.338
449	0.338
450	0.338
450	0.338
451	0.338
451	0.338
452	0.338
452	0.338
452	0.338
453	0.338
453	0.338
454	0.338
454	0.338
455	0.338
455	0.338
456	0.338
456	0.338
457	0.338
457	0.338
458	0.338
458	0.338
458	0.338
459	0.338
459	0.338
460	0.338
460	0.338
461	0.338
461	0.338
462	0.338
462	0.338
463	0.339
463	0.338
463	0.339
464	0.339
464	0.339
465	0.339
465	0.339
466	0.339
466	0.34
467	0.34
467	0.34
467	0.34
468	0.341
468	0.341
469	0.342
469	0.342
470	0.343
470	0.343
471	0.344
471	0.344
472	0.345
472	0.345
472	0.346
473	0.346
473	0.347
474	0.347
474	0.348
475	0.348
475	0.348
476	0.349
476	0.349
477	0.35
477	0.35
477	0.351
478	0.351
478	0.352
479	0.353
479	0.353
480	0.354
480	0.355
481	0.356
481	0.357
482	0.357
482	0.358
482	0.359
483	0.36
483	0.361
484	0.363
484	0.363
485	0.364
485	0.365
486	0.366
486	0.366
487	0.367
487	0.368
487	0.369
488	0.37
488	0.371
489	0.372
489	0.374
490	0.376
490	0.377
491	0.379
491	0.38
492	0.382
492	0.383
492	0.385
493	0.386
493	0.388
494	0.389
494	0.391
495	0.392
495	0.394
496	0.396
496	0.397
496	0.399
497	0.4
497	0.401
498	0.403
498	0.404
499	0.406
499	0.407
500	0.409
500	0.411
501	0.412
501	0.414
501	0.415
502	0.416
502	0.418
503	0.42
503	0.421
504	0.423
504	0.424
505	0.425
505	0.427
506	0.429
506	0.43
506	0.431
507	0.432
507	0.434
508	0.435
508	0.436
509	0.437
509	0.439
510	0.44
510	0.442
511	0.443
511	0.444
511	0.446
512	0.447
512	0.448
513	0.449
513	0.451
514	0.452
514	0.453
515	0.454
515	0.454
515	0.455
516	0.456
516	0.456
517	0.457
517	0.458
518	0.458
518	0.458
519	0.459
519	0.459
520	0.459
520	0.459
520	0.459
521	0.459
521	0.459
522	0.459
522	0.459
523	0.459
523	0.459
524	0.458
524	0.458
524	0.457
525	0.457
525	0.457
526	0.456
526	0.455
527	0.455
527	0.454
528	0.452
528	0.452
529	0.451
529	0.45
529	0.449
530	0.447
530	0.446
531	0.444
531	0.443
532	0.441
532	0.439
533	0.438
533	0.436
533	0.434
534	0.432
534	0.431
535	0.429
535	0.427
536	0.425
536	0.424
537	0.421
537	0.42
538	0.417
538	0.415
538	0.412
539	0.41
539	0.408
540	0.406
540	0.404
541	0.401
541	0.399
542	0.397
542	0.395
542	0.393
543	0.39
543	0.388
544	0.386
544	0.383
545	0.381
545	0.379
546	0.376
546	0.373
547	0.37
547	0.367
547	0.364
548	0.362
548	0.359
549	0.357
549	0.354
550	0.351
550	0.349
551	0.346
551	0.344
551	0.341
552	0.339
552	0.336
553	0.334
553	0.331
554	0.329
554	0.326
555	0.323
555	0.32
556	0.318
556	0.315
556	0.312
557	0.31
557	0.308
558	0.306
558	0.303
559	0.301
559	0.298
560	0.296
560	0.294
560	0.292
561	0.29
561	0.288
562	0.285
562	0.282
563	0.28
563	0.278
564	0.275
564	0.273
564	0.271
565	0.268
565	0.266
566	0.264
566	0.262
567	0.26
567	0.258
568	0.256
568	0.254
568	0.252
569	0.251
569	0.248
570	0.246
570	0.244
571	0.243
571	0.241
572	0.239
572	0.238
573	0.236
573	0.234
573	0.232
574	0.231
574	0.229
575	0.228
575	0.227
576	0.225
576	0.223
577	0.221
577	0.22
577	0.218
578	0.217
578	0.215
579	0.215
579	0.214
580	0.212
580	0.21
581	0.208
581	0.207
581	0.206
582	0.205
582	0.204
583	0.203
583	0.202
584	0.2
584	0.197
585	0.196
585	0.195
585	0.194
586	0.192
586	0.191
587	0.189
587	0.188
588	0.187
588	0.185
589	0.184
589	0.184
590	0.183
590	0.182
590	0.181
591	0.18
591	0.179
592	0.178
592	0.176
593	0.175
593	0.174
594	0.173
594	0.172
594	0.171
595	0.17
595	0.169
596	0.168
596	0.167
597	0.168
597	0.167
598	0.167
598	0.166
598	0.165
599	0.164
599	0.163
600	0.163
600	0.162
601	0.161
601	0.16
602	0.159
602	0.158
602	0.156
603	0.155
603	0.155
604	0.154
604	0.153
605	0.153
605	0.153
606	0.152
606	0.151
606	0.15
607	0.149
607	0.149
608	0.148
608	0.147
609	0.146
609	0.146
610	0.145
610	0.144
610	0.143
611	0.143
611	0.142
612	0.142
612	0.142
613	0.142
613	0.141
614	0.141
614	0.14
614	0.139
615	0.139
615	0.138
616	0.138
616	0.137
617	0.136
617	0.136
618	0.135
618	0.135
618	0.134
619	0.135
619	0.135
620	0.135
620	0.134
621	0.133
621	0.133
622	0.132
622	0.131
622	0.131
623	0.13
623	0.129
624	0.129
624	0.127
625	0.127
625	0.126
626	0.125
626	0.125
626	0.125
627	0.124
627	0.124
628	0.123
628	0.123
629	0.122
629	0.122
630	0.121
630	0.121
630	0.121
631	0.12
631	0.12
632	0.119
632	0.119
633	0.119
633	0.119
634	0.119
634	0.119
634	0.118
635	0.118
635	0.117
636	0.117
636	0.117
637	0.116
637	0.115
638	0.115
638	0.114
638	0.114
639	0.113
639	0.112
640	0.112
640	0.112
641	0.111
641	0.111
642	0.11
642	0.11
642	0.11
643	0.11
643	0.11
644	0.11
644	0.11
645	0.11
645	0.11
646	0.109
646	0.109
646	0.109
647	0.109
647	0.108
648	0.108
648	0.107
649	0.107
649	0.106
650	0.106
650	0.106
650	0.105
651	0.105
651	0.105
652	0.105
652	0.104
653	0.105
653	0.107
653	0.113
654	0.09
654	0.074
655	0.072
655	0.072
656	0.072
656	0.072
657	0.072
657	0.072
657	0.072
658	0.071
658	0.063
659	0.079
659	0.099
660	0.104
660	0.104
661	0.103
661	0.103
661	0.102
662	0.101
662	0.1
663	0.099
663	0.099
664	0.098
664	0.097
665	0.097
665	0.097
665	0.097
666	0.097
666	0.096
667	0.097
667	0.097
668	0.098
668	0.098
669	0.098
669	0.099
669	0.099
670	0.099
670	0.099
671	0.099
671	0.098
672	0.098
672	0.097
672	0.097
673	0.096
673	0.096
674	0.095
674	0.094
675	0.094
675	0.094
676	0.094
676	0.094
676	0.094
677	0.094
677	0.093
678	0.093
678	0.093
679	0.092
679	0.092
680	0.092
680	0.092
680	0.091
681	0.091
681	0.091
682	0.091
682	0.091
683	0.091
683	0.091
684	0.091
684	0.091
684	0.09
685	0.09
685	0.09
686	0.09
686	0.09
687	0.09
687	0.09
687	0.089
688	0.089
688	0.089
689	0.089
689	0.09
690	0.089
690	0.089
691	0.089
691	0.089
691	0.089
692	0.089
692	0.09
693	0.09
693	0.09
694	0.089
694	0.089
695	0.089
695	0.09
695	0.089
696	0.089
696	0.088
697	0.088
697	0.087
698	0.087
698	0.086
698	0.086
699	0.087
699	0.086
700	0.085
700	0.086
701	0.086
701	0.085
702	0.085
702	0.085
702	0.085
703	0.084
703	0.084
704	0.084
704	0.084
705	0.083
705	0.083
705	0.083
706	0.082
706	0.082
707	0.082
707	0.082
708	0.082
708	0.082
709	0.082
709	0.081
709	0.081
710	0.08
710	0.081
711	0.081
711	0.08
712	0.08
712	0.08
713	0.08
713	0.08
713	0.08
714	0.079
714	0.079
715	0.079
715	0.079
716	0.078
716	0.078
716	0.077
717	0.077
717	0.076
718	0.076
718	0.075
719	0.075
719	0.075
720	0.075
720	0.075
720	0.075
721	0.075
721	0.076
722	0.076
722	0.076
723	0.076
723	0.077
723	0.077
724	0.077
724	0.077
725	0.076
725	0.075
726	0.075
726	0.075
727	0.074
727	0.073
727	0.073
728	0.073
728	0.072
729	0.072
729	0.072
730	0.072
730	0.073
730	0.073
731	0.074
731	0.074
732	0.075
732	0.075
733	0.075
733	0.075
734	0.075
734	0.074
734	0.074
735	0.074
735	0.073
736	0.073
736	0.072
737	0.071
737	0.071
737	0.07
738	0.069
738	0.068
739	0.068
739	0.068
740	0.067
740	0.067
741	0.068
741	0.068
741	0.068
742	0.068
742	0.068
743	0.069
743	0.069
744	0.069
744	0.069
744	0.069
745	0.069
745	0.068
746	0.068
746	0.068
747	0.068
747	0.068
748	0.068
748	0.069
748	0.069
749	0.069
749	0.07
750	0.07
750	0.07
751	0.071
751	0.071
751	0.071
752	0.07
752	0.069
753	0.069
753	0.068
754	0.068
754	0.067
754	0.067
755	0.066
755	0.066
756	0.065
756	0.064
757	0.063
757	0.063
758	0.063
758	0.063
758	0.064
759	0.064
759	0.064
760	0.064
760	0.064
761	0.064
761	0.065
761	0.066
762	0.066
762	0.066
763	0.066
763	0.065
764	0.065
764	0.065
764	0.065
765	0.065
765	0.064
766	0.064
766	0.064
767	0.063
767	0.062
768	0.062
768	0.062
768	0.062
769	0.062
769	0.061
770	0.061
770	0.062
771	0.062
771	0.062
771	0.062
772	0.062
772	0.063
773	0.063
773	0.063
774	0.063
774	0.064
775	0.064
775	0.064
775	0.064
776	0.064
776	0.064
777	0.064
777	0.064
778	0.063
778	0.063
778	0.062
779	0.062
779	0.062
780	0.061
780	0.06
781	0.06
781	0.059
781	0.059
782	0.059
782	0.059
783	0.059
783	0.06
784	0.06
784	0.06
784	0.06
785	0.061
785	0.061
786	0.061
786	0.061
787	0.06
787	0.06
788	0.06
788	0.059
788	0.059
789	0.059
789	0.059
790	0.058
790	0.058
791	0.058
791	0.058
791	0.058
792	0.059
792	0.059
793	0.059
793	0.059
794	0.059
794	0.058
794	0.058
795	0.058
795	0.059
796	0.059
796	0.059
797	0.058
797	0.058
797	0.058
798	0.058
798	0.058
799	0.058
799	0.058
800	0.057
800	0.056
801	0.056
801	0.055
801	0.054
802	0.054
802	0.054
803	0.053
803	0.053
804	0.053
804	0.053
804	0.054
805	0.054
805	0.054
806	0.054
806	0.055
807	0.055
807	0.055
807	0.055
808	0.055
808	0.055
809	0.055
809	0.055
810	0.056
810	0.056
810	0.056
811	0.056
811	0.056
812	0.057
812	0.057
813	0.057
813	0.057
813	0.057
814	0.058
814	0.058
815	0.058
815	0.058
816	0.057
816	0.057
817	0.056
817	0.056
817	0.056
818	0.056
818	0.056
819	0.056
819	0.055
820	0.055
820	0.054
820	0.054
821	0.055
821	0.055
822	0.055
822	0.054
823	0.054
823	0.054
823	0.054
824	0.055
824	0.056
825	0.057
825	0.057
826	0.058
826	0.058
826	0.058
827	0.058
827	0.058
828	0.058
828	0.058
829	0.057
829	0.057
829	0.057
830	0.057
830	0.057
831	0.057
831	0.057
832	0.056
832	0.056
832	0.056
833	0.056
833	0.056
834	0.056
834	0.056
835	0.056
835	0.056
835	0.056
836	0.056
836	0.057
837	0.057
837	0.057
838	0.057
838	0.057
839	0.057
839	0.057
839	0.056
840	0.056
840	0.055
841	0.053
841	0.052
842	0.051
842	0.05
842	0.05
843	0.049
843	0.049
844	0.049
844	0.049
845	0.049
845	0.049
845	0.049
846	0.049
846	0.05
847	0.05
847	0.051
848	0.051
848	0.052
848	0.052
849	0.053
849	0.053
850	0.053
850	0.053
851	0.053
851	0.053
851	0.052
852	0.052
852	0.051
853	0.051
853	0.05
854	0.05
854	0.051
854	0.051
855	0.052
855	0.053
856	0.054
856	0.054
857	0.055
857	0.056
857	0.057
858	0.057
858	0.057
859	0.056
859	0.056
860	0.055
860	0.055
860	0.054
861	0.053
861	0.052
862	0.051
862	0.05
863	0.049
863	0.049
863	0.048
864	0.048
864	0.047
865	0.047
865	0.047
866	0.047
866	0.047
866	0.047
867	0.047
867	0.047
868	0.047
868	0.048
869	0.048
869	0.048
869	0.047
870	0.048
870	0.048
871	0.048
871	0.048
872	0.049
872	0.048
872	0.048
873	0.048
873	0.048
874	0.048
874	0.047
875	0.047
875	0.047
875	0.046
876	0.046
876	0.046
877	0.046
877	0.046
878	0.047
878	0.047
878	0.048
879	0.049
879	0.05
880	0.05
880	0.051
881	0.051
881	0.052
881	0.052
882	0.052
882	0.052
883	0.052
883	0.051
884	0.051
884	0.051
884	0.05
885	0.05
885	0.049
886	0.049
886	0.048
887	0.048
887	0.047
887	0.047
888	0.046
888	0.046
889	0.046
889	0.046
890	0.046
890	0.046
890	0.046
891	0.046
891	0.046
892	0.046
892	0.047
893	0.047
893	0.047
893	0.048
894	0.048
894	0.048
895	0.048
895	0.048
895	0.047
896	0.047
896	0.047
897	0.046
897	0.045
898	0.045
898	0.044
898	0.044
899	0.044
899	0.044
900	0.044
900	0.044
901	0.044
901	0.045
901	0.045
902	0.045
902	0.045
903	0.045
903	0.046
904	0.046
904	0.046
904	0.046
905	0.046
905	0.046
906	0.046
906	0.047
907	0.047
907	0.048
907	0.048
908	0.048
908	0.048
909	0.049
909	0.049
910	0.048
910	0.048
910	0.048
911	0.048
911	0.048
912	0.047
912	0.047
913	0.047
913	0.047
913	0.047
914	0.047
914	0.047
915	0.047
915	0.047
916	0.047
916	0.047
916	0.047
917	0.047
917	0.046
918	0.046
918	0.045
918	0.044
919	0.044
919	0.043
920	0.042
920	0.042
921	0.041
921	0.041
921	0.04
922	0.04
922	0.04
923	0.04
923	0.04
924	0.04
924	0.04
924	0.041
925	0.041
925	0.042
926	0.043
926	0.043
927	0.044
927	0.044
927	0.044
928	0.045
928	0.045
929	0.045
929	0.045
930	0.045
930	0.046
930	0.046
931	0.046
931	0.047
932	0.047
932	0.048
933	0.048
933	0.048
933	0.049
934	0.049
934	0.049
935	0.049
935	0.048
935	0.048
936	0.048
936	0.047
937	0.047
937	0.047
938	0.046
938	0.046
938	0.046
939	0.046
939	0.045
940	0.045
940	0.045
941	0.045
941	0.046
941	0.046
942	0.046
942	0.046
943	0.046
943	0.046
944	0.046
944	0.047
944	0.047
945	0.047
945	0.047
946	0.047
946	0.048
946	0.048
947	0.048
947	0.048
948	0.048
948	0.048
949	0.048
949	0.048
949	0.048
950	0.048
950	0.048
951	0.048
951	0.047
952	0.047
952	0.046
952	0.046
953	0.046
953	0.045
954	0.044
954	0.044
955	0.043
955	0.042
955	0.042
956	0.042
956	0.042
957	0.042
957	0.042
957	0.042
958	0.042
958	0.042
959	0.043
959	0.043
960	0.044
960	0.044
960	0.044
961	0.045
961	0.045
962	0.045
962	0.046
963	0.046
963	0.046
963	0.046
964	0.046
964	0.046
965	0.047
965	0.047
966	0.048
966	0.049
966	0.05
967	0.05
967	0.051
968	0.052
968	0.053
968	0.053
969	0.053
969	0.053
970	0.053
970	0.053
971	0.053
971	0.052
971	0.052
972	0.052
972	0.051
973	0.051
973	0.05
974	0.05
974	0.05
974	0.05
975	0.051
975	0.051
976	0.051
976	0.051
976	0.052
977	0.052
977	0.052
978	0.052
978	0.052
979	0.052
979	0.052
979	0.052
980	0.052
980	0.052
981	0.051
981	0.051
982	0.051
982	0.051
982	0.051
983	0.05
983	0.05
984	0.049
984	0.049
984	0.048
985	0.048
985	0.047
986	0.047
986	0.046
987	0.045
987	0.045
987	0.044
988	0.044
988	0.043
989	0.043
989	0.042
990	0.042
990	0.041
990	0.04
991	0.04
991	0.039
992	0.038
992	0.038
992	0.037
993	0.036
993	0.036
994	0.035
994	0.035
995	0.035
995	0.035
995	0.036
996	0.036
996	0.036
997	0.037
997	0.038
997	0.039
998	0.04
998	0.041
999	0.042
999	0.042
1000	0.043
1000	0.044
1000	0.044
1001	0.045
1001	0.045
1002	0.045
1002	0.044
1003	0.044
1003	0.044
1003	0.043
1004	0.043
1004	0.042
1005	0.041
1005	0.041
1005	0.04
1006	0.04
1006	0.039
1007	0.039
1007	0.038
1008	0.038
1008	0.038
1008	0.038
1009	0.039
1009	0.039
1010	0.039
1010	0.039
1010	0.039
1011	0.039
1011	0.039
1012	0.039
1012	0.039
1013	0.039
1013	0.039
1013	0.039
1014	0.039
1014	0.039
1015	0.039
1015	0.039
1016	0.038
1016	0.038
1016	0.038
1017	0.038
1017	0.037
1018	0.037
1018	0.037
1018	0.037
1019	0.037
1019	0.037
1020	0.037
1020	0.037
1021	0.037
1021	0.037
1021	0.037
1022	0.037
1022	0.037
1023	0.037
1023	0.038
1023	0.038
1024	0.038
1024	0.038
1025	0.037
1025	0.037
1026	0.037
1026	0.036
1026	0.036
1027	0.036
1027	0.035
1028	0.035
1028	0.035
1028	0.035
1029	0.035
1029	0.035
1030	0.035
1030	0.035
1031	0.035
1031	0.035
1031	0.036
1032	0.036
1032	0.036
1033	0.036
1033	0.036
1033	0.036
1034	0.036
1034	0.036
1035	0.036
1035	0.036
1036	0.036
1036	0.036
1036	0.036
1037	0.036
1037	0.036
1038	0.036
1038	0.036
1039	0.037
1039	0.037
1039	0.037
1040	0.038
1040	0.038
1041	0.039
1041	0.039
1041	0.039
1042	0.04
1042	0.04
1043	0.041
1043	0.041
1044	0.041
1044	0.041
1044	0.042
1045	0.042
1045	0.042
1046	0.043
1046	0.043
1046	0.044
1047	0.044
1047	0.044
1048	0.045
1048	0.046
1049	0.046
1049	0.047
1049	0.047
1050	0.047
1050	0.047
1051	0.047
1051	0.047
1051	0.047
1052	0.047
1052	0.047
1053	0.046
1053	0.045
1053	0.044
1054	0.044
1054	0.043
1055	0.043
1055	0.043
1056	0.042
1056	0.041
1056	0.041
1057	0.04
1057	0.039
1058	0.038
1058	0.037
1058	0.037
1059	0.036
1059	0.036
1060	0.035
1060	0.034
1061	0.033
1061	0.033
1061	0.032
1062	0.032
1062	0.032
1063	0.031
1063	0.031
1063	0.03
1064	0.03
1064	0.03
1065	0.029
1065	0.029
1066	0.029
1066	0.029
1066	0.029
1067	0.029
1067	0.029
1068	0.029
1068	0.029
1068	0.029
1069	0.029
1069	0.028
1070	0.028
1070	0.028
1071	0.027
1071	0.027
1071	0.026
1072	0.026
1072	0.025
1073	0.025
1073	0.024
1073	0.024
1074	0.024
1074	0.025
1075	0.024
1075	0.024
1076	0.025
1076	0.025
1076	0.026
1077	0.026
1077	0.027
1078	0.027
1078	0.027
1078	0.028
1079	0.028
1079	0.028
1080	0.028
1080	0.028
1080	0.028
1081	0.029
1081	0.029
1082	0.029
1082	0.03
1083	0.03
1083	0.029
1083	0.03
1084	0.03
1084	0.03
1085	0.03
1085	0.03
1085	0.03
1086	0.03
1086	0.029
1087	0.029
1087	0.028
1088	0.028
1088	0.028
1088	0.028
1089	0.027
1089	0.026
1090	0.026
1090	0.025
1090	0.023
1091	0.023
1091	0.023
1092	0.023
1092	0.022
1092	0.022
1093	0.021
1093	0.021
1094	0.021
1094	0.021
1095	0.02
1095	0.02
1095	0.02
1096	0.019
1096	0.019
1097	0.018
1097	0.018
1097	0.018
1098	0.017
1098	0.016
1099	0.016
1099	0.016
1100	0.016
1100	0.015
1100	0.015
1101	0.014
1101	0.014
1102	0.013
1102	0.012
1102	0.012
1103	0.011
1103	0.011
1104	0.01
1104	0.01
1104	0.009
1105	0.007
1105	0.005
1106	0.004
1106	0.002
1107	0.001
1107	-0
1107	-0.001
1108	-0.003
1108	-0.004
1109	-0.006
1109	-0.007
1109	-0.007
1110	-0.006
1110	-0.008
1111	-0.006
1111	-0.003
