Data from reversibility-20sec_Absorbance__7452__000000000007452.txt Node

Date: Thu Dec 07 05:37:06 CET 2023
User: Marek
Spectrometer: MAYP115816
Trigger mode: 0
Integration Time (sec): 2.000000E-1
Scans to average: 10
Electric dark correction enabled: true
Nonlinearity correction enabled: true
Boxcar width: 5
XAxis mode: Wavelengths
Number of Pixels in Spectrum: 2068
>>>>>Begin Spectral Data<<<<<
199	-0.069
199	-0.044
200	0.011
200	0.058
201	0.08
201	0.093
202	0.102
202	0.111
203	0.115
203	0.119
204	0.133
204	0.143
205	0.155
205	0.161
205	0.158
206	0.157
206	0.159
207	0.162
207	0.161
208	0.164
208	0.162
209	0.164
209	0.159
210	0.161
210	0.161
211	0.16
211	0.164
212	0.162
212	0.162
213	0.165
213	0.163
213	0.162
214	0.167
214	0.172
215	0.172
215	0.174
216	0.178
216	0.176
217	0.178
217	0.18
218	0.18
218	0.184
219	0.188
219	0.188
220	0.192
220	0.19
221	0.187
221	0.19
221	0.198
222	0.203
222	0.21
223	0.214
223	0.219
224	0.224
224	0.229
225	0.236
225	0.25
226	0.263
226	0.271
227	0.279
227	0.289
228	0.302
228	0.316
229	0.334
229	0.359
229	0.383
230	0.404
230	0.432
231	0.461
231	0.499
232	0.537
232	0.581
233	0.624
233	0.674
234	0.724
234	0.776
235	0.83
235	0.886
236	0.937
236	0.99
236	1.043
237	1.095
237	1.142
238	1.186
238	1.231
239	1.275
239	1.316
240	1.356
240	1.388
241	1.422
241	1.454
242	1.486
242	1.517
243	1.548
243	1.575
243	1.598
244	1.619
244	1.639
245	1.657
245	1.679
246	1.694
246	1.712
247	1.724
247	1.737
248	1.748
248	1.761
249	1.77
249	1.778
250	1.787
250	1.792
250	1.796
251	1.8
251	1.801
252	1.804
252	1.802
253	1.802
253	1.8
254	1.799
254	1.797
255	1.794
255	1.793
256	1.792
256	1.793
257	1.794
257	1.791
258	1.792
258	1.792
258	1.789
259	1.79
259	1.792
260	1.791
260	1.794
261	1.795
261	1.797
262	1.801
262	1.802
263	1.805
263	1.806
264	1.809
264	1.81
265	1.811
265	1.812
265	1.812
266	1.811
266	1.81
267	1.806
267	1.808
268	1.808
268	1.808
269	1.811
269	1.81
270	1.809
270	1.808
271	1.806
271	1.805
272	1.802
272	1.8
272	1.796
273	1.79
273	1.783
274	1.775
274	1.768
275	1.76
275	1.753
276	1.745
276	1.737
277	1.73
277	1.72
278	1.707
278	1.695
278	1.68
279	1.662
279	1.639
280	1.613
280	1.579
281	1.54
281	1.496
282	1.451
282	1.405
283	1.361
283	1.318
284	1.276
284	1.236
285	1.198
285	1.164
285	1.134
286	1.107
286	1.084
287	1.064
287	1.047
288	1.032
288	1.02
289	1.009
289	1
290	0.993
290	0.986
291	0.98
291	0.975
292	0.97
292	0.966
292	0.962
293	0.958
293	0.955
294	0.951
294	0.948
295	0.945
295	0.942
296	0.939
296	0.936
297	0.933
297	0.93
298	0.927
298	0.924
298	0.921
299	0.919
299	0.916
300	0.913
300	0.91
301	0.907
301	0.905
302	0.902
302	0.9
303	0.897
303	0.895
304	0.893
304	0.89
305	0.888
305	0.886
305	0.884
306	0.882
306	0.879
307	0.877
307	0.874
308	0.872
308	0.869
309	0.867
309	0.864
310	0.861
310	0.858
311	0.855
311	0.852
311	0.849
312	0.845
312	0.842
313	0.838
313	0.834
314	0.83
314	0.826
315	0.822
315	0.818
316	0.814
316	0.809
317	0.805
317	0.8
318	0.795
318	0.79
318	0.785
319	0.78
319	0.774
320	0.769
320	0.763
321	0.757
321	0.751
322	0.744
322	0.738
323	0.731
323	0.725
324	0.718
324	0.711
324	0.705
325	0.697
325	0.691
326	0.684
326	0.676
327	0.67
327	0.662
328	0.656
328	0.648
329	0.641
329	0.634
330	0.627
330	0.62
330	0.612
331	0.605
331	0.598
332	0.591
332	0.584
333	0.577
333	0.57
334	0.563
334	0.556
335	0.549
335	0.542
336	0.535
336	0.529
336	0.522
337	0.515
337	0.509
338	0.503
338	0.496
339	0.49
339	0.484
340	0.478
340	0.472
341	0.467
341	0.461
342	0.455
342	0.45
342	0.444
343	0.439
343	0.434
344	0.429
344	0.424
345	0.419
345	0.415
346	0.41
346	0.406
347	0.401
347	0.397
348	0.393
348	0.389
348	0.385
349	0.381
349	0.377
350	0.374
350	0.37
351	0.367
351	0.363
352	0.36
352	0.357
353	0.354
353	0.351
354	0.348
354	0.345
354	0.342
355	0.34
355	0.337
356	0.334
356	0.331
357	0.329
357	0.326
358	0.323
358	0.321
359	0.319
359	0.316
360	0.315
360	0.313
360	0.311
361	0.309
361	0.307
362	0.305
362	0.304
363	0.302
363	0.3
364	0.298
364	0.296
365	0.294
365	0.292
366	0.291
366	0.289
366	0.287
367	0.286
367	0.284
368	0.282
368	0.281
369	0.279
369	0.278
370	0.277
370	0.275
371	0.274
371	0.273
372	0.272
372	0.271
372	0.27
373	0.269
373	0.268
374	0.267
374	0.266
375	0.265
375	0.265
376	0.264
376	0.263
377	0.262
377	0.261
378	0.26
378	0.259
378	0.259
379	0.258
379	0.257
380	0.257
380	0.256
381	0.255
381	0.254
382	0.254
382	0.254
383	0.253
383	0.253
383	0.252
384	0.252
384	0.251
385	0.251
385	0.25
386	0.25
386	0.25
387	0.249
387	0.249
388	0.249
388	0.248
389	0.248
389	0.248
389	0.247
390	0.247
390	0.247
391	0.246
391	0.246
392	0.246
392	0.246
393	0.245
393	0.245
394	0.244
394	0.244
394	0.244
395	0.243
395	0.243
396	0.243
396	0.243
397	0.242
397	0.242
398	0.242
398	0.242
399	0.241
399	0.241
400	0.241
400	0.24
400	0.24
401	0.24
401	0.239
402	0.239
402	0.239
403	0.239
403	0.239
404	0.238
404	0.238
405	0.238
405	0.238
405	0.238
406	0.238
406	0.237
407	0.237
407	0.237
408	0.237
408	0.237
409	0.236
409	0.236
410	0.236
410	0.236
411	0.235
411	0.235
411	0.235
412	0.235
412	0.234
413	0.234
413	0.234
414	0.233
414	0.233
415	0.233
415	0.232
416	0.232
416	0.232
416	0.231
417	0.231
417	0.23
418	0.23
418	0.23
419	0.23
419	0.229
420	0.229
420	0.228
421	0.228
421	0.228
421	0.227
422	0.227
422	0.227
423	0.227
423	0.226
424	0.226
424	0.226
425	0.225
425	0.225
426	0.225
426	0.224
427	0.224
427	0.224
427	0.223
428	0.223
428	0.223
429	0.222
429	0.222
430	0.221
430	0.221
431	0.221
431	0.221
432	0.221
432	0.22
432	0.22
433	0.22
433	0.22
434	0.219
434	0.22
435	0.22
435	0.219
436	0.219
436	0.219
437	0.219
437	0.218
437	0.218
438	0.218
438	0.218
439	0.217
439	0.217
440	0.216
440	0.216
441	0.216
441	0.215
442	0.215
442	0.215
442	0.215
443	0.215
443	0.214
444	0.214
444	0.214
445	0.214
445	0.214
446	0.214
446	0.214
447	0.213
447	0.213
447	0.213
448	0.213
448	0.213
449	0.212
449	0.212
450	0.212
450	0.212
451	0.211
451	0.211
452	0.211
452	0.211
452	0.211
453	0.211
453	0.21
454	0.21
454	0.21
455	0.21
455	0.209
456	0.209
456	0.209
457	0.209
457	0.208
458	0.208
458	0.208
458	0.207
459	0.207
459	0.207
460	0.207
460	0.207
461	0.206
461	0.206
462	0.206
462	0.206
463	0.205
463	0.205
463	0.205
464	0.204
464	0.204
465	0.204
465	0.203
466	0.203
466	0.203
467	0.203
467	0.203
467	0.203
468	0.203
468	0.203
469	0.203
469	0.204
470	0.204
470	0.204
471	0.204
471	0.204
472	0.203
472	0.203
472	0.203
473	0.203
473	0.203
474	0.202
474	0.202
475	0.202
475	0.202
476	0.202
476	0.202
477	0.202
477	0.202
477	0.201
478	0.201
478	0.202
479	0.202
479	0.202
480	0.201
480	0.201
481	0.201
481	0.201
482	0.201
482	0.201
482	0.201
483	0.201
483	0.201
484	0.201
484	0.201
485	0.201
485	0.2
486	0.2
486	0.2
487	0.2
487	0.2
487	0.2
488	0.2
488	0.2
489	0.2
489	0.201
490	0.201
490	0.202
491	0.202
491	0.202
492	0.203
492	0.203
492	0.203
493	0.204
493	0.204
494	0.205
494	0.205
495	0.205
495	0.205
496	0.205
496	0.206
496	0.206
497	0.206
497	0.206
498	0.206
498	0.207
499	0.207
499	0.207
500	0.208
500	0.208
501	0.208
501	0.209
501	0.209
502	0.209
502	0.209
503	0.21
503	0.21
504	0.21
504	0.211
505	0.211
505	0.211
506	0.211
506	0.212
506	0.212
507	0.212
507	0.213
508	0.213
508	0.213
509	0.214
509	0.214
510	0.214
510	0.215
511	0.215
511	0.215
511	0.215
512	0.216
512	0.216
513	0.216
513	0.217
514	0.217
514	0.217
515	0.218
515	0.218
515	0.219
516	0.219
516	0.219
517	0.22
517	0.22
518	0.221
518	0.221
519	0.221
519	0.221
520	0.221
520	0.222
520	0.222
521	0.222
521	0.222
522	0.222
522	0.222
523	0.222
523	0.222
524	0.223
524	0.223
524	0.223
525	0.224
525	0.223
526	0.224
526	0.224
527	0.224
527	0.224
528	0.224
528	0.224
529	0.224
529	0.224
529	0.224
530	0.224
530	0.224
531	0.224
531	0.224
532	0.224
532	0.224
533	0.224
533	0.224
533	0.223
534	0.224
534	0.223
535	0.224
535	0.224
536	0.224
536	0.224
537	0.224
537	0.224
538	0.223
538	0.223
538	0.223
539	0.223
539	0.223
540	0.223
540	0.223
541	0.223
541	0.223
542	0.222
542	0.223
542	0.223
543	0.222
543	0.222
544	0.223
544	0.222
545	0.222
545	0.222
546	0.222
546	0.222
547	0.221
547	0.221
547	0.22
548	0.221
548	0.22
549	0.22
549	0.219
550	0.219
550	0.219
551	0.219
551	0.219
551	0.219
552	0.219
552	0.219
553	0.218
553	0.218
554	0.218
554	0.217
555	0.217
555	0.216
556	0.216
556	0.216
556	0.216
557	0.216
557	0.216
558	0.216
558	0.216
559	0.216
559	0.216
560	0.216
560	0.216
560	0.216
561	0.216
561	0.216
562	0.215
562	0.214
563	0.214
563	0.213
564	0.212
564	0.212
564	0.211
565	0.211
565	0.211
566	0.21
566	0.21
567	0.21
567	0.211
568	0.21
568	0.21
568	0.21
569	0.21
569	0.209
570	0.209
570	0.208
571	0.207
571	0.207
572	0.206
572	0.206
573	0.206
573	0.205
573	0.205
574	0.205
574	0.204
575	0.204
575	0.205
576	0.204
576	0.204
577	0.203
577	0.203
577	0.202
578	0.202
578	0.202
579	0.202
579	0.202
580	0.202
580	0.201
581	0.201
581	0.201
581	0.201
582	0.201
582	0.201
583	0.201
583	0.201
584	0.2
584	0.199
585	0.199
585	0.199
585	0.198
586	0.198
586	0.198
587	0.197
587	0.197
588	0.196
588	0.196
589	0.196
589	0.196
590	0.196
590	0.196
590	0.196
591	0.196
591	0.196
592	0.195
592	0.195
593	0.194
593	0.194
594	0.194
594	0.193
594	0.192
595	0.192
595	0.191
596	0.191
596	0.191
597	0.192
597	0.192
598	0.192
598	0.192
598	0.192
599	0.192
599	0.192
600	0.192
600	0.191
601	0.191
601	0.191
602	0.19
602	0.19
602	0.19
603	0.189
603	0.189
604	0.189
604	0.189
605	0.189
605	0.189
606	0.189
606	0.188
606	0.188
607	0.188
607	0.187
608	0.187
608	0.186
609	0.186
609	0.186
610	0.185
610	0.185
610	0.185
611	0.185
611	0.185
612	0.185
612	0.186
613	0.186
613	0.185
614	0.185
614	0.185
614	0.185
615	0.185
615	0.185
616	0.185
616	0.185
617	0.185
617	0.185
618	0.185
618	0.185
618	0.185
619	0.185
619	0.185
620	0.185
620	0.185
621	0.184
621	0.183
622	0.183
622	0.183
622	0.182
623	0.182
623	0.182
624	0.182
624	0.181
625	0.181
625	0.181
626	0.182
626	0.182
626	0.182
627	0.182
627	0.182
628	0.182
628	0.182
629	0.182
629	0.182
630	0.181
630	0.181
630	0.181
631	0.181
631	0.18
632	0.18
632	0.18
633	0.18
633	0.18
634	0.18
634	0.18
634	0.18
635	0.18
635	0.179
636	0.179
636	0.179
637	0.179
637	0.179
638	0.179
638	0.178
638	0.177
639	0.177
639	0.177
640	0.177
640	0.177
641	0.177
641	0.176
642	0.176
642	0.176
642	0.176
643	0.177
643	0.177
644	0.177
644	0.178
645	0.178
645	0.178
646	0.178
646	0.178
646	0.179
647	0.178
647	0.178
648	0.178
648	0.177
649	0.177
649	0.177
650	0.176
650	0.176
650	0.176
651	0.176
651	0.176
652	0.176
652	0.177
653	0.177
653	0.179
653	0.184
654	0.145
654	0.116
655	0.116
655	0.117
656	0.117
656	0.118
657	0.118
657	0.118
657	0.118
658	0.117
658	0.108
659	0.136
659	0.174
660	0.178
660	0.178
661	0.177
661	0.177
661	0.176
662	0.176
662	0.175
663	0.175
663	0.175
664	0.175
664	0.175
665	0.175
665	0.175
665	0.175
666	0.175
666	0.175
667	0.175
667	0.175
668	0.176
668	0.176
669	0.176
669	0.176
669	0.177
670	0.177
670	0.177
671	0.177
671	0.176
672	0.176
672	0.176
672	0.175
673	0.175
673	0.175
674	0.175
674	0.174
675	0.174
675	0.174
676	0.174
676	0.174
676	0.174
677	0.175
677	0.175
678	0.175
678	0.175
679	0.174
679	0.174
680	0.174
680	0.174
680	0.174
681	0.174
681	0.174
682	0.174
682	0.174
683	0.174
683	0.174
684	0.174
684	0.174
684	0.174
685	0.174
685	0.174
686	0.174
686	0.174
687	0.174
687	0.175
687	0.175
688	0.175
688	0.176
689	0.176
689	0.177
690	0.177
690	0.176
691	0.176
691	0.176
691	0.177
692	0.177
692	0.177
693	0.177
693	0.178
694	0.178
694	0.178
695	0.179
695	0.18
695	0.181
696	0.181
696	0.181
697	0.181
697	0.181
698	0.18
698	0.18
698	0.18
699	0.18
699	0.179
700	0.178
700	0.178
701	0.178
701	0.177
702	0.177
702	0.176
702	0.176
703	0.176
703	0.175
704	0.175
704	0.174
705	0.174
705	0.174
705	0.174
706	0.174
706	0.174
707	0.174
707	0.174
708	0.175
708	0.175
709	0.175
709	0.175
709	0.175
710	0.176
710	0.176
711	0.177
711	0.177
712	0.178
712	0.178
713	0.178
713	0.179
713	0.179
714	0.179
714	0.179
715	0.179
715	0.178
716	0.178
716	0.177
716	0.176
717	0.175
717	0.175
718	0.174
718	0.174
719	0.174
719	0.175
720	0.175
720	0.176
720	0.177
721	0.177
721	0.179
722	0.18
722	0.18
723	0.181
723	0.181
723	0.181
724	0.18
724	0.18
725	0.179
725	0.178
726	0.177
726	0.177
727	0.176
727	0.175
727	0.175
728	0.175
728	0.175
729	0.175
729	0.175
730	0.176
730	0.176
730	0.177
731	0.177
731	0.178
732	0.178
732	0.179
733	0.179
733	0.18
734	0.18
734	0.18
734	0.181
735	0.181
735	0.181
736	0.181
736	0.181
737	0.181
737	0.181
737	0.181
738	0.181
738	0.18
739	0.18
739	0.18
740	0.18
740	0.18
741	0.18
741	0.18
741	0.181
742	0.181
742	0.182
743	0.183
743	0.183
744	0.184
744	0.185
744	0.185
745	0.185
745	0.185
746	0.185
746	0.185
747	0.185
747	0.184
748	0.184
748	0.183
748	0.183
749	0.183
749	0.183
750	0.183
750	0.183
751	0.183
751	0.184
751	0.184
752	0.184
752	0.184
753	0.184
753	0.184
754	0.184
754	0.183
754	0.183
755	0.183
755	0.183
756	0.182
756	0.181
757	0.181
757	0.181
758	0.181
758	0.181
758	0.181
759	0.182
759	0.181
760	0.181
760	0.181
761	0.182
761	0.182
761	0.183
762	0.183
762	0.183
763	0.183
763	0.183
764	0.183
764	0.183
764	0.183
765	0.183
765	0.183
766	0.183
766	0.183
767	0.182
767	0.182
768	0.181
768	0.181
768	0.181
769	0.182
769	0.182
770	0.182
770	0.183
771	0.183
771	0.183
771	0.184
772	0.184
772	0.185
773	0.185
773	0.185
774	0.185
774	0.185
775	0.186
775	0.186
775	0.186
776	0.186
776	0.187
777	0.188
777	0.188
778	0.189
778	0.189
778	0.189
779	0.189
779	0.189
780	0.189
780	0.188
781	0.188
781	0.187
781	0.187
782	0.186
782	0.186
783	0.186
783	0.187
784	0.187
784	0.187
784	0.187
785	0.188
785	0.188
786	0.188
786	0.188
787	0.189
787	0.189
788	0.188
788	0.188
788	0.187
789	0.187
789	0.187
790	0.187
790	0.187
791	0.187
791	0.187
791	0.187
792	0.188
792	0.188
793	0.188
793	0.188
794	0.188
794	0.188
794	0.188
795	0.189
795	0.189
796	0.189
796	0.189
797	0.189
797	0.189
797	0.189
798	0.189
798	0.19
799	0.19
799	0.189
800	0.189
800	0.189
801	0.189
801	0.189
801	0.189
802	0.19
802	0.19
803	0.191
803	0.191
804	0.192
804	0.192
804	0.193
805	0.193
805	0.193
806	0.193
806	0.192
807	0.192
807	0.192
807	0.192
808	0.192
808	0.192
809	0.191
809	0.191
810	0.191
810	0.191
810	0.191
811	0.191
811	0.192
812	0.192
812	0.193
813	0.193
813	0.194
813	0.194
814	0.195
814	0.196
815	0.196
815	0.197
816	0.197
816	0.196
817	0.196
817	0.195
817	0.195
818	0.195
818	0.194
819	0.194
819	0.193
820	0.192
820	0.192
820	0.192
821	0.192
821	0.192
822	0.193
822	0.193
823	0.193
823	0.194
823	0.194
824	0.195
824	0.197
825	0.198
825	0.199
826	0.2
826	0.2
826	0.201
827	0.202
827	0.202
828	0.202
828	0.203
829	0.203
829	0.203
829	0.203
830	0.203
830	0.204
831	0.204
831	0.204
832	0.204
832	0.204
832	0.203
833	0.203
833	0.203
834	0.203
834	0.202
835	0.202
835	0.201
835	0.201
836	0.2
836	0.2
837	0.199
837	0.198
838	0.198
838	0.197
839	0.196
839	0.196
839	0.195
840	0.194
840	0.193
841	0.192
841	0.192
842	0.191
842	0.191
842	0.19
843	0.19
843	0.19
844	0.19
844	0.189
845	0.189
845	0.189
845	0.19
846	0.19
846	0.19
847	0.191
847	0.191
848	0.192
848	0.192
848	0.192
849	0.192
849	0.192
850	0.191
850	0.191
851	0.191
851	0.19
851	0.19
852	0.189
852	0.189
853	0.189
853	0.189
854	0.19
854	0.19
854	0.191
855	0.192
855	0.193
856	0.194
856	0.195
857	0.196
857	0.197
857	0.197
858	0.198
858	0.198
859	0.198
859	0.198
860	0.198
860	0.198
860	0.198
861	0.198
861	0.197
862	0.197
862	0.196
863	0.195
863	0.195
863	0.194
864	0.194
864	0.194
865	0.194
865	0.194
866	0.194
866	0.194
866	0.194
867	0.194
867	0.195
868	0.195
868	0.195
869	0.195
869	0.194
869	0.194
870	0.193
870	0.193
871	0.193
871	0.193
872	0.193
872	0.192
872	0.192
873	0.192
873	0.192
874	0.191
874	0.191
875	0.191
875	0.191
875	0.19
876	0.19
876	0.19
877	0.189
877	0.189
878	0.189
878	0.189
878	0.189
879	0.189
879	0.189
880	0.189
880	0.19
881	0.19
881	0.19
881	0.19
882	0.191
882	0.191
883	0.191
883	0.191
884	0.192
884	0.192
884	0.192
885	0.192
885	0.192
886	0.192
886	0.191
887	0.191
887	0.19
887	0.19
888	0.189
888	0.189
889	0.188
889	0.188
890	0.188
890	0.188
890	0.188
891	0.188
891	0.188
892	0.188
892	0.188
893	0.188
893	0.188
893	0.188
894	0.188
894	0.187
895	0.187
895	0.186
895	0.186
896	0.186
896	0.186
897	0.185
897	0.185
898	0.184
898	0.184
898	0.183
899	0.183
899	0.183
900	0.182
900	0.182
901	0.182
901	0.182
901	0.182
902	0.181
902	0.181
903	0.181
903	0.181
904	0.182
904	0.182
904	0.182
905	0.181
905	0.181
906	0.181
906	0.181
907	0.181
907	0.181
907	0.181
908	0.181
908	0.181
909	0.18
909	0.18
910	0.18
910	0.179
910	0.179
911	0.179
911	0.178
912	0.177
912	0.177
913	0.176
913	0.176
913	0.176
914	0.175
914	0.175
915	0.175
915	0.174
916	0.174
916	0.174
916	0.174
917	0.174
917	0.173
918	0.173
918	0.173
918	0.172
919	0.172
919	0.172
920	0.172
920	0.172
921	0.172
921	0.172
921	0.171
922	0.171
922	0.172
923	0.172
923	0.172
924	0.172
924	0.172
924	0.172
925	0.172
925	0.172
926	0.172
926	0.172
927	0.173
927	0.173
927	0.173
928	0.173
928	0.173
929	0.173
929	0.174
930	0.174
930	0.174
930	0.173
931	0.173
931	0.173
932	0.172
932	0.172
933	0.171
933	0.171
933	0.171
934	0.17
934	0.17
935	0.169
935	0.169
935	0.169
936	0.168
936	0.168
937	0.167
937	0.167
938	0.166
938	0.166
938	0.165
939	0.164
939	0.163
940	0.163
940	0.163
941	0.163
941	0.163
941	0.163
942	0.164
942	0.164
943	0.164
943	0.164
944	0.164
944	0.164
944	0.164
945	0.164
945	0.164
946	0.164
946	0.163
946	0.163
947	0.163
947	0.162
948	0.162
948	0.162
949	0.161
949	0.161
949	0.16
950	0.16
950	0.159
951	0.159
951	0.158
952	0.157
952	0.157
952	0.156
953	0.155
953	0.155
954	0.155
954	0.154
955	0.154
955	0.154
955	0.155
956	0.156
956	0.156
957	0.157
957	0.158
957	0.159
958	0.159
958	0.16
959	0.16
959	0.161
960	0.161
960	0.161
960	0.161
961	0.161
961	0.16
962	0.16
962	0.16
963	0.159
963	0.159
963	0.158
964	0.158
964	0.158
965	0.158
965	0.157
966	0.157
966	0.157
966	0.156
967	0.156
967	0.156
968	0.156
968	0.156
968	0.156
969	0.155
969	0.154
970	0.154
970	0.153
971	0.152
971	0.151
971	0.15
972	0.149
972	0.148
973	0.148
973	0.147
974	0.147
974	0.147
974	0.147
975	0.147
975	0.147
976	0.148
976	0.148
976	0.148
977	0.148
977	0.149
978	0.149
978	0.149
979	0.148
979	0.148
979	0.149
980	0.149
980	0.149
981	0.148
981	0.149
982	0.149
982	0.149
982	0.149
983	0.149
983	0.149
984	0.149
984	0.148
984	0.148
985	0.148
985	0.148
986	0.147
986	0.147
987	0.147
987	0.146
987	0.146
988	0.146
988	0.146
989	0.145
989	0.145
990	0.145
990	0.144
990	0.144
991	0.144
991	0.143
992	0.143
992	0.142
992	0.141
993	0.141
993	0.14
994	0.139
994	0.138
995	0.137
995	0.137
995	0.137
996	0.137
996	0.136
997	0.136
997	0.137
997	0.137
998	0.137
998	0.138
999	0.139
999	0.139
1000	0.14
1000	0.141
1000	0.141
1001	0.142
1001	0.142
1002	0.142
1002	0.142
1003	0.142
1003	0.142
1003	0.141
1004	0.141
1004	0.14
1005	0.14
1005	0.14
1005	0.139
1006	0.138
1006	0.138
1007	0.138
1007	0.137
1008	0.137
1008	0.137
1008	0.137
1009	0.137
1009	0.136
1010	0.136
1010	0.136
1010	0.135
1011	0.135
1011	0.134
1012	0.134
1012	0.133
1013	0.133
1013	0.132
1013	0.131
1014	0.131
1014	0.13
1015	0.13
1015	0.13
1016	0.129
1016	0.129
1016	0.129
1017	0.128
1017	0.128
1018	0.128
1018	0.128
1018	0.128
1019	0.128
1019	0.128
1020	0.128
1020	0.128
1021	0.129
1021	0.129
1021	0.129
1022	0.129
1022	0.13
1023	0.13
1023	0.13
1023	0.13
1024	0.13
1024	0.13
1025	0.13
1025	0.13
1026	0.13
1026	0.13
1026	0.13
1027	0.13
1027	0.13
1028	0.13
1028	0.13
1028	0.13
1029	0.13
1029	0.13
1030	0.13
1030	0.13
1031	0.13
1031	0.13
1031	0.13
1032	0.13
1032	0.13
1033	0.13
1033	0.129
1033	0.129
1034	0.129
1034	0.129
1035	0.129
1035	0.128
1036	0.128
1036	0.128
1036	0.128
1037	0.128
1037	0.127
1038	0.127
1038	0.127
1039	0.127
1039	0.126
1039	0.126
1040	0.126
1040	0.126
1041	0.125
1041	0.125
1041	0.125
1042	0.125
1042	0.124
1043	0.124
1043	0.124
1044	0.124
1044	0.123
1044	0.123
1045	0.122
1045	0.122
1046	0.121
1046	0.121
1046	0.121
1047	0.121
1047	0.12
1048	0.12
1048	0.12
1049	0.12
1049	0.119
1049	0.119
1050	0.119
1050	0.119
1051	0.119
1051	0.118
1051	0.118
1052	0.118
1052	0.117
1053	0.117
1053	0.116
1053	0.116
1054	0.115
1054	0.115
1055	0.114
1055	0.114
1056	0.113
1056	0.112
1056	0.112
1057	0.111
1057	0.11
1058	0.11
1058	0.109
1058	0.108
1059	0.108
1059	0.107
1060	0.107
1060	0.106
1061	0.106
1061	0.106
1061	0.105
1062	0.105
1062	0.105
1063	0.105
1063	0.105
1063	0.105
1064	0.104
1064	0.104
1065	0.104
1065	0.104
1066	0.104
1066	0.104
1066	0.103
1067	0.103
1067	0.103
1068	0.103
1068	0.103
1068	0.103
1069	0.103
1069	0.103
1070	0.102
1070	0.102
1071	0.102
1071	0.102
1071	0.101
1072	0.101
1072	0.1
1073	0.1
1073	0.1
1073	0.1
1074	0.1
1074	0.101
1075	0.101
1075	0.101
1076	0.102
1076	0.103
1076	0.103
1077	0.103
1077	0.103
1078	0.103
1078	0.103
1078	0.103
1079	0.102
1079	0.102
1080	0.101
1080	0.101
1080	0.101
1081	0.101
1081	0.101
1082	0.101
1082	0.101
1083	0.1
1083	0.1
1083	0.1
1084	0.1
1084	0.101
1085	0.1
1085	0.101
1085	0.101
1086	0.101
1086	0.101
1087	0.101
1087	0.101
1088	0.101
1088	0.101
1088	0.101
1089	0.1
1089	0.1
1090	0.099
1090	0.099
1090	0.098
1091	0.097
1091	0.097
1092	0.097
1092	0.097
1092	0.097
1093	0.097
1093	0.097
1094	0.097
1094	0.097
1095	0.097
1095	0.096
1095	0.096
1096	0.095
1096	0.094
1097	0.093
1097	0.093
1097	0.092
1098	0.091
1098	0.09
1099	0.089
1099	0.089
1100	0.088
1100	0.087
1100	0.086
1101	0.085
1101	0.084
1102	0.083
1102	0.082
1102	0.081
1103	0.08
1103	0.08
1104	0.079
1104	0.079
1104	0.077
1105	0.078
1105	0.077
1106	0.075
1106	0.074
1107	0.073
1107	0.073
1107	0.073
1108	0.072
1108	0.072
1109	0.07
1109	0.071
1109	0.07
1110	0.07
1110	0.071
1111	0.071
1111	0.067
