Data from reversibility-20sec_Absorbance__160__000000000000160.txt Node

Date: Tue Dec 05 13:06:25 CET 2023
User: Marek
Spectrometer: MAYP115816
Trigger mode: 0
Integration Time (sec): 2.000000E-1
Scans to average: 10
Electric dark correction enabled: true
Nonlinearity correction enabled: true
Boxcar width: 5
XAxis mode: Wavelengths
Number of Pixels in Spectrum: 2068
>>>>>Begin Spectral Data<<<<<
199	-0.225
199	-0.2
200	-0.12
200	-0.069
201	-0.046
201	-0.031
202	-0.016
202	-0.009
203	-0.001
203	0.002
204	0.013
204	0.026
205	0.039
205	0.04
205	0.038
206	0.039
206	0.039
207	0.041
207	0.04
208	0.038
208	0.037
209	0.04
209	0.036
210	0.035
210	0.034
211	0.034
211	0.035
212	0.034
212	0.033
213	0.037
213	0.038
213	0.04
214	0.042
214	0.045
215	0.047
215	0.049
216	0.052
216	0.052
217	0.056
217	0.059
218	0.059
218	0.063
219	0.069
219	0.068
220	0.071
220	0.074
221	0.075
221	0.077
221	0.082
222	0.087
222	0.088
223	0.093
223	0.093
224	0.095
224	0.106
225	0.115
225	0.124
226	0.134
226	0.145
227	0.157
227	0.17
228	0.186
228	0.199
229	0.219
229	0.245
229	0.266
230	0.289
230	0.319
231	0.352
231	0.39
232	0.426
232	0.468
233	0.513
233	0.566
234	0.615
234	0.666
235	0.718
235	0.772
236	0.823
236	0.872
236	0.922
237	0.975
237	1.022
238	1.071
238	1.114
239	1.162
239	1.203
240	1.241
240	1.276
241	1.308
241	1.343
242	1.373
242	1.404
243	1.432
243	1.454
243	1.479
244	1.501
244	1.523
245	1.542
245	1.564
246	1.583
246	1.598
247	1.614
247	1.628
248	1.644
248	1.657
249	1.667
249	1.673
250	1.682
250	1.69
250	1.696
251	1.701
251	1.704
252	1.708
252	1.708
253	1.71
253	1.709
254	1.709
254	1.712
255	1.71
255	1.709
256	1.707
256	1.706
257	1.705
257	1.704
258	1.704
258	1.703
258	1.703
259	1.702
259	1.701
260	1.701
260	1.701
261	1.7
261	1.703
262	1.706
262	1.706
263	1.708
263	1.707
264	1.707
264	1.708
265	1.709
265	1.708
265	1.708
266	1.708
266	1.707
267	1.704
267	1.704
268	1.703
268	1.704
269	1.705
269	1.704
270	1.702
270	1.701
271	1.7
271	1.698
272	1.695
272	1.694
272	1.692
273	1.687
273	1.683
274	1.679
274	1.675
275	1.669
275	1.664
276	1.657
276	1.652
277	1.645
277	1.635
278	1.625
278	1.613
278	1.601
279	1.587
279	1.57
280	1.55
280	1.527
281	1.499
281	1.466
282	1.433
282	1.399
283	1.364
283	1.329
284	1.295
284	1.262
285	1.229
285	1.199
285	1.172
286	1.149
286	1.128
287	1.109
287	1.093
288	1.079
288	1.067
289	1.057
289	1.048
290	1.04
290	1.033
291	1.027
291	1.022
292	1.017
292	1.013
292	1.009
293	1.006
293	1.002
294	0.999
294	0.996
295	0.994
295	0.991
296	0.988
296	0.985
297	0.983
297	0.981
298	0.978
298	0.976
298	0.973
299	0.971
299	0.968
300	0.966
300	0.963
301	0.961
301	0.959
302	0.956
302	0.953
303	0.951
303	0.949
304	0.947
304	0.944
305	0.942
305	0.94
305	0.937
306	0.935
306	0.933
307	0.93
307	0.928
308	0.925
308	0.923
309	0.92
309	0.917
310	0.914
310	0.911
311	0.908
311	0.905
311	0.902
312	0.898
312	0.895
313	0.891
313	0.887
314	0.884
314	0.88
315	0.876
315	0.872
316	0.868
316	0.864
317	0.859
317	0.854
318	0.85
318	0.845
318	0.84
319	0.835
319	0.829
320	0.824
320	0.818
321	0.813
321	0.807
322	0.801
322	0.795
323	0.789
323	0.782
324	0.777
324	0.77
324	0.764
325	0.757
325	0.751
326	0.744
326	0.738
327	0.731
327	0.724
328	0.718
328	0.711
329	0.704
329	0.697
330	0.691
330	0.684
330	0.677
331	0.671
331	0.664
332	0.657
332	0.65
333	0.644
333	0.637
334	0.63
334	0.624
335	0.617
335	0.611
336	0.604
336	0.598
336	0.591
337	0.585
337	0.579
338	0.573
338	0.568
339	0.562
339	0.556
340	0.551
340	0.545
341	0.54
341	0.534
342	0.529
342	0.524
342	0.519
343	0.514
343	0.508
344	0.504
344	0.499
345	0.494
345	0.49
346	0.486
346	0.481
347	0.477
347	0.473
348	0.469
348	0.465
348	0.462
349	0.458
349	0.454
350	0.451
350	0.448
351	0.444
351	0.441
352	0.438
352	0.435
353	0.432
353	0.429
354	0.426
354	0.423
354	0.42
355	0.417
355	0.414
356	0.411
356	0.408
357	0.405
357	0.402
358	0.399
358	0.397
359	0.395
359	0.392
360	0.39
360	0.388
360	0.386
361	0.384
361	0.383
362	0.381
362	0.38
363	0.378
363	0.376
364	0.374
364	0.372
365	0.37
365	0.368
366	0.366
366	0.364
366	0.362
367	0.361
367	0.359
368	0.357
368	0.355
369	0.354
369	0.352
370	0.35
370	0.349
371	0.347
371	0.346
372	0.344
372	0.343
372	0.342
373	0.341
373	0.339
374	0.338
374	0.337
375	0.336
375	0.335
376	0.334
376	0.333
377	0.332
377	0.331
378	0.33
378	0.329
378	0.328
379	0.327
379	0.326
380	0.325
380	0.324
381	0.323
381	0.322
382	0.321
382	0.32
383	0.319
383	0.318
383	0.317
384	0.316
384	0.316
385	0.315
385	0.314
386	0.313
386	0.313
387	0.312
387	0.311
388	0.311
388	0.31
389	0.309
389	0.309
389	0.308
390	0.308
390	0.307
391	0.306
391	0.306
392	0.305
392	0.305
393	0.304
393	0.303
394	0.302
394	0.302
394	0.301
395	0.301
395	0.3
396	0.299
396	0.299
397	0.298
397	0.298
398	0.297
398	0.297
399	0.296
399	0.296
400	0.296
400	0.295
400	0.295
401	0.294
401	0.294
402	0.293
402	0.293
403	0.292
403	0.292
404	0.292
404	0.291
405	0.291
405	0.291
405	0.29
406	0.29
406	0.289
407	0.289
407	0.288
408	0.287
408	0.287
409	0.286
409	0.286
410	0.286
410	0.285
411	0.285
411	0.284
411	0.284
412	0.284
412	0.283
413	0.283
413	0.283
414	0.283
414	0.283
415	0.282
415	0.282
416	0.281
416	0.281
416	0.281
417	0.28
417	0.28
418	0.28
418	0.279
419	0.279
419	0.279
420	0.278
420	0.278
421	0.278
421	0.278
421	0.277
422	0.277
422	0.277
423	0.277
423	0.276
424	0.276
424	0.276
425	0.275
425	0.275
426	0.275
426	0.274
427	0.274
427	0.274
427	0.274
428	0.273
428	0.273
429	0.273
429	0.273
430	0.273
430	0.273
431	0.273
431	0.273
432	0.273
432	0.273
432	0.273
433	0.272
433	0.272
434	0.272
434	0.272
435	0.272
435	0.271
436	0.271
436	0.271
437	0.271
437	0.271
437	0.271
438	0.271
438	0.271
439	0.27
439	0.271
440	0.27
440	0.27
441	0.27
441	0.27
442	0.27
442	0.27
442	0.27
443	0.27
443	0.27
444	0.27
444	0.27
445	0.27
445	0.27
446	0.27
446	0.269
447	0.269
447	0.269
447	0.269
448	0.269
448	0.269
449	0.27
449	0.27
450	0.27
450	0.27
451	0.27
451	0.27
452	0.27
452	0.27
452	0.27
453	0.27
453	0.27
454	0.27
454	0.27
455	0.27
455	0.27
456	0.27
456	0.27
457	0.27
457	0.271
458	0.271
458	0.271
458	0.271
459	0.271
459	0.271
460	0.272
460	0.272
461	0.272
461	0.272
462	0.272
462	0.272
463	0.272
463	0.272
463	0.273
464	0.273
464	0.273
465	0.273
465	0.273
466	0.273
466	0.274
467	0.274
467	0.275
467	0.275
468	0.275
468	0.275
469	0.276
469	0.276
470	0.277
470	0.277
471	0.277
471	0.278
472	0.278
472	0.279
472	0.279
473	0.28
473	0.281
474	0.281
474	0.282
475	0.283
475	0.283
476	0.284
476	0.285
477	0.285
477	0.286
477	0.287
478	0.288
478	0.289
479	0.29
479	0.29
480	0.291
480	0.292
481	0.293
481	0.294
482	0.295
482	0.296
482	0.296
483	0.297
483	0.298
484	0.3
484	0.301
485	0.302
485	0.303
486	0.304
486	0.304
487	0.305
487	0.307
487	0.308
488	0.309
488	0.31
489	0.312
489	0.314
490	0.315
490	0.317
491	0.318
491	0.32
492	0.321
492	0.323
492	0.324
493	0.325
493	0.327
494	0.329
494	0.33
495	0.332
495	0.334
496	0.335
496	0.337
496	0.338
497	0.34
497	0.341
498	0.343
498	0.345
499	0.347
499	0.348
500	0.35
500	0.352
501	0.354
501	0.355
501	0.357
502	0.359
502	0.36
503	0.362
503	0.363
504	0.365
504	0.366
505	0.368
505	0.369
506	0.371
506	0.372
506	0.373
507	0.375
507	0.376
508	0.378
508	0.379
509	0.381
509	0.382
510	0.384
510	0.385
511	0.386
511	0.388
511	0.389
512	0.391
512	0.392
513	0.393
513	0.395
514	0.395
514	0.397
515	0.397
515	0.398
515	0.399
516	0.4
516	0.401
517	0.401
517	0.402
518	0.402
518	0.403
519	0.404
519	0.404
520	0.404
520	0.405
520	0.405
521	0.405
521	0.405
522	0.405
522	0.405
523	0.404
523	0.404
524	0.404
524	0.403
524	0.403
525	0.403
525	0.402
526	0.401
526	0.4
527	0.399
527	0.399
528	0.398
528	0.397
529	0.395
529	0.394
529	0.393
530	0.392
530	0.39
531	0.389
531	0.388
532	0.386
532	0.385
533	0.383
533	0.382
533	0.38
534	0.378
534	0.377
535	0.375
535	0.373
536	0.371
536	0.369
537	0.367
537	0.365
538	0.363
538	0.36
538	0.358
539	0.356
539	0.353
540	0.351
540	0.349
541	0.346
541	0.344
542	0.342
542	0.339
542	0.337
543	0.334
543	0.332
544	0.329
544	0.327
545	0.324
545	0.322
546	0.319
546	0.316
547	0.313
547	0.311
547	0.308
548	0.306
548	0.303
549	0.3
549	0.298
550	0.295
550	0.292
551	0.289
551	0.286
551	0.283
552	0.28
552	0.278
553	0.275
553	0.272
554	0.27
554	0.267
555	0.264
555	0.262
556	0.259
556	0.257
556	0.255
557	0.253
557	0.251
558	0.249
558	0.247
559	0.244
559	0.242
560	0.24
560	0.237
560	0.235
561	0.233
561	0.23
562	0.228
562	0.225
563	0.222
563	0.22
564	0.217
564	0.215
564	0.213
565	0.211
565	0.209
566	0.206
566	0.204
567	0.202
567	0.2
568	0.199
568	0.197
568	0.195
569	0.193
569	0.191
570	0.189
570	0.187
571	0.185
571	0.184
572	0.182
572	0.18
573	0.178
573	0.177
573	0.175
574	0.173
574	0.172
575	0.17
575	0.169
576	0.167
576	0.166
577	0.164
577	0.162
577	0.161
578	0.159
578	0.158
579	0.157
579	0.156
580	0.154
580	0.152
581	0.15
581	0.149
581	0.148
582	0.147
582	0.146
583	0.145
583	0.144
584	0.142
584	0.14
585	0.138
585	0.137
585	0.135
586	0.134
586	0.133
587	0.131
587	0.13
588	0.128
588	0.127
589	0.126
589	0.125
590	0.124
590	0.123
590	0.123
591	0.122
591	0.121
592	0.12
592	0.119
593	0.118
593	0.117
594	0.116
594	0.115
594	0.114
595	0.113
595	0.112
596	0.111
596	0.11
597	0.11
597	0.109
598	0.108
598	0.108
598	0.107
599	0.106
599	0.105
600	0.104
600	0.103
601	0.103
601	0.102
602	0.101
602	0.1
602	0.099
603	0.098
603	0.098
604	0.098
604	0.097
605	0.097
605	0.096
606	0.095
606	0.094
606	0.094
607	0.093
607	0.092
608	0.091
608	0.09
609	0.089
609	0.088
610	0.087
610	0.086
610	0.086
611	0.085
611	0.085
612	0.084
612	0.084
613	0.083
613	0.083
614	0.082
614	0.081
614	0.081
615	0.08
615	0.08
616	0.079
616	0.079
617	0.078
617	0.078
618	0.077
618	0.077
618	0.076
619	0.076
619	0.076
620	0.076
620	0.075
621	0.074
621	0.074
622	0.073
622	0.072
622	0.071
623	0.071
623	0.071
624	0.07
624	0.069
625	0.069
625	0.068
626	0.068
626	0.067
626	0.067
627	0.066
627	0.066
628	0.065
628	0.064
629	0.064
629	0.063
630	0.062
630	0.061
630	0.061
631	0.061
631	0.061
632	0.06
632	0.06
633	0.06
633	0.06
634	0.061
634	0.061
634	0.061
635	0.061
635	0.06
636	0.06
636	0.06
637	0.06
637	0.059
638	0.059
638	0.058
638	0.058
639	0.057
639	0.056
640	0.056
640	0.056
641	0.056
641	0.055
642	0.055
642	0.054
642	0.054
643	0.054
643	0.053
644	0.053
644	0.053
645	0.053
645	0.052
646	0.052
646	0.052
646	0.052
647	0.052
647	0.051
648	0.051
648	0.05
649	0.05
649	0.049
650	0.049
650	0.049
650	0.049
651	0.048
651	0.048
652	0.048
652	0.047
653	0.048
653	0.049
653	0.054
654	0.044
654	0.036
655	0.035
655	0.035
656	0.035
656	0.035
657	0.035
657	0.035
657	0.035
658	0.035
658	0.029
659	0.036
659	0.045
660	0.047
660	0.047
661	0.047
661	0.046
661	0.045
662	0.045
662	0.044
663	0.044
663	0.043
664	0.043
664	0.042
665	0.042
665	0.041
665	0.041
666	0.041
666	0.041
667	0.04
667	0.04
668	0.04
668	0.04
669	0.04
669	0.04
669	0.04
670	0.04
670	0.04
671	0.039
671	0.039
672	0.039
672	0.038
672	0.038
673	0.037
673	0.037
674	0.037
674	0.037
675	0.036
675	0.036
676	0.037
676	0.037
676	0.037
677	0.036
677	0.036
678	0.036
678	0.036
679	0.035
679	0.035
680	0.035
680	0.035
680	0.035
681	0.035
681	0.036
682	0.036
682	0.036
683	0.036
683	0.037
684	0.037
684	0.037
684	0.037
685	0.037
685	0.037
686	0.037
686	0.036
687	0.036
687	0.036
687	0.035
688	0.035
688	0.034
689	0.034
689	0.034
690	0.034
690	0.034
691	0.034
691	0.034
691	0.034
692	0.034
692	0.034
693	0.034
693	0.034
694	0.034
694	0.034
695	0.034
695	0.035
695	0.035
696	0.035
696	0.034
697	0.034
697	0.034
698	0.034
698	0.033
698	0.033
699	0.033
699	0.033
700	0.033
700	0.033
701	0.033
701	0.033
702	0.032
702	0.032
702	0.032
703	0.031
703	0.03
704	0.03
704	0.029
705	0.029
705	0.028
705	0.028
706	0.028
706	0.028
707	0.028
707	0.028
708	0.029
708	0.029
709	0.029
709	0.029
709	0.029
710	0.028
710	0.028
711	0.028
711	0.028
712	0.028
712	0.028
713	0.028
713	0.028
713	0.028
714	0.028
714	0.027
715	0.027
715	0.027
716	0.027
716	0.027
716	0.027
717	0.026
717	0.026
718	0.025
718	0.025
719	0.025
719	0.025
720	0.025
720	0.025
720	0.025
721	0.025
721	0.026
722	0.026
722	0.026
723	0.026
723	0.026
723	0.026
724	0.025
724	0.025
725	0.024
725	0.023
726	0.023
726	0.022
727	0.022
727	0.021
727	0.021
728	0.021
728	0.02
729	0.021
729	0.021
730	0.021
730	0.021
730	0.021
731	0.021
731	0.022
732	0.022
732	0.022
733	0.021
733	0.021
734	0.021
734	0.021
734	0.022
735	0.022
735	0.022
736	0.021
736	0.021
737	0.021
737	0.021
737	0.021
738	0.021
738	0.02
739	0.02
739	0.019
740	0.018
740	0.018
741	0.018
741	0.018
741	0.018
742	0.018
742	0.018
743	0.019
743	0.02
744	0.02
744	0.021
744	0.021
745	0.022
745	0.022
746	0.022
746	0.022
747	0.022
747	0.022
748	0.021
748	0.021
748	0.02
749	0.02
749	0.019
750	0.018
750	0.018
751	0.017
751	0.017
751	0.017
752	0.016
752	0.016
753	0.016
753	0.016
754	0.016
754	0.017
754	0.017
755	0.017
755	0.017
756	0.017
756	0.016
757	0.015
757	0.015
758	0.015
758	0.014
758	0.014
759	0.014
759	0.014
760	0.013
760	0.014
761	0.014
761	0.015
761	0.015
762	0.015
762	0.016
763	0.016
763	0.016
764	0.016
764	0.016
764	0.016
765	0.015
765	0.015
766	0.014
766	0.014
767	0.013
767	0.013
768	0.012
768	0.012
768	0.012
769	0.012
769	0.012
770	0.012
770	0.012
771	0.012
771	0.012
771	0.012
772	0.012
772	0.012
773	0.012
773	0.011
774	0.011
774	0.011
775	0.012
775	0.012
775	0.012
776	0.012
776	0.012
777	0.012
777	0.012
778	0.012
778	0.012
778	0.012
779	0.012
779	0.011
780	0.011
780	0.011
781	0.011
781	0.011
781	0.011
782	0.011
782	0.012
783	0.012
783	0.012
784	0.012
784	0.012
784	0.013
785	0.013
785	0.013
786	0.013
786	0.013
787	0.013
787	0.013
788	0.012
788	0.012
788	0.012
789	0.012
789	0.012
790	0.012
790	0.011
791	0.011
791	0.01
791	0.01
792	0.01
792	0.009
793	0.009
793	0.008
794	0.007
794	0.007
794	0.006
795	0.006
795	0.006
796	0.006
796	0.007
797	0.007
797	0.007
797	0.007
798	0.008
798	0.008
799	0.008
799	0.008
800	0.008
800	0.007
801	0.007
801	0.007
801	0.006
802	0.006
802	0.006
803	0.006
803	0.006
804	0.007
804	0.007
804	0.008
805	0.008
805	0.009
806	0.009
806	0.009
807	0.009
807	0.01
807	0.01
808	0.011
808	0.011
809	0.011
809	0.012
810	0.012
810	0.012
810	0.012
811	0.012
811	0.012
812	0.012
812	0.012
813	0.012
813	0.012
813	0.012
814	0.012
814	0.012
815	0.012
815	0.012
816	0.012
816	0.012
817	0.011
817	0.011
817	0.011
818	0.01
818	0.01
819	0.01
819	0.009
820	0.009
820	0.008
820	0.008
821	0.008
821	0.008
822	0.008
822	0.008
823	0.008
823	0.008
823	0.009
824	0.009
824	0.01
825	0.011
825	0.011
826	0.011
826	0.011
826	0.012
827	0.012
827	0.012
828	0.012
828	0.011
829	0.011
829	0.011
829	0.011
830	0.011
830	0.011
831	0.011
831	0.012
832	0.012
832	0.012
832	0.012
833	0.012
833	0.012
834	0.012
834	0.012
835	0.012
835	0.012
835	0.011
836	0.011
836	0.011
837	0.011
837	0.01
838	0.009
838	0.009
839	0.008
839	0.007
839	0.006
840	0.004
840	0.003
841	0.002
841	0.001
842	0
842	-0
842	-0.001
843	-0.001
843	-0.001
844	-0.001
844	-0.001
845	-0.001
845	-0.001
845	-0
846	-0
846	-0
847	0
847	0
848	0.001
848	0.002
848	0.002
849	0.003
849	0.004
850	0.004
850	0.005
851	0.005
851	0.006
851	0.006
852	0.005
852	0.005
853	0.005
853	0.004
854	0.004
854	0.005
854	0.005
855	0.005
855	0.006
856	0.006
856	0.006
857	0.007
857	0.007
857	0.007
858	0.007
858	0.006
859	0.005
859	0.004
860	0.003
860	0.002
860	0.002
861	0.001
861	0
862	-0.001
862	-0.001
863	-0.002
863	-0.002
863	-0.002
864	-0.002
864	-0.002
865	-0.002
865	-0.002
866	-0.002
866	-0.002
866	-0.002
867	-0.001
867	-0.001
868	-0.001
868	-0
869	-0
869	0
869	0
870	0
870	0.001
871	0.001
871	0.002
872	0.003
872	0.003
872	0.004
873	0.004
873	0.004
874	0.004
874	0.004
875	0.004
875	0.004
875	0.004
876	0.004
876	0.004
877	0.004
877	0.004
878	0.004
878	0.005
878	0.006
879	0.006
879	0.006
880	0.007
880	0.007
881	0.006
881	0.006
881	0.006
882	0.005
882	0.005
883	0.004
883	0.003
884	0.002
884	0.001
884	0.001
885	0
885	-0.001
886	-0.001
886	-0.002
887	-0.002
887	-0.003
887	-0.003
888	-0.004
888	-0.004
889	-0.005
889	-0.005
890	-0.005
890	-0.005
890	-0.004
891	-0.004
891	-0.003
892	-0.002
892	-0.001
893	-0
893	0.001
893	0.001
894	0.002
894	0.003
895	0.003
895	0.003
895	0.003
896	0.003
896	0.002
897	0.002
897	0.001
898	0
898	-0
898	-0.001
899	-0.002
899	-0.002
900	-0.002
900	-0.002
901	-0.003
901	-0.003
901	-0.003
902	-0.002
902	-0.002
903	-0.002
903	-0.002
904	-0.003
904	-0.003
904	-0.003
905	-0.004
905	-0.004
906	-0.004
906	-0.004
907	-0.004
907	-0.004
907	-0.004
908	-0.003
908	-0.003
909	-0.003
909	-0.002
910	-0.002
910	-0.002
910	-0.002
911	-0.002
911	-0.002
912	-0.002
912	-0.002
913	-0.002
913	-0.002
913	-0.002
914	-0.002
914	-0.002
915	-0.002
915	-0.003
916	-0.003
916	-0.003
916	-0.003
917	-0.004
917	-0.004
918	-0.005
918	-0.005
918	-0.005
919	-0.005
919	-0.005
920	-0.004
920	-0.003
921	-0.002
921	-0.002
921	-0.001
922	0
922	0.001
923	0.002
923	0.003
924	0.004
924	0.004
924	0.004
925	0.005
925	0.005
926	0.005
926	0.005
927	0.005
927	0.005
927	0.004
928	0.004
928	0.004
929	0.004
929	0.004
930	0.004
930	0.003
930	0.003
931	0.003
931	0.002
932	0.002
932	0.002
933	0.001
933	0.001
933	0
934	-0
934	-0
935	-0.001
935	-0.001
935	-0.001
936	-0.002
936	-0.002
937	-0.002
937	-0.002
938	-0.002
938	-0.002
938	-0.002
939	-0.001
939	-0.001
940	-0.001
940	-0
941	0
941	0.001
941	0.002
942	0.002
942	0.003
943	0.003
943	0.003
944	0.004
944	0.004
944	0.005
945	0.005
945	0.005
946	0.005
946	0.005
946	0.005
947	0.005
947	0.005
948	0.006
948	0.006
949	0.005
949	0.005
949	0.005
950	0.005
950	0.005
951	0.005
951	0.004
952	0.004
952	0.003
952	0.002
953	0.002
953	0.001
954	0
954	-0
955	-0.001
955	-0.002
955	-0.003
956	-0.003
956	-0.003
957	-0.003
957	-0.003
957	-0.002
958	-0.002
958	-0.002
959	-0.002
959	-0.001
960	-0.001
960	-0.001
960	-0.001
961	-0.001
961	-0
962	-0
962	-0
963	-0
963	0
963	0
964	0
964	0.001
965	0.001
965	0.001
966	0.001
966	0.002
966	0.002
967	0.003
967	0.003
968	0.004
968	0.005
968	0.005
969	0.005
969	0.005
970	0.005
970	0.005
971	0.004
971	0.004
971	0.004
972	0.003
972	0.003
973	0.002
973	0.002
974	0.002
974	0.002
974	0.003
975	0.003
975	0.003
976	0.003
976	0.004
976	0.003
977	0.003
977	0.003
978	0.003
978	0.002
979	0.001
979	0.001
979	0
980	-0.001
980	-0.001
981	-0.002
981	-0.003
982	-0.004
982	-0.004
982	-0.005
983	-0.005
983	-0.005
984	-0.006
984	-0.006
984	-0.006
985	-0.006
985	-0.006
986	-0.006
986	-0.007
987	-0.007
987	-0.007
987	-0.007
988	-0.007
988	-0.007
989	-0.007
989	-0.007
990	-0.007
990	-0.007
990	-0.007
991	-0.007
991	-0.007
992	-0.007
992	-0.007
992	-0.007
993	-0.007
993	-0.006
994	-0.007
994	-0.006
995	-0.006
995	-0.006
995	-0.006
996	-0.006
996	-0.005
997	-0.005
997	-0.004
997	-0.003
998	-0.003
998	-0.002
999	-0.001
999	-0
1000	0
1000	0.001
1000	0.001
1001	0.002
1001	0.002
1002	0.002
1002	0.002
1003	0.001
1003	0.001
1003	0.001
1004	0
1004	-0.001
1005	-0.001
1005	-0.001
1005	-0.002
1006	-0.002
1006	-0.002
1007	-0.002
1007	-0.003
1008	-0.003
1008	-0.002
1008	-0.002
1009	-0.002
1009	-0.002
1010	-0.002
1010	-0.001
1010	-0.001
1011	-0.001
1011	-0.001
1012	-0.001
1012	-0.001
1013	-0.001
1013	-0.001
1013	-0.001
1014	-0.001
1014	-0.001
1015	-0.001
1015	-0.001
1016	-0.001
1016	-0.002
1016	-0.002
1017	-0.002
1017	-0.002
1018	-0.002
1018	-0.002
1018	-0.002
1019	-0.002
1019	-0.002
1020	-0.003
1020	-0.003
1021	-0.002
1021	-0.003
1021	-0.003
1022	-0.003
1022	-0.003
1023	-0.003
1023	-0.003
1023	-0.003
1024	-0.004
1024	-0.004
1025	-0.005
1025	-0.005
1026	-0.006
1026	-0.006
1026	-0.007
1027	-0.007
1027	-0.008
1028	-0.008
1028	-0.009
1028	-0.009
1029	-0.009
1029	-0.009
1030	-0.009
1030	-0.009
1031	-0.009
1031	-0.009
1031	-0.009
1032	-0.009
1032	-0.009
1033	-0.009
1033	-0.009
1033	-0.009
1034	-0.01
1034	-0.01
1035	-0.011
1035	-0.011
1036	-0.011
1036	-0.012
1036	-0.012
1037	-0.012
1037	-0.012
1038	-0.013
1038	-0.013
1039	-0.013
1039	-0.013
1039	-0.012
1040	-0.012
1040	-0.012
1041	-0.011
1041	-0.011
1041	-0.011
1042	-0.01
1042	-0.01
1043	-0.009
1043	-0.009
1044	-0.009
1044	-0.008
1044	-0.008
1045	-0.007
1045	-0.007
1046	-0.006
1046	-0.006
1046	-0.005
1047	-0.005
1047	-0.004
1048	-0.004
1048	-0.004
1049	-0.003
1049	-0.003
1049	-0.003
1050	-0.003
1050	-0.004
1051	-0.004
1051	-0.004
1051	-0.005
1052	-0.005
1052	-0.006
1053	-0.006
1053	-0.007
1053	-0.007
1054	-0.008
1054	-0.008
1055	-0.008
1055	-0.008
1056	-0.009
1056	-0.009
1056	-0.009
1057	-0.009
1057	-0.01
1058	-0.01
1058	-0.011
1058	-0.011
1059	-0.011
1059	-0.011
1060	-0.012
1060	-0.012
1061	-0.012
1061	-0.012
1061	-0.013
1062	-0.013
1062	-0.013
1063	-0.013
1063	-0.013
1063	-0.014
1064	-0.014
1064	-0.014
1065	-0.015
1065	-0.015
1066	-0.015
1066	-0.016
1066	-0.016
1067	-0.016
1067	-0.017
1068	-0.017
1068	-0.017
1068	-0.017
1069	-0.017
1069	-0.017
1070	-0.018
1070	-0.018
1071	-0.018
1071	-0.019
1071	-0.019
1072	-0.019
1072	-0.019
1073	-0.02
1073	-0.02
1073	-0.021
1074	-0.021
1074	-0.02
1075	-0.02
1075	-0.02
1076	-0.02
1076	-0.019
1076	-0.019
1077	-0.018
1077	-0.018
1078	-0.018
1078	-0.017
1078	-0.017
1079	-0.017
1079	-0.016
1080	-0.017
1080	-0.016
1080	-0.016
1081	-0.016
1081	-0.015
1082	-0.015
1082	-0.015
1083	-0.015
1083	-0.015
1083	-0.015
1084	-0.015
1084	-0.015
1085	-0.016
1085	-0.016
1085	-0.016
1086	-0.016
1086	-0.017
1087	-0.018
1087	-0.019
1088	-0.019
1088	-0.019
1088	-0.019
1089	-0.02
1089	-0.02
1090	-0.021
1090	-0.021
1090	-0.022
1091	-0.022
1091	-0.022
1092	-0.021
1092	-0.021
1092	-0.021
1093	-0.021
1093	-0.02
1094	-0.02
1094	-0.02
1095	-0.02
1095	-0.019
1095	-0.019
1096	-0.02
1096	-0.02
1097	-0.02
1097	-0.021
1097	-0.021
1098	-0.021
1098	-0.022
1099	-0.022
1099	-0.023
1100	-0.023
1100	-0.024
1100	-0.025
1101	-0.026
1101	-0.027
1102	-0.027
1102	-0.029
1102	-0.03
1103	-0.03
1103	-0.031
1104	-0.03
1104	-0.031
1104	-0.032
1105	-0.033
1105	-0.034
1106	-0.036
1106	-0.037
1107	-0.037
1107	-0.038
1107	-0.039
1108	-0.04
1108	-0.042
1109	-0.043
1109	-0.044
1109	-0.043
1110	-0.041
1110	-0.042
1111	-0.042
1111	-0.041
