Data from reversibility-20sec_Absorbance__349__000000000000349.txt Node

Date: Tue Dec 05 14:09:25 CET 2023
User: Marek
Spectrometer: MAYP115816
Trigger mode: 0
Integration Time (sec): 2.000000E-1
Scans to average: 10
Electric dark correction enabled: true
Nonlinearity correction enabled: true
Boxcar width: 5
XAxis mode: Wavelengths
Number of Pixels in Spectrum: 2068
>>>>>Begin Spectral Data<<<<<
199	-0.197
199	-0.159
200	-0.094
200	-0.045
201	-0.017
201	-0
202	0.016
202	0.025
203	0.033
203	0.034
204	0.049
204	0.062
205	0.071
205	0.076
205	0.073
206	0.075
206	0.075
207	0.078
207	0.075
208	0.073
208	0.074
209	0.076
209	0.074
210	0.074
210	0.074
211	0.074
211	0.075
212	0.072
212	0.07
213	0.074
213	0.078
213	0.078
214	0.084
214	0.086
215	0.088
215	0.089
216	0.093
216	0.092
217	0.095
217	0.097
218	0.095
218	0.098
219	0.102
219	0.1
220	0.104
220	0.103
221	0.105
221	0.107
221	0.112
222	0.117
222	0.122
223	0.129
223	0.132
224	0.137
224	0.142
225	0.149
225	0.162
226	0.172
226	0.183
227	0.192
227	0.202
228	0.215
228	0.23
229	0.249
229	0.271
229	0.295
230	0.318
230	0.346
231	0.377
231	0.414
232	0.452
232	0.496
233	0.541
233	0.589
234	0.634
234	0.686
235	0.736
235	0.789
236	0.839
236	0.89
236	0.942
237	0.992
237	1.038
238	1.085
238	1.13
239	1.179
239	1.223
240	1.263
240	1.3
241	1.338
241	1.374
242	1.402
242	1.439
243	1.472
243	1.498
243	1.524
244	1.545
244	1.562
245	1.579
245	1.601
246	1.617
246	1.632
247	1.646
247	1.658
248	1.668
248	1.68
249	1.689
249	1.696
250	1.704
250	1.712
250	1.716
251	1.719
251	1.72
252	1.723
252	1.721
253	1.723
253	1.719
254	1.717
254	1.718
255	1.715
255	1.713
256	1.712
256	1.71
257	1.71
257	1.71
258	1.709
258	1.709
258	1.71
259	1.709
259	1.708
260	1.709
260	1.71
261	1.71
261	1.712
262	1.714
262	1.715
263	1.717
263	1.719
264	1.719
264	1.721
265	1.722
265	1.722
265	1.723
266	1.723
266	1.723
267	1.721
267	1.721
268	1.719
268	1.719
269	1.72
269	1.718
270	1.718
270	1.718
271	1.714
271	1.714
272	1.709
272	1.707
272	1.704
273	1.698
273	1.692
274	1.687
274	1.681
275	1.673
275	1.666
276	1.659
276	1.651
277	1.644
277	1.634
278	1.622
278	1.611
278	1.597
279	1.58
279	1.56
280	1.536
280	1.506
281	1.471
281	1.433
282	1.393
282	1.352
283	1.312
283	1.272
284	1.235
284	1.198
285	1.163
285	1.132
285	1.104
286	1.08
286	1.059
287	1.041
287	1.026
288	1.012
288	1.002
289	0.992
289	0.984
290	0.977
290	0.971
291	0.967
291	0.962
292	0.958
292	0.955
292	0.951
293	0.948
293	0.945
294	0.942
294	0.94
295	0.938
295	0.936
296	0.933
296	0.931
297	0.929
297	0.927
298	0.925
298	0.923
298	0.92
299	0.919
299	0.917
300	0.915
300	0.913
301	0.911
301	0.908
302	0.906
302	0.905
303	0.903
303	0.901
304	0.899
304	0.897
305	0.895
305	0.893
305	0.891
306	0.89
306	0.888
307	0.886
307	0.883
308	0.881
308	0.879
309	0.877
309	0.874
310	0.872
310	0.869
311	0.867
311	0.864
311	0.861
312	0.858
312	0.855
313	0.851
313	0.848
314	0.844
314	0.84
315	0.836
315	0.832
316	0.828
316	0.824
317	0.819
317	0.815
318	0.81
318	0.805
318	0.801
319	0.795
319	0.79
320	0.785
320	0.779
321	0.774
321	0.768
322	0.762
322	0.756
323	0.75
323	0.744
324	0.737
324	0.731
324	0.725
325	0.718
325	0.712
326	0.705
326	0.699
327	0.692
327	0.686
328	0.679
328	0.673
329	0.666
329	0.659
330	0.652
330	0.646
330	0.639
331	0.632
331	0.625
332	0.618
332	0.612
333	0.605
333	0.598
334	0.591
334	0.585
335	0.578
335	0.572
336	0.565
336	0.559
336	0.553
337	0.547
337	0.541
338	0.535
338	0.529
339	0.523
339	0.517
340	0.511
340	0.506
341	0.5
341	0.495
342	0.49
342	0.484
342	0.479
343	0.475
343	0.47
344	0.465
344	0.46
345	0.456
345	0.451
346	0.447
346	0.442
347	0.438
347	0.434
348	0.43
348	0.426
348	0.423
349	0.419
349	0.415
350	0.412
350	0.409
351	0.406
351	0.402
352	0.399
352	0.396
353	0.394
353	0.391
354	0.388
354	0.385
354	0.382
355	0.379
355	0.377
356	0.374
356	0.371
357	0.369
357	0.366
358	0.363
358	0.361
359	0.359
359	0.356
360	0.354
360	0.352
360	0.351
361	0.349
361	0.347
362	0.345
362	0.344
363	0.342
363	0.34
364	0.338
364	0.336
365	0.335
365	0.333
366	0.331
366	0.329
366	0.328
367	0.326
367	0.324
368	0.323
368	0.321
369	0.32
369	0.318
370	0.317
370	0.315
371	0.314
371	0.313
372	0.311
372	0.31
372	0.309
373	0.308
373	0.307
374	0.306
374	0.305
375	0.304
375	0.303
376	0.302
376	0.301
377	0.3
377	0.299
378	0.298
378	0.297
378	0.297
379	0.296
379	0.295
380	0.294
380	0.293
381	0.292
381	0.292
382	0.291
382	0.291
383	0.29
383	0.289
383	0.288
384	0.288
384	0.287
385	0.286
385	0.286
386	0.285
386	0.285
387	0.284
387	0.283
388	0.282
388	0.282
389	0.281
389	0.281
389	0.281
390	0.28
390	0.28
391	0.279
391	0.279
392	0.279
392	0.278
393	0.278
393	0.277
394	0.277
394	0.276
394	0.276
395	0.275
395	0.275
396	0.274
396	0.273
397	0.273
397	0.273
398	0.272
398	0.272
399	0.271
399	0.271
400	0.271
400	0.27
400	0.27
401	0.27
401	0.269
402	0.269
402	0.268
403	0.268
403	0.268
404	0.268
404	0.267
405	0.267
405	0.267
405	0.267
406	0.266
406	0.266
407	0.266
407	0.265
408	0.265
408	0.265
409	0.264
409	0.264
410	0.263
410	0.263
411	0.263
411	0.262
411	0.262
412	0.262
412	0.261
413	0.261
413	0.261
414	0.26
414	0.26
415	0.26
415	0.259
416	0.259
416	0.259
416	0.258
417	0.258
417	0.258
418	0.258
418	0.258
419	0.258
419	0.257
420	0.257
420	0.257
421	0.256
421	0.256
421	0.256
422	0.255
422	0.255
423	0.255
423	0.254
424	0.254
424	0.254
425	0.254
425	0.253
426	0.253
426	0.253
427	0.253
427	0.252
427	0.252
428	0.252
428	0.252
429	0.251
429	0.251
430	0.251
430	0.251
431	0.251
431	0.251
432	0.251
432	0.25
432	0.25
433	0.25
433	0.25
434	0.25
434	0.25
435	0.25
435	0.25
436	0.25
436	0.25
437	0.249
437	0.249
437	0.249
438	0.249
438	0.249
439	0.248
439	0.248
440	0.248
440	0.248
441	0.248
441	0.248
442	0.248
442	0.248
442	0.247
443	0.247
443	0.247
444	0.247
444	0.247
445	0.247
445	0.247
446	0.247
446	0.246
447	0.246
447	0.246
447	0.246
448	0.246
448	0.246
449	0.245
449	0.245
450	0.245
450	0.245
451	0.245
451	0.245
452	0.245
452	0.245
452	0.245
453	0.245
453	0.244
454	0.244
454	0.244
455	0.244
455	0.244
456	0.244
456	0.244
457	0.244
457	0.244
458	0.244
458	0.243
458	0.243
459	0.243
459	0.243
460	0.243
460	0.243
461	0.243
461	0.243
462	0.243
462	0.243
463	0.243
463	0.243
463	0.243
464	0.243
464	0.243
465	0.243
465	0.243
466	0.243
466	0.243
467	0.243
467	0.244
467	0.244
468	0.244
468	0.244
469	0.244
469	0.244
470	0.245
470	0.245
471	0.245
471	0.245
472	0.245
472	0.246
472	0.246
473	0.246
473	0.246
474	0.246
474	0.246
475	0.247
475	0.247
476	0.247
476	0.248
477	0.248
477	0.248
477	0.249
478	0.249
478	0.25
479	0.25
479	0.25
480	0.25
480	0.251
481	0.251
481	0.252
482	0.252
482	0.253
482	0.253
483	0.254
483	0.254
484	0.255
484	0.255
485	0.256
485	0.256
486	0.257
486	0.257
487	0.258
487	0.258
487	0.259
488	0.26
488	0.26
489	0.261
489	0.263
490	0.263
490	0.264
491	0.265
491	0.266
492	0.267
492	0.268
492	0.269
493	0.27
493	0.271
494	0.271
494	0.272
495	0.273
495	0.274
496	0.275
496	0.276
496	0.277
497	0.278
497	0.279
498	0.28
498	0.281
499	0.282
499	0.283
500	0.284
500	0.285
501	0.286
501	0.287
501	0.288
502	0.289
502	0.29
503	0.291
503	0.292
504	0.293
504	0.294
505	0.295
505	0.296
506	0.297
506	0.298
506	0.299
507	0.3
507	0.301
508	0.302
508	0.303
509	0.303
509	0.304
510	0.305
510	0.306
511	0.307
511	0.308
511	0.308
512	0.309
512	0.31
513	0.311
513	0.312
514	0.312
514	0.313
515	0.314
515	0.315
515	0.315
516	0.316
516	0.316
517	0.317
517	0.317
518	0.318
518	0.318
519	0.319
519	0.319
520	0.319
520	0.319
520	0.32
521	0.32
521	0.32
522	0.32
522	0.321
523	0.321
523	0.321
524	0.321
524	0.322
524	0.322
525	0.322
525	0.321
526	0.321
526	0.321
527	0.321
527	0.321
528	0.32
528	0.32
529	0.319
529	0.319
529	0.318
530	0.317
530	0.317
531	0.316
531	0.316
532	0.315
532	0.314
533	0.313
533	0.313
533	0.312
534	0.312
534	0.311
535	0.31
535	0.309
536	0.309
536	0.308
537	0.307
537	0.306
538	0.305
538	0.304
538	0.303
539	0.302
539	0.301
540	0.3
540	0.299
541	0.298
541	0.296
542	0.295
542	0.294
542	0.292
543	0.291
543	0.29
544	0.289
544	0.288
545	0.288
545	0.286
546	0.286
546	0.285
547	0.283
547	0.282
547	0.281
548	0.28
548	0.279
549	0.277
549	0.276
550	0.275
550	0.273
551	0.272
551	0.27
551	0.269
552	0.268
552	0.266
553	0.265
553	0.264
554	0.263
554	0.262
555	0.26
555	0.259
556	0.258
556	0.257
556	0.256
557	0.255
557	0.254
558	0.253
558	0.252
559	0.251
559	0.25
560	0.249
560	0.248
560	0.247
561	0.246
561	0.245
562	0.244
562	0.243
563	0.241
563	0.24
564	0.238
564	0.237
564	0.236
565	0.235
565	0.234
566	0.233
566	0.232
567	0.231
567	0.23
568	0.229
568	0.229
568	0.228
569	0.227
569	0.226
570	0.225
570	0.224
571	0.223
571	0.222
572	0.221
572	0.22
573	0.219
573	0.218
573	0.218
574	0.217
574	0.216
575	0.216
575	0.215
576	0.214
576	0.214
577	0.213
577	0.212
577	0.212
578	0.211
578	0.21
579	0.21
579	0.209
580	0.208
580	0.207
581	0.206
581	0.205
581	0.205
582	0.204
582	0.204
583	0.203
583	0.203
584	0.201
584	0.2
585	0.199
585	0.199
585	0.198
586	0.197
586	0.196
587	0.194
587	0.194
588	0.193
588	0.192
589	0.191
589	0.191
590	0.191
590	0.191
590	0.191
591	0.19
591	0.19
592	0.189
592	0.188
593	0.188
593	0.187
594	0.186
594	0.186
594	0.185
595	0.185
595	0.184
596	0.183
596	0.183
597	0.183
597	0.183
598	0.182
598	0.182
598	0.182
599	0.181
599	0.181
600	0.18
600	0.179
601	0.179
601	0.178
602	0.177
602	0.177
602	0.176
603	0.176
603	0.175
604	0.175
604	0.175
605	0.175
605	0.175
606	0.174
606	0.174
606	0.173
607	0.173
607	0.172
608	0.172
608	0.171
609	0.17
609	0.17
610	0.17
610	0.169
610	0.169
611	0.168
611	0.168
612	0.168
612	0.168
613	0.168
613	0.168
614	0.167
614	0.167
614	0.166
615	0.166
615	0.166
616	0.165
616	0.165
617	0.165
617	0.164
618	0.164
618	0.163
618	0.163
619	0.163
619	0.163
620	0.163
620	0.163
621	0.162
621	0.162
622	0.161
622	0.161
622	0.161
623	0.16
623	0.16
624	0.16
624	0.159
625	0.159
625	0.159
626	0.158
626	0.158
626	0.158
627	0.157
627	0.157
628	0.156
628	0.156
629	0.155
629	0.155
630	0.154
630	0.154
630	0.153
631	0.153
631	0.153
632	0.153
632	0.153
633	0.153
633	0.153
634	0.154
634	0.154
634	0.154
635	0.154
635	0.154
636	0.154
636	0.154
637	0.154
637	0.153
638	0.153
638	0.153
638	0.152
639	0.152
639	0.151
640	0.151
640	0.15
641	0.15
641	0.15
642	0.149
642	0.149
642	0.149
643	0.149
643	0.149
644	0.149
644	0.149
645	0.149
645	0.149
646	0.149
646	0.149
646	0.149
647	0.149
647	0.149
648	0.149
648	0.148
649	0.148
649	0.148
650	0.148
650	0.147
650	0.147
651	0.147
651	0.147
652	0.147
652	0.147
653	0.147
653	0.149
653	0.154
654	0.122
654	0.099
655	0.099
655	0.1
656	0.1
656	0.1
657	0.101
657	0.101
657	0.101
658	0.1
658	0.091
659	0.115
659	0.146
660	0.149
660	0.149
661	0.148
661	0.148
661	0.148
662	0.148
662	0.147
663	0.147
663	0.147
664	0.147
664	0.146
665	0.146
665	0.146
665	0.146
666	0.146
666	0.146
667	0.146
667	0.146
668	0.146
668	0.146
669	0.146
669	0.146
669	0.146
670	0.146
670	0.145
671	0.145
671	0.145
672	0.144
672	0.144
672	0.143
673	0.143
673	0.143
674	0.143
674	0.143
675	0.143
675	0.143
676	0.144
676	0.144
676	0.144
677	0.144
677	0.144
678	0.145
678	0.144
679	0.144
679	0.145
680	0.145
680	0.145
680	0.145
681	0.145
681	0.145
682	0.146
682	0.146
683	0.146
683	0.147
684	0.147
684	0.147
684	0.147
685	0.147
685	0.147
686	0.147
686	0.147
687	0.147
687	0.147
687	0.146
688	0.146
688	0.146
689	0.146
689	0.146
690	0.146
690	0.146
691	0.146
691	0.146
691	0.146
692	0.146
692	0.146
693	0.147
693	0.147
694	0.147
694	0.147
695	0.148
695	0.149
695	0.149
696	0.15
696	0.15
697	0.15
697	0.15
698	0.15
698	0.149
698	0.149
699	0.149
699	0.149
700	0.149
700	0.148
701	0.148
701	0.148
702	0.148
702	0.148
702	0.148
703	0.148
703	0.148
704	0.148
704	0.148
705	0.148
705	0.147
705	0.147
706	0.147
706	0.147
707	0.147
707	0.147
708	0.147
708	0.147
709	0.148
709	0.148
709	0.147
710	0.147
710	0.148
711	0.148
711	0.148
712	0.148
712	0.148
713	0.148
713	0.148
713	0.148
714	0.148
714	0.148
715	0.148
715	0.147
716	0.147
716	0.147
716	0.147
717	0.146
717	0.146
718	0.145
718	0.145
719	0.145
719	0.145
720	0.146
720	0.146
720	0.147
721	0.147
721	0.148
722	0.148
722	0.149
723	0.149
723	0.15
723	0.15
724	0.15
724	0.15
725	0.149
725	0.149
726	0.148
726	0.148
727	0.148
727	0.148
727	0.148
728	0.147
728	0.147
729	0.148
729	0.148
730	0.148
730	0.148
730	0.148
731	0.148
731	0.149
732	0.149
732	0.149
733	0.148
733	0.148
734	0.148
734	0.148
734	0.148
735	0.149
735	0.148
736	0.148
736	0.148
737	0.148
737	0.148
737	0.148
738	0.148
738	0.147
739	0.147
739	0.147
740	0.146
740	0.146
741	0.146
741	0.147
741	0.147
742	0.147
742	0.148
743	0.149
743	0.149
744	0.15
744	0.151
744	0.151
745	0.151
745	0.151
746	0.151
746	0.152
747	0.152
747	0.152
748	0.152
748	0.152
748	0.151
749	0.151
749	0.151
750	0.151
750	0.151
751	0.15
751	0.15
751	0.15
752	0.15
752	0.149
753	0.149
753	0.149
754	0.149
754	0.15
754	0.15
755	0.151
755	0.151
756	0.151
756	0.15
757	0.15
757	0.15
758	0.15
758	0.149
758	0.149
759	0.149
759	0.149
760	0.149
760	0.149
761	0.15
761	0.151
761	0.151
762	0.152
762	0.152
763	0.152
763	0.152
764	0.152
764	0.152
764	0.152
765	0.152
765	0.151
766	0.151
766	0.15
767	0.15
767	0.149
768	0.148
768	0.148
768	0.148
769	0.148
769	0.148
770	0.148
770	0.148
771	0.148
771	0.149
771	0.149
772	0.15
772	0.15
773	0.15
773	0.15
774	0.15
774	0.151
775	0.151
775	0.151
775	0.152
776	0.152
776	0.152
777	0.152
777	0.152
778	0.152
778	0.152
778	0.151
779	0.151
779	0.151
780	0.15
780	0.149
781	0.149
781	0.149
781	0.148
782	0.148
782	0.148
783	0.148
783	0.149
784	0.148
784	0.149
784	0.149
785	0.149
785	0.149
786	0.15
786	0.15
787	0.15
787	0.15
788	0.149
788	0.149
788	0.149
789	0.148
789	0.148
790	0.148
790	0.148
791	0.147
791	0.147
791	0.147
792	0.147
792	0.147
793	0.146
793	0.146
794	0.146
794	0.145
794	0.144
795	0.144
795	0.144
796	0.144
796	0.144
797	0.143
797	0.143
797	0.143
798	0.143
798	0.143
799	0.143
799	0.142
800	0.142
800	0.142
801	0.141
801	0.141
801	0.141
802	0.141
802	0.141
803	0.141
803	0.141
804	0.142
804	0.142
804	0.143
805	0.143
805	0.143
806	0.144
806	0.144
807	0.144
807	0.144
807	0.144
808	0.143
808	0.143
809	0.143
809	0.143
810	0.142
810	0.142
810	0.141
811	0.141
811	0.141
812	0.141
812	0.141
813	0.141
813	0.142
813	0.142
814	0.142
814	0.142
815	0.142
815	0.143
816	0.143
816	0.143
817	0.142
817	0.142
817	0.142
818	0.141
818	0.141
819	0.14
819	0.139
820	0.138
820	0.137
820	0.136
821	0.136
821	0.135
822	0.134
822	0.134
823	0.134
823	0.134
823	0.135
824	0.135
824	0.136
825	0.137
825	0.138
826	0.138
826	0.138
826	0.138
827	0.139
827	0.139
828	0.138
828	0.138
829	0.137
829	0.137
829	0.137
830	0.136
830	0.136
831	0.136
831	0.136
832	0.136
832	0.136
832	0.136
833	0.135
833	0.135
834	0.135
834	0.135
835	0.134
835	0.134
835	0.134
836	0.134
836	0.134
837	0.134
837	0.133
838	0.133
838	0.132
839	0.131
839	0.13
839	0.129
840	0.128
840	0.127
841	0.125
841	0.124
842	0.123
842	0.122
842	0.122
843	0.121
843	0.121
844	0.12
844	0.12
845	0.12
845	0.12
845	0.12
846	0.12
846	0.119
847	0.119
847	0.119
848	0.12
848	0.12
848	0.12
849	0.12
849	0.12
850	0.121
850	0.121
851	0.12
851	0.12
851	0.12
852	0.119
852	0.118
853	0.117
853	0.117
854	0.116
854	0.116
854	0.116
855	0.116
855	0.116
856	0.116
856	0.116
857	0.117
857	0.117
857	0.117
858	0.117
858	0.116
859	0.115
859	0.114
860	0.114
860	0.113
860	0.112
861	0.112
861	0.111
862	0.111
862	0.11
863	0.11
863	0.11
863	0.11
864	0.109
864	0.109
865	0.109
865	0.108
866	0.108
866	0.107
866	0.107
867	0.106
867	0.106
868	0.106
868	0.106
869	0.106
869	0.106
869	0.106
870	0.106
870	0.107
871	0.107
871	0.107
872	0.107
872	0.107
872	0.107
873	0.107
873	0.106
874	0.106
874	0.105
875	0.105
875	0.104
875	0.104
876	0.104
876	0.103
877	0.103
877	0.103
878	0.103
878	0.104
878	0.104
879	0.105
879	0.105
880	0.105
880	0.105
881	0.105
881	0.104
881	0.104
882	0.103
882	0.102
883	0.101
883	0.1
884	0.099
884	0.097
884	0.096
885	0.095
885	0.093
886	0.092
886	0.091
887	0.09
887	0.089
887	0.088
888	0.087
888	0.086
889	0.086
889	0.086
890	0.086
890	0.086
890	0.086
891	0.087
891	0.087
892	0.088
892	0.088
893	0.089
893	0.09
893	0.091
894	0.091
894	0.091
895	0.091
895	0.091
895	0.091
896	0.091
896	0.091
897	0.09
897	0.089
898	0.089
898	0.088
898	0.087
899	0.087
899	0.087
900	0.086
900	0.086
901	0.086
901	0.085
901	0.085
902	0.085
902	0.085
903	0.084
903	0.084
904	0.083
904	0.082
904	0.081
905	0.081
905	0.08
906	0.08
906	0.08
907	0.08
907	0.08
907	0.08
908	0.08
908	0.08
909	0.081
909	0.081
910	0.081
910	0.081
910	0.081
911	0.081
911	0.081
912	0.08
912	0.08
913	0.079
913	0.079
913	0.078
914	0.078
914	0.077
915	0.077
915	0.077
916	0.076
916	0.076
916	0.075
917	0.075
917	0.074
918	0.073
918	0.073
918	0.072
919	0.072
919	0.072
920	0.072
920	0.071
921	0.071
921	0.072
921	0.072
922	0.072
922	0.072
923	0.073
923	0.073
924	0.074
924	0.074
924	0.074
925	0.074
925	0.074
926	0.074
926	0.074
927	0.074
927	0.073
927	0.072
928	0.072
928	0.071
929	0.071
929	0.071
930	0.07
930	0.07
930	0.07
931	0.07
931	0.07
932	0.07
932	0.07
933	0.07
933	0.07
933	0.07
934	0.07
934	0.07
935	0.07
935	0.07
935	0.07
936	0.069
936	0.069
937	0.069
937	0.068
938	0.067
938	0.067
938	0.066
939	0.066
939	0.066
940	0.066
940	0.066
941	0.066
941	0.066
941	0.066
942	0.066
942	0.066
943	0.067
943	0.067
944	0.067
944	0.066
944	0.066
945	0.066
945	0.066
946	0.065
946	0.065
946	0.064
947	0.064
947	0.063
948	0.062
948	0.062
949	0.061
949	0.06
949	0.06
950	0.06
950	0.059
951	0.059
951	0.059
952	0.058
952	0.058
952	0.057
953	0.057
953	0.057
954	0.056
954	0.056
955	0.056
955	0.055
955	0.055
956	0.055
956	0.056
957	0.056
957	0.056
957	0.056
958	0.056
958	0.056
959	0.056
959	0.056
960	0.055
960	0.055
960	0.055
961	0.054
961	0.054
962	0.054
962	0.054
963	0.054
963	0.054
963	0.055
964	0.055
964	0.055
965	0.056
965	0.056
966	0.057
966	0.058
966	0.058
967	0.059
967	0.059
968	0.059
968	0.06
968	0.06
969	0.06
969	0.06
970	0.06
970	0.059
971	0.059
971	0.059
971	0.058
972	0.058
972	0.057
973	0.057
973	0.057
974	0.056
974	0.056
974	0.056
975	0.056
975	0.055
976	0.055
976	0.055
976	0.055
977	0.055
977	0.055
978	0.054
978	0.054
979	0.054
979	0.053
979	0.053
980	0.053
980	0.052
981	0.051
981	0.051
982	0.051
982	0.05
982	0.05
983	0.05
983	0.05
984	0.05
984	0.05
984	0.05
985	0.05
985	0.05
986	0.05
986	0.049
987	0.049
987	0.049
987	0.048
988	0.048
988	0.047
989	0.047
989	0.046
990	0.045
990	0.045
990	0.044
991	0.044
991	0.044
992	0.043
992	0.042
992	0.042
993	0.041
993	0.041
994	0.04
994	0.04
995	0.039
995	0.039
995	0.039
996	0.039
996	0.039
997	0.04
997	0.041
997	0.041
998	0.042
998	0.043
999	0.044
999	0.045
1000	0.046
1000	0.047
1000	0.048
1001	0.048
1001	0.048
1002	0.048
1002	0.049
1003	0.049
1003	0.049
1003	0.048
1004	0.048
1004	0.048
1005	0.047
1005	0.047
1005	0.046
1006	0.046
1006	0.046
1007	0.045
1007	0.045
1008	0.045
1008	0.045
1008	0.044
1009	0.044
1009	0.044
1010	0.044
1010	0.044
1010	0.044
1011	0.044
1011	0.043
1012	0.043
1012	0.043
1013	0.043
1013	0.043
1013	0.042
1014	0.042
1014	0.041
1015	0.041
1015	0.041
1016	0.04
1016	0.04
1016	0.039
1017	0.039
1017	0.039
1018	0.039
1018	0.039
1018	0.038
1019	0.038
1019	0.038
1020	0.038
1020	0.039
1021	0.039
1021	0.039
1021	0.039
1022	0.039
1022	0.039
1023	0.039
1023	0.038
1023	0.038
1024	0.038
1024	0.038
1025	0.037
1025	0.037
1026	0.036
1026	0.036
1026	0.035
1027	0.035
1027	0.035
1028	0.034
1028	0.034
1028	0.034
1029	0.034
1029	0.033
1030	0.033
1030	0.033
1031	0.033
1031	0.033
1031	0.033
1032	0.033
1032	0.033
1033	0.033
1033	0.033
1033	0.032
1034	0.032
1034	0.032
1035	0.032
1035	0.032
1036	0.032
1036	0.032
1036	0.033
1037	0.033
1037	0.033
1038	0.033
1038	0.033
1039	0.033
1039	0.033
1039	0.033
1040	0.033
1040	0.033
1041	0.033
1041	0.033
1041	0.033
1042	0.033
1042	0.033
1043	0.033
1043	0.033
1044	0.033
1044	0.033
1044	0.034
1045	0.034
1045	0.034
1046	0.035
1046	0.035
1046	0.036
1047	0.037
1047	0.037
1048	0.038
1048	0.038
1049	0.039
1049	0.039
1049	0.039
1050	0.039
1050	0.038
1051	0.038
1051	0.037
1051	0.036
1052	0.035
1052	0.035
1053	0.033
1053	0.032
1053	0.032
1054	0.031
1054	0.03
1055	0.029
1055	0.029
1056	0.028
1056	0.027
1056	0.027
1057	0.026
1057	0.025
1058	0.025
1058	0.024
1058	0.023
1059	0.023
1059	0.022
1060	0.022
1060	0.022
1061	0.021
1061	0.021
1061	0.021
1062	0.02
1062	0.02
1063	0.02
1063	0.02
1063	0.02
1064	0.019
1064	0.019
1065	0.019
1065	0.019
1066	0.019
1066	0.019
1066	0.019
1067	0.019
1067	0.019
1068	0.019
1068	0.019
1068	0.019
1069	0.018
1069	0.018
1070	0.017
1070	0.017
1071	0.016
1071	0.016
1071	0.015
1072	0.015
1072	0.014
1073	0.014
1073	0.013
1073	0.013
1074	0.013
1074	0.014
1075	0.014
1075	0.014
1076	0.015
1076	0.016
1076	0.016
1077	0.017
1077	0.017
1078	0.018
1078	0.018
1078	0.019
1079	0.019
1079	0.019
1080	0.019
1080	0.019
1080	0.019
1081	0.02
1081	0.02
1082	0.02
1082	0.021
1083	0.02
1083	0.02
1083	0.02
1084	0.02
1084	0.02
1085	0.019
1085	0.018
1085	0.018
1086	0.017
1086	0.017
1087	0.016
1087	0.015
1088	0.015
1088	0.014
1088	0.014
1089	0.014
1089	0.013
1090	0.012
1090	0.011
1090	0.011
1091	0.011
1091	0.011
1092	0.011
1092	0.011
1092	0.011
1093	0.011
1093	0.011
1094	0.012
1094	0.012
1095	0.012
1095	0.012
1095	0.012
1096	0.011
1096	0.01
1097	0.009
1097	0.009
1097	0.009
1098	0.008
1098	0.007
1099	0.006
1099	0.005
1100	0.005
1100	0.004
1100	0.003
1101	0.001
1101	0.001
1102	-0.001
1102	-0.002
1102	-0.003
1103	-0.003
1103	-0.003
1104	-0.003
1104	-0.004
1104	-0.005
1105	-0.005
1105	-0.007
1106	-0.008
1106	-0.008
1107	-0.01
1107	-0.01
1107	-0.01
1108	-0.011
1108	-0.013
1109	-0.013
1109	-0.014
1109	-0.014
1110	-0.013
1110	-0.012
1111	-0.014
1111	-0.011
