Data from reversibility-20sec_Absorbance__5419__000000000005419.txt Node

Date: Wed Dec 06 18:19:26 CET 2023
User: Marek
Spectrometer: MAYP115816
Trigger mode: 0
Integration Time (sec): 2.000000E-1
Scans to average: 10
Electric dark correction enabled: true
Nonlinearity correction enabled: true
Boxcar width: 5
XAxis mode: Wavelengths
Number of Pixels in Spectrum: 2068
>>>>>Begin Spectral Data<<<<<
199	-0.15
199	-0.132
200	-0.07
200	-0.016
201	0.017
201	0.037
202	0.048
202	0.056
203	0.068
203	0.072
204	0.084
204	0.098
205	0.111
205	0.12
205	0.116
206	0.115
206	0.112
207	0.115
207	0.116
208	0.112
208	0.111
209	0.114
209	0.11
210	0.108
210	0.109
211	0.113
211	0.115
212	0.112
212	0.11
213	0.112
213	0.112
213	0.112
214	0.116
214	0.117
215	0.119
215	0.117
216	0.117
216	0.114
217	0.121
217	0.125
218	0.124
218	0.129
219	0.134
219	0.131
220	0.135
220	0.134
221	0.135
221	0.136
221	0.142
222	0.147
222	0.152
223	0.157
223	0.16
224	0.164
224	0.173
225	0.181
225	0.192
226	0.197
226	0.21
227	0.217
227	0.224
228	0.237
228	0.253
229	0.269
229	0.29
229	0.314
230	0.337
230	0.364
231	0.4
231	0.436
232	0.476
232	0.523
233	0.565
233	0.612
234	0.66
234	0.715
235	0.766
235	0.82
236	0.874
236	0.924
236	0.977
237	1.027
237	1.071
238	1.117
238	1.165
239	1.215
239	1.255
240	1.295
240	1.331
241	1.365
241	1.4
242	1.432
242	1.465
243	1.497
243	1.525
243	1.547
244	1.569
244	1.591
245	1.61
245	1.633
246	1.654
246	1.67
247	1.682
247	1.695
248	1.709
248	1.722
249	1.734
249	1.738
250	1.746
250	1.751
250	1.753
251	1.754
251	1.757
252	1.76
252	1.76
253	1.759
253	1.756
254	1.756
254	1.758
255	1.756
255	1.757
256	1.758
256	1.759
257	1.759
257	1.759
258	1.76
258	1.759
258	1.76
259	1.759
259	1.758
260	1.758
260	1.759
261	1.76
261	1.762
262	1.763
262	1.764
263	1.768
263	1.77
264	1.772
264	1.773
265	1.775
265	1.777
265	1.778
266	1.778
266	1.778
267	1.778
267	1.778
268	1.778
268	1.778
269	1.781
269	1.781
270	1.781
270	1.781
271	1.779
271	1.779
272	1.776
272	1.774
272	1.769
273	1.762
273	1.753
274	1.746
274	1.739
275	1.731
275	1.723
276	1.715
276	1.706
277	1.698
277	1.688
278	1.676
278	1.664
278	1.65
279	1.631
279	1.609
280	1.582
280	1.549
281	1.51
281	1.467
282	1.422
282	1.378
283	1.334
283	1.291
284	1.251
284	1.212
285	1.175
285	1.142
285	1.112
286	1.087
286	1.065
287	1.045
287	1.029
288	1.015
288	1.004
289	0.994
289	0.985
290	0.978
290	0.972
291	0.967
291	0.962
292	0.958
292	0.954
292	0.95
293	0.947
293	0.943
294	0.94
294	0.937
295	0.935
295	0.932
296	0.929
296	0.926
297	0.923
297	0.921
298	0.918
298	0.916
298	0.913
299	0.911
299	0.908
300	0.906
300	0.903
301	0.901
301	0.899
302	0.896
302	0.894
303	0.892
303	0.89
304	0.888
304	0.886
305	0.883
305	0.881
305	0.879
306	0.877
306	0.875
307	0.873
307	0.87
308	0.868
308	0.866
309	0.863
309	0.86
310	0.858
310	0.855
311	0.852
311	0.849
311	0.846
312	0.843
312	0.839
313	0.836
313	0.832
314	0.829
314	0.825
315	0.821
315	0.817
316	0.813
316	0.808
317	0.804
317	0.799
318	0.794
318	0.789
318	0.784
319	0.779
319	0.774
320	0.768
320	0.763
321	0.757
321	0.751
322	0.745
322	0.739
323	0.733
323	0.726
324	0.72
324	0.713
324	0.707
325	0.7
325	0.694
326	0.687
326	0.68
327	0.674
327	0.667
328	0.66
328	0.653
329	0.646
329	0.639
330	0.632
330	0.625
330	0.618
331	0.611
331	0.604
332	0.597
332	0.59
333	0.584
333	0.577
334	0.57
334	0.563
335	0.557
335	0.55
336	0.544
336	0.537
336	0.531
337	0.525
337	0.518
338	0.512
338	0.506
339	0.5
339	0.495
340	0.489
340	0.483
341	0.477
341	0.472
342	0.466
342	0.461
342	0.456
343	0.451
343	0.445
344	0.44
344	0.436
345	0.431
345	0.426
346	0.422
346	0.418
347	0.413
347	0.409
348	0.405
348	0.401
348	0.397
349	0.394
349	0.39
350	0.387
350	0.383
351	0.38
351	0.377
352	0.373
352	0.371
353	0.368
353	0.365
354	0.362
354	0.359
354	0.356
355	0.354
355	0.351
356	0.348
356	0.345
357	0.343
357	0.34
358	0.337
358	0.335
359	0.333
359	0.331
360	0.329
360	0.327
360	0.325
361	0.323
361	0.322
362	0.32
362	0.319
363	0.317
363	0.315
364	0.313
364	0.311
365	0.31
365	0.308
366	0.306
366	0.305
366	0.303
367	0.301
367	0.299
368	0.298
368	0.296
369	0.295
369	0.294
370	0.292
370	0.291
371	0.289
371	0.288
372	0.287
372	0.286
372	0.285
373	0.284
373	0.283
374	0.282
374	0.282
375	0.281
375	0.28
376	0.279
376	0.278
377	0.278
377	0.277
378	0.276
378	0.275
378	0.275
379	0.274
379	0.273
380	0.273
380	0.272
381	0.271
381	0.271
382	0.27
382	0.27
383	0.269
383	0.269
383	0.268
384	0.268
384	0.267
385	0.266
385	0.266
386	0.266
386	0.265
387	0.265
387	0.264
388	0.264
388	0.264
389	0.263
389	0.263
389	0.263
390	0.262
390	0.262
391	0.262
391	0.261
392	0.261
392	0.261
393	0.261
393	0.261
394	0.26
394	0.26
394	0.26
395	0.259
395	0.259
396	0.259
396	0.258
397	0.258
397	0.257
398	0.257
398	0.257
399	0.257
399	0.256
400	0.256
400	0.256
400	0.256
401	0.256
401	0.255
402	0.255
402	0.255
403	0.255
403	0.254
404	0.254
404	0.254
405	0.254
405	0.254
405	0.253
406	0.253
406	0.253
407	0.252
407	0.252
408	0.252
408	0.252
409	0.251
409	0.251
410	0.251
410	0.251
411	0.251
411	0.25
411	0.25
412	0.25
412	0.249
413	0.249
413	0.249
414	0.249
414	0.248
415	0.248
415	0.247
416	0.247
416	0.247
416	0.247
417	0.246
417	0.246
418	0.246
418	0.245
419	0.245
419	0.244
420	0.244
420	0.244
421	0.243
421	0.243
421	0.242
422	0.242
422	0.242
423	0.242
423	0.241
424	0.241
424	0.241
425	0.241
425	0.24
426	0.24
426	0.24
427	0.239
427	0.239
427	0.239
428	0.238
428	0.238
429	0.238
429	0.237
430	0.237
430	0.237
431	0.237
431	0.237
432	0.236
432	0.236
432	0.236
433	0.236
433	0.236
434	0.235
434	0.235
435	0.235
435	0.235
436	0.235
436	0.235
437	0.234
437	0.234
437	0.234
438	0.234
438	0.234
439	0.233
439	0.233
440	0.233
440	0.233
441	0.232
441	0.232
442	0.232
442	0.232
442	0.232
443	0.231
443	0.231
444	0.231
444	0.231
445	0.231
445	0.23
446	0.23
446	0.23
447	0.23
447	0.229
447	0.229
448	0.229
448	0.229
449	0.228
449	0.228
450	0.228
450	0.228
451	0.227
451	0.227
452	0.227
452	0.227
452	0.227
453	0.227
453	0.227
454	0.227
454	0.226
455	0.226
455	0.226
456	0.225
456	0.225
457	0.225
457	0.224
458	0.224
458	0.224
458	0.224
459	0.223
459	0.223
460	0.223
460	0.223
461	0.223
461	0.223
462	0.222
462	0.222
463	0.222
463	0.221
463	0.221
464	0.221
464	0.22
465	0.22
465	0.22
466	0.219
466	0.219
467	0.219
467	0.219
467	0.219
468	0.219
468	0.219
469	0.219
469	0.219
470	0.219
470	0.219
471	0.219
471	0.219
472	0.219
472	0.219
472	0.219
473	0.219
473	0.218
474	0.218
474	0.218
475	0.218
475	0.218
476	0.218
476	0.218
477	0.218
477	0.218
477	0.218
478	0.218
478	0.218
479	0.218
479	0.218
480	0.218
480	0.217
481	0.217
481	0.217
482	0.217
482	0.217
482	0.217
483	0.217
483	0.217
484	0.217
484	0.217
485	0.217
485	0.217
486	0.217
486	0.217
487	0.217
487	0.217
487	0.218
488	0.217
488	0.217
489	0.218
489	0.218
490	0.219
490	0.219
491	0.219
491	0.22
492	0.22
492	0.22
492	0.221
493	0.221
493	0.221
494	0.222
494	0.222
495	0.222
495	0.222
496	0.223
496	0.223
496	0.224
497	0.224
497	0.224
498	0.224
498	0.225
499	0.225
499	0.225
500	0.226
500	0.227
501	0.227
501	0.227
501	0.227
502	0.227
502	0.228
503	0.228
503	0.229
504	0.229
504	0.229
505	0.229
505	0.23
506	0.23
506	0.23
506	0.231
507	0.231
507	0.231
508	0.231
508	0.232
509	0.232
509	0.232
510	0.233
510	0.233
511	0.233
511	0.234
511	0.235
512	0.235
512	0.236
513	0.236
513	0.236
514	0.237
514	0.237
515	0.238
515	0.238
515	0.238
516	0.239
516	0.239
517	0.24
517	0.24
518	0.241
518	0.241
519	0.241
519	0.241
520	0.242
520	0.242
520	0.242
521	0.242
521	0.242
522	0.242
522	0.242
523	0.243
523	0.243
524	0.243
524	0.243
524	0.243
525	0.244
525	0.244
526	0.244
526	0.244
527	0.244
527	0.244
528	0.244
528	0.245
529	0.245
529	0.245
529	0.245
530	0.245
530	0.245
531	0.245
531	0.245
532	0.245
532	0.245
533	0.245
533	0.245
533	0.245
534	0.244
534	0.245
535	0.245
535	0.245
536	0.245
536	0.245
537	0.245
537	0.245
538	0.245
538	0.245
538	0.245
539	0.245
539	0.245
540	0.245
540	0.245
541	0.244
541	0.244
542	0.244
542	0.244
542	0.244
543	0.244
543	0.244
544	0.243
544	0.243
545	0.243
545	0.243
546	0.243
546	0.243
547	0.242
547	0.242
547	0.242
548	0.242
548	0.242
549	0.242
549	0.241
550	0.241
550	0.241
551	0.241
551	0.24
551	0.24
552	0.24
552	0.24
553	0.239
553	0.239
554	0.238
554	0.238
555	0.238
555	0.237
556	0.237
556	0.237
556	0.237
557	0.237
557	0.237
558	0.237
558	0.237
559	0.237
559	0.237
560	0.237
560	0.237
560	0.237
561	0.237
561	0.237
562	0.236
562	0.235
563	0.235
563	0.234
564	0.234
564	0.233
564	0.233
565	0.233
565	0.232
566	0.232
566	0.232
567	0.232
567	0.232
568	0.232
568	0.232
568	0.232
569	0.232
569	0.231
570	0.231
570	0.23
571	0.229
571	0.229
572	0.228
572	0.228
573	0.228
573	0.227
573	0.227
574	0.226
574	0.226
575	0.226
575	0.226
576	0.226
576	0.226
577	0.225
577	0.225
577	0.225
578	0.224
578	0.224
579	0.224
579	0.225
580	0.224
580	0.223
581	0.223
581	0.222
581	0.223
582	0.223
582	0.223
583	0.223
583	0.223
584	0.222
584	0.221
585	0.221
585	0.221
585	0.221
586	0.22
586	0.22
587	0.219
587	0.218
588	0.218
588	0.217
589	0.217
589	0.217
590	0.217
590	0.217
590	0.218
591	0.218
591	0.218
592	0.217
592	0.217
593	0.217
593	0.217
594	0.216
594	0.215
594	0.215
595	0.215
595	0.214
596	0.214
596	0.214
597	0.215
597	0.215
598	0.214
598	0.214
598	0.214
599	0.214
599	0.214
600	0.213
600	0.213
601	0.213
601	0.212
602	0.212
602	0.211
602	0.211
603	0.211
603	0.211
604	0.211
604	0.211
605	0.212
605	0.212
606	0.211
606	0.211
606	0.21
607	0.21
607	0.21
608	0.21
608	0.209
609	0.208
609	0.208
610	0.208
610	0.207
610	0.208
611	0.208
611	0.208
612	0.208
612	0.208
613	0.208
613	0.208
614	0.208
614	0.208
614	0.208
615	0.208
615	0.207
616	0.208
616	0.208
617	0.208
617	0.208
618	0.207
618	0.207
618	0.207
619	0.208
619	0.208
620	0.208
620	0.208
621	0.208
621	0.207
622	0.207
622	0.206
622	0.206
623	0.206
623	0.205
624	0.205
624	0.204
625	0.204
625	0.204
626	0.203
626	0.203
626	0.203
627	0.203
627	0.203
628	0.202
628	0.202
629	0.201
629	0.201
630	0.2
630	0.2
630	0.2
631	0.2
631	0.199
632	0.199
632	0.199
633	0.2
633	0.2
634	0.201
634	0.201
634	0.201
635	0.201
635	0.201
636	0.201
636	0.201
637	0.2
637	0.2
638	0.2
638	0.199
638	0.199
639	0.198
639	0.198
640	0.198
640	0.198
641	0.198
641	0.198
642	0.198
642	0.198
642	0.198
643	0.198
643	0.198
644	0.198
644	0.198
645	0.198
645	0.198
646	0.198
646	0.198
646	0.198
647	0.198
647	0.198
648	0.198
648	0.197
649	0.197
649	0.197
650	0.197
650	0.197
650	0.197
651	0.196
651	0.196
652	0.196
652	0.196
653	0.196
653	0.198
653	0.204
654	0.16
654	0.128
655	0.129
655	0.129
656	0.129
656	0.13
657	0.13
657	0.131
657	0.131
658	0.129
658	0.119
659	0.15
659	0.193
660	0.198
660	0.198
661	0.197
661	0.197
661	0.196
662	0.196
662	0.196
663	0.196
663	0.195
664	0.195
664	0.195
665	0.195
665	0.195
665	0.195
666	0.195
666	0.195
667	0.196
667	0.196
668	0.196
668	0.197
669	0.197
669	0.198
669	0.199
670	0.199
670	0.199
671	0.199
671	0.199
672	0.199
672	0.199
672	0.198
673	0.198
673	0.198
674	0.197
674	0.197
675	0.196
675	0.196
676	0.196
676	0.196
676	0.196
677	0.196
677	0.195
678	0.195
678	0.195
679	0.194
679	0.194
680	0.194
680	0.194
680	0.194
681	0.194
681	0.195
682	0.195
682	0.196
683	0.197
683	0.198
684	0.198
684	0.198
684	0.198
685	0.199
685	0.199
686	0.199
686	0.199
687	0.199
687	0.199
687	0.198
688	0.198
688	0.198
689	0.198
689	0.199
690	0.199
690	0.198
691	0.198
691	0.198
691	0.198
692	0.198
692	0.198
693	0.198
693	0.199
694	0.198
694	0.198
695	0.199
695	0.199
695	0.199
696	0.199
696	0.199
697	0.199
697	0.199
698	0.198
698	0.198
698	0.198
699	0.198
699	0.198
700	0.197
700	0.198
701	0.198
701	0.198
702	0.198
702	0.199
702	0.199
703	0.2
703	0.2
704	0.2
704	0.2
705	0.2
705	0.2
705	0.2
706	0.201
706	0.201
707	0.201
707	0.201
708	0.202
708	0.202
709	0.202
709	0.202
709	0.202
710	0.202
710	0.202
711	0.202
711	0.202
712	0.202
712	0.202
713	0.202
713	0.202
713	0.201
714	0.201
714	0.201
715	0.201
715	0.201
716	0.2
716	0.2
716	0.2
717	0.2
717	0.199
718	0.199
718	0.199
719	0.199
719	0.199
720	0.2
720	0.2
720	0.201
721	0.201
721	0.202
722	0.202
722	0.203
723	0.203
723	0.204
723	0.204
724	0.204
724	0.204
725	0.204
725	0.203
726	0.203
726	0.202
727	0.202
727	0.202
727	0.201
728	0.201
728	0.201
729	0.201
729	0.201
730	0.2
730	0.2
730	0.201
731	0.201
731	0.202
732	0.202
732	0.203
733	0.203
733	0.203
734	0.203
734	0.204
734	0.204
735	0.205
735	0.205
736	0.205
736	0.206
737	0.206
737	0.206
737	0.206
738	0.206
738	0.205
739	0.205
739	0.205
740	0.204
740	0.204
741	0.204
741	0.204
741	0.204
742	0.204
742	0.205
743	0.206
743	0.206
744	0.207
744	0.208
744	0.208
745	0.208
745	0.208
746	0.209
746	0.209
747	0.209
747	0.209
748	0.209
748	0.209
748	0.209
749	0.209
749	0.209
750	0.208
750	0.208
751	0.208
751	0.207
751	0.207
752	0.206
752	0.206
753	0.205
753	0.205
754	0.204
754	0.204
754	0.204
755	0.204
755	0.205
756	0.204
756	0.204
757	0.204
757	0.204
758	0.205
758	0.205
758	0.205
759	0.206
759	0.206
760	0.206
760	0.207
761	0.207
761	0.208
761	0.208
762	0.208
762	0.209
763	0.209
763	0.208
764	0.208
764	0.208
764	0.208
765	0.208
765	0.208
766	0.208
766	0.208
767	0.208
767	0.207
768	0.206
768	0.206
768	0.207
769	0.207
769	0.207
770	0.207
770	0.208
771	0.208
771	0.208
771	0.209
772	0.209
772	0.21
773	0.21
773	0.211
774	0.211
774	0.211
775	0.212
775	0.212
775	0.212
776	0.213
776	0.213
777	0.213
777	0.214
778	0.214
778	0.213
778	0.213
779	0.214
779	0.214
780	0.213
780	0.213
781	0.212
781	0.212
781	0.212
782	0.212
782	0.213
783	0.213
783	0.214
784	0.214
784	0.214
784	0.215
785	0.215
785	0.216
786	0.216
786	0.216
787	0.216
787	0.216
788	0.215
788	0.214
788	0.214
789	0.213
789	0.212
790	0.212
790	0.211
791	0.21
791	0.21
791	0.209
792	0.21
792	0.21
793	0.21
793	0.211
794	0.211
794	0.21
794	0.211
795	0.211
795	0.212
796	0.212
796	0.213
797	0.212
797	0.213
797	0.213
798	0.213
798	0.214
799	0.214
799	0.214
800	0.214
800	0.213
801	0.213
801	0.214
801	0.214
802	0.214
802	0.214
803	0.214
803	0.215
804	0.215
804	0.215
804	0.215
805	0.215
805	0.215
806	0.214
806	0.214
807	0.214
807	0.213
807	0.214
808	0.214
808	0.214
809	0.214
809	0.214
810	0.215
810	0.216
810	0.216
811	0.217
811	0.217
812	0.218
812	0.219
813	0.219
813	0.22
813	0.221
814	0.222
814	0.222
815	0.223
815	0.224
816	0.224
816	0.224
817	0.223
817	0.223
817	0.223
818	0.223
818	0.223
819	0.223
819	0.222
820	0.221
820	0.221
820	0.221
821	0.221
821	0.221
822	0.221
822	0.221
823	0.221
823	0.22
823	0.221
824	0.221
824	0.222
825	0.223
825	0.223
826	0.224
826	0.224
826	0.224
827	0.224
827	0.225
828	0.225
828	0.225
829	0.225
829	0.225
829	0.225
830	0.225
830	0.226
831	0.226
831	0.226
832	0.226
832	0.226
832	0.226
833	0.226
833	0.226
834	0.226
834	0.226
835	0.226
835	0.225
835	0.225
836	0.225
836	0.226
837	0.225
837	0.225
838	0.225
838	0.225
839	0.225
839	0.224
839	0.223
840	0.222
840	0.221
841	0.22
841	0.219
842	0.218
842	0.218
842	0.217
843	0.216
843	0.216
844	0.215
844	0.215
845	0.215
845	0.214
845	0.214
846	0.214
846	0.215
847	0.215
847	0.215
848	0.216
848	0.217
848	0.217
849	0.218
849	0.219
850	0.22
850	0.22
851	0.221
851	0.222
851	0.222
852	0.221
852	0.221
853	0.221
853	0.221
854	0.221
854	0.221
854	0.221
855	0.222
855	0.222
856	0.223
856	0.223
857	0.224
857	0.225
857	0.225
858	0.225
858	0.225
859	0.224
859	0.223
860	0.223
860	0.222
860	0.221
861	0.221
861	0.22
862	0.219
862	0.219
863	0.218
863	0.218
863	0.218
864	0.218
864	0.219
865	0.219
865	0.22
866	0.22
866	0.22
866	0.22
867	0.221
867	0.222
868	0.223
868	0.223
869	0.224
869	0.224
869	0.224
870	0.224
870	0.224
871	0.225
871	0.225
872	0.225
872	0.225
872	0.225
873	0.224
873	0.224
874	0.223
874	0.222
875	0.221
875	0.221
875	0.22
876	0.219
876	0.219
877	0.218
877	0.218
878	0.218
878	0.218
878	0.218
879	0.218
879	0.219
880	0.219
880	0.219
881	0.219
881	0.219
881	0.219
882	0.219
882	0.219
883	0.219
883	0.219
884	0.219
884	0.219
884	0.219
885	0.219
885	0.219
886	0.218
886	0.218
887	0.217
887	0.217
887	0.216
888	0.215
888	0.214
889	0.213
889	0.213
890	0.213
890	0.213
890	0.213
891	0.212
891	0.213
892	0.213
892	0.213
893	0.213
893	0.213
893	0.213
894	0.213
894	0.213
895	0.213
895	0.213
895	0.213
896	0.214
896	0.214
897	0.214
897	0.214
898	0.214
898	0.214
898	0.214
899	0.214
899	0.213
900	0.213
900	0.212
901	0.212
901	0.211
901	0.21
902	0.21
902	0.209
903	0.208
903	0.207
904	0.207
904	0.206
904	0.205
905	0.205
905	0.204
906	0.204
906	0.204
907	0.204
907	0.204
907	0.204
908	0.204
908	0.204
909	0.204
909	0.204
910	0.203
910	0.203
910	0.203
911	0.203
911	0.202
912	0.202
912	0.202
913	0.202
913	0.202
913	0.202
914	0.202
914	0.202
915	0.203
915	0.203
916	0.203
916	0.203
916	0.203
917	0.203
917	0.203
918	0.202
918	0.202
918	0.201
919	0.201
919	0.201
920	0.2
920	0.2
921	0.2
921	0.2
921	0.199
922	0.199
922	0.199
923	0.199
923	0.199
924	0.2
924	0.2
924	0.2
925	0.201
925	0.201
926	0.201
926	0.202
927	0.202
927	0.202
927	0.202
928	0.201
928	0.201
929	0.2
929	0.199
930	0.198
930	0.197
930	0.196
931	0.195
931	0.194
932	0.194
932	0.193
933	0.193
933	0.192
933	0.192
934	0.192
934	0.191
935	0.191
935	0.191
935	0.191
936	0.191
936	0.191
937	0.191
937	0.191
938	0.191
938	0.19
938	0.19
939	0.189
939	0.189
940	0.188
940	0.188
941	0.187
941	0.187
941	0.187
942	0.186
942	0.186
943	0.186
943	0.185
944	0.185
944	0.185
944	0.185
945	0.185
945	0.185
946	0.185
946	0.185
946	0.186
947	0.186
947	0.186
948	0.186
948	0.186
949	0.185
949	0.185
949	0.184
950	0.184
950	0.183
951	0.183
951	0.182
952	0.181
952	0.18
952	0.18
953	0.179
953	0.179
954	0.179
954	0.179
955	0.179
955	0.178
955	0.178
956	0.178
956	0.178
957	0.178
957	0.178
957	0.178
958	0.178
958	0.177
959	0.177
959	0.176
960	0.176
960	0.175
960	0.175
961	0.174
961	0.174
962	0.174
962	0.173
963	0.173
963	0.173
963	0.173
964	0.173
964	0.174
965	0.174
965	0.174
966	0.174
966	0.174
966	0.174
967	0.174
967	0.174
968	0.174
968	0.174
968	0.173
969	0.173
969	0.172
970	0.171
970	0.17
971	0.17
971	0.169
971	0.168
972	0.168
972	0.167
973	0.167
973	0.166
974	0.166
974	0.166
974	0.166
975	0.166
975	0.166
976	0.166
976	0.167
976	0.166
977	0.167
977	0.166
978	0.166
978	0.166
979	0.165
979	0.165
979	0.165
980	0.164
980	0.164
981	0.163
981	0.163
982	0.162
982	0.162
982	0.161
983	0.161
983	0.16
984	0.16
984	0.159
984	0.159
985	0.159
985	0.159
986	0.159
986	0.158
987	0.158
987	0.158
987	0.158
988	0.157
988	0.157
989	0.157
989	0.156
990	0.155
990	0.155
990	0.154
991	0.153
991	0.153
992	0.152
992	0.151
992	0.151
993	0.15
993	0.149
994	0.148
994	0.148
995	0.147
995	0.147
995	0.147
996	0.147
996	0.147
997	0.147
997	0.148
997	0.148
998	0.148
998	0.149
999	0.15
999	0.151
1000	0.151
1000	0.152
1000	0.152
1001	0.152
1001	0.152
1002	0.152
1002	0.152
1003	0.151
1003	0.15
1003	0.15
1004	0.149
1004	0.148
1005	0.147
1005	0.147
1005	0.146
1006	0.145
1006	0.145
1007	0.145
1007	0.145
1008	0.145
1008	0.145
1008	0.145
1009	0.145
1009	0.145
1010	0.145
1010	0.146
1010	0.146
1011	0.146
1011	0.145
1012	0.145
1012	0.145
1013	0.145
1013	0.144
1013	0.144
1014	0.144
1014	0.143
1015	0.143
1015	0.143
1016	0.143
1016	0.143
1016	0.142
1017	0.142
1017	0.141
1018	0.141
1018	0.14
1018	0.14
1019	0.14
1019	0.139
1020	0.139
1020	0.139
1021	0.139
1021	0.139
1021	0.139
1022	0.139
1022	0.139
1023	0.139
1023	0.139
1023	0.14
1024	0.14
1024	0.14
1025	0.14
1025	0.139
1026	0.139
1026	0.139
1026	0.138
1027	0.138
1027	0.138
1028	0.137
1028	0.137
1028	0.137
1029	0.136
1029	0.136
1030	0.136
1030	0.136
1031	0.136
1031	0.136
1031	0.136
1032	0.136
1032	0.136
1033	0.136
1033	0.136
1033	0.136
1034	0.136
1034	0.136
1035	0.135
1035	0.135
1036	0.135
1036	0.135
1036	0.135
1037	0.135
1037	0.135
1038	0.135
1038	0.135
1039	0.135
1039	0.135
1039	0.135
1040	0.135
1040	0.135
1041	0.135
1041	0.135
1041	0.135
1042	0.135
1042	0.134
1043	0.134
1043	0.134
1044	0.134
1044	0.134
1044	0.134
1045	0.134
1045	0.133
1046	0.134
1046	0.134
1046	0.133
1047	0.134
1047	0.134
1048	0.134
1048	0.134
1049	0.134
1049	0.134
1049	0.134
1050	0.133
1050	0.133
1051	0.132
1051	0.131
1051	0.131
1052	0.13
1052	0.129
1053	0.128
1053	0.127
1053	0.126
1054	0.125
1054	0.124
1055	0.124
1055	0.123
1056	0.122
1056	0.122
1056	0.121
1057	0.12
1057	0.12
1058	0.119
1058	0.119
1058	0.118
1059	0.117
1059	0.117
1060	0.116
1060	0.115
1061	0.114
1061	0.114
1061	0.114
1062	0.113
1062	0.113
1063	0.112
1063	0.112
1063	0.112
1064	0.111
1064	0.111
1065	0.111
1065	0.111
1066	0.111
1066	0.11
1066	0.11
1067	0.11
1067	0.11
1068	0.109
1068	0.109
1068	0.109
1069	0.109
1069	0.108
1070	0.107
1070	0.106
1071	0.105
1071	0.105
1071	0.104
1072	0.103
1072	0.102
1073	0.102
1073	0.101
1073	0.1
1074	0.1
1074	0.1
1075	0.1
1075	0.1
1076	0.1
1076	0.101
1076	0.1
1077	0.1
1077	0.1
1078	0.1
1078	0.1
1078	0.1
1079	0.099
1079	0.099
1080	0.098
1080	0.098
1080	0.097
1081	0.098
1081	0.098
1082	0.097
1082	0.098
1083	0.098
1083	0.097
1083	0.098
1084	0.098
1084	0.098
1085	0.098
1085	0.098
1085	0.098
1086	0.098
1086	0.098
1087	0.097
1087	0.096
1088	0.096
1088	0.095
1088	0.095
1089	0.094
1089	0.093
1090	0.093
1090	0.092
1090	0.09
1091	0.09
1091	0.089
1092	0.089
1092	0.089
1092	0.089
1093	0.089
1093	0.089
1094	0.088
1094	0.088
1095	0.087
1095	0.086
1095	0.086
1096	0.086
1096	0.085
1097	0.084
1097	0.083
1097	0.083
1098	0.082
1098	0.08
1099	0.079
1099	0.077
1100	0.077
1100	0.075
1100	0.073
1101	0.072
1101	0.07
1102	0.069
1102	0.067
1102	0.065
1103	0.065
1103	0.064
1104	0.064
1104	0.063
1104	0.063
1105	0.061
1105	0.059
1106	0.058
1106	0.057
1107	0.055
1107	0.055
1107	0.054
1108	0.053
1108	0.052
1109	0.05
1109	0.049
1109	0.049
1110	0.051
1110	0.05
1111	0.049
1111	0.052
