Data from reversibility-20sec_Absorbance__3866__000000000003866.txt Node

Date: Wed Dec 06 09:41:46 CET 2023
User: Marek
Spectrometer: MAYP115816
Trigger mode: 0
Integration Time (sec): 2.000000E-1
Scans to average: 10
Electric dark correction enabled: true
Nonlinearity correction enabled: true
Boxcar width: 5
XAxis mode: Wavelengths
Number of Pixels in Spectrum: 2068
>>>>>Begin Spectral Data<<<<<
199	-0.14
199	-0.116
200	-0.05
200	-0.001
201	0.028
201	0.043
202	0.058
202	0.064
203	0.07
203	0.072
204	0.083
204	0.095
205	0.107
205	0.112
205	0.11
206	0.11
206	0.11
207	0.11
207	0.112
208	0.11
208	0.114
209	0.116
209	0.116
210	0.116
210	0.118
211	0.12
211	0.123
212	0.123
212	0.124
213	0.128
213	0.132
213	0.13
214	0.132
214	0.137
215	0.139
215	0.137
216	0.138
216	0.137
217	0.14
217	0.142
218	0.139
218	0.143
219	0.148
219	0.15
220	0.151
220	0.153
221	0.154
221	0.158
221	0.165
222	0.169
222	0.174
223	0.182
223	0.186
224	0.194
224	0.205
225	0.212
225	0.224
226	0.235
226	0.246
227	0.256
227	0.267
228	0.279
228	0.294
229	0.309
229	0.333
229	0.353
230	0.377
230	0.407
231	0.437
231	0.472
232	0.508
232	0.553
233	0.598
233	0.647
234	0.7
234	0.749
235	0.803
235	0.857
236	0.907
236	0.96
236	1.015
237	1.068
237	1.117
238	1.165
238	1.211
239	1.255
239	1.297
240	1.334
240	1.369
241	1.403
241	1.435
242	1.465
242	1.497
243	1.528
243	1.555
243	1.582
244	1.603
244	1.625
245	1.644
245	1.667
246	1.689
246	1.706
247	1.718
247	1.731
248	1.743
248	1.753
249	1.761
249	1.769
250	1.778
250	1.787
250	1.789
251	1.793
251	1.797
252	1.804
252	1.806
253	1.807
253	1.808
254	1.809
254	1.81
255	1.806
255	1.807
256	1.806
256	1.805
257	1.805
257	1.803
258	1.801
258	1.8
258	1.798
259	1.796
259	1.795
260	1.795
260	1.794
261	1.794
261	1.796
262	1.798
262	1.798
263	1.8
263	1.798
264	1.798
264	1.799
265	1.8
265	1.799
265	1.801
266	1.799
266	1.799
267	1.795
267	1.796
268	1.793
268	1.794
269	1.796
269	1.795
270	1.795
270	1.794
271	1.791
271	1.792
272	1.789
272	1.788
272	1.784
273	1.78
273	1.776
274	1.771
274	1.766
275	1.76
275	1.755
276	1.748
276	1.741
277	1.732
277	1.723
278	1.713
278	1.702
278	1.689
279	1.676
279	1.659
280	1.639
280	1.614
281	1.586
281	1.554
282	1.521
282	1.486
283	1.45
283	1.415
284	1.38
284	1.345
285	1.312
285	1.282
285	1.254
286	1.229
286	1.206
287	1.186
287	1.169
288	1.154
288	1.141
289	1.13
289	1.12
290	1.111
290	1.104
291	1.097
291	1.091
292	1.086
292	1.081
292	1.076
293	1.072
293	1.068
294	1.064
294	1.06
295	1.057
295	1.053
296	1.049
296	1.046
297	1.043
297	1.04
298	1.037
298	1.033
298	1.03
299	1.027
299	1.024
300	1.021
300	1.018
301	1.015
301	1.013
302	1.01
302	1.007
303	1.004
303	1.001
304	0.998
304	0.996
305	0.993
305	0.99
305	0.987
306	0.984
306	0.982
307	0.979
307	0.976
308	0.974
308	0.971
309	0.968
309	0.965
310	0.962
310	0.958
311	0.955
311	0.952
311	0.948
312	0.944
312	0.941
313	0.937
313	0.933
314	0.929
314	0.925
315	0.921
315	0.917
316	0.912
316	0.908
317	0.903
317	0.898
318	0.893
318	0.888
318	0.882
319	0.878
319	0.872
320	0.866
320	0.861
321	0.855
321	0.849
322	0.843
322	0.837
323	0.83
323	0.824
324	0.818
324	0.811
324	0.804
325	0.798
325	0.791
326	0.785
326	0.778
327	0.771
327	0.765
328	0.758
328	0.752
329	0.745
329	0.738
330	0.731
330	0.724
330	0.717
331	0.711
331	0.704
332	0.697
332	0.69
333	0.683
333	0.677
334	0.67
334	0.663
335	0.657
335	0.65
336	0.643
336	0.637
336	0.631
337	0.624
337	0.618
338	0.612
338	0.606
339	0.6
339	0.594
340	0.589
340	0.583
341	0.578
341	0.572
342	0.567
342	0.562
342	0.557
343	0.552
343	0.547
344	0.542
344	0.537
345	0.533
345	0.528
346	0.524
346	0.519
347	0.515
347	0.511
348	0.507
348	0.503
348	0.499
349	0.495
349	0.492
350	0.488
350	0.484
351	0.481
351	0.477
352	0.474
352	0.471
353	0.468
353	0.465
354	0.462
354	0.459
354	0.456
355	0.453
355	0.449
356	0.447
356	0.444
357	0.44
357	0.437
358	0.435
358	0.432
359	0.429
359	0.427
360	0.425
360	0.423
360	0.421
361	0.419
361	0.417
362	0.416
362	0.414
363	0.412
363	0.41
364	0.408
364	0.406
365	0.404
365	0.402
366	0.401
366	0.399
366	0.397
367	0.395
367	0.393
368	0.392
368	0.39
369	0.389
369	0.387
370	0.385
370	0.384
371	0.382
371	0.381
372	0.379
372	0.378
372	0.377
373	0.376
373	0.375
374	0.373
374	0.372
375	0.371
375	0.37
376	0.369
376	0.368
377	0.367
377	0.366
378	0.365
378	0.363
378	0.362
379	0.361
379	0.36
380	0.359
380	0.358
381	0.357
381	0.356
382	0.355
382	0.355
383	0.354
383	0.353
383	0.353
384	0.352
384	0.351
385	0.351
385	0.35
386	0.349
386	0.349
387	0.348
387	0.348
388	0.347
388	0.346
389	0.346
389	0.345
389	0.344
390	0.344
390	0.343
391	0.342
391	0.342
392	0.342
392	0.341
393	0.34
393	0.34
394	0.339
394	0.339
394	0.338
395	0.338
395	0.338
396	0.337
396	0.336
397	0.336
397	0.335
398	0.335
398	0.334
399	0.334
399	0.333
400	0.333
400	0.332
400	0.332
401	0.331
401	0.331
402	0.33
402	0.33
403	0.329
403	0.329
404	0.328
404	0.328
405	0.327
405	0.327
405	0.327
406	0.326
406	0.326
407	0.325
407	0.325
408	0.325
408	0.324
409	0.324
409	0.324
410	0.323
410	0.323
411	0.323
411	0.322
411	0.322
412	0.322
412	0.322
413	0.321
413	0.321
414	0.321
414	0.32
415	0.32
415	0.32
416	0.319
416	0.319
416	0.318
417	0.318
417	0.317
418	0.317
418	0.317
419	0.316
419	0.316
420	0.315
420	0.315
421	0.315
421	0.314
421	0.314
422	0.314
422	0.313
423	0.313
423	0.313
424	0.312
424	0.312
425	0.312
425	0.311
426	0.311
426	0.31
427	0.31
427	0.31
427	0.309
428	0.309
428	0.308
429	0.308
429	0.308
430	0.307
430	0.307
431	0.307
431	0.307
432	0.307
432	0.307
432	0.306
433	0.306
433	0.306
434	0.306
434	0.306
435	0.306
435	0.306
436	0.306
436	0.306
437	0.306
437	0.306
437	0.305
438	0.305
438	0.305
439	0.305
439	0.305
440	0.304
440	0.304
441	0.304
441	0.304
442	0.303
442	0.303
442	0.303
443	0.303
443	0.303
444	0.303
444	0.302
445	0.302
445	0.302
446	0.302
446	0.302
447	0.302
447	0.302
447	0.302
448	0.302
448	0.302
449	0.302
449	0.302
450	0.302
450	0.302
451	0.302
451	0.302
452	0.302
452	0.302
452	0.302
453	0.302
453	0.302
454	0.302
454	0.302
455	0.301
455	0.301
456	0.301
456	0.301
457	0.301
457	0.301
458	0.301
458	0.301
458	0.302
459	0.302
459	0.302
460	0.302
460	0.303
461	0.303
461	0.303
462	0.303
462	0.303
463	0.304
463	0.304
463	0.304
464	0.304
464	0.304
465	0.304
465	0.304
466	0.304
466	0.304
467	0.305
467	0.305
467	0.305
468	0.305
468	0.306
469	0.306
469	0.307
470	0.307
470	0.308
471	0.308
471	0.308
472	0.309
472	0.309
472	0.31
473	0.31
473	0.31
474	0.311
474	0.311
475	0.311
475	0.311
476	0.312
476	0.313
477	0.313
477	0.314
477	0.314
478	0.315
478	0.315
479	0.316
479	0.317
480	0.318
480	0.319
481	0.319
481	0.32
482	0.321
482	0.322
482	0.323
483	0.324
483	0.325
484	0.326
484	0.326
485	0.327
485	0.328
486	0.328
486	0.329
487	0.33
487	0.331
487	0.332
488	0.333
488	0.334
489	0.335
489	0.337
490	0.338
490	0.34
491	0.341
491	0.342
492	0.344
492	0.345
492	0.347
493	0.348
493	0.349
494	0.351
494	0.352
495	0.353
495	0.355
496	0.356
496	0.358
496	0.359
497	0.361
497	0.362
498	0.364
498	0.365
499	0.366
499	0.368
500	0.369
500	0.371
501	0.373
501	0.374
501	0.375
502	0.376
502	0.378
503	0.379
503	0.381
504	0.382
504	0.384
505	0.385
505	0.387
506	0.388
506	0.389
506	0.391
507	0.392
507	0.394
508	0.395
508	0.396
509	0.397
509	0.398
510	0.399
510	0.4
511	0.402
511	0.403
511	0.404
512	0.405
512	0.406
513	0.407
513	0.408
514	0.409
514	0.41
515	0.411
515	0.411
515	0.412
516	0.412
516	0.413
517	0.414
517	0.414
518	0.415
518	0.415
519	0.416
519	0.416
520	0.417
520	0.417
520	0.417
521	0.417
521	0.417
522	0.417
522	0.418
523	0.417
523	0.417
524	0.417
524	0.417
524	0.416
525	0.416
525	0.415
526	0.415
526	0.414
527	0.413
527	0.412
528	0.411
528	0.41
529	0.409
529	0.408
529	0.407
530	0.406
530	0.405
531	0.404
531	0.403
532	0.401
532	0.4
533	0.398
533	0.397
533	0.396
534	0.394
534	0.392
535	0.39
535	0.388
536	0.387
536	0.385
537	0.383
537	0.381
538	0.379
538	0.376
538	0.374
539	0.372
539	0.371
540	0.369
540	0.367
541	0.364
541	0.362
542	0.36
542	0.358
542	0.356
543	0.353
543	0.351
544	0.349
544	0.346
545	0.344
545	0.342
546	0.34
546	0.337
547	0.335
547	0.333
547	0.33
548	0.328
548	0.326
549	0.323
549	0.321
550	0.319
550	0.316
551	0.313
551	0.31
551	0.307
552	0.305
552	0.303
553	0.301
553	0.299
554	0.296
554	0.294
555	0.291
555	0.289
556	0.287
556	0.285
556	0.283
557	0.281
557	0.279
558	0.277
558	0.275
559	0.273
559	0.27
560	0.269
560	0.267
560	0.265
561	0.263
561	0.261
562	0.259
562	0.256
563	0.254
563	0.252
564	0.249
564	0.247
564	0.245
565	0.243
565	0.241
566	0.239
566	0.237
567	0.235
567	0.233
568	0.231
568	0.229
568	0.227
569	0.226
569	0.224
570	0.222
570	0.219
571	0.218
571	0.216
572	0.214
572	0.213
573	0.211
573	0.21
573	0.208
574	0.207
574	0.206
575	0.204
575	0.203
576	0.202
576	0.2
577	0.198
577	0.196
577	0.195
578	0.194
578	0.192
579	0.192
579	0.191
580	0.189
580	0.187
581	0.186
581	0.185
581	0.184
582	0.183
582	0.182
583	0.181
583	0.18
584	0.178
584	0.176
585	0.175
585	0.173
585	0.172
586	0.171
586	0.17
587	0.169
587	0.168
588	0.167
588	0.166
589	0.165
589	0.164
590	0.163
590	0.162
590	0.162
591	0.161
591	0.159
592	0.158
592	0.156
593	0.155
593	0.154
594	0.153
594	0.152
594	0.151
595	0.15
595	0.149
596	0.147
596	0.147
597	0.147
597	0.147
598	0.146
598	0.146
598	0.145
599	0.145
599	0.144
600	0.143
600	0.143
601	0.142
601	0.141
602	0.14
602	0.139
602	0.138
603	0.137
603	0.137
604	0.136
604	0.135
605	0.135
605	0.134
606	0.134
606	0.133
606	0.132
607	0.132
607	0.131
608	0.13
608	0.129
609	0.128
609	0.128
610	0.127
610	0.126
610	0.125
611	0.125
611	0.125
612	0.124
612	0.124
613	0.124
613	0.124
614	0.123
614	0.122
614	0.122
615	0.122
615	0.122
616	0.121
616	0.121
617	0.12
617	0.12
618	0.119
618	0.119
618	0.119
619	0.119
619	0.118
620	0.118
620	0.117
621	0.117
621	0.116
622	0.115
622	0.114
622	0.113
623	0.112
623	0.112
624	0.112
624	0.111
625	0.11
625	0.11
626	0.11
626	0.11
626	0.11
627	0.109
627	0.109
628	0.109
628	0.108
629	0.108
629	0.107
630	0.107
630	0.106
630	0.106
631	0.105
631	0.105
632	0.104
632	0.104
633	0.104
633	0.103
634	0.103
634	0.104
634	0.103
635	0.103
635	0.103
636	0.103
636	0.103
637	0.102
637	0.102
638	0.101
638	0.101
638	0.101
639	0.1
639	0.099
640	0.099
640	0.098
641	0.098
641	0.098
642	0.097
642	0.097
642	0.096
643	0.096
643	0.096
644	0.096
644	0.096
645	0.096
645	0.096
646	0.096
646	0.096
646	0.096
647	0.096
647	0.096
648	0.095
648	0.094
649	0.094
649	0.094
650	0.093
650	0.093
650	0.093
651	0.093
651	0.093
652	0.092
652	0.093
653	0.093
653	0.094
653	0.099
654	0.08
654	0.065
655	0.063
655	0.063
656	0.063
656	0.063
657	0.063
657	0.063
657	0.063
658	0.062
658	0.055
659	0.068
659	0.086
660	0.09
660	0.09
661	0.089
661	0.088
661	0.087
662	0.087
662	0.086
663	0.085
663	0.084
664	0.084
664	0.084
665	0.083
665	0.083
665	0.083
666	0.083
666	0.083
667	0.084
667	0.084
668	0.084
668	0.084
669	0.084
669	0.085
669	0.085
670	0.085
670	0.085
671	0.085
671	0.084
672	0.084
672	0.083
672	0.082
673	0.082
673	0.081
674	0.081
674	0.08
675	0.08
675	0.08
676	0.08
676	0.08
676	0.081
677	0.081
677	0.081
678	0.082
678	0.082
679	0.081
679	0.082
680	0.081
680	0.081
680	0.08
681	0.08
681	0.08
682	0.08
682	0.08
683	0.08
683	0.08
684	0.08
684	0.08
684	0.08
685	0.08
685	0.08
686	0.08
686	0.08
687	0.08
687	0.08
687	0.08
688	0.08
688	0.08
689	0.081
689	0.081
690	0.081
690	0.08
691	0.08
691	0.08
691	0.079
692	0.079
692	0.079
693	0.079
693	0.078
694	0.078
694	0.078
695	0.078
695	0.079
695	0.079
696	0.079
696	0.079
697	0.079
697	0.079
698	0.079
698	0.078
698	0.079
699	0.079
699	0.078
700	0.077
700	0.077
701	0.076
701	0.076
702	0.075
702	0.074
702	0.074
703	0.074
703	0.073
704	0.073
704	0.073
705	0.073
705	0.073
705	0.073
706	0.073
706	0.073
707	0.073
707	0.073
708	0.074
708	0.074
709	0.074
709	0.073
709	0.072
710	0.072
710	0.072
711	0.072
711	0.072
712	0.071
712	0.071
713	0.071
713	0.071
713	0.07
714	0.07
714	0.07
715	0.07
715	0.069
716	0.068
716	0.068
716	0.067
717	0.066
717	0.066
718	0.065
718	0.065
719	0.065
719	0.065
720	0.065
720	0.066
720	0.066
721	0.067
721	0.067
722	0.068
722	0.068
723	0.068
723	0.068
723	0.068
724	0.067
724	0.067
725	0.066
725	0.065
726	0.064
726	0.064
727	0.063
727	0.063
727	0.063
728	0.062
728	0.062
729	0.063
729	0.063
730	0.064
730	0.064
730	0.065
731	0.065
731	0.066
732	0.066
732	0.066
733	0.066
733	0.066
734	0.065
734	0.065
734	0.065
735	0.065
735	0.064
736	0.063
736	0.062
737	0.061
737	0.061
737	0.06
738	0.06
738	0.059
739	0.058
739	0.058
740	0.058
740	0.058
741	0.058
741	0.058
741	0.059
742	0.059
742	0.059
743	0.06
743	0.06
744	0.061
744	0.061
744	0.061
745	0.061
745	0.061
746	0.061
746	0.061
747	0.061
747	0.061
748	0.06
748	0.06
748	0.06
749	0.06
749	0.06
750	0.06
750	0.06
751	0.06
751	0.06
751	0.06
752	0.06
752	0.06
753	0.059
753	0.059
754	0.059
754	0.058
754	0.058
755	0.057
755	0.057
756	0.056
756	0.055
757	0.055
757	0.055
758	0.055
758	0.054
758	0.054
759	0.055
759	0.054
760	0.054
760	0.054
761	0.055
761	0.055
761	0.056
762	0.056
762	0.056
763	0.055
763	0.055
764	0.054
764	0.054
764	0.054
765	0.053
765	0.053
766	0.053
766	0.053
767	0.053
767	0.052
768	0.052
768	0.053
768	0.053
769	0.053
769	0.054
770	0.054
770	0.054
771	0.054
771	0.054
771	0.054
772	0.054
772	0.055
773	0.054
773	0.054
774	0.054
774	0.054
775	0.054
775	0.054
775	0.055
776	0.055
776	0.055
777	0.056
777	0.056
778	0.056
778	0.055
778	0.055
779	0.055
779	0.054
780	0.053
780	0.053
781	0.052
781	0.052
781	0.051
782	0.051
782	0.051
783	0.051
783	0.051
784	0.051
784	0.051
784	0.052
785	0.052
785	0.052
786	0.053
786	0.053
787	0.054
787	0.053
788	0.053
788	0.052
788	0.052
789	0.052
789	0.052
790	0.051
790	0.051
791	0.05
791	0.05
791	0.049
792	0.049
792	0.05
793	0.049
793	0.049
794	0.049
794	0.048
794	0.048
795	0.048
795	0.049
796	0.049
796	0.049
797	0.048
797	0.049
797	0.049
798	0.049
798	0.049
799	0.049
799	0.049
800	0.048
800	0.048
801	0.047
801	0.047
801	0.047
802	0.047
802	0.047
803	0.047
803	0.047
804	0.047
804	0.048
804	0.048
805	0.048
805	0.048
806	0.048
806	0.048
807	0.048
807	0.048
807	0.048
808	0.048
808	0.048
809	0.048
809	0.048
810	0.049
810	0.049
810	0.049
811	0.049
811	0.049
812	0.05
812	0.05
813	0.05
813	0.05
813	0.051
814	0.051
814	0.051
815	0.051
815	0.051
816	0.051
816	0.051
817	0.05
817	0.05
817	0.05
818	0.049
818	0.049
819	0.048
819	0.048
820	0.047
820	0.046
820	0.046
821	0.046
821	0.046
822	0.046
822	0.045
823	0.045
823	0.045
823	0.046
824	0.047
824	0.048
825	0.049
825	0.05
826	0.051
826	0.051
826	0.051
827	0.052
827	0.052
828	0.052
828	0.052
829	0.052
829	0.052
829	0.051
830	0.051
830	0.052
831	0.052
831	0.052
832	0.052
832	0.052
832	0.052
833	0.051
833	0.051
834	0.05
834	0.049
835	0.049
835	0.048
835	0.047
836	0.046
836	0.046
837	0.046
837	0.046
838	0.045
838	0.045
839	0.045
839	0.045
839	0.044
840	0.044
840	0.044
841	0.043
841	0.043
842	0.043
842	0.043
842	0.043
843	0.043
843	0.043
844	0.043
844	0.043
845	0.044
845	0.044
845	0.045
846	0.045
846	0.045
847	0.045
847	0.045
848	0.045
848	0.045
848	0.045
849	0.044
849	0.044
850	0.044
850	0.043
851	0.043
851	0.043
851	0.042
852	0.042
852	0.042
853	0.041
853	0.041
854	0.041
854	0.042
854	0.042
855	0.042
855	0.043
856	0.043
856	0.044
857	0.044
857	0.045
857	0.046
858	0.046
858	0.046
859	0.046
859	0.046
860	0.046
860	0.045
860	0.045
861	0.044
861	0.044
862	0.043
862	0.042
863	0.042
863	0.042
863	0.042
864	0.041
864	0.041
865	0.042
865	0.042
866	0.042
866	0.042
866	0.042
867	0.043
867	0.043
868	0.043
868	0.042
869	0.042
869	0.041
869	0.041
870	0.04
870	0.04
871	0.04
871	0.04
872	0.04
872	0.041
872	0.041
873	0.041
873	0.041
874	0.041
874	0.041
875	0.04
875	0.04
875	0.04
876	0.039
876	0.039
877	0.038
877	0.038
878	0.038
878	0.038
878	0.039
879	0.039
879	0.039
880	0.039
880	0.039
881	0.039
881	0.039
881	0.039
882	0.039
882	0.039
883	0.039
883	0.039
884	0.039
884	0.039
884	0.039
885	0.039
885	0.039
886	0.039
886	0.039
887	0.039
887	0.039
887	0.04
888	0.04
888	0.04
889	0.04
889	0.04
890	0.04
890	0.041
890	0.041
891	0.04
891	0.04
892	0.04
892	0.04
893	0.04
893	0.039
893	0.039
894	0.038
894	0.038
895	0.037
895	0.036
895	0.036
896	0.036
896	0.035
897	0.035
897	0.034
898	0.033
898	0.033
898	0.033
899	0.032
899	0.033
900	0.033
900	0.033
901	0.033
901	0.034
901	0.034
902	0.034
902	0.035
903	0.035
903	0.035
904	0.035
904	0.035
904	0.035
905	0.035
905	0.036
906	0.036
906	0.037
907	0.037
907	0.038
907	0.038
908	0.039
908	0.039
909	0.04
909	0.04
910	0.041
910	0.041
910	0.041
911	0.041
911	0.041
912	0.041
912	0.041
913	0.041
913	0.041
913	0.041
914	0.041
914	0.04
915	0.04
915	0.04
916	0.039
916	0.039
916	0.038
917	0.038
917	0.037
918	0.037
918	0.037
918	0.036
919	0.036
919	0.036
920	0.036
920	0.036
921	0.036
921	0.036
921	0.036
922	0.036
922	0.037
923	0.037
923	0.038
924	0.038
924	0.039
924	0.039
925	0.039
925	0.039
926	0.04
926	0.04
927	0.039
927	0.039
927	0.039
928	0.039
928	0.039
929	0.039
929	0.039
930	0.039
930	0.039
930	0.039
931	0.039
931	0.039
932	0.039
932	0.039
933	0.04
933	0.04
933	0.04
934	0.04
934	0.04
935	0.04
935	0.04
935	0.04
936	0.04
936	0.04
937	0.04
937	0.04
938	0.04
938	0.039
938	0.038
939	0.038
939	0.037
940	0.036
940	0.035
941	0.035
941	0.034
941	0.034
942	0.034
942	0.033
943	0.033
943	0.033
944	0.033
944	0.033
944	0.033
945	0.034
945	0.034
946	0.034
946	0.034
946	0.035
947	0.036
947	0.036
948	0.037
948	0.038
949	0.038
949	0.039
949	0.039
950	0.04
950	0.04
951	0.041
951	0.041
952	0.04
952	0.04
952	0.039
953	0.038
953	0.037
954	0.036
954	0.036
955	0.035
955	0.034
955	0.033
956	0.033
956	0.033
957	0.033
957	0.033
957	0.033
958	0.033
958	0.033
959	0.034
959	0.034
960	0.034
960	0.035
960	0.035
961	0.036
961	0.036
962	0.036
962	0.037
963	0.037
963	0.037
963	0.038
964	0.038
964	0.038
965	0.039
965	0.039
966	0.04
966	0.04
966	0.041
967	0.041
967	0.042
968	0.042
968	0.042
968	0.042
969	0.042
969	0.042
970	0.041
970	0.041
971	0.04
971	0.039
971	0.039
972	0.038
972	0.037
973	0.036
973	0.036
974	0.035
974	0.035
974	0.035
975	0.035
975	0.035
976	0.035
976	0.036
976	0.036
977	0.036
977	0.036
978	0.036
978	0.036
979	0.036
979	0.035
979	0.035
980	0.035
980	0.035
981	0.035
981	0.035
982	0.035
982	0.034
982	0.035
983	0.035
983	0.035
984	0.035
984	0.035
984	0.035
985	0.035
985	0.035
986	0.035
986	0.035
987	0.035
987	0.035
987	0.035
988	0.035
988	0.035
989	0.034
989	0.034
990	0.033
990	0.033
990	0.032
991	0.032
991	0.032
992	0.032
992	0.031
992	0.031
993	0.031
993	0.03
994	0.03
994	0.03
995	0.03
995	0.03
995	0.03
996	0.031
996	0.031
997	0.031
997	0.032
997	0.032
998	0.033
998	0.033
999	0.034
999	0.034
1000	0.035
1000	0.035
1000	0.035
1001	0.035
1001	0.036
1002	0.035
1002	0.035
1003	0.034
1003	0.034
1003	0.033
1004	0.032
1004	0.032
1005	0.031
1005	0.03
1005	0.029
1006	0.029
1006	0.029
1007	0.028
1007	0.028
1008	0.028
1008	0.029
1008	0.029
1009	0.03
1009	0.03
1010	0.03
1010	0.031
1010	0.031
1011	0.031
1011	0.031
1012	0.031
1012	0.031
1013	0.031
1013	0.03
1013	0.03
1014	0.03
1014	0.03
1015	0.03
1015	0.029
1016	0.029
1016	0.029
1016	0.028
1017	0.028
1017	0.028
1018	0.027
1018	0.027
1018	0.027
1019	0.027
1019	0.026
1020	0.026
1020	0.026
1021	0.026
1021	0.026
1021	0.027
1022	0.027
1022	0.027
1023	0.027
1023	0.027
1023	0.028
1024	0.028
1024	0.028
1025	0.028
1025	0.028
1026	0.028
1026	0.028
1026	0.028
1027	0.028
1027	0.028
1028	0.028
1028	0.028
1028	0.028
1029	0.028
1029	0.028
1030	0.028
1030	0.029
1031	0.029
1031	0.029
1031	0.029
1032	0.03
1032	0.03
1033	0.03
1033	0.03
1033	0.03
1034	0.03
1034	0.029
1035	0.029
1035	0.029
1036	0.029
1036	0.028
1036	0.028
1037	0.028
1037	0.027
1038	0.027
1038	0.026
1039	0.026
1039	0.026
1039	0.026
1040	0.026
1040	0.026
1041	0.026
1041	0.026
1041	0.026
1042	0.027
1042	0.027
1043	0.028
1043	0.028
1044	0.028
1044	0.029
1044	0.029
1045	0.03
1045	0.03
1046	0.031
1046	0.031
1046	0.031
1047	0.032
1047	0.032
1048	0.033
1048	0.033
1049	0.033
1049	0.034
1049	0.034
1050	0.034
1050	0.034
1051	0.034
1051	0.034
1051	0.034
1052	0.034
1052	0.034
1053	0.033
1053	0.033
1053	0.032
1054	0.032
1054	0.031
1055	0.031
1055	0.031
1056	0.03
1056	0.03
1056	0.029
1057	0.028
1057	0.028
1058	0.027
1058	0.026
1058	0.026
1059	0.025
1059	0.025
1060	0.025
1060	0.024
1061	0.024
1061	0.024
1061	0.024
1062	0.024
1062	0.025
1063	0.025
1063	0.025
1063	0.025
1064	0.025
1064	0.026
1065	0.026
1065	0.026
1066	0.026
1066	0.026
1066	0.026
1067	0.026
1067	0.026
1068	0.026
1068	0.026
1068	0.026
1069	0.026
1069	0.026
1070	0.026
1070	0.026
1071	0.025
1071	0.025
1071	0.025
1072	0.024
1072	0.024
1073	0.023
1073	0.023
1073	0.023
1074	0.023
1074	0.023
1075	0.023
1075	0.023
1076	0.023
1076	0.024
1076	0.024
1077	0.024
1077	0.024
1078	0.023
1078	0.023
1078	0.023
1079	0.022
1079	0.023
1080	0.022
1080	0.022
1080	0.022
1081	0.022
1081	0.022
1082	0.022
1082	0.023
1083	0.023
1083	0.023
1083	0.023
1084	0.023
1084	0.023
1085	0.023
1085	0.023
1085	0.023
1086	0.023
1086	0.023
1087	0.022
1087	0.022
1088	0.022
1088	0.022
1088	0.022
1089	0.021
1089	0.02
1090	0.02
1090	0.019
1090	0.018
1091	0.019
1091	0.018
1092	0.019
1092	0.019
1092	0.019
1093	0.019
1093	0.019
1094	0.019
1094	0.019
1095	0.019
1095	0.019
1095	0.018
1096	0.018
1096	0.017
1097	0.016
1097	0.016
1097	0.016
1098	0.015
1098	0.015
1099	0.015
1099	0.014
1100	0.014
1100	0.013
1100	0.013
1101	0.013
1101	0.013
1102	0.012
1102	0.011
1102	0.01
1103	0.01
1103	0.01
1104	0.01
1104	0.01
1104	0.01
1105	0.009
1105	0.007
1106	0.006
1106	0.006
1107	0.005
1107	0.005
1107	0.004
1108	0.003
1108	0.003
1109	0.001
1109	0
1109	0
1110	0.003
1110	0.002
1111	0.001
1111	0.004
