Data from reversibility-20sec_Absorbance__2765__000000000002765.txt Node

Date: Wed Dec 06 03:34:45 CET 2023
User: Marek
Spectrometer: MAYP115816
Trigger mode: 0
Integration Time (sec): 2.000000E-1
Scans to average: 10
Electric dark correction enabled: true
Nonlinearity correction enabled: true
Boxcar width: 5
XAxis mode: Wavelengths
Number of Pixels in Spectrum: 2068
>>>>>Begin Spectral Data<<<<<
199	-0.133
199	-0.099
200	-0.035
200	0.015
201	0.047
201	0.065
202	0.081
202	0.093
203	0.098
203	0.101
204	0.114
204	0.128
205	0.14
205	0.148
205	0.148
206	0.148
206	0.148
207	0.15
207	0.145
208	0.147
208	0.148
209	0.15
209	0.148
210	0.147
210	0.144
211	0.142
211	0.144
212	0.14
212	0.141
213	0.147
213	0.146
213	0.148
214	0.15
214	0.152
215	0.153
215	0.154
216	0.159
216	0.158
217	0.162
217	0.162
218	0.158
218	0.163
219	0.166
219	0.167
220	0.168
220	0.168
221	0.169
221	0.17
221	0.175
222	0.181
222	0.186
223	0.192
223	0.195
224	0.198
224	0.207
225	0.218
225	0.231
226	0.24
226	0.252
227	0.26
227	0.271
228	0.288
228	0.302
229	0.319
229	0.343
229	0.365
230	0.389
230	0.419
231	0.454
231	0.495
232	0.535
232	0.576
233	0.618
233	0.666
234	0.716
234	0.771
235	0.825
235	0.878
236	0.93
236	0.979
236	1.031
237	1.085
237	1.135
238	1.188
238	1.237
239	1.289
239	1.33
240	1.371
240	1.413
241	1.454
241	1.493
242	1.525
242	1.561
243	1.594
243	1.621
243	1.65
244	1.672
244	1.698
245	1.718
245	1.743
246	1.766
246	1.786
247	1.803
247	1.821
248	1.838
248	1.857
249	1.869
249	1.881
250	1.89
250	1.902
250	1.905
251	1.907
251	1.909
252	1.915
252	1.914
253	1.915
253	1.911
254	1.911
254	1.908
255	1.907
255	1.907
256	1.909
256	1.91
257	1.912
257	1.912
258	1.913
258	1.914
258	1.915
259	1.919
259	1.922
260	1.922
260	1.925
261	1.925
261	1.931
262	1.935
262	1.938
263	1.942
263	1.947
264	1.95
264	1.952
265	1.955
265	1.959
265	1.962
266	1.964
266	1.964
267	1.962
267	1.965
268	1.966
268	1.969
269	1.974
269	1.973
270	1.973
270	1.972
271	1.97
271	1.97
272	1.966
272	1.965
272	1.961
273	1.952
273	1.941
274	1.931
274	1.922
275	1.913
275	1.906
276	1.897
276	1.889
277	1.881
277	1.869
278	1.856
278	1.843
278	1.828
279	1.807
279	1.781
280	1.747
280	1.707
281	1.661
281	1.609
282	1.558
282	1.507
283	1.458
283	1.411
284	1.366
284	1.324
285	1.284
285	1.249
285	1.218
286	1.191
286	1.169
287	1.149
287	1.131
288	1.117
288	1.105
289	1.094
289	1.085
290	1.078
290	1.071
291	1.065
291	1.061
292	1.056
292	1.051
292	1.047
293	1.044
293	1.041
294	1.038
294	1.035
295	1.032
295	1.029
296	1.026
296	1.023
297	1.02
297	1.018
298	1.015
298	1.012
298	1.009
299	1.007
299	1.004
300	1.002
300	0.999
301	0.997
301	0.995
302	0.992
302	0.99
303	0.988
303	0.986
304	0.984
304	0.982
305	0.98
305	0.977
305	0.975
306	0.973
306	0.971
307	0.969
307	0.966
308	0.963
308	0.961
309	0.958
309	0.955
310	0.952
310	0.95
311	0.946
311	0.943
311	0.94
312	0.936
312	0.933
313	0.929
313	0.926
314	0.922
314	0.918
315	0.914
315	0.909
316	0.905
316	0.9
317	0.895
317	0.89
318	0.885
318	0.88
318	0.875
319	0.869
319	0.864
320	0.858
320	0.852
321	0.846
321	0.84
322	0.834
322	0.828
323	0.822
323	0.815
324	0.808
324	0.802
324	0.795
325	0.788
325	0.782
326	0.775
326	0.768
327	0.761
327	0.754
328	0.747
328	0.74
329	0.733
329	0.726
330	0.718
330	0.711
330	0.704
331	0.697
331	0.69
332	0.683
332	0.676
333	0.669
333	0.662
334	0.655
334	0.648
335	0.641
335	0.634
336	0.628
336	0.621
336	0.614
337	0.608
337	0.601
338	0.595
338	0.589
339	0.583
339	0.577
340	0.571
340	0.565
341	0.559
341	0.554
342	0.548
342	0.543
342	0.537
343	0.532
343	0.527
344	0.522
344	0.517
345	0.512
345	0.508
346	0.503
346	0.499
347	0.494
347	0.49
348	0.486
348	0.482
348	0.478
349	0.474
349	0.47
350	0.466
350	0.463
351	0.459
351	0.456
352	0.453
352	0.45
353	0.447
353	0.444
354	0.441
354	0.438
354	0.435
355	0.432
355	0.429
356	0.426
356	0.424
357	0.42
357	0.418
358	0.415
358	0.412
359	0.41
359	0.408
360	0.405
360	0.403
360	0.401
361	0.399
361	0.397
362	0.396
362	0.394
363	0.392
363	0.39
364	0.388
364	0.386
365	0.385
365	0.383
366	0.381
366	0.379
366	0.378
367	0.376
367	0.374
368	0.372
368	0.371
369	0.369
369	0.368
370	0.366
370	0.365
371	0.364
371	0.362
372	0.361
372	0.36
372	0.359
373	0.358
373	0.357
374	0.356
374	0.355
375	0.354
375	0.353
376	0.352
376	0.351
377	0.35
377	0.349
378	0.348
378	0.347
378	0.346
379	0.345
379	0.344
380	0.343
380	0.342
381	0.342
381	0.341
382	0.34
382	0.34
383	0.339
383	0.338
383	0.338
384	0.337
384	0.336
385	0.336
385	0.335
386	0.335
386	0.334
387	0.334
387	0.333
388	0.332
388	0.332
389	0.331
389	0.331
389	0.331
390	0.33
390	0.33
391	0.329
391	0.329
392	0.328
392	0.328
393	0.328
393	0.327
394	0.327
394	0.326
394	0.326
395	0.326
395	0.325
396	0.325
396	0.324
397	0.324
397	0.323
398	0.323
398	0.323
399	0.322
399	0.322
400	0.322
400	0.321
400	0.321
401	0.32
401	0.32
402	0.32
402	0.319
403	0.319
403	0.318
404	0.318
404	0.317
405	0.317
405	0.317
405	0.316
406	0.316
406	0.316
407	0.315
407	0.315
408	0.315
408	0.314
409	0.314
409	0.313
410	0.313
410	0.313
411	0.313
411	0.312
411	0.312
412	0.312
412	0.311
413	0.311
413	0.311
414	0.31
414	0.31
415	0.31
415	0.309
416	0.309
416	0.309
416	0.308
417	0.308
417	0.308
418	0.308
418	0.307
419	0.307
419	0.306
420	0.306
420	0.306
421	0.305
421	0.305
421	0.304
422	0.304
422	0.304
423	0.303
423	0.303
424	0.302
424	0.302
425	0.302
425	0.301
426	0.301
426	0.3
427	0.3
427	0.3
427	0.3
428	0.3
428	0.299
429	0.299
429	0.299
430	0.298
430	0.298
431	0.298
431	0.298
432	0.298
432	0.297
432	0.297
433	0.296
433	0.296
434	0.296
434	0.296
435	0.296
435	0.296
436	0.295
436	0.295
437	0.295
437	0.295
437	0.294
438	0.294
438	0.294
439	0.294
439	0.294
440	0.293
440	0.293
441	0.293
441	0.292
442	0.292
442	0.292
442	0.292
443	0.291
443	0.291
444	0.291
444	0.291
445	0.291
445	0.29
446	0.29
446	0.29
447	0.289
447	0.289
447	0.289
448	0.289
448	0.288
449	0.288
449	0.288
450	0.288
450	0.287
451	0.287
451	0.287
452	0.287
452	0.287
452	0.287
453	0.287
453	0.286
454	0.286
454	0.286
455	0.286
455	0.286
456	0.286
456	0.285
457	0.285
457	0.285
458	0.285
458	0.284
458	0.284
459	0.284
459	0.284
460	0.284
460	0.284
461	0.283
461	0.283
462	0.283
462	0.283
463	0.283
463	0.283
463	0.283
464	0.282
464	0.282
465	0.282
465	0.282
466	0.282
466	0.281
467	0.282
467	0.281
467	0.281
468	0.282
468	0.282
469	0.281
469	0.282
470	0.282
470	0.282
471	0.282
471	0.282
472	0.282
472	0.282
472	0.282
473	0.282
473	0.282
474	0.282
474	0.282
475	0.282
475	0.282
476	0.282
476	0.282
477	0.282
477	0.282
477	0.282
478	0.282
478	0.282
479	0.282
479	0.282
480	0.282
480	0.283
481	0.283
481	0.283
482	0.283
482	0.283
482	0.283
483	0.284
483	0.284
484	0.284
484	0.284
485	0.284
485	0.284
486	0.285
486	0.285
487	0.285
487	0.285
487	0.286
488	0.286
488	0.286
489	0.286
489	0.287
490	0.288
490	0.288
491	0.289
491	0.29
492	0.29
492	0.291
492	0.291
493	0.292
493	0.293
494	0.294
494	0.294
495	0.295
495	0.296
496	0.296
496	0.297
496	0.298
497	0.298
497	0.299
498	0.299
498	0.3
499	0.3
499	0.301
500	0.302
500	0.302
501	0.303
501	0.304
501	0.304
502	0.305
502	0.305
503	0.306
503	0.306
504	0.307
504	0.308
505	0.308
505	0.309
506	0.309
506	0.309
506	0.31
507	0.311
507	0.311
508	0.312
508	0.313
509	0.313
509	0.314
510	0.315
510	0.315
511	0.316
511	0.317
511	0.318
512	0.318
512	0.319
513	0.32
513	0.32
514	0.32
514	0.321
515	0.322
515	0.322
515	0.322
516	0.323
516	0.324
517	0.324
517	0.324
518	0.324
518	0.325
519	0.325
519	0.325
520	0.326
520	0.326
520	0.327
521	0.327
521	0.327
522	0.327
522	0.327
523	0.327
523	0.327
524	0.328
524	0.328
524	0.328
525	0.328
525	0.328
526	0.328
526	0.328
527	0.329
527	0.329
528	0.328
528	0.328
529	0.328
529	0.328
529	0.328
530	0.327
530	0.327
531	0.327
531	0.326
532	0.326
532	0.325
533	0.325
533	0.325
533	0.324
534	0.324
534	0.323
535	0.323
535	0.323
536	0.322
536	0.322
537	0.321
537	0.321
538	0.32
538	0.32
538	0.319
539	0.319
539	0.318
540	0.318
540	0.317
541	0.316
541	0.316
542	0.316
542	0.315
542	0.314
543	0.314
543	0.313
544	0.312
544	0.312
545	0.311
545	0.311
546	0.31
546	0.309
547	0.309
547	0.308
547	0.307
548	0.307
548	0.306
549	0.305
549	0.305
550	0.304
550	0.303
551	0.302
551	0.301
551	0.301
552	0.3
552	0.3
553	0.299
553	0.299
554	0.298
554	0.297
555	0.296
555	0.295
556	0.294
556	0.293
556	0.293
557	0.292
557	0.292
558	0.291
558	0.291
559	0.29
559	0.29
560	0.29
560	0.289
560	0.289
561	0.288
561	0.288
562	0.287
562	0.286
563	0.284
563	0.283
564	0.282
564	0.281
564	0.281
565	0.28
565	0.28
566	0.279
566	0.278
567	0.278
567	0.277
568	0.277
568	0.276
568	0.276
569	0.275
569	0.274
570	0.273
570	0.272
571	0.271
571	0.271
572	0.27
572	0.27
573	0.269
573	0.269
573	0.268
574	0.268
574	0.268
575	0.268
575	0.268
576	0.268
576	0.266
577	0.265
577	0.265
577	0.264
578	0.264
578	0.263
579	0.263
579	0.263
580	0.262
580	0.26
581	0.26
581	0.259
581	0.259
582	0.259
582	0.259
583	0.259
583	0.258
584	0.257
584	0.256
585	0.256
585	0.255
585	0.255
586	0.254
586	0.254
587	0.253
587	0.252
588	0.251
588	0.251
589	0.25
589	0.25
590	0.25
590	0.25
590	0.25
591	0.249
591	0.248
592	0.248
592	0.247
593	0.246
593	0.246
594	0.245
594	0.244
594	0.244
595	0.243
595	0.243
596	0.242
596	0.243
597	0.243
597	0.243
598	0.243
598	0.243
598	0.243
599	0.243
599	0.242
600	0.242
600	0.241
601	0.241
601	0.24
602	0.239
602	0.239
602	0.238
603	0.238
603	0.238
604	0.238
604	0.238
605	0.238
605	0.238
606	0.237
606	0.236
606	0.236
607	0.235
607	0.235
608	0.235
608	0.234
609	0.233
609	0.233
610	0.232
610	0.231
610	0.231
611	0.231
611	0.231
612	0.231
612	0.231
613	0.231
613	0.231
614	0.231
614	0.23
614	0.23
615	0.23
615	0.23
616	0.23
616	0.229
617	0.229
617	0.229
618	0.229
618	0.228
618	0.228
619	0.229
619	0.229
620	0.229
620	0.228
621	0.228
621	0.228
622	0.227
622	0.227
622	0.226
623	0.226
623	0.226
624	0.225
624	0.225
625	0.224
625	0.224
626	0.224
626	0.223
626	0.223
627	0.223
627	0.223
628	0.223
628	0.223
629	0.223
629	0.223
630	0.222
630	0.222
630	0.222
631	0.222
631	0.222
632	0.221
632	0.221
633	0.221
633	0.221
634	0.221
634	0.221
634	0.221
635	0.22
635	0.22
636	0.22
636	0.22
637	0.22
637	0.219
638	0.219
638	0.219
638	0.218
639	0.218
639	0.217
640	0.218
640	0.217
641	0.217
641	0.217
642	0.217
642	0.217
642	0.217
643	0.217
643	0.218
644	0.218
644	0.218
645	0.218
645	0.218
646	0.218
646	0.218
646	0.219
647	0.218
647	0.218
648	0.218
648	0.217
649	0.217
649	0.216
650	0.216
650	0.216
650	0.216
651	0.215
651	0.215
652	0.215
652	0.215
653	0.216
653	0.218
653	0.224
654	0.174
654	0.139
655	0.14
655	0.141
656	0.141
656	0.141
657	0.142
657	0.142
657	0.142
658	0.141
658	0.13
659	0.165
659	0.213
660	0.218
660	0.217
661	0.217
661	0.216
661	0.216
662	0.215
662	0.214
663	0.214
663	0.214
664	0.213
664	0.213
665	0.213
665	0.213
665	0.213
666	0.214
666	0.214
667	0.214
667	0.214
668	0.215
668	0.215
669	0.215
669	0.215
669	0.215
670	0.215
670	0.215
671	0.215
671	0.215
672	0.215
672	0.214
672	0.214
673	0.214
673	0.214
674	0.214
674	0.213
675	0.213
675	0.213
676	0.214
676	0.214
676	0.214
677	0.214
677	0.214
678	0.214
678	0.214
679	0.214
679	0.214
680	0.214
680	0.213
680	0.213
681	0.213
681	0.213
682	0.213
682	0.213
683	0.214
683	0.214
684	0.214
684	0.214
684	0.214
685	0.214
685	0.214
686	0.214
686	0.214
687	0.214
687	0.214
687	0.214
688	0.214
688	0.214
689	0.215
689	0.216
690	0.216
690	0.216
691	0.216
691	0.216
691	0.216
692	0.216
692	0.217
693	0.217
693	0.218
694	0.217
694	0.217
695	0.218
695	0.219
695	0.219
696	0.219
696	0.219
697	0.219
697	0.219
698	0.218
698	0.218
698	0.218
699	0.218
699	0.217
700	0.217
700	0.217
701	0.217
701	0.217
702	0.217
702	0.217
702	0.217
703	0.217
703	0.216
704	0.216
704	0.216
705	0.216
705	0.216
705	0.216
706	0.215
706	0.215
707	0.215
707	0.215
708	0.215
708	0.215
709	0.215
709	0.215
709	0.215
710	0.215
710	0.216
711	0.217
711	0.217
712	0.217
712	0.217
713	0.218
713	0.218
713	0.218
714	0.218
714	0.218
715	0.218
715	0.217
716	0.217
716	0.217
716	0.216
717	0.215
717	0.215
718	0.214
718	0.214
719	0.214
719	0.213
720	0.213
720	0.213
720	0.214
721	0.214
721	0.215
722	0.216
722	0.216
723	0.216
723	0.217
723	0.217
724	0.217
724	0.217
725	0.216
725	0.216
726	0.215
726	0.215
727	0.214
727	0.214
727	0.214
728	0.213
728	0.213
729	0.214
729	0.214
730	0.214
730	0.215
730	0.216
731	0.216
731	0.217
732	0.218
732	0.218
733	0.219
733	0.219
734	0.219
734	0.219
734	0.218
735	0.218
735	0.218
736	0.217
736	0.217
737	0.216
737	0.216
737	0.216
738	0.215
738	0.214
739	0.214
739	0.214
740	0.214
740	0.214
741	0.215
741	0.215
741	0.215
742	0.215
742	0.215
743	0.216
743	0.217
744	0.217
744	0.217
744	0.217
745	0.217
745	0.217
746	0.217
746	0.217
747	0.217
747	0.217
748	0.217
748	0.218
748	0.218
749	0.218
749	0.219
750	0.219
750	0.22
751	0.22
751	0.22
751	0.22
752	0.22
752	0.22
753	0.219
753	0.218
754	0.218
754	0.217
754	0.217
755	0.216
755	0.216
756	0.215
756	0.214
757	0.214
757	0.214
758	0.214
758	0.214
758	0.214
759	0.214
759	0.214
760	0.214
760	0.214
761	0.215
761	0.216
761	0.216
762	0.217
762	0.217
763	0.218
763	0.217
764	0.218
764	0.218
764	0.218
765	0.218
765	0.218
766	0.218
766	0.218
767	0.218
767	0.217
768	0.217
768	0.217
768	0.217
769	0.217
769	0.217
770	0.217
770	0.217
771	0.217
771	0.217
771	0.218
772	0.218
772	0.219
773	0.219
773	0.219
774	0.22
774	0.22
775	0.22
775	0.221
775	0.221
776	0.221
776	0.221
777	0.221
777	0.22
778	0.22
778	0.22
778	0.219
779	0.219
779	0.219
780	0.218
780	0.217
781	0.217
781	0.217
781	0.217
782	0.217
782	0.217
783	0.217
783	0.218
784	0.218
784	0.218
784	0.219
785	0.219
785	0.219
786	0.219
786	0.219
787	0.22
787	0.219
788	0.219
788	0.219
788	0.218
789	0.218
789	0.218
790	0.218
790	0.217
791	0.217
791	0.217
791	0.218
792	0.219
792	0.219
793	0.22
793	0.22
794	0.22
794	0.221
794	0.221
795	0.221
795	0.221
796	0.221
796	0.221
797	0.221
797	0.221
797	0.221
798	0.221
798	0.221
799	0.221
799	0.22
800	0.22
800	0.219
801	0.219
801	0.219
801	0.219
802	0.219
802	0.219
803	0.219
803	0.219
804	0.219
804	0.22
804	0.22
805	0.22
805	0.221
806	0.221
806	0.221
807	0.221
807	0.221
807	0.222
808	0.222
808	0.222
809	0.222
809	0.223
810	0.223
810	0.223
810	0.223
811	0.223
811	0.223
812	0.224
812	0.224
813	0.224
813	0.224
813	0.224
814	0.224
814	0.224
815	0.225
815	0.224
816	0.224
816	0.223
817	0.223
817	0.222
817	0.222
818	0.221
818	0.221
819	0.22
819	0.22
820	0.219
820	0.219
820	0.219
821	0.219
821	0.219
822	0.219
822	0.219
823	0.22
823	0.22
823	0.221
824	0.222
824	0.223
825	0.224
825	0.225
826	0.225
826	0.225
826	0.225
827	0.226
827	0.226
828	0.226
828	0.225
829	0.225
829	0.225
829	0.224
830	0.224
830	0.224
831	0.224
831	0.225
832	0.224
832	0.224
832	0.225
833	0.225
833	0.225
834	0.224
834	0.224
835	0.224
835	0.224
835	0.223
836	0.223
836	0.223
837	0.223
837	0.223
838	0.222
838	0.222
839	0.221
839	0.221
839	0.22
840	0.219
840	0.218
841	0.217
841	0.216
842	0.216
842	0.215
842	0.214
843	0.214
843	0.214
844	0.214
844	0.214
845	0.214
845	0.214
845	0.215
846	0.215
846	0.215
847	0.215
847	0.216
848	0.216
848	0.217
848	0.217
849	0.217
849	0.217
850	0.217
850	0.217
851	0.217
851	0.217
851	0.216
852	0.215
852	0.215
853	0.214
853	0.213
854	0.213
854	0.213
854	0.213
855	0.213
855	0.213
856	0.214
856	0.215
857	0.215
857	0.216
857	0.216
858	0.216
858	0.216
859	0.215
859	0.214
860	0.214
860	0.213
860	0.212
861	0.211
861	0.21
862	0.208
862	0.208
863	0.207
863	0.207
863	0.206
864	0.206
864	0.206
865	0.206
865	0.206
866	0.206
866	0.206
866	0.206
867	0.205
867	0.205
868	0.205
868	0.204
869	0.204
869	0.203
869	0.202
870	0.201
870	0.201
871	0.2
871	0.2
872	0.2
872	0.2
872	0.2
873	0.2
873	0.2
874	0.199
874	0.199
875	0.199
875	0.198
875	0.198
876	0.198
876	0.197
877	0.197
877	0.198
878	0.198
878	0.199
878	0.2
879	0.201
879	0.201
880	0.202
880	0.203
881	0.203
881	0.204
881	0.204
882	0.203
882	0.203
883	0.202
883	0.201
884	0.2
884	0.199
884	0.198
885	0.197
885	0.197
886	0.196
886	0.195
887	0.194
887	0.194
887	0.193
888	0.192
888	0.191
889	0.19
889	0.189
890	0.189
890	0.188
890	0.188
891	0.187
891	0.187
892	0.186
892	0.186
893	0.186
893	0.186
893	0.186
894	0.185
894	0.185
895	0.184
895	0.184
895	0.184
896	0.184
896	0.183
897	0.183
897	0.183
898	0.182
898	0.182
898	0.182
899	0.182
899	0.182
900	0.182
900	0.182
901	0.182
901	0.182
901	0.183
902	0.183
902	0.182
903	0.182
903	0.182
904	0.182
904	0.181
904	0.181
905	0.181
905	0.18
906	0.18
906	0.18
907	0.181
907	0.181
907	0.181
908	0.181
908	0.182
909	0.182
909	0.182
910	0.182
910	0.181
910	0.18
911	0.18
911	0.179
912	0.178
912	0.177
913	0.176
913	0.175
913	0.174
914	0.174
914	0.173
915	0.172
915	0.172
916	0.171
916	0.17
916	0.17
917	0.169
917	0.169
918	0.168
918	0.167
918	0.166
919	0.166
919	0.165
920	0.164
920	0.163
921	0.163
921	0.162
921	0.161
922	0.16
922	0.16
923	0.16
923	0.16
924	0.16
924	0.16
924	0.16
925	0.161
925	0.161
926	0.161
926	0.162
927	0.162
927	0.162
927	0.162
928	0.163
928	0.163
929	0.163
929	0.163
930	0.164
930	0.164
930	0.164
931	0.164
931	0.164
932	0.165
932	0.165
933	0.165
933	0.165
933	0.165
934	0.165
934	0.165
935	0.165
935	0.165
935	0.164
936	0.164
936	0.163
937	0.162
937	0.162
938	0.161
938	0.16
938	0.159
939	0.158
939	0.157
940	0.156
940	0.155
941	0.155
941	0.155
941	0.154
942	0.154
942	0.154
943	0.153
943	0.153
944	0.153
944	0.152
944	0.152
945	0.151
945	0.151
946	0.151
946	0.15
946	0.15
947	0.15
947	0.15
948	0.15
948	0.149
949	0.149
949	0.148
949	0.148
950	0.147
950	0.146
951	0.145
951	0.144
952	0.143
952	0.142
952	0.141
953	0.14
953	0.139
954	0.138
954	0.137
955	0.137
955	0.137
955	0.136
956	0.137
956	0.137
957	0.137
957	0.138
957	0.138
958	0.139
958	0.139
959	0.139
959	0.14
960	0.14
960	0.14
960	0.14
961	0.14
961	0.14
962	0.14
962	0.14
963	0.14
963	0.14
963	0.14
964	0.141
964	0.141
965	0.141
965	0.142
966	0.142
966	0.142
966	0.143
967	0.143
967	0.143
968	0.143
968	0.143
968	0.143
969	0.142
969	0.142
970	0.141
970	0.141
971	0.14
971	0.14
971	0.139
972	0.139
972	0.138
973	0.138
973	0.138
974	0.138
974	0.138
974	0.138
975	0.138
975	0.138
976	0.138
976	0.138
976	0.138
977	0.138
977	0.137
978	0.137
978	0.136
979	0.136
979	0.135
979	0.134
980	0.133
980	0.132
981	0.131
981	0.131
982	0.13
982	0.129
982	0.129
983	0.128
983	0.127
984	0.127
984	0.126
984	0.125
985	0.125
985	0.124
986	0.123
986	0.123
987	0.122
987	0.122
987	0.121
988	0.121
988	0.12
989	0.12
989	0.12
990	0.119
990	0.119
990	0.119
991	0.119
991	0.118
992	0.118
992	0.118
992	0.117
993	0.117
993	0.116
994	0.116
994	0.115
995	0.115
995	0.115
995	0.114
996	0.114
996	0.114
997	0.114
997	0.114
997	0.115
998	0.115
998	0.115
999	0.115
999	0.115
1000	0.116
1000	0.116
1000	0.116
1001	0.116
1001	0.116
1002	0.116
1002	0.115
1003	0.115
1003	0.115
1003	0.114
1004	0.114
1004	0.113
1005	0.113
1005	0.112
1005	0.112
1006	0.112
1006	0.112
1007	0.112
1007	0.111
1008	0.111
1008	0.111
1008	0.111
1009	0.111
1009	0.111
1010	0.112
1010	0.112
1010	0.112
1011	0.112
1011	0.112
1012	0.113
1012	0.113
1013	0.113
1013	0.113
1013	0.112
1014	0.112
1014	0.112
1015	0.111
1015	0.111
1016	0.11
1016	0.109
1016	0.108
1017	0.108
1017	0.107
1018	0.107
1018	0.107
1018	0.106
1019	0.106
1019	0.106
1020	0.106
1020	0.106
1021	0.106
1021	0.107
1021	0.107
1022	0.107
1022	0.107
1023	0.107
1023	0.107
1023	0.107
1024	0.107
1024	0.107
1025	0.107
1025	0.107
1026	0.107
1026	0.107
1026	0.106
1027	0.106
1027	0.106
1028	0.106
1028	0.106
1028	0.106
1029	0.106
1029	0.106
1030	0.106
1030	0.106
1031	0.106
1031	0.106
1031	0.106
1032	0.106
1032	0.106
1033	0.106
1033	0.106
1033	0.106
1034	0.106
1034	0.106
1035	0.105
1035	0.105
1036	0.105
1036	0.105
1036	0.105
1037	0.105
1037	0.104
1038	0.104
1038	0.104
1039	0.104
1039	0.104
1039	0.104
1040	0.105
1040	0.105
1041	0.105
1041	0.105
1041	0.105
1042	0.105
1042	0.105
1043	0.106
1043	0.106
1044	0.106
1044	0.106
1044	0.106
1045	0.106
1045	0.106
1046	0.106
1046	0.106
1046	0.107
1047	0.107
1047	0.107
1048	0.108
1048	0.108
1049	0.109
1049	0.109
1049	0.109
1050	0.109
1050	0.109
1051	0.109
1051	0.109
1051	0.108
1052	0.108
1052	0.107
1053	0.107
1053	0.106
1053	0.105
1054	0.104
1054	0.104
1055	0.103
1055	0.102
1056	0.101
1056	0.101
1056	0.1
1057	0.099
1057	0.098
1058	0.097
1058	0.096
1058	0.095
1059	0.095
1059	0.094
1060	0.093
1060	0.092
1061	0.092
1061	0.091
1061	0.091
1062	0.091
1062	0.091
1063	0.091
1063	0.09
1063	0.09
1064	0.09
1064	0.09
1065	0.089
1065	0.089
1066	0.089
1066	0.089
1066	0.088
1067	0.088
1067	0.088
1068	0.087
1068	0.087
1068	0.087
1069	0.086
1069	0.086
1070	0.085
1070	0.085
1071	0.084
1071	0.083
1071	0.083
1072	0.082
1072	0.082
1073	0.081
1073	0.08
1073	0.08
1074	0.08
1074	0.08
1075	0.08
1075	0.08
1076	0.081
1076	0.081
1076	0.081
1077	0.081
1077	0.081
1078	0.081
1078	0.082
1078	0.082
1079	0.082
1079	0.082
1080	0.082
1080	0.082
1080	0.082
1081	0.082
1081	0.082
1082	0.083
1082	0.083
1083	0.083
1083	0.082
1083	0.082
1084	0.082
1084	0.082
1085	0.082
1085	0.082
1085	0.082
1086	0.081
1086	0.08
1087	0.08
1087	0.079
1088	0.079
1088	0.079
1088	0.079
1089	0.078
1089	0.077
1090	0.076
1090	0.076
1090	0.075
1091	0.075
1091	0.075
1092	0.075
1092	0.075
1092	0.075
1093	0.074
1093	0.075
1094	0.075
1094	0.075
1095	0.075
1095	0.074
1095	0.074
1096	0.074
1096	0.073
1097	0.072
1097	0.071
1097	0.071
1098	0.07
1098	0.069
1099	0.068
1099	0.067
1100	0.066
1100	0.065
1100	0.064
1101	0.063
1101	0.062
1102	0.063
1102	0.062
1102	0.061
1103	0.06
1103	0.06
1104	0.06
1104	0.06
1104	0.06
1105	0.059
1105	0.057
1106	0.056
1106	0.055
1107	0.054
1107	0.054
1107	0.053
1108	0.052
1108	0.051
1109	0.05
1109	0.049
1109	0.048
1110	0.051
1110	0.052
1111	0.054
1111	0.055
