Data from reversibility-20sec_Absorbance__5158__000000000005158.txt Node

Date: Wed Dec 06 16:52:26 CET 2023
User: Marek
Spectrometer: MAYP115816
Trigger mode: 0
Integration Time (sec): 2.000000E-1
Scans to average: 10
Electric dark correction enabled: true
Nonlinearity correction enabled: true
Boxcar width: 5
XAxis mode: Wavelengths
Number of Pixels in Spectrum: 2068
>>>>>Begin Spectral Data<<<<<
199	-0.217
199	-0.185
200	-0.113
200	-0.061
201	-0.03
201	-0.014
202	-0.004
202	0.004
203	0.011
203	0.014
204	0.027
204	0.041
205	0.053
205	0.059
205	0.059
206	0.057
206	0.056
207	0.059
207	0.06
208	0.058
208	0.058
209	0.058
209	0.058
210	0.059
210	0.058
211	0.058
211	0.061
212	0.06
212	0.061
213	0.063
213	0.064
213	0.065
214	0.07
214	0.072
215	0.074
215	0.072
216	0.071
216	0.069
217	0.074
217	0.076
218	0.076
218	0.082
219	0.085
219	0.085
220	0.087
220	0.089
221	0.091
221	0.094
221	0.1
222	0.105
222	0.108
223	0.113
223	0.115
224	0.119
224	0.126
225	0.133
225	0.143
226	0.154
226	0.165
227	0.173
227	0.183
228	0.196
228	0.211
229	0.23
229	0.253
229	0.276
230	0.302
230	0.331
231	0.361
231	0.4
232	0.437
232	0.48
233	0.522
233	0.572
234	0.623
234	0.675
235	0.727
235	0.779
236	0.832
236	0.884
236	0.932
237	0.985
237	1.036
238	1.086
238	1.132
239	1.179
239	1.22
240	1.261
240	1.3
241	1.333
241	1.367
242	1.401
242	1.433
243	1.461
243	1.485
243	1.511
244	1.532
244	1.555
245	1.574
245	1.597
246	1.618
246	1.636
247	1.65
247	1.665
248	1.681
248	1.697
249	1.705
249	1.714
250	1.723
250	1.731
250	1.736
251	1.741
251	1.746
252	1.754
252	1.756
253	1.758
253	1.757
254	1.76
254	1.762
255	1.761
255	1.762
256	1.762
256	1.76
257	1.762
257	1.759
258	1.759
258	1.76
258	1.76
259	1.761
259	1.76
260	1.761
260	1.763
261	1.762
261	1.766
262	1.766
262	1.768
263	1.772
263	1.772
264	1.771
264	1.773
265	1.773
265	1.774
265	1.774
266	1.775
266	1.774
267	1.773
267	1.773
268	1.772
268	1.772
269	1.774
269	1.772
270	1.77
270	1.769
271	1.767
271	1.766
272	1.765
272	1.763
272	1.761
273	1.757
273	1.753
274	1.748
274	1.744
275	1.739
275	1.734
276	1.727
276	1.721
277	1.714
277	1.704
278	1.693
278	1.682
278	1.669
279	1.657
279	1.642
280	1.623
280	1.599
281	1.572
281	1.54
282	1.507
282	1.472
283	1.437
283	1.403
284	1.369
284	1.334
285	1.301
285	1.27
285	1.242
286	1.217
286	1.195
287	1.175
287	1.158
288	1.143
288	1.13
289	1.119
289	1.108
290	1.1
290	1.092
291	1.086
291	1.08
292	1.074
292	1.069
292	1.064
293	1.059
293	1.055
294	1.051
294	1.048
295	1.045
295	1.041
296	1.038
296	1.034
297	1.031
297	1.028
298	1.025
298	1.021
298	1.018
299	1.016
299	1.013
300	1.009
300	1.006
301	1.002
301	1
302	0.996
302	0.994
303	0.991
303	0.988
304	0.986
304	0.983
305	0.98
305	0.978
305	0.975
306	0.973
306	0.97
307	0.967
307	0.964
308	0.961
308	0.958
309	0.955
309	0.952
310	0.948
310	0.945
311	0.942
311	0.938
311	0.935
312	0.931
312	0.928
313	0.924
313	0.92
314	0.916
314	0.912
315	0.908
315	0.903
316	0.899
316	0.894
317	0.89
317	0.885
318	0.88
318	0.874
318	0.869
319	0.864
319	0.858
320	0.853
320	0.847
321	0.841
321	0.835
322	0.829
322	0.823
323	0.817
323	0.81
324	0.804
324	0.797
324	0.79
325	0.784
325	0.777
326	0.77
326	0.764
327	0.757
327	0.75
328	0.743
328	0.737
329	0.729
329	0.723
330	0.716
330	0.709
330	0.702
331	0.695
331	0.688
332	0.682
332	0.675
333	0.668
333	0.661
334	0.654
334	0.648
335	0.641
335	0.634
336	0.628
336	0.621
336	0.615
337	0.608
337	0.602
338	0.596
338	0.59
339	0.584
339	0.578
340	0.572
340	0.567
341	0.562
341	0.556
342	0.551
342	0.546
342	0.54
343	0.535
343	0.531
344	0.526
344	0.521
345	0.516
345	0.511
346	0.507
346	0.502
347	0.498
347	0.494
348	0.49
348	0.486
348	0.482
349	0.478
349	0.474
350	0.471
350	0.468
351	0.464
351	0.461
352	0.457
352	0.454
353	0.451
353	0.448
354	0.446
354	0.443
354	0.439
355	0.436
355	0.433
356	0.43
356	0.427
357	0.424
357	0.422
358	0.419
358	0.416
359	0.414
359	0.411
360	0.409
360	0.407
360	0.405
361	0.403
361	0.401
362	0.399
362	0.398
363	0.396
363	0.394
364	0.392
364	0.39
365	0.388
365	0.386
366	0.384
366	0.382
366	0.38
367	0.379
367	0.377
368	0.375
368	0.373
369	0.372
369	0.37
370	0.369
370	0.367
371	0.366
371	0.364
372	0.363
372	0.361
372	0.36
373	0.359
373	0.358
374	0.357
374	0.355
375	0.354
375	0.353
376	0.352
376	0.351
377	0.35
377	0.349
378	0.348
378	0.347
378	0.346
379	0.345
379	0.344
380	0.343
380	0.342
381	0.341
381	0.34
382	0.34
382	0.339
383	0.338
383	0.337
383	0.337
384	0.336
384	0.335
385	0.335
385	0.334
386	0.334
386	0.333
387	0.332
387	0.332
388	0.331
388	0.33
389	0.33
389	0.329
389	0.328
390	0.328
390	0.327
391	0.327
391	0.326
392	0.326
392	0.325
393	0.325
393	0.324
394	0.324
394	0.323
394	0.323
395	0.323
395	0.322
396	0.322
396	0.321
397	0.32
397	0.319
398	0.319
398	0.319
399	0.318
399	0.318
400	0.317
400	0.317
400	0.316
401	0.316
401	0.316
402	0.315
402	0.315
403	0.315
403	0.314
404	0.314
404	0.313
405	0.313
405	0.313
405	0.312
406	0.312
406	0.312
407	0.311
407	0.311
408	0.311
408	0.31
409	0.31
409	0.309
410	0.309
410	0.309
411	0.308
411	0.308
411	0.307
412	0.307
412	0.306
413	0.306
413	0.306
414	0.306
414	0.305
415	0.305
415	0.304
416	0.304
416	0.303
416	0.303
417	0.303
417	0.302
418	0.302
418	0.302
419	0.301
419	0.3
420	0.3
420	0.3
421	0.299
421	0.299
421	0.299
422	0.299
422	0.298
423	0.298
423	0.298
424	0.297
424	0.297
425	0.297
425	0.296
426	0.296
426	0.296
427	0.295
427	0.295
427	0.294
428	0.294
428	0.294
429	0.294
429	0.293
430	0.293
430	0.293
431	0.293
431	0.292
432	0.293
432	0.292
432	0.292
433	0.292
433	0.292
434	0.292
434	0.292
435	0.292
435	0.292
436	0.291
436	0.291
437	0.291
437	0.29
437	0.29
438	0.29
438	0.29
439	0.29
439	0.29
440	0.289
440	0.289
441	0.289
441	0.289
442	0.289
442	0.289
442	0.289
443	0.289
443	0.288
444	0.288
444	0.288
445	0.288
445	0.288
446	0.288
446	0.288
447	0.287
447	0.287
447	0.287
448	0.287
448	0.287
449	0.287
449	0.287
450	0.287
450	0.287
451	0.287
451	0.287
452	0.287
452	0.287
452	0.288
453	0.288
453	0.288
454	0.287
454	0.287
455	0.287
455	0.287
456	0.287
456	0.287
457	0.287
457	0.287
458	0.287
458	0.287
458	0.287
459	0.287
459	0.287
460	0.287
460	0.287
461	0.287
461	0.287
462	0.287
462	0.287
463	0.287
463	0.287
463	0.287
464	0.287
464	0.287
465	0.288
465	0.288
466	0.288
466	0.288
467	0.289
467	0.289
467	0.289
468	0.289
468	0.289
469	0.29
469	0.29
470	0.291
470	0.291
471	0.291
471	0.291
472	0.292
472	0.292
472	0.293
473	0.293
473	0.294
474	0.294
474	0.294
475	0.295
475	0.295
476	0.296
476	0.296
477	0.297
477	0.297
477	0.298
478	0.299
478	0.299
479	0.3
479	0.301
480	0.301
480	0.302
481	0.302
481	0.303
482	0.303
482	0.304
482	0.305
483	0.306
483	0.307
484	0.308
484	0.308
485	0.309
485	0.31
486	0.311
486	0.311
487	0.312
487	0.313
487	0.314
488	0.315
488	0.316
489	0.317
489	0.318
490	0.319
490	0.32
491	0.321
491	0.323
492	0.324
492	0.325
492	0.326
493	0.327
493	0.329
494	0.33
494	0.332
495	0.333
495	0.335
496	0.336
496	0.338
496	0.339
497	0.341
497	0.342
498	0.343
498	0.345
499	0.346
499	0.347
500	0.349
500	0.351
501	0.352
501	0.353
501	0.354
502	0.355
502	0.356
503	0.357
503	0.359
504	0.36
504	0.361
505	0.362
505	0.363
506	0.365
506	0.366
506	0.368
507	0.369
507	0.37
508	0.371
508	0.372
509	0.373
509	0.375
510	0.376
510	0.377
511	0.378
511	0.38
511	0.381
512	0.382
512	0.383
513	0.384
513	0.385
514	0.386
514	0.387
515	0.388
515	0.388
515	0.389
516	0.389
516	0.39
517	0.391
517	0.392
518	0.392
518	0.392
519	0.393
519	0.393
520	0.393
520	0.393
520	0.393
521	0.393
521	0.393
522	0.392
522	0.392
523	0.392
523	0.391
524	0.391
524	0.391
524	0.391
525	0.39
525	0.39
526	0.389
526	0.389
527	0.388
527	0.388
528	0.387
528	0.387
529	0.386
529	0.385
529	0.383
530	0.383
530	0.381
531	0.38
531	0.379
532	0.378
532	0.376
533	0.375
533	0.373
533	0.372
534	0.37
534	0.369
535	0.367
535	0.366
536	0.364
536	0.362
537	0.361
537	0.359
538	0.357
538	0.355
538	0.353
539	0.352
539	0.35
540	0.348
540	0.346
541	0.344
541	0.342
542	0.34
542	0.337
542	0.335
543	0.333
543	0.331
544	0.329
544	0.327
545	0.325
545	0.323
546	0.321
546	0.318
547	0.316
547	0.314
547	0.311
548	0.31
548	0.307
549	0.305
549	0.303
550	0.301
550	0.299
551	0.296
551	0.294
551	0.292
552	0.289
552	0.287
553	0.285
553	0.282
554	0.28
554	0.278
555	0.275
555	0.273
556	0.271
556	0.269
556	0.267
557	0.266
557	0.264
558	0.262
558	0.261
559	0.259
559	0.257
560	0.255
560	0.253
560	0.251
561	0.249
561	0.247
562	0.245
562	0.243
563	0.24
563	0.238
564	0.236
564	0.234
564	0.232
565	0.23
565	0.229
566	0.227
566	0.225
567	0.223
567	0.222
568	0.22
568	0.219
568	0.217
569	0.215
569	0.213
570	0.211
570	0.209
571	0.208
571	0.206
572	0.205
572	0.203
573	0.201
573	0.2
573	0.198
574	0.197
574	0.196
575	0.195
575	0.194
576	0.193
576	0.191
577	0.189
577	0.188
577	0.187
578	0.185
578	0.184
579	0.184
579	0.183
580	0.181
580	0.179
581	0.178
581	0.177
581	0.176
582	0.175
582	0.175
583	0.174
583	0.173
584	0.171
584	0.169
585	0.168
585	0.167
585	0.166
586	0.164
586	0.163
587	0.162
587	0.161
588	0.159
588	0.158
589	0.157
589	0.157
590	0.156
590	0.155
590	0.155
591	0.154
591	0.153
592	0.152
592	0.151
593	0.151
593	0.15
594	0.149
594	0.148
594	0.147
595	0.146
595	0.145
596	0.144
596	0.144
597	0.144
597	0.144
598	0.143
598	0.142
598	0.141
599	0.141
599	0.14
600	0.139
600	0.138
601	0.138
601	0.137
602	0.136
602	0.135
602	0.135
603	0.134
603	0.134
604	0.133
604	0.133
605	0.132
605	0.132
606	0.131
606	0.13
606	0.129
607	0.128
607	0.128
608	0.127
608	0.126
609	0.125
609	0.125
610	0.124
610	0.123
610	0.123
611	0.123
611	0.123
612	0.122
612	0.122
613	0.122
613	0.121
614	0.12
614	0.12
614	0.119
615	0.119
615	0.118
616	0.117
616	0.117
617	0.116
617	0.116
618	0.115
618	0.115
618	0.115
619	0.115
619	0.115
620	0.115
620	0.114
621	0.113
621	0.113
622	0.112
622	0.111
622	0.11
623	0.109
623	0.109
624	0.109
624	0.108
625	0.107
625	0.106
626	0.106
626	0.105
626	0.105
627	0.105
627	0.105
628	0.105
628	0.104
629	0.104
629	0.103
630	0.103
630	0.102
630	0.102
631	0.102
631	0.102
632	0.101
632	0.101
633	0.1
633	0.1
634	0.1
634	0.1
634	0.1
635	0.1
635	0.099
636	0.099
636	0.098
637	0.098
637	0.098
638	0.097
638	0.097
638	0.097
639	0.096
639	0.096
640	0.096
640	0.096
641	0.096
641	0.096
642	0.096
642	0.096
642	0.096
643	0.096
643	0.096
644	0.096
644	0.096
645	0.096
645	0.095
646	0.095
646	0.095
646	0.094
647	0.094
647	0.093
648	0.092
648	0.091
649	0.091
649	0.091
650	0.091
650	0.09
650	0.09
651	0.09
651	0.09
652	0.09
652	0.089
653	0.089
653	0.091
653	0.098
654	0.079
654	0.064
655	0.062
655	0.061
656	0.062
656	0.062
657	0.062
657	0.062
657	0.062
658	0.061
658	0.053
659	0.066
659	0.083
660	0.089
660	0.089
661	0.089
661	0.089
661	0.088
662	0.088
662	0.088
663	0.087
663	0.087
664	0.086
664	0.086
665	0.086
665	0.085
665	0.085
666	0.085
666	0.085
667	0.085
667	0.085
668	0.086
668	0.085
669	0.085
669	0.086
669	0.086
670	0.086
670	0.086
671	0.085
671	0.084
672	0.084
672	0.083
672	0.083
673	0.082
673	0.082
674	0.082
674	0.081
675	0.081
675	0.081
676	0.081
676	0.081
676	0.081
677	0.081
677	0.08
678	0.08
678	0.079
679	0.079
679	0.078
680	0.078
680	0.077
680	0.077
681	0.076
681	0.076
682	0.077
682	0.077
683	0.077
683	0.078
684	0.078
684	0.078
684	0.078
685	0.078
685	0.079
686	0.079
686	0.079
687	0.079
687	0.079
687	0.079
688	0.079
688	0.078
689	0.079
689	0.079
690	0.079
690	0.078
691	0.078
691	0.078
691	0.077
692	0.077
692	0.076
693	0.076
693	0.076
694	0.076
694	0.075
695	0.076
695	0.077
695	0.077
696	0.077
696	0.077
697	0.077
697	0.077
698	0.077
698	0.076
698	0.076
699	0.076
699	0.075
700	0.074
700	0.074
701	0.074
701	0.073
702	0.073
702	0.073
702	0.073
703	0.073
703	0.073
704	0.072
704	0.072
705	0.073
705	0.073
705	0.073
706	0.073
706	0.073
707	0.074
707	0.074
708	0.074
708	0.074
709	0.074
709	0.074
709	0.074
710	0.073
710	0.073
711	0.073
711	0.073
712	0.073
712	0.072
713	0.072
713	0.072
713	0.071
714	0.071
714	0.071
715	0.07
715	0.07
716	0.069
716	0.069
716	0.068
717	0.067
717	0.067
718	0.066
718	0.066
719	0.066
719	0.066
720	0.067
720	0.067
720	0.067
721	0.067
721	0.068
722	0.068
722	0.068
723	0.069
723	0.069
723	0.069
724	0.069
724	0.068
725	0.068
725	0.067
726	0.067
726	0.067
727	0.066
727	0.066
727	0.066
728	0.065
728	0.065
729	0.065
729	0.065
730	0.064
730	0.064
730	0.065
731	0.065
731	0.065
732	0.066
732	0.066
733	0.066
733	0.067
734	0.067
734	0.068
734	0.068
735	0.069
735	0.069
736	0.068
736	0.068
737	0.068
737	0.069
737	0.068
738	0.068
738	0.066
739	0.066
739	0.065
740	0.064
740	0.063
741	0.063
741	0.063
741	0.062
742	0.062
742	0.062
743	0.063
743	0.064
744	0.065
744	0.065
744	0.066
745	0.066
745	0.066
746	0.066
746	0.066
747	0.066
747	0.066
748	0.065
748	0.065
748	0.065
749	0.064
749	0.064
750	0.064
750	0.063
751	0.063
751	0.062
751	0.062
752	0.062
752	0.061
753	0.06
753	0.06
754	0.059
754	0.059
754	0.059
755	0.059
755	0.059
756	0.059
756	0.057
757	0.057
757	0.057
758	0.057
758	0.057
758	0.057
759	0.057
759	0.056
760	0.056
760	0.055
761	0.055
761	0.055
761	0.055
762	0.055
762	0.055
763	0.055
763	0.055
764	0.055
764	0.055
764	0.055
765	0.055
765	0.055
766	0.055
766	0.055
767	0.055
767	0.054
768	0.053
768	0.053
768	0.054
769	0.054
769	0.054
770	0.054
770	0.055
771	0.055
771	0.055
771	0.055
772	0.056
772	0.056
773	0.056
773	0.056
774	0.056
774	0.056
775	0.056
775	0.056
775	0.056
776	0.056
776	0.056
777	0.056
777	0.056
778	0.056
778	0.056
778	0.055
779	0.056
779	0.055
780	0.055
780	0.055
781	0.054
781	0.054
781	0.054
782	0.054
782	0.054
783	0.054
783	0.055
784	0.054
784	0.054
784	0.055
785	0.055
785	0.055
786	0.055
786	0.055
787	0.055
787	0.055
788	0.054
788	0.054
788	0.053
789	0.052
789	0.052
790	0.051
790	0.05
791	0.049
791	0.048
791	0.047
792	0.048
792	0.047
793	0.046
793	0.046
794	0.046
794	0.046
794	0.046
795	0.046
795	0.047
796	0.047
796	0.047
797	0.047
797	0.047
797	0.048
798	0.048
798	0.048
799	0.048
799	0.048
800	0.048
800	0.048
801	0.047
801	0.047
801	0.047
802	0.047
802	0.046
803	0.046
803	0.046
804	0.046
804	0.046
804	0.046
805	0.046
805	0.045
806	0.045
806	0.046
807	0.046
807	0.046
807	0.046
808	0.047
808	0.047
809	0.047
809	0.047
810	0.048
810	0.048
810	0.048
811	0.048
811	0.048
812	0.048
812	0.048
813	0.048
813	0.048
813	0.048
814	0.049
814	0.049
815	0.05
815	0.05
816	0.05
816	0.049
817	0.049
817	0.049
817	0.049
818	0.048
818	0.049
819	0.048
819	0.048
820	0.047
820	0.047
820	0.047
821	0.048
821	0.048
822	0.048
822	0.048
823	0.048
823	0.047
823	0.048
824	0.049
824	0.049
825	0.05
825	0.051
826	0.051
826	0.051
826	0.051
827	0.051
827	0.051
828	0.051
828	0.051
829	0.051
829	0.051
829	0.051
830	0.05
830	0.051
831	0.051
831	0.052
832	0.051
832	0.051
832	0.051
833	0.051
833	0.051
834	0.05
834	0.05
835	0.049
835	0.048
835	0.047
836	0.047
836	0.046
837	0.046
837	0.045
838	0.045
838	0.045
839	0.045
839	0.045
839	0.045
840	0.045
840	0.045
841	0.044
841	0.044
842	0.044
842	0.043
842	0.043
843	0.042
843	0.042
844	0.041
844	0.04
845	0.04
845	0.039
845	0.039
846	0.038
846	0.038
847	0.038
847	0.038
848	0.038
848	0.038
848	0.038
849	0.039
849	0.039
850	0.04
850	0.04
851	0.04
851	0.041
851	0.041
852	0.04
852	0.04
853	0.04
853	0.04
854	0.04
854	0.04
854	0.041
855	0.041
855	0.041
856	0.042
856	0.042
857	0.043
857	0.043
857	0.044
858	0.044
858	0.044
859	0.043
859	0.043
860	0.043
860	0.042
860	0.042
861	0.042
861	0.042
862	0.041
862	0.041
863	0.04
863	0.04
863	0.04
864	0.04
864	0.04
865	0.04
865	0.04
866	0.04
866	0.04
866	0.04
867	0.041
867	0.041
868	0.042
868	0.042
869	0.042
869	0.042
869	0.041
870	0.041
870	0.041
871	0.041
871	0.041
872	0.041
872	0.04
872	0.04
873	0.039
873	0.039
874	0.039
874	0.039
875	0.039
875	0.039
875	0.039
876	0.04
876	0.04
877	0.041
877	0.041
878	0.042
878	0.042
878	0.043
879	0.043
879	0.043
880	0.043
880	0.043
881	0.042
881	0.042
881	0.042
882	0.041
882	0.041
883	0.041
883	0.041
884	0.041
884	0.041
884	0.041
885	0.041
885	0.041
886	0.041
886	0.04
887	0.04
887	0.039
887	0.038
888	0.037
888	0.036
889	0.035
889	0.034
890	0.034
890	0.034
890	0.033
891	0.033
891	0.033
892	0.033
892	0.033
893	0.033
893	0.033
893	0.033
894	0.033
894	0.032
895	0.032
895	0.033
895	0.033
896	0.034
896	0.035
897	0.036
897	0.037
898	0.037
898	0.038
898	0.039
899	0.039
899	0.04
900	0.04
900	0.04
901	0.04
901	0.04
901	0.04
902	0.039
902	0.039
903	0.038
903	0.038
904	0.037
904	0.037
904	0.036
905	0.035
905	0.035
906	0.034
906	0.034
907	0.034
907	0.034
907	0.034
908	0.033
908	0.033
909	0.033
909	0.033
910	0.033
910	0.033
910	0.033
911	0.032
911	0.032
912	0.032
912	0.032
913	0.032
913	0.032
913	0.032
914	0.032
914	0.032
915	0.033
915	0.033
916	0.033
916	0.034
916	0.034
917	0.034
917	0.035
918	0.035
918	0.035
918	0.036
919	0.036
919	0.036
920	0.037
920	0.037
921	0.037
921	0.037
921	0.038
922	0.038
922	0.038
923	0.038
923	0.038
924	0.039
924	0.039
924	0.039
925	0.04
925	0.04
926	0.04
926	0.041
927	0.041
927	0.041
927	0.041
928	0.041
928	0.041
929	0.04
929	0.04
930	0.039
930	0.039
930	0.038
931	0.038
931	0.037
932	0.037
932	0.036
933	0.036
933	0.036
933	0.035
934	0.035
934	0.034
935	0.034
935	0.034
935	0.033
936	0.033
936	0.033
937	0.033
937	0.032
938	0.032
938	0.032
938	0.032
939	0.032
939	0.032
940	0.032
940	0.033
941	0.033
941	0.033
941	0.034
942	0.034
942	0.034
943	0.034
943	0.034
944	0.034
944	0.035
944	0.035
945	0.035
945	0.035
946	0.036
946	0.036
946	0.036
947	0.036
947	0.036
948	0.037
948	0.037
949	0.037
949	0.037
949	0.037
950	0.037
950	0.037
951	0.038
951	0.037
952	0.037
952	0.037
952	0.038
953	0.038
953	0.038
954	0.038
954	0.038
955	0.037
955	0.037
955	0.037
956	0.037
956	0.037
957	0.038
957	0.038
957	0.038
958	0.038
958	0.038
959	0.038
959	0.038
960	0.038
960	0.038
960	0.038
961	0.038
961	0.038
962	0.037
962	0.037
963	0.037
963	0.037
963	0.037
964	0.037
964	0.038
965	0.038
965	0.038
966	0.038
966	0.038
966	0.039
967	0.039
967	0.039
968	0.039
968	0.039
968	0.039
969	0.038
969	0.038
970	0.037
970	0.036
971	0.036
971	0.035
971	0.034
972	0.033
972	0.032
973	0.032
973	0.031
974	0.031
974	0.031
974	0.031
975	0.031
975	0.031
976	0.031
976	0.031
976	0.031
977	0.031
977	0.031
978	0.031
978	0.031
979	0.031
979	0.031
979	0.031
980	0.031
980	0.031
981	0.031
981	0.031
982	0.031
982	0.031
982	0.031
983	0.031
983	0.031
984	0.031
984	0.031
984	0.031
985	0.031
985	0.032
986	0.032
986	0.032
987	0.032
987	0.033
987	0.033
988	0.033
988	0.033
989	0.034
989	0.034
990	0.034
990	0.034
990	0.034
991	0.034
991	0.033
992	0.033
992	0.033
992	0.032
993	0.031
993	0.03
994	0.03
994	0.029
995	0.029
995	0.028
995	0.028
996	0.028
996	0.029
997	0.029
997	0.03
997	0.03
998	0.031
998	0.032
999	0.033
999	0.033
1000	0.034
1000	0.035
1000	0.035
1001	0.035
1001	0.035
1002	0.034
1002	0.034
1003	0.033
1003	0.033
1003	0.032
1004	0.031
1004	0.03
1005	0.029
1005	0.028
1005	0.028
1006	0.027
1006	0.027
1007	0.026
1007	0.026
1008	0.026
1008	0.026
1008	0.026
1009	0.026
1009	0.027
1010	0.027
1010	0.027
1010	0.027
1011	0.027
1011	0.027
1012	0.027
1012	0.026
1013	0.026
1013	0.026
1013	0.026
1014	0.025
1014	0.025
1015	0.025
1015	0.026
1016	0.026
1016	0.026
1016	0.026
1017	0.026
1017	0.026
1018	0.026
1018	0.026
1018	0.027
1019	0.027
1019	0.027
1020	0.027
1020	0.027
1021	0.027
1021	0.027
1021	0.028
1022	0.028
1022	0.028
1023	0.029
1023	0.029
1023	0.029
1024	0.029
1024	0.029
1025	0.029
1025	0.029
1026	0.029
1026	0.029
1026	0.029
1027	0.029
1027	0.029
1028	0.029
1028	0.029
1028	0.029
1029	0.029
1029	0.029
1030	0.029
1030	0.029
1031	0.029
1031	0.029
1031	0.029
1032	0.029
1032	0.029
1033	0.029
1033	0.029
1033	0.029
1034	0.029
1034	0.029
1035	0.029
1035	0.029
1036	0.029
1036	0.029
1036	0.029
1037	0.029
1037	0.029
1038	0.029
1038	0.03
1039	0.03
1039	0.03
1039	0.031
1040	0.031
1040	0.031
1041	0.031
1041	0.031
1041	0.031
1042	0.031
1042	0.031
1043	0.031
1043	0.031
1044	0.03
1044	0.03
1044	0.03
1045	0.03
1045	0.029
1046	0.029
1046	0.03
1046	0.03
1047	0.03
1047	0.03
1048	0.03
1048	0.031
1049	0.031
1049	0.031
1049	0.031
1050	0.03
1050	0.03
1051	0.029
1051	0.029
1051	0.028
1052	0.028
1052	0.027
1053	0.027
1053	0.026
1053	0.026
1054	0.026
1054	0.025
1055	0.026
1055	0.025
1056	0.025
1056	0.025
1056	0.024
1057	0.023
1057	0.023
1058	0.022
1058	0.021
1058	0.02
1059	0.019
1059	0.018
1060	0.018
1060	0.017
1061	0.017
1061	0.016
1061	0.016
1062	0.016
1062	0.016
1063	0.016
1063	0.016
1063	0.016
1064	0.016
1064	0.016
1065	0.016
1065	0.016
1066	0.017
1066	0.017
1066	0.017
1067	0.017
1067	0.017
1068	0.017
1068	0.017
1068	0.016
1069	0.016
1069	0.016
1070	0.016
1070	0.015
1071	0.015
1071	0.015
1071	0.015
1072	0.015
1072	0.014
1073	0.014
1073	0.014
1073	0.014
1074	0.014
1074	0.015
1075	0.015
1075	0.015
1076	0.015
1076	0.015
1076	0.015
1077	0.015
1077	0.016
1078	0.016
1078	0.016
1078	0.015
1079	0.015
1079	0.015
1080	0.014
1080	0.014
1080	0.014
1081	0.014
1081	0.013
1082	0.014
1082	0.014
1083	0.013
1083	0.013
1083	0.013
1084	0.013
1084	0.014
1085	0.013
1085	0.013
1085	0.014
1086	0.014
1086	0.014
1087	0.014
1087	0.015
1088	0.015
1088	0.015
1088	0.016
1089	0.015
1089	0.015
1090	0.015
1090	0.014
1090	0.013
1091	0.013
1091	0.013
1092	0.013
1092	0.014
1092	0.013
1093	0.013
1093	0.014
1094	0.014
1094	0.014
1095	0.014
1095	0.014
1095	0.013
1096	0.013
1096	0.012
1097	0.011
1097	0.011
1097	0.01
1098	0.01
1098	0.008
1099	0.007
1099	0.005
1100	0.005
1100	0.003
1100	0.001
1101	-0
1101	-0.002
1102	-0.003
1102	-0.005
1102	-0.007
1103	-0.007
1103	-0.008
1104	-0.008
1104	-0.009
1104	-0.01
1105	-0.01
1105	-0.012
1106	-0.014
1106	-0.015
1107	-0.016
1107	-0.017
1107	-0.018
1108	-0.02
1108	-0.021
1109	-0.022
1109	-0.023
1109	-0.024
1110	-0.024
1110	-0.024
1111	-0.024
1111	-0.022
