Data from reversibility-20sec_Absorbance__6531__000000000006531.txt Node

Date: Thu Dec 07 00:30:06 CET 2023
User: Marek
Spectrometer: MAYP115816
Trigger mode: 0
Integration Time (sec): 2.000000E-1
Scans to average: 10
Electric dark correction enabled: true
Nonlinearity correction enabled: true
Boxcar width: 5
XAxis mode: Wavelengths
Number of Pixels in Spectrum: 2068
>>>>>Begin Spectral Data<<<<<
199	-0.168
199	-0.141
200	-0.072
200	-0.017
201	0.007
201	0.025
202	0.038
202	0.049
203	0.056
203	0.06
204	0.074
204	0.089
205	0.101
205	0.107
205	0.104
206	0.104
206	0.105
207	0.106
207	0.105
208	0.106
208	0.104
209	0.104
209	0.104
210	0.107
210	0.109
211	0.111
211	0.113
212	0.11
212	0.112
213	0.115
213	0.116
213	0.118
214	0.125
214	0.124
215	0.124
215	0.119
216	0.119
216	0.121
217	0.124
217	0.125
218	0.124
218	0.128
219	0.132
219	0.129
220	0.133
220	0.133
221	0.135
221	0.139
221	0.143
222	0.148
222	0.151
223	0.158
223	0.159
224	0.165
224	0.174
225	0.182
225	0.191
226	0.203
226	0.212
227	0.223
227	0.236
228	0.255
228	0.269
229	0.285
229	0.306
229	0.329
230	0.352
230	0.382
231	0.415
231	0.454
232	0.492
232	0.534
233	0.577
233	0.626
234	0.678
234	0.731
235	0.784
235	0.838
236	0.89
236	0.94
236	0.991
237	1.038
237	1.087
238	1.134
238	1.181
239	1.226
239	1.268
240	1.31
240	1.346
241	1.38
241	1.419
242	1.448
242	1.484
243	1.511
243	1.535
243	1.56
244	1.585
244	1.604
245	1.621
245	1.645
246	1.664
246	1.68
247	1.695
247	1.709
248	1.723
248	1.737
249	1.746
249	1.753
250	1.761
250	1.77
250	1.772
251	1.775
251	1.777
252	1.783
252	1.784
253	1.784
253	1.781
254	1.781
254	1.784
255	1.784
255	1.784
256	1.785
256	1.785
257	1.787
257	1.784
258	1.784
258	1.785
258	1.787
259	1.787
259	1.785
260	1.785
260	1.785
261	1.785
261	1.786
262	1.788
262	1.79
263	1.792
263	1.793
264	1.795
264	1.794
265	1.797
265	1.797
265	1.798
266	1.798
266	1.798
267	1.797
267	1.798
268	1.797
268	1.797
269	1.797
269	1.797
270	1.795
270	1.795
271	1.793
271	1.792
272	1.789
272	1.787
272	1.784
273	1.779
273	1.773
274	1.767
274	1.762
275	1.755
275	1.749
276	1.741
276	1.733
277	1.726
277	1.715
278	1.704
278	1.693
278	1.679
279	1.664
279	1.645
280	1.622
280	1.594
281	1.562
281	1.525
282	1.485
282	1.444
283	1.404
283	1.364
284	1.325
284	1.287
285	1.251
285	1.219
285	1.189
286	1.163
286	1.14
287	1.12
287	1.104
288	1.089
288	1.076
289	1.065
289	1.056
290	1.048
290	1.04
291	1.034
291	1.029
292	1.024
292	1.019
292	1.015
293	1.011
293	1.007
294	1.004
294	1
295	0.997
295	0.994
296	0.991
296	0.988
297	0.985
297	0.982
298	0.978
298	0.975
298	0.972
299	0.969
299	0.966
300	0.963
300	0.96
301	0.957
301	0.954
302	0.952
302	0.949
303	0.947
303	0.944
304	0.942
304	0.939
305	0.937
305	0.934
305	0.932
306	0.929
306	0.927
307	0.924
307	0.922
308	0.919
308	0.916
309	0.913
309	0.911
310	0.908
310	0.905
311	0.902
311	0.898
311	0.895
312	0.892
312	0.888
313	0.884
313	0.88
314	0.877
314	0.872
315	0.868
315	0.864
316	0.859
316	0.854
317	0.849
317	0.844
318	0.84
318	0.835
318	0.83
319	0.824
319	0.819
320	0.813
320	0.807
321	0.802
321	0.796
322	0.79
322	0.783
323	0.777
323	0.77
324	0.763
324	0.757
324	0.75
325	0.743
325	0.737
326	0.729
326	0.723
327	0.716
327	0.709
328	0.702
328	0.695
329	0.688
329	0.681
330	0.674
330	0.667
330	0.66
331	0.653
331	0.646
332	0.639
332	0.632
333	0.625
333	0.618
334	0.611
334	0.604
335	0.598
335	0.591
336	0.584
336	0.578
336	0.571
337	0.565
337	0.559
338	0.552
338	0.546
339	0.54
339	0.534
340	0.528
340	0.522
341	0.516
341	0.511
342	0.505
342	0.5
342	0.495
343	0.489
343	0.484
344	0.479
344	0.474
345	0.47
345	0.465
346	0.461
346	0.456
347	0.452
347	0.448
348	0.443
348	0.44
348	0.436
349	0.432
349	0.428
350	0.424
350	0.421
351	0.417
351	0.414
352	0.411
352	0.408
353	0.405
353	0.402
354	0.399
354	0.396
354	0.393
355	0.39
355	0.387
356	0.384
356	0.381
357	0.378
357	0.375
358	0.373
358	0.37
359	0.367
359	0.365
360	0.363
360	0.361
360	0.359
361	0.357
361	0.356
362	0.354
362	0.352
363	0.351
363	0.349
364	0.347
364	0.345
365	0.343
365	0.341
366	0.339
366	0.338
366	0.336
367	0.334
367	0.333
368	0.331
368	0.33
369	0.328
369	0.327
370	0.325
370	0.324
371	0.322
371	0.321
372	0.32
372	0.318
372	0.317
373	0.316
373	0.315
374	0.314
374	0.313
375	0.312
375	0.311
376	0.31
376	0.309
377	0.308
377	0.307
378	0.306
378	0.305
378	0.305
379	0.304
379	0.303
380	0.302
380	0.302
381	0.301
381	0.3
382	0.3
382	0.299
383	0.298
383	0.298
383	0.297
384	0.296
384	0.296
385	0.295
385	0.295
386	0.294
386	0.294
387	0.293
387	0.293
388	0.292
388	0.292
389	0.291
389	0.291
389	0.29
390	0.29
390	0.29
391	0.289
391	0.289
392	0.289
392	0.288
393	0.288
393	0.287
394	0.287
394	0.287
394	0.286
395	0.286
395	0.285
396	0.285
396	0.284
397	0.284
397	0.283
398	0.283
398	0.282
399	0.282
399	0.281
400	0.281
400	0.281
400	0.28
401	0.28
401	0.28
402	0.28
402	0.28
403	0.279
403	0.279
404	0.279
404	0.279
405	0.278
405	0.278
405	0.278
406	0.277
406	0.277
407	0.277
407	0.276
408	0.276
408	0.276
409	0.275
409	0.275
410	0.275
410	0.275
411	0.274
411	0.274
411	0.274
412	0.273
412	0.273
413	0.273
413	0.272
414	0.272
414	0.272
415	0.271
415	0.271
416	0.271
416	0.27
416	0.27
417	0.269
417	0.269
418	0.269
418	0.268
419	0.268
419	0.267
420	0.267
420	0.266
421	0.266
421	0.266
421	0.265
422	0.265
422	0.265
423	0.264
423	0.264
424	0.264
424	0.264
425	0.263
425	0.263
426	0.263
426	0.263
427	0.262
427	0.262
427	0.262
428	0.261
428	0.261
429	0.261
429	0.26
430	0.26
430	0.26
431	0.26
431	0.259
432	0.259
432	0.259
432	0.259
433	0.259
433	0.258
434	0.258
434	0.258
435	0.258
435	0.258
436	0.257
436	0.257
437	0.257
437	0.256
437	0.256
438	0.256
438	0.256
439	0.255
439	0.255
440	0.255
440	0.255
441	0.255
441	0.254
442	0.254
442	0.254
442	0.254
443	0.253
443	0.253
444	0.253
444	0.253
445	0.253
445	0.253
446	0.253
446	0.252
447	0.252
447	0.252
447	0.252
448	0.252
448	0.251
449	0.251
449	0.251
450	0.251
450	0.251
451	0.251
451	0.251
452	0.251
452	0.251
452	0.251
453	0.251
453	0.25
454	0.25
454	0.25
455	0.25
455	0.249
456	0.249
456	0.249
457	0.249
457	0.249
458	0.248
458	0.248
458	0.248
459	0.248
459	0.248
460	0.248
460	0.248
461	0.248
461	0.248
462	0.248
462	0.248
463	0.248
463	0.248
463	0.247
464	0.247
464	0.247
465	0.247
465	0.247
466	0.247
466	0.247
467	0.247
467	0.247
467	0.248
468	0.248
468	0.248
469	0.248
469	0.249
470	0.249
470	0.249
471	0.249
471	0.249
472	0.249
472	0.249
472	0.249
473	0.249
473	0.249
474	0.249
474	0.249
475	0.249
475	0.25
476	0.25
476	0.25
477	0.25
477	0.25
477	0.25
478	0.251
478	0.251
479	0.251
479	0.251
480	0.252
480	0.252
481	0.252
481	0.252
482	0.252
482	0.253
482	0.253
483	0.253
483	0.254
484	0.254
484	0.255
485	0.255
485	0.255
486	0.256
486	0.256
487	0.256
487	0.257
487	0.257
488	0.258
488	0.258
489	0.259
489	0.26
490	0.261
490	0.261
491	0.262
491	0.263
492	0.263
492	0.264
492	0.265
493	0.266
493	0.267
494	0.267
494	0.268
495	0.268
495	0.269
496	0.27
496	0.271
496	0.271
497	0.272
497	0.272
498	0.273
498	0.274
499	0.275
499	0.276
500	0.277
500	0.277
501	0.278
501	0.279
501	0.279
502	0.28
502	0.281
503	0.282
503	0.283
504	0.283
504	0.284
505	0.285
505	0.286
506	0.286
506	0.287
506	0.288
507	0.288
507	0.289
508	0.29
508	0.29
509	0.291
509	0.292
510	0.293
510	0.293
511	0.294
511	0.295
511	0.296
512	0.296
512	0.297
513	0.298
513	0.299
514	0.299
514	0.3
515	0.3
515	0.301
515	0.301
516	0.302
516	0.302
517	0.303
517	0.303
518	0.303
518	0.303
519	0.304
519	0.304
520	0.304
520	0.305
520	0.305
521	0.305
521	0.305
522	0.305
522	0.305
523	0.305
523	0.305
524	0.305
524	0.305
524	0.305
525	0.305
525	0.305
526	0.304
526	0.304
527	0.304
527	0.304
528	0.304
528	0.303
529	0.303
529	0.302
529	0.302
530	0.301
530	0.301
531	0.3
531	0.299
532	0.298
532	0.298
533	0.297
533	0.297
533	0.296
534	0.296
534	0.295
535	0.294
535	0.294
536	0.293
536	0.292
537	0.292
537	0.291
538	0.29
538	0.289
538	0.288
539	0.287
539	0.287
540	0.286
540	0.285
541	0.284
541	0.283
542	0.282
542	0.281
542	0.28
543	0.279
543	0.278
544	0.277
544	0.276
545	0.275
545	0.274
546	0.273
546	0.272
547	0.271
547	0.269
547	0.268
548	0.267
548	0.266
549	0.265
549	0.264
550	0.263
550	0.262
551	0.261
551	0.26
551	0.259
552	0.258
552	0.257
553	0.256
553	0.255
554	0.253
554	0.252
555	0.25
555	0.249
556	0.247
556	0.246
556	0.245
557	0.245
557	0.244
558	0.243
558	0.242
559	0.242
559	0.241
560	0.24
560	0.24
560	0.239
561	0.238
561	0.237
562	0.236
562	0.234
563	0.233
563	0.232
564	0.23
564	0.229
564	0.228
565	0.228
565	0.227
566	0.225
566	0.224
567	0.224
567	0.223
568	0.223
568	0.222
568	0.221
569	0.22
569	0.219
570	0.217
570	0.216
571	0.215
571	0.214
572	0.213
572	0.212
573	0.211
573	0.211
573	0.21
574	0.209
574	0.209
575	0.208
575	0.208
576	0.208
576	0.206
577	0.205
577	0.204
577	0.204
578	0.203
578	0.202
579	0.202
579	0.201
580	0.2
580	0.199
581	0.198
581	0.198
581	0.197
582	0.197
582	0.197
583	0.197
583	0.196
584	0.195
584	0.194
585	0.193
585	0.193
585	0.193
586	0.192
586	0.191
587	0.19
587	0.189
588	0.188
588	0.188
589	0.187
589	0.187
590	0.186
590	0.186
590	0.186
591	0.186
591	0.185
592	0.184
592	0.183
593	0.183
593	0.182
594	0.181
594	0.181
594	0.18
595	0.18
595	0.179
596	0.178
596	0.178
597	0.179
597	0.179
598	0.178
598	0.178
598	0.178
599	0.178
599	0.177
600	0.176
600	0.176
601	0.176
601	0.175
602	0.174
602	0.174
602	0.173
603	0.172
603	0.172
604	0.172
604	0.172
605	0.172
605	0.171
606	0.171
606	0.17
606	0.169
607	0.169
607	0.169
608	0.168
608	0.168
609	0.168
609	0.167
610	0.167
610	0.166
610	0.166
611	0.166
611	0.166
612	0.165
612	0.165
613	0.165
613	0.165
614	0.164
614	0.164
614	0.164
615	0.164
615	0.164
616	0.163
616	0.163
617	0.163
617	0.163
618	0.162
618	0.163
618	0.162
619	0.163
619	0.163
620	0.163
620	0.163
621	0.162
621	0.162
622	0.161
622	0.16
622	0.16
623	0.159
623	0.159
624	0.158
624	0.158
625	0.157
625	0.157
626	0.156
626	0.156
626	0.156
627	0.156
627	0.156
628	0.156
628	0.156
629	0.155
629	0.155
630	0.155
630	0.155
630	0.155
631	0.154
631	0.154
632	0.153
632	0.153
633	0.153
633	0.153
634	0.153
634	0.153
634	0.153
635	0.152
635	0.152
636	0.152
636	0.152
637	0.152
637	0.152
638	0.151
638	0.151
638	0.151
639	0.15
639	0.15
640	0.15
640	0.15
641	0.15
641	0.15
642	0.149
642	0.149
642	0.149
643	0.149
643	0.149
644	0.149
644	0.149
645	0.149
645	0.149
646	0.149
646	0.149
646	0.15
647	0.15
647	0.149
648	0.149
648	0.148
649	0.148
649	0.147
650	0.147
650	0.147
650	0.147
651	0.147
651	0.147
652	0.147
652	0.147
653	0.148
653	0.149
653	0.155
654	0.123
654	0.099
655	0.098
655	0.098
656	0.098
656	0.099
657	0.099
657	0.099
657	0.099
658	0.098
658	0.089
659	0.112
659	0.142
660	0.147
660	0.148
661	0.147
661	0.147
661	0.147
662	0.146
662	0.146
663	0.146
663	0.145
664	0.145
664	0.145
665	0.145
665	0.145
665	0.144
666	0.144
666	0.144
667	0.144
667	0.145
668	0.145
668	0.146
669	0.146
669	0.146
669	0.147
670	0.147
670	0.147
671	0.147
671	0.147
672	0.146
672	0.145
672	0.145
673	0.144
673	0.144
674	0.143
674	0.142
675	0.142
675	0.142
676	0.142
676	0.142
676	0.142
677	0.142
677	0.142
678	0.143
678	0.143
679	0.142
679	0.143
680	0.143
680	0.143
680	0.142
681	0.142
681	0.142
682	0.142
682	0.142
683	0.142
683	0.143
684	0.143
684	0.142
684	0.142
685	0.142
685	0.143
686	0.143
686	0.143
687	0.143
687	0.143
687	0.143
688	0.143
688	0.143
689	0.143
689	0.144
690	0.144
690	0.143
691	0.143
691	0.143
691	0.143
692	0.143
692	0.143
693	0.144
693	0.144
694	0.144
694	0.143
695	0.144
695	0.145
695	0.145
696	0.144
696	0.145
697	0.145
697	0.145
698	0.144
698	0.144
698	0.144
699	0.144
699	0.144
700	0.144
700	0.144
701	0.144
701	0.144
702	0.144
702	0.144
702	0.144
703	0.143
703	0.143
704	0.143
704	0.143
705	0.143
705	0.142
705	0.142
706	0.142
706	0.142
707	0.142
707	0.142
708	0.142
708	0.142
709	0.142
709	0.142
709	0.142
710	0.142
710	0.143
711	0.143
711	0.144
712	0.144
712	0.145
713	0.145
713	0.145
713	0.145
714	0.145
714	0.145
715	0.145
715	0.144
716	0.144
716	0.144
716	0.143
717	0.142
717	0.142
718	0.142
718	0.141
719	0.142
719	0.142
720	0.143
720	0.143
720	0.144
721	0.144
721	0.145
722	0.145
722	0.146
723	0.146
723	0.146
723	0.146
724	0.146
724	0.146
725	0.145
725	0.144
726	0.144
726	0.143
727	0.142
727	0.141
727	0.141
728	0.141
728	0.141
729	0.141
729	0.141
730	0.142
730	0.142
730	0.143
731	0.144
731	0.145
732	0.146
732	0.146
733	0.147
733	0.147
734	0.147
734	0.148
734	0.148
735	0.148
735	0.148
736	0.148
736	0.148
737	0.148
737	0.148
737	0.148
738	0.147
738	0.146
739	0.146
739	0.146
740	0.146
740	0.145
741	0.146
741	0.145
741	0.145
742	0.145
742	0.146
743	0.146
743	0.147
744	0.148
744	0.148
744	0.149
745	0.149
745	0.149
746	0.149
746	0.149
747	0.15
747	0.149
748	0.149
748	0.149
748	0.149
749	0.149
749	0.149
750	0.149
750	0.149
751	0.149
751	0.149
751	0.15
752	0.149
752	0.149
753	0.148
753	0.148
754	0.148
754	0.147
754	0.147
755	0.147
755	0.147
756	0.146
756	0.145
757	0.145
757	0.145
758	0.145
758	0.145
758	0.145
759	0.145
759	0.145
760	0.145
760	0.145
761	0.145
761	0.145
761	0.146
762	0.145
762	0.146
763	0.146
763	0.145
764	0.145
764	0.145
764	0.145
765	0.145
765	0.145
766	0.145
766	0.144
767	0.144
767	0.143
768	0.143
768	0.143
768	0.143
769	0.143
769	0.144
770	0.144
770	0.145
771	0.145
771	0.146
771	0.147
772	0.148
772	0.148
773	0.149
773	0.149
774	0.149
774	0.149
775	0.149
775	0.15
775	0.149
776	0.149
776	0.15
777	0.15
777	0.15
778	0.15
778	0.149
778	0.149
779	0.149
779	0.149
780	0.148
780	0.147
781	0.147
781	0.146
781	0.145
782	0.145
782	0.145
783	0.145
783	0.146
784	0.145
784	0.146
784	0.146
785	0.146
785	0.146
786	0.146
786	0.146
787	0.146
787	0.146
788	0.145
788	0.144
788	0.143
789	0.143
789	0.143
790	0.143
790	0.142
791	0.142
791	0.142
791	0.142
792	0.142
792	0.143
793	0.143
793	0.143
794	0.142
794	0.142
794	0.142
795	0.142
795	0.143
796	0.143
796	0.143
797	0.143
797	0.143
797	0.143
798	0.143
798	0.143
799	0.143
799	0.143
800	0.143
800	0.142
801	0.142
801	0.141
801	0.141
802	0.142
802	0.142
803	0.142
803	0.142
804	0.143
804	0.143
804	0.143
805	0.143
805	0.143
806	0.143
806	0.143
807	0.142
807	0.141
807	0.141
808	0.141
808	0.14
809	0.14
809	0.14
810	0.14
810	0.139
810	0.139
811	0.139
811	0.14
812	0.141
812	0.141
813	0.141
813	0.142
813	0.142
814	0.142
814	0.143
815	0.143
815	0.143
816	0.143
816	0.142
817	0.141
817	0.141
817	0.14
818	0.139
818	0.139
819	0.138
819	0.137
820	0.137
820	0.136
820	0.136
821	0.136
821	0.136
822	0.136
822	0.136
823	0.136
823	0.136
823	0.137
824	0.138
824	0.139
825	0.14
825	0.141
826	0.141
826	0.141
826	0.141
827	0.141
827	0.142
828	0.142
828	0.142
829	0.142
829	0.142
829	0.142
830	0.142
830	0.142
831	0.143
831	0.143
832	0.143
832	0.143
832	0.143
833	0.142
833	0.142
834	0.142
834	0.141
835	0.141
835	0.14
835	0.14
836	0.14
836	0.139
837	0.139
837	0.139
838	0.138
838	0.138
839	0.137
839	0.137
839	0.136
840	0.135
840	0.134
841	0.133
841	0.132
842	0.131
842	0.13
842	0.129
843	0.128
843	0.126
844	0.126
844	0.125
845	0.124
845	0.124
845	0.124
846	0.124
846	0.124
847	0.125
847	0.125
848	0.126
848	0.126
848	0.127
849	0.128
849	0.128
850	0.128
850	0.128
851	0.127
851	0.127
851	0.126
852	0.125
852	0.124
853	0.123
853	0.123
854	0.122
854	0.123
854	0.123
855	0.123
855	0.124
856	0.124
856	0.125
857	0.126
857	0.127
857	0.128
858	0.128
858	0.129
859	0.129
859	0.128
860	0.128
860	0.128
860	0.128
861	0.127
861	0.127
862	0.126
862	0.125
863	0.124
863	0.123
863	0.123
864	0.122
864	0.122
865	0.122
865	0.121
866	0.121
866	0.121
866	0.121
867	0.121
867	0.122
868	0.122
868	0.122
869	0.122
869	0.122
869	0.122
870	0.122
870	0.122
871	0.122
871	0.122
872	0.122
872	0.122
872	0.122
873	0.121
873	0.121
874	0.12
874	0.12
875	0.119
875	0.118
875	0.118
876	0.117
876	0.117
877	0.116
877	0.116
878	0.116
878	0.116
878	0.117
879	0.117
879	0.118
880	0.118
880	0.118
881	0.119
881	0.119
881	0.119
882	0.119
882	0.119
883	0.119
883	0.119
884	0.119
884	0.119
884	0.119
885	0.119
885	0.119
886	0.118
886	0.118
887	0.117
887	0.117
887	0.116
888	0.115
888	0.114
889	0.113
889	0.113
890	0.112
890	0.112
890	0.111
891	0.111
891	0.111
892	0.11
892	0.11
893	0.11
893	0.11
893	0.109
894	0.109
894	0.109
895	0.109
895	0.109
895	0.109
896	0.109
896	0.11
897	0.11
897	0.11
898	0.109
898	0.109
898	0.109
899	0.108
899	0.108
900	0.107
900	0.107
901	0.106
901	0.106
901	0.105
902	0.105
902	0.105
903	0.104
903	0.104
904	0.104
904	0.104
904	0.104
905	0.104
905	0.104
906	0.104
906	0.105
907	0.105
907	0.106
907	0.107
908	0.107
908	0.107
909	0.107
909	0.107
910	0.107
910	0.107
910	0.107
911	0.107
911	0.106
912	0.105
912	0.105
913	0.104
913	0.104
913	0.103
914	0.103
914	0.102
915	0.102
915	0.102
916	0.101
916	0.101
916	0.101
917	0.101
917	0.1
918	0.1
918	0.1
918	0.099
919	0.099
919	0.098
920	0.098
920	0.098
921	0.098
921	0.098
921	0.097
922	0.097
922	0.097
923	0.097
923	0.098
924	0.098
924	0.098
924	0.098
925	0.099
925	0.099
926	0.099
926	0.099
927	0.1
927	0.1
927	0.1
928	0.1
928	0.1
929	0.1
929	0.1
930	0.1
930	0.1
930	0.1
931	0.1
931	0.099
932	0.099
932	0.099
933	0.099
933	0.098
933	0.098
934	0.097
934	0.097
935	0.097
935	0.096
935	0.096
936	0.095
936	0.095
937	0.094
937	0.094
938	0.093
938	0.093
938	0.092
939	0.092
939	0.092
940	0.091
940	0.091
941	0.091
941	0.092
941	0.092
942	0.092
942	0.092
943	0.093
943	0.093
944	0.093
944	0.093
944	0.093
945	0.093
945	0.093
946	0.093
946	0.093
946	0.093
947	0.093
947	0.093
948	0.093
948	0.093
949	0.092
949	0.092
949	0.092
950	0.091
950	0.091
951	0.091
951	0.09
952	0.089
952	0.089
952	0.088
953	0.088
953	0.087
954	0.087
954	0.087
955	0.087
955	0.086
955	0.087
956	0.087
956	0.087
957	0.088
957	0.088
957	0.088
958	0.088
958	0.088
959	0.088
959	0.088
960	0.089
960	0.088
960	0.088
961	0.088
961	0.088
962	0.088
962	0.088
963	0.088
963	0.088
963	0.088
964	0.088
964	0.088
965	0.088
965	0.088
966	0.088
966	0.088
966	0.087
967	0.087
967	0.087
968	0.086
968	0.086
968	0.085
969	0.084
969	0.083
970	0.082
970	0.082
971	0.081
971	0.081
971	0.08
972	0.08
972	0.08
973	0.08
973	0.08
974	0.08
974	0.081
974	0.082
975	0.082
975	0.083
976	0.084
976	0.085
976	0.085
977	0.085
977	0.085
978	0.085
978	0.085
979	0.085
979	0.085
979	0.085
980	0.084
980	0.084
981	0.083
981	0.083
982	0.083
982	0.083
982	0.083
983	0.083
983	0.084
984	0.084
984	0.084
984	0.084
985	0.084
985	0.084
986	0.084
986	0.083
987	0.083
987	0.083
987	0.083
988	0.083
988	0.083
989	0.083
989	0.083
990	0.083
990	0.082
990	0.082
991	0.082
991	0.082
992	0.081
992	0.081
992	0.08
993	0.079
993	0.078
994	0.077
994	0.076
995	0.075
995	0.075
995	0.074
996	0.074
996	0.074
997	0.074
997	0.075
997	0.075
998	0.075
998	0.076
999	0.076
999	0.077
1000	0.078
1000	0.079
1000	0.079
1001	0.079
1001	0.079
1002	0.079
1002	0.079
1003	0.079
1003	0.079
1003	0.078
1004	0.077
1004	0.076
1005	0.075
1005	0.075
1005	0.074
1006	0.073
1006	0.073
1007	0.072
1007	0.071
1008	0.071
1008	0.071
1008	0.07
1009	0.07
1009	0.071
1010	0.071
1010	0.071
1010	0.071
1011	0.071
1011	0.07
1012	0.07
1012	0.07
1013	0.07
1013	0.069
1013	0.069
1014	0.068
1014	0.067
1015	0.067
1015	0.067
1016	0.067
1016	0.066
1016	0.066
1017	0.066
1017	0.066
1018	0.066
1018	0.065
1018	0.065
1019	0.065
1019	0.065
1020	0.065
1020	0.065
1021	0.065
1021	0.065
1021	0.065
1022	0.065
1022	0.065
1023	0.066
1023	0.066
1023	0.067
1024	0.067
1024	0.068
1025	0.068
1025	0.068
1026	0.068
1026	0.068
1026	0.069
1027	0.069
1027	0.069
1028	0.069
1028	0.069
1028	0.07
1029	0.07
1029	0.07
1030	0.07
1030	0.07
1031	0.07
1031	0.07
1031	0.07
1032	0.07
1032	0.071
1033	0.071
1033	0.071
1033	0.071
1034	0.071
1034	0.071
1035	0.071
1035	0.072
1036	0.072
1036	0.072
1036	0.072
1037	0.072
1037	0.071
1038	0.071
1038	0.071
1039	0.071
1039	0.071
1039	0.071
1040	0.07
1040	0.07
1041	0.07
1041	0.07
1041	0.07
1042	0.069
1042	0.069
1043	0.069
1043	0.069
1044	0.068
1044	0.068
1044	0.068
1045	0.067
1045	0.067
1046	0.067
1046	0.067
1046	0.067
1047	0.067
1047	0.067
1048	0.067
1048	0.067
1049	0.067
1049	0.067
1049	0.067
1050	0.067
1050	0.067
1051	0.067
1051	0.066
1051	0.066
1052	0.066
1052	0.065
1053	0.065
1053	0.064
1053	0.063
1054	0.063
1054	0.062
1055	0.062
1055	0.061
1056	0.061
1056	0.06
1056	0.06
1057	0.059
1057	0.059
1058	0.059
1058	0.058
1058	0.058
1059	0.057
1059	0.057
1060	0.057
1060	0.056
1061	0.056
1061	0.056
1061	0.056
1062	0.056
1062	0.056
1063	0.056
1063	0.055
1063	0.055
1064	0.055
1064	0.055
1065	0.055
1065	0.055
1066	0.055
1066	0.055
1066	0.055
1067	0.055
1067	0.054
1068	0.055
1068	0.055
1068	0.055
1069	0.055
1069	0.054
1070	0.054
1070	0.054
1071	0.053
1071	0.053
1071	0.052
1072	0.052
1072	0.051
1073	0.051
1073	0.05
1073	0.05
1074	0.05
1074	0.05
1075	0.05
1075	0.05
1076	0.05
1076	0.051
1076	0.051
1077	0.051
1077	0.051
1078	0.051
1078	0.051
1078	0.051
1079	0.051
1079	0.05
1080	0.049
1080	0.049
1080	0.048
1081	0.048
1081	0.048
1082	0.048
1082	0.048
1083	0.048
1083	0.047
1083	0.047
1084	0.048
1084	0.048
1085	0.048
1085	0.049
1085	0.049
1086	0.05
1086	0.049
1087	0.049
1087	0.049
1088	0.049
1088	0.049
1088	0.049
1089	0.049
1089	0.048
1090	0.047
1090	0.046
1090	0.046
1091	0.046
1091	0.046
1092	0.046
1092	0.046
1092	0.046
1093	0.046
1093	0.046
1094	0.047
1094	0.046
1095	0.047
1095	0.046
1095	0.046
1096	0.045
1096	0.044
1097	0.043
1097	0.042
1097	0.042
1098	0.041
1098	0.039
1099	0.038
1099	0.037
1100	0.036
1100	0.035
1100	0.033
1101	0.032
1101	0.031
1102	0.03
1102	0.029
1102	0.028
1103	0.027
1103	0.027
1104	0.026
1104	0.026
1104	0.025
1105	0.024
1105	0.023
1106	0.021
1106	0.021
1107	0.019
1107	0.019
1107	0.018
1108	0.016
1108	0.016
1109	0.014
1109	0.013
1109	0.013
1110	0.015
1110	0.012
1111	0.012
1111	0.012
