Data from reversibility-20sec_Absorbance__1240__000000000001240.txt Node

Date: Tue Dec 05 19:06:26 CET 2023
User: Marek
Spectrometer: MAYP115816
Trigger mode: 0
Integration Time (sec): 2.000000E-1
Scans to average: 10
Electric dark correction enabled: true
Nonlinearity correction enabled: true
Boxcar width: 5
XAxis mode: Wavelengths
Number of Pixels in Spectrum: 2068
>>>>>Begin Spectral Data<<<<<
199	-0.21
199	-0.189
200	-0.122
200	-0.069
201	-0.039
201	-0.019
202	-0.005
202	0.007
203	0.015
203	0.018
204	0.03
204	0.046
205	0.063
205	0.071
205	0.069
206	0.07
206	0.069
207	0.072
207	0.069
208	0.068
208	0.069
209	0.072
209	0.07
210	0.067
210	0.066
211	0.069
211	0.071
212	0.07
212	0.071
213	0.076
213	0.076
213	0.077
214	0.081
214	0.082
215	0.085
215	0.083
216	0.085
216	0.082
217	0.087
217	0.091
218	0.089
218	0.094
219	0.099
219	0.101
220	0.104
220	0.103
221	0.108
221	0.11
221	0.114
222	0.118
222	0.122
223	0.128
223	0.129
224	0.133
224	0.142
225	0.149
225	0.158
226	0.167
226	0.177
227	0.189
227	0.2
228	0.214
228	0.228
229	0.247
229	0.27
229	0.292
230	0.318
230	0.349
231	0.38
231	0.42
232	0.458
232	0.503
233	0.546
233	0.598
234	0.644
234	0.696
235	0.749
235	0.804
236	0.857
236	0.91
236	0.963
237	1.016
237	1.068
238	1.12
238	1.168
239	1.223
239	1.27
240	1.314
240	1.351
241	1.391
241	1.432
242	1.466
242	1.504
243	1.536
243	1.566
243	1.597
244	1.621
244	1.649
245	1.669
245	1.697
246	1.72
246	1.74
247	1.757
247	1.775
248	1.793
248	1.81
249	1.823
249	1.835
250	1.845
250	1.859
250	1.869
251	1.879
251	1.883
252	1.892
252	1.898
253	1.904
253	1.906
254	1.91
254	1.915
255	1.916
255	1.918
256	1.919
256	1.92
257	1.925
257	1.926
258	1.928
258	1.93
258	1.931
259	1.934
259	1.934
260	1.936
260	1.938
261	1.939
261	1.944
262	1.948
262	1.952
263	1.956
263	1.958
264	1.961
264	1.964
265	1.97
265	1.97
265	1.972
266	1.976
266	1.978
267	1.977
267	1.981
268	1.982
268	1.984
269	1.988
269	1.987
270	1.987
270	1.991
271	1.99
271	1.99
272	1.987
272	1.988
272	1.984
273	1.977
273	1.971
274	1.966
274	1.96
275	1.953
275	1.947
276	1.939
276	1.932
277	1.925
277	1.915
278	1.905
278	1.895
278	1.882
279	1.865
279	1.845
280	1.821
280	1.79
281	1.754
281	1.714
282	1.672
282	1.628
283	1.586
283	1.544
284	1.503
284	1.464
285	1.426
285	1.392
285	1.361
286	1.334
286	1.311
287	1.289
287	1.271
288	1.255
288	1.241
289	1.23
289	1.22
290	1.212
290	1.203
291	1.196
291	1.19
292	1.185
292	1.179
292	1.175
293	1.17
293	1.166
294	1.162
294	1.158
295	1.155
295	1.151
296	1.148
296	1.145
297	1.142
297	1.139
298	1.135
298	1.133
298	1.129
299	1.127
299	1.123
300	1.12
300	1.117
301	1.114
301	1.111
302	1.108
302	1.105
303	1.102
303	1.099
304	1.097
304	1.094
305	1.092
305	1.089
305	1.086
306	1.084
306	1.081
307	1.078
307	1.076
308	1.073
308	1.07
309	1.066
309	1.063
310	1.059
310	1.056
311	1.053
311	1.048
311	1.045
312	1.041
312	1.037
313	1.033
313	1.029
314	1.025
314	1.02
315	1.016
315	1.011
316	1.006
316	1.002
317	0.997
317	0.992
318	0.987
318	0.981
318	0.976
319	0.97
319	0.964
320	0.959
320	0.953
321	0.946
321	0.94
322	0.934
322	0.927
323	0.92
323	0.914
324	0.907
324	0.9
324	0.893
325	0.886
325	0.879
326	0.871
326	0.864
327	0.857
327	0.85
328	0.843
328	0.836
329	0.828
329	0.821
330	0.814
330	0.807
330	0.799
331	0.792
331	0.785
332	0.778
332	0.771
333	0.764
333	0.756
334	0.749
334	0.742
335	0.735
335	0.728
336	0.721
336	0.714
336	0.708
337	0.701
337	0.694
338	0.688
338	0.681
339	0.675
339	0.669
340	0.663
340	0.657
341	0.651
341	0.645
342	0.639
342	0.634
342	0.628
343	0.623
343	0.618
344	0.613
344	0.608
345	0.603
345	0.598
346	0.594
346	0.589
347	0.584
347	0.58
348	0.575
348	0.571
348	0.567
349	0.563
349	0.559
350	0.555
350	0.551
351	0.548
351	0.544
352	0.541
352	0.537
353	0.534
353	0.531
354	0.528
354	0.524
354	0.521
355	0.518
355	0.515
356	0.512
356	0.509
357	0.505
357	0.503
358	0.5
358	0.497
359	0.494
359	0.492
360	0.489
360	0.487
360	0.485
361	0.482
361	0.48
362	0.479
362	0.477
363	0.475
363	0.473
364	0.471
364	0.469
365	0.467
365	0.465
366	0.463
366	0.461
366	0.459
367	0.457
367	0.455
368	0.453
368	0.451
369	0.449
369	0.447
370	0.446
370	0.444
371	0.442
371	0.441
372	0.439
372	0.438
372	0.436
373	0.435
373	0.433
374	0.432
374	0.431
375	0.429
375	0.428
376	0.427
376	0.426
377	0.424
377	0.423
378	0.422
378	0.42
378	0.419
379	0.418
379	0.417
380	0.416
380	0.415
381	0.414
381	0.412
382	0.412
382	0.411
383	0.41
383	0.409
383	0.408
384	0.407
384	0.406
385	0.405
385	0.405
386	0.404
386	0.403
387	0.402
387	0.401
388	0.4
388	0.399
389	0.398
389	0.398
389	0.397
390	0.396
390	0.395
391	0.395
391	0.394
392	0.394
392	0.393
393	0.392
393	0.392
394	0.391
394	0.39
394	0.39
395	0.389
395	0.388
396	0.388
396	0.387
397	0.386
397	0.385
398	0.384
398	0.384
399	0.383
399	0.383
400	0.382
400	0.382
400	0.381
401	0.381
401	0.38
402	0.379
402	0.379
403	0.379
403	0.378
404	0.378
404	0.377
405	0.377
405	0.376
405	0.375
406	0.375
406	0.374
407	0.373
407	0.373
408	0.372
408	0.372
409	0.371
409	0.37
410	0.37
410	0.37
411	0.369
411	0.369
411	0.368
412	0.368
412	0.367
413	0.367
413	0.366
414	0.366
414	0.366
415	0.365
415	0.365
416	0.364
416	0.364
416	0.364
417	0.363
417	0.363
418	0.363
418	0.362
419	0.362
419	0.361
420	0.361
420	0.36
421	0.36
421	0.359
421	0.359
422	0.358
422	0.358
423	0.358
423	0.357
424	0.357
424	0.356
425	0.356
425	0.355
426	0.355
426	0.355
427	0.354
427	0.354
427	0.353
428	0.353
428	0.353
429	0.352
429	0.352
430	0.352
430	0.351
431	0.351
431	0.351
432	0.351
432	0.351
432	0.35
433	0.35
433	0.35
434	0.35
434	0.35
435	0.349
435	0.349
436	0.349
436	0.349
437	0.349
437	0.348
437	0.348
438	0.348
438	0.348
439	0.347
439	0.347
440	0.347
440	0.347
441	0.346
441	0.346
442	0.346
442	0.346
442	0.346
443	0.345
443	0.346
444	0.346
444	0.345
445	0.345
445	0.345
446	0.345
446	0.345
447	0.345
447	0.345
447	0.345
448	0.345
448	0.345
449	0.344
449	0.344
450	0.344
450	0.344
451	0.344
451	0.344
452	0.344
452	0.344
452	0.344
453	0.344
453	0.344
454	0.344
454	0.344
455	0.344
455	0.344
456	0.344
456	0.344
457	0.343
457	0.344
458	0.344
458	0.344
458	0.344
459	0.344
459	0.344
460	0.344
460	0.344
461	0.344
461	0.344
462	0.344
462	0.344
463	0.344
463	0.344
463	0.345
464	0.345
464	0.345
465	0.345
465	0.345
466	0.346
466	0.346
467	0.346
467	0.346
467	0.347
468	0.347
468	0.347
469	0.347
469	0.348
470	0.348
470	0.349
471	0.349
471	0.349
472	0.35
472	0.351
472	0.351
473	0.352
473	0.352
474	0.353
474	0.353
475	0.354
475	0.354
476	0.355
476	0.355
477	0.355
477	0.356
477	0.357
478	0.358
478	0.358
479	0.359
479	0.36
480	0.361
480	0.362
481	0.362
481	0.363
482	0.364
482	0.365
482	0.365
483	0.366
483	0.368
484	0.369
484	0.369
485	0.37
485	0.371
486	0.372
486	0.373
487	0.374
487	0.375
487	0.376
488	0.377
488	0.378
489	0.38
489	0.382
490	0.383
490	0.385
491	0.386
491	0.388
492	0.389
492	0.39
492	0.392
493	0.393
493	0.395
494	0.397
494	0.398
495	0.4
495	0.401
496	0.403
496	0.405
496	0.406
497	0.408
497	0.409
498	0.41
498	0.412
499	0.413
499	0.415
500	0.417
500	0.419
501	0.42
501	0.422
501	0.423
502	0.425
502	0.426
503	0.428
503	0.429
504	0.431
504	0.432
505	0.433
505	0.435
506	0.436
506	0.437
506	0.439
507	0.44
507	0.442
508	0.443
508	0.445
509	0.446
509	0.448
510	0.449
510	0.451
511	0.452
511	0.454
511	0.456
512	0.457
512	0.458
513	0.459
513	0.46
514	0.461
514	0.463
515	0.463
515	0.464
515	0.465
516	0.465
516	0.466
517	0.467
517	0.467
518	0.468
518	0.468
519	0.468
519	0.468
520	0.469
520	0.469
520	0.469
521	0.469
521	0.469
522	0.468
522	0.468
523	0.468
523	0.468
524	0.467
524	0.467
524	0.467
525	0.467
525	0.466
526	0.465
526	0.465
527	0.464
527	0.463
528	0.462
528	0.461
529	0.46
529	0.458
529	0.457
530	0.455
530	0.454
531	0.453
531	0.451
532	0.449
532	0.448
533	0.446
533	0.444
533	0.442
534	0.44
534	0.438
535	0.436
535	0.435
536	0.433
536	0.431
537	0.429
537	0.427
538	0.424
538	0.422
538	0.42
539	0.418
539	0.415
540	0.413
540	0.411
541	0.408
541	0.406
542	0.403
542	0.401
542	0.398
543	0.395
543	0.393
544	0.39
544	0.388
545	0.385
545	0.382
546	0.38
546	0.377
547	0.374
547	0.371
547	0.369
548	0.366
548	0.364
549	0.361
549	0.358
550	0.355
550	0.353
551	0.35
551	0.346
551	0.344
552	0.341
552	0.338
553	0.335
553	0.332
554	0.33
554	0.327
555	0.324
555	0.321
556	0.318
556	0.315
556	0.313
557	0.311
557	0.309
558	0.306
558	0.304
559	0.302
559	0.299
560	0.297
560	0.295
560	0.293
561	0.291
561	0.288
562	0.286
562	0.283
563	0.28
563	0.278
564	0.275
564	0.273
564	0.27
565	0.268
565	0.266
566	0.263
566	0.261
567	0.26
567	0.257
568	0.256
568	0.254
568	0.252
569	0.25
569	0.248
570	0.246
570	0.244
571	0.242
571	0.24
572	0.238
572	0.236
573	0.234
573	0.232
573	0.231
574	0.229
574	0.227
575	0.226
575	0.224
576	0.223
576	0.221
577	0.219
577	0.218
577	0.216
578	0.215
578	0.213
579	0.212
579	0.211
580	0.209
580	0.207
581	0.205
581	0.204
581	0.203
582	0.202
582	0.201
583	0.2
583	0.199
584	0.197
584	0.195
585	0.193
585	0.192
585	0.19
586	0.189
586	0.187
587	0.185
587	0.184
588	0.182
588	0.181
589	0.18
589	0.179
590	0.178
590	0.177
590	0.177
591	0.176
591	0.175
592	0.174
592	0.172
593	0.171
593	0.17
594	0.169
594	0.168
594	0.167
595	0.166
595	0.165
596	0.163
596	0.163
597	0.163
597	0.162
598	0.161
598	0.161
598	0.16
599	0.159
599	0.159
600	0.158
600	0.157
601	0.156
601	0.155
602	0.154
602	0.153
602	0.152
603	0.151
603	0.15
604	0.149
604	0.148
605	0.148
605	0.147
606	0.146
606	0.145
606	0.144
607	0.143
607	0.143
608	0.142
608	0.141
609	0.14
609	0.139
610	0.138
610	0.137
610	0.137
611	0.136
611	0.136
612	0.135
612	0.135
613	0.135
613	0.134
614	0.133
614	0.132
614	0.132
615	0.131
615	0.131
616	0.131
616	0.13
617	0.13
617	0.129
618	0.128
618	0.128
618	0.128
619	0.128
619	0.128
620	0.127
620	0.127
621	0.126
621	0.125
622	0.124
622	0.123
622	0.122
623	0.121
623	0.12
624	0.12
624	0.119
625	0.118
625	0.118
626	0.117
626	0.117
626	0.117
627	0.116
627	0.116
628	0.115
628	0.115
629	0.115
629	0.114
630	0.113
630	0.113
630	0.113
631	0.113
631	0.112
632	0.112
632	0.111
633	0.111
633	0.11
634	0.11
634	0.11
634	0.11
635	0.109
635	0.109
636	0.108
636	0.108
637	0.107
637	0.107
638	0.106
638	0.106
638	0.105
639	0.104
639	0.104
640	0.103
640	0.103
641	0.102
641	0.102
642	0.102
642	0.101
642	0.101
643	0.101
643	0.101
644	0.101
644	0.101
645	0.101
645	0.1
646	0.1
646	0.1
646	0.1
647	0.099
647	0.098
648	0.097
648	0.097
649	0.096
649	0.096
650	0.096
650	0.095
650	0.095
651	0.095
651	0.095
652	0.095
652	0.095
653	0.095
653	0.097
653	0.103
654	0.083
654	0.068
655	0.066
655	0.066
656	0.066
656	0.066
657	0.066
657	0.066
657	0.066
658	0.064
658	0.056
659	0.07
659	0.088
660	0.092
660	0.092
661	0.091
661	0.09
661	0.089
662	0.089
662	0.088
663	0.088
663	0.087
664	0.087
664	0.086
665	0.086
665	0.086
665	0.086
666	0.086
666	0.086
667	0.085
667	0.086
668	0.086
668	0.085
669	0.085
669	0.085
669	0.086
670	0.086
670	0.086
671	0.085
671	0.085
672	0.085
672	0.084
672	0.084
673	0.084
673	0.083
674	0.083
674	0.082
675	0.081
675	0.081
676	0.081
676	0.081
676	0.08
677	0.08
677	0.08
678	0.079
678	0.079
679	0.079
679	0.079
680	0.079
680	0.079
680	0.078
681	0.078
681	0.078
682	0.078
682	0.078
683	0.079
683	0.079
684	0.079
684	0.079
684	0.078
685	0.078
685	0.078
686	0.078
686	0.078
687	0.078
687	0.077
687	0.077
688	0.077
688	0.077
689	0.077
689	0.077
690	0.077
690	0.077
691	0.077
691	0.077
691	0.077
692	0.077
692	0.078
693	0.078
693	0.078
694	0.078
694	0.078
695	0.078
695	0.079
695	0.079
696	0.079
696	0.078
697	0.078
697	0.078
698	0.077
698	0.076
698	0.076
699	0.076
699	0.075
700	0.074
700	0.075
701	0.075
701	0.074
702	0.074
702	0.074
702	0.074
703	0.074
703	0.074
704	0.073
704	0.073
705	0.073
705	0.072
705	0.071
706	0.071
706	0.071
707	0.071
707	0.07
708	0.07
708	0.07
709	0.07
709	0.07
709	0.069
710	0.069
710	0.07
711	0.07
711	0.069
712	0.069
712	0.069
713	0.069
713	0.069
713	0.069
714	0.069
714	0.069
715	0.069
715	0.068
716	0.068
716	0.068
716	0.068
717	0.067
717	0.067
718	0.066
718	0.065
719	0.065
719	0.065
720	0.065
720	0.065
720	0.065
721	0.065
721	0.066
722	0.066
722	0.066
723	0.066
723	0.067
723	0.067
724	0.067
724	0.066
725	0.065
725	0.065
726	0.064
726	0.064
727	0.063
727	0.063
727	0.062
728	0.062
728	0.062
729	0.062
729	0.062
730	0.062
730	0.062
730	0.062
731	0.062
731	0.063
732	0.063
732	0.063
733	0.062
733	0.062
734	0.062
734	0.062
734	0.062
735	0.062
735	0.062
736	0.061
736	0.061
737	0.061
737	0.061
737	0.061
738	0.06
738	0.059
739	0.059
739	0.058
740	0.058
740	0.057
741	0.057
741	0.056
741	0.056
742	0.055
742	0.055
743	0.056
743	0.056
744	0.057
744	0.057
744	0.057
745	0.057
745	0.057
746	0.057
746	0.057
747	0.058
747	0.058
748	0.058
748	0.059
748	0.059
749	0.059
749	0.059
750	0.059
750	0.059
751	0.059
751	0.059
751	0.059
752	0.059
752	0.058
753	0.058
753	0.058
754	0.058
754	0.058
754	0.059
755	0.059
755	0.059
756	0.058
756	0.057
757	0.056
757	0.056
758	0.055
758	0.055
758	0.055
759	0.054
759	0.054
760	0.054
760	0.054
761	0.054
761	0.054
761	0.055
762	0.055
762	0.055
763	0.055
763	0.055
764	0.054
764	0.054
764	0.054
765	0.053
765	0.052
766	0.052
766	0.051
767	0.051
767	0.049
768	0.048
768	0.048
768	0.047
769	0.047
769	0.047
770	0.047
770	0.047
771	0.047
771	0.047
771	0.047
772	0.048
772	0.049
773	0.049
773	0.05
774	0.05
774	0.051
775	0.051
775	0.051
775	0.051
776	0.051
776	0.051
777	0.051
777	0.051
778	0.05
778	0.05
778	0.049
779	0.049
779	0.048
780	0.048
780	0.047
781	0.047
781	0.046
781	0.046
782	0.046
782	0.045
783	0.046
783	0.046
784	0.046
784	0.046
784	0.047
785	0.047
785	0.047
786	0.047
786	0.047
787	0.047
787	0.047
788	0.047
788	0.046
788	0.046
789	0.045
789	0.045
790	0.045
790	0.045
791	0.045
791	0.045
791	0.045
792	0.046
792	0.046
793	0.046
793	0.046
794	0.046
794	0.046
794	0.045
795	0.045
795	0.046
796	0.045
796	0.045
797	0.045
797	0.044
797	0.044
798	0.044
798	0.044
799	0.044
799	0.044
800	0.043
800	0.043
801	0.043
801	0.043
801	0.043
802	0.044
802	0.044
803	0.044
803	0.044
804	0.045
804	0.045
804	0.045
805	0.045
805	0.045
806	0.045
806	0.044
807	0.044
807	0.044
807	0.043
808	0.043
808	0.043
809	0.043
809	0.043
810	0.043
810	0.043
810	0.043
811	0.043
811	0.044
812	0.044
812	0.044
813	0.044
813	0.044
813	0.045
814	0.045
814	0.045
815	0.045
815	0.045
816	0.045
816	0.044
817	0.044
817	0.044
817	0.044
818	0.043
818	0.043
819	0.043
819	0.042
820	0.041
820	0.041
820	0.041
821	0.041
821	0.041
822	0.041
822	0.041
823	0.041
823	0.041
823	0.042
824	0.043
824	0.044
825	0.044
825	0.045
826	0.045
826	0.045
826	0.045
827	0.045
827	0.045
828	0.045
828	0.045
829	0.045
829	0.044
829	0.044
830	0.044
830	0.045
831	0.045
831	0.046
832	0.046
832	0.046
832	0.046
833	0.046
833	0.046
834	0.046
834	0.046
835	0.046
835	0.046
835	0.047
836	0.047
836	0.048
837	0.048
837	0.048
838	0.047
838	0.047
839	0.046
839	0.045
839	0.044
840	0.043
840	0.042
841	0.041
841	0.04
842	0.039
842	0.038
842	0.038
843	0.037
843	0.037
844	0.037
844	0.036
845	0.036
845	0.036
845	0.036
846	0.036
846	0.035
847	0.036
847	0.036
848	0.037
848	0.037
848	0.038
849	0.039
849	0.04
850	0.04
850	0.041
851	0.041
851	0.041
851	0.041
852	0.041
852	0.04
853	0.039
853	0.039
854	0.038
854	0.038
854	0.038
855	0.038
855	0.039
856	0.038
856	0.039
857	0.039
857	0.039
857	0.039
858	0.039
858	0.039
859	0.038
859	0.037
860	0.036
860	0.036
860	0.035
861	0.034
861	0.033
862	0.032
862	0.032
863	0.031
863	0.03
863	0.03
864	0.03
864	0.03
865	0.03
865	0.03
866	0.03
866	0.03
866	0.03
867	0.031
867	0.031
868	0.031
868	0.031
869	0.032
869	0.032
869	0.032
870	0.032
870	0.032
871	0.032
871	0.033
872	0.033
872	0.033
872	0.034
873	0.034
873	0.034
874	0.034
874	0.034
875	0.034
875	0.034
875	0.034
876	0.034
876	0.034
877	0.035
877	0.035
878	0.036
878	0.037
878	0.038
879	0.039
879	0.04
880	0.041
880	0.041
881	0.042
881	0.042
881	0.041
882	0.041
882	0.04
883	0.039
883	0.038
884	0.037
884	0.035
884	0.034
885	0.033
885	0.032
886	0.032
886	0.031
887	0.031
887	0.03
887	0.03
888	0.03
888	0.029
889	0.029
889	0.029
890	0.029
890	0.029
890	0.029
891	0.029
891	0.029
892	0.03
892	0.03
893	0.03
893	0.031
893	0.031
894	0.031
894	0.031
895	0.031
895	0.032
895	0.032
896	0.032
896	0.032
897	0.032
897	0.031
898	0.031
898	0.031
898	0.031
899	0.031
899	0.031
900	0.031
900	0.031
901	0.031
901	0.032
901	0.032
902	0.033
902	0.033
903	0.033
903	0.033
904	0.033
904	0.033
904	0.033
905	0.033
905	0.033
906	0.033
906	0.033
907	0.033
907	0.034
907	0.034
908	0.035
908	0.035
909	0.036
909	0.036
910	0.037
910	0.037
910	0.037
911	0.037
911	0.037
912	0.036
912	0.036
913	0.036
913	0.036
913	0.035
914	0.035
914	0.034
915	0.034
915	0.033
916	0.033
916	0.032
916	0.031
917	0.031
917	0.03
918	0.029
918	0.029
918	0.028
919	0.028
919	0.027
920	0.027
920	0.027
921	0.027
921	0.027
921	0.028
922	0.028
922	0.028
923	0.028
923	0.028
924	0.029
924	0.029
924	0.029
925	0.029
925	0.029
926	0.03
926	0.03
927	0.03
927	0.03
927	0.03
928	0.03
928	0.03
929	0.03
929	0.03
930	0.03
930	0.031
930	0.031
931	0.031
931	0.032
932	0.033
932	0.033
933	0.034
933	0.034
933	0.034
934	0.034
934	0.034
935	0.034
935	0.034
935	0.033
936	0.033
936	0.033
937	0.033
937	0.032
938	0.032
938	0.032
938	0.032
939	0.032
939	0.032
940	0.032
940	0.032
941	0.033
941	0.033
941	0.033
942	0.033
942	0.033
943	0.033
943	0.033
944	0.033
944	0.033
944	0.033
945	0.033
945	0.033
946	0.032
946	0.032
946	0.032
947	0.032
947	0.032
948	0.032
948	0.031
949	0.031
949	0.031
949	0.031
950	0.031
950	0.032
951	0.032
951	0.032
952	0.031
952	0.031
952	0.032
953	0.032
953	0.031
954	0.031
954	0.031
955	0.031
955	0.031
955	0.031
956	0.031
956	0.032
957	0.032
957	0.032
957	0.033
958	0.033
958	0.033
959	0.034
959	0.034
960	0.034
960	0.035
960	0.035
961	0.035
961	0.035
962	0.035
962	0.035
963	0.035
963	0.034
963	0.034
964	0.034
964	0.034
965	0.034
965	0.034
966	0.035
966	0.035
966	0.035
967	0.036
967	0.036
968	0.037
968	0.037
968	0.038
969	0.038
969	0.038
970	0.038
970	0.038
971	0.037
971	0.037
971	0.037
972	0.037
972	0.037
973	0.037
973	0.037
974	0.038
974	0.038
974	0.038
975	0.039
975	0.039
976	0.039
976	0.039
976	0.039
977	0.039
977	0.039
978	0.038
978	0.038
979	0.037
979	0.037
979	0.037
980	0.036
980	0.036
981	0.035
981	0.035
982	0.034
982	0.034
982	0.034
983	0.034
983	0.034
984	0.034
984	0.033
984	0.033
985	0.033
985	0.033
986	0.032
986	0.032
987	0.032
987	0.031
987	0.031
988	0.031
988	0.03
989	0.03
989	0.03
990	0.029
990	0.029
990	0.029
991	0.029
991	0.029
992	0.029
992	0.028
992	0.027
993	0.027
993	0.026
994	0.026
994	0.025
995	0.025
995	0.025
995	0.025
996	0.025
996	0.025
997	0.026
997	0.026
997	0.027
998	0.028
998	0.029
999	0.03
999	0.031
1000	0.032
1000	0.033
1000	0.033
1001	0.034
1001	0.034
1002	0.034
1002	0.034
1003	0.034
1003	0.034
1003	0.033
1004	0.033
1004	0.032
1005	0.032
1005	0.032
1005	0.031
1006	0.031
1006	0.031
1007	0.03
1007	0.03
1008	0.03
1008	0.03
1008	0.03
1009	0.031
1009	0.031
1010	0.031
1010	0.031
1010	0.031
1011	0.03
1011	0.03
1012	0.03
1012	0.03
1013	0.029
1013	0.029
1013	0.028
1014	0.028
1014	0.027
1015	0.027
1015	0.026
1016	0.026
1016	0.026
1016	0.025
1017	0.025
1017	0.025
1018	0.025
1018	0.024
1018	0.024
1019	0.024
1019	0.024
1020	0.024
1020	0.024
1021	0.024
1021	0.025
1021	0.025
1022	0.025
1022	0.025
1023	0.025
1023	0.025
1023	0.026
1024	0.026
1024	0.026
1025	0.026
1025	0.026
1026	0.026
1026	0.025
1026	0.025
1027	0.025
1027	0.025
1028	0.025
1028	0.024
1028	0.024
1029	0.024
1029	0.024
1030	0.024
1030	0.024
1031	0.024
1031	0.025
1031	0.025
1032	0.025
1032	0.026
1033	0.026
1033	0.026
1033	0.026
1034	0.026
1034	0.026
1035	0.026
1035	0.026
1036	0.026
1036	0.026
1036	0.026
1037	0.026
1037	0.026
1038	0.026
1038	0.027
1039	0.027
1039	0.027
1039	0.028
1040	0.028
1040	0.028
1041	0.029
1041	0.029
1041	0.029
1042	0.029
1042	0.028
1043	0.028
1043	0.028
1044	0.028
1044	0.027
1044	0.027
1045	0.028
1045	0.028
1046	0.028
1046	0.028
1046	0.029
1047	0.029
1047	0.03
1048	0.031
1048	0.032
1049	0.033
1049	0.033
1049	0.033
1050	0.033
1050	0.033
1051	0.033
1051	0.032
1051	0.032
1052	0.031
1052	0.03
1053	0.029
1053	0.028
1053	0.027
1054	0.026
1054	0.025
1055	0.025
1055	0.024
1056	0.024
1056	0.023
1056	0.022
1057	0.022
1057	0.021
1058	0.021
1058	0.02
1058	0.019
1059	0.019
1059	0.018
1060	0.018
1060	0.017
1061	0.017
1061	0.017
1061	0.017
1062	0.017
1062	0.018
1063	0.018
1063	0.018
1063	0.018
1064	0.018
1064	0.018
1065	0.018
1065	0.018
1066	0.018
1066	0.018
1066	0.018
1067	0.018
1067	0.018
1068	0.018
1068	0.018
1068	0.018
1069	0.018
1069	0.017
1070	0.017
1070	0.016
1071	0.016
1071	0.015
1071	0.014
1072	0.013
1072	0.013
1073	0.012
1073	0.012
1073	0.012
1074	0.012
1074	0.013
1075	0.013
1075	0.013
1076	0.014
1076	0.015
1076	0.015
1077	0.016
1077	0.016
1078	0.016
1078	0.016
1078	0.016
1079	0.015
1079	0.015
1080	0.015
1080	0.015
1080	0.015
1081	0.015
1081	0.015
1082	0.015
1082	0.016
1083	0.015
1083	0.015
1083	0.015
1084	0.015
1084	0.015
1085	0.015
1085	0.015
1085	0.015
1086	0.015
1086	0.014
1087	0.014
1087	0.014
1088	0.013
1088	0.013
1088	0.013
1089	0.013
1089	0.013
1090	0.012
1090	0.011
1090	0.01
1091	0.01
1091	0.01
1092	0.01
1092	0.011
1092	0.01
1093	0.01
1093	0.01
1094	0.01
1094	0.01
1095	0.011
1095	0.011
1095	0.01
1096	0.009
1096	0.009
1097	0.008
1097	0.008
1097	0.008
1098	0.006
1098	0.005
1099	0.004
1099	0.003
1100	0.003
1100	0.001
1100	0.001
1101	-0.001
1101	-0.001
1102	-0.001
1102	-0.003
1102	-0.004
1103	-0.005
1103	-0.005
1104	-0.006
1104	-0.007
1104	-0.007
1105	-0.008
1105	-0.009
1106	-0.011
1106	-0.013
1107	-0.013
1107	-0.013
1107	-0.014
1108	-0.016
1108	-0.016
1109	-0.017
1109	-0.018
1109	-0.018
1110	-0.018
1110	-0.019
1111	-0.019
1111	-0.02
