Data from reversibility-20sec_Absorbance__217__000000000000217.txt Node

Date: Tue Dec 05 13:25:26 CET 2023
User: Marek
Spectrometer: MAYP115816
Trigger mode: 0
Integration Time (sec): 2.000000E-1
Scans to average: 10
Electric dark correction enabled: true
Nonlinearity correction enabled: true
Boxcar width: 5
XAxis mode: Wavelengths
Number of Pixels in Spectrum: 2068
>>>>>Begin Spectral Data<<<<<
199	-0.187
199	-0.157
200	-0.083
200	-0.031
201	-0.006
201	0.011
202	0.025
202	0.035
203	0.042
203	0.044
204	0.054
204	0.068
205	0.081
205	0.086
205	0.084
206	0.084
206	0.084
207	0.084
207	0.082
208	0.08
208	0.081
209	0.084
209	0.08
210	0.08
210	0.078
211	0.08
211	0.082
212	0.08
212	0.084
213	0.087
213	0.088
213	0.09
214	0.093
214	0.097
215	0.097
215	0.097
216	0.096
216	0.094
217	0.099
217	0.099
218	0.098
218	0.104
219	0.108
219	0.108
220	0.111
220	0.114
221	0.117
221	0.119
221	0.125
222	0.13
222	0.132
223	0.139
223	0.14
224	0.141
224	0.149
225	0.157
225	0.166
226	0.175
226	0.186
227	0.198
227	0.207
228	0.223
228	0.237
229	0.254
229	0.278
229	0.3
230	0.324
230	0.35
231	0.382
231	0.419
232	0.454
232	0.498
233	0.542
233	0.589
234	0.638
234	0.689
235	0.741
235	0.793
236	0.846
236	0.894
236	0.945
237	0.996
237	1.041
238	1.087
238	1.131
239	1.179
239	1.221
240	1.26
240	1.297
241	1.334
241	1.369
242	1.402
242	1.434
243	1.464
243	1.49
243	1.516
244	1.538
244	1.562
245	1.579
245	1.599
246	1.616
246	1.632
247	1.643
247	1.656
248	1.67
248	1.682
249	1.691
249	1.696
250	1.7
250	1.708
250	1.71
251	1.712
251	1.712
252	1.716
252	1.716
253	1.714
253	1.708
254	1.705
254	1.704
255	1.701
255	1.699
256	1.698
256	1.697
257	1.696
257	1.693
258	1.692
258	1.692
258	1.693
259	1.693
259	1.695
260	1.695
260	1.696
261	1.696
261	1.698
262	1.701
262	1.702
263	1.705
263	1.706
264	1.706
264	1.708
265	1.709
265	1.708
265	1.708
266	1.708
266	1.709
267	1.706
267	1.706
268	1.705
268	1.705
269	1.708
269	1.708
270	1.706
270	1.706
271	1.705
271	1.704
272	1.7
272	1.697
272	1.692
273	1.687
273	1.681
274	1.673
274	1.665
275	1.658
275	1.65
276	1.642
276	1.634
277	1.627
277	1.618
278	1.607
278	1.593
278	1.578
279	1.561
279	1.539
280	1.512
280	1.479
281	1.441
281	1.401
282	1.358
282	1.314
283	1.272
283	1.23
284	1.191
284	1.153
285	1.118
285	1.086
285	1.058
286	1.034
286	1.013
287	0.994
287	0.979
288	0.966
288	0.955
289	0.946
289	0.938
290	0.931
290	0.926
291	0.921
291	0.917
292	0.913
292	0.909
292	0.906
293	0.904
293	0.901
294	0.899
294	0.897
295	0.895
295	0.893
296	0.891
296	0.888
297	0.887
297	0.885
298	0.883
298	0.881
298	0.878
299	0.877
299	0.875
300	0.873
300	0.871
301	0.869
301	0.868
302	0.866
302	0.864
303	0.863
303	0.861
304	0.859
304	0.858
305	0.856
305	0.854
305	0.852
306	0.85
306	0.848
307	0.846
307	0.844
308	0.843
308	0.84
309	0.838
309	0.835
310	0.833
310	0.831
311	0.829
311	0.826
311	0.823
312	0.82
312	0.817
313	0.814
313	0.81
314	0.807
314	0.804
315	0.8
315	0.796
316	0.792
316	0.788
317	0.783
317	0.779
318	0.774
318	0.769
318	0.764
319	0.759
319	0.754
320	0.749
320	0.744
321	0.738
321	0.733
322	0.727
322	0.721
323	0.715
323	0.709
324	0.703
324	0.697
324	0.69
325	0.684
325	0.678
326	0.671
326	0.665
327	0.658
327	0.652
328	0.645
328	0.639
329	0.632
329	0.625
330	0.619
330	0.612
330	0.605
331	0.598
331	0.592
332	0.585
332	0.578
333	0.572
333	0.565
334	0.558
334	0.551
335	0.545
335	0.538
336	0.532
336	0.526
336	0.519
337	0.513
337	0.507
338	0.501
338	0.495
339	0.489
339	0.483
340	0.478
340	0.472
341	0.467
341	0.461
342	0.456
342	0.451
342	0.446
343	0.441
343	0.436
344	0.432
344	0.427
345	0.423
345	0.418
346	0.414
346	0.41
347	0.405
347	0.401
348	0.397
348	0.394
348	0.39
349	0.386
349	0.383
350	0.379
350	0.376
351	0.372
351	0.369
352	0.366
352	0.364
353	0.361
353	0.358
354	0.355
354	0.353
354	0.35
355	0.347
355	0.344
356	0.342
356	0.339
357	0.336
357	0.333
358	0.331
358	0.328
359	0.326
359	0.324
360	0.322
360	0.32
360	0.318
361	0.316
361	0.315
362	0.313
362	0.312
363	0.31
363	0.308
364	0.306
364	0.305
365	0.303
365	0.301
366	0.3
366	0.298
366	0.297
367	0.295
367	0.294
368	0.292
368	0.291
369	0.289
369	0.288
370	0.287
370	0.285
371	0.284
371	0.283
372	0.281
372	0.28
372	0.279
373	0.278
373	0.277
374	0.276
374	0.275
375	0.274
375	0.273
376	0.272
376	0.272
377	0.271
377	0.27
378	0.269
378	0.268
378	0.267
379	0.266
379	0.266
380	0.265
380	0.264
381	0.263
381	0.263
382	0.262
382	0.262
383	0.261
383	0.26
383	0.26
384	0.259
384	0.258
385	0.258
385	0.257
386	0.257
386	0.256
387	0.256
387	0.255
388	0.255
388	0.254
389	0.254
389	0.253
389	0.253
390	0.253
390	0.252
391	0.252
391	0.252
392	0.251
392	0.251
393	0.251
393	0.25
394	0.25
394	0.25
394	0.249
395	0.249
395	0.248
396	0.248
396	0.247
397	0.247
397	0.246
398	0.246
398	0.246
399	0.245
399	0.245
400	0.245
400	0.244
400	0.244
401	0.244
401	0.243
402	0.243
402	0.243
403	0.242
403	0.242
404	0.242
404	0.241
405	0.241
405	0.241
405	0.241
406	0.241
406	0.24
407	0.24
407	0.24
408	0.239
408	0.239
409	0.239
409	0.238
410	0.238
410	0.238
411	0.237
411	0.237
411	0.237
412	0.237
412	0.236
413	0.236
413	0.236
414	0.236
414	0.235
415	0.235
415	0.235
416	0.235
416	0.234
416	0.234
417	0.234
417	0.234
418	0.234
418	0.233
419	0.233
419	0.233
420	0.232
420	0.232
421	0.232
421	0.232
421	0.231
422	0.231
422	0.231
423	0.231
423	0.23
424	0.23
424	0.23
425	0.229
425	0.229
426	0.229
426	0.229
427	0.228
427	0.228
427	0.228
428	0.228
428	0.228
429	0.228
429	0.228
430	0.228
430	0.228
431	0.227
431	0.227
432	0.227
432	0.227
432	0.227
433	0.226
433	0.226
434	0.226
434	0.226
435	0.226
435	0.226
436	0.226
436	0.226
437	0.225
437	0.225
437	0.225
438	0.225
438	0.225
439	0.225
439	0.225
440	0.224
440	0.224
441	0.224
441	0.224
442	0.224
442	0.224
442	0.224
443	0.223
443	0.223
444	0.223
444	0.223
445	0.223
445	0.223
446	0.223
446	0.222
447	0.222
447	0.222
447	0.222
448	0.222
448	0.221
449	0.221
449	0.221
450	0.221
450	0.221
451	0.22
451	0.22
452	0.22
452	0.22
452	0.22
453	0.22
453	0.22
454	0.22
454	0.22
455	0.22
455	0.22
456	0.219
456	0.219
457	0.219
457	0.219
458	0.219
458	0.219
458	0.219
459	0.218
459	0.218
460	0.218
460	0.218
461	0.218
461	0.218
462	0.218
462	0.218
463	0.218
463	0.218
463	0.217
464	0.217
464	0.217
465	0.217
465	0.217
466	0.217
466	0.217
467	0.217
467	0.217
467	0.217
468	0.217
468	0.217
469	0.217
469	0.217
470	0.217
470	0.217
471	0.217
471	0.217
472	0.217
472	0.217
472	0.217
473	0.217
473	0.217
474	0.217
474	0.217
475	0.217
475	0.217
476	0.217
476	0.218
477	0.218
477	0.218
477	0.218
478	0.219
478	0.219
479	0.219
479	0.219
480	0.219
480	0.22
481	0.22
481	0.22
482	0.22
482	0.22
482	0.22
483	0.221
483	0.221
484	0.222
484	0.222
485	0.222
485	0.222
486	0.222
486	0.223
487	0.223
487	0.224
487	0.224
488	0.224
488	0.225
489	0.225
489	0.226
490	0.227
490	0.227
491	0.228
491	0.228
492	0.229
492	0.229
492	0.23
493	0.23
493	0.231
494	0.232
494	0.232
495	0.233
495	0.233
496	0.234
496	0.235
496	0.235
497	0.236
497	0.236
498	0.237
498	0.238
499	0.238
499	0.239
500	0.24
500	0.241
501	0.241
501	0.242
501	0.242
502	0.243
502	0.244
503	0.245
503	0.245
504	0.246
504	0.246
505	0.247
505	0.248
506	0.248
506	0.249
506	0.249
507	0.25
507	0.251
508	0.251
508	0.252
509	0.252
509	0.253
510	0.253
510	0.254
511	0.254
511	0.255
511	0.256
512	0.257
512	0.258
513	0.258
513	0.259
514	0.26
514	0.26
515	0.261
515	0.262
515	0.262
516	0.263
516	0.263
517	0.264
517	0.264
518	0.265
518	0.265
519	0.265
519	0.266
520	0.266
520	0.266
520	0.267
521	0.267
521	0.267
522	0.267
522	0.267
523	0.267
523	0.267
524	0.267
524	0.268
524	0.268
525	0.268
525	0.268
526	0.268
526	0.268
527	0.268
527	0.269
528	0.269
528	0.269
529	0.269
529	0.269
529	0.268
530	0.268
530	0.268
531	0.268
531	0.268
532	0.267
532	0.267
533	0.267
533	0.267
533	0.266
534	0.266
534	0.266
535	0.266
535	0.265
536	0.265
536	0.265
537	0.264
537	0.264
538	0.263
538	0.263
538	0.262
539	0.262
539	0.262
540	0.261
540	0.261
541	0.26
541	0.259
542	0.259
542	0.258
542	0.258
543	0.257
543	0.257
544	0.256
544	0.256
545	0.256
545	0.255
546	0.255
546	0.254
547	0.253
547	0.253
547	0.252
548	0.252
548	0.251
549	0.25
549	0.25
550	0.249
550	0.248
551	0.247
551	0.247
551	0.246
552	0.245
552	0.245
553	0.244
553	0.244
554	0.243
554	0.242
555	0.241
555	0.241
556	0.24
556	0.239
556	0.239
557	0.239
557	0.238
558	0.238
558	0.238
559	0.238
559	0.237
560	0.237
560	0.236
560	0.236
561	0.236
561	0.235
562	0.234
562	0.233
563	0.232
563	0.232
564	0.231
564	0.23
564	0.229
565	0.229
565	0.228
566	0.228
566	0.227
567	0.227
567	0.226
568	0.226
568	0.226
568	0.225
569	0.225
569	0.224
570	0.223
570	0.223
571	0.223
571	0.222
572	0.221
572	0.22
573	0.22
573	0.219
573	0.219
574	0.218
574	0.218
575	0.218
575	0.218
576	0.217
576	0.217
577	0.216
577	0.216
577	0.216
578	0.215
578	0.215
579	0.215
579	0.215
580	0.214
580	0.213
581	0.212
581	0.212
581	0.212
582	0.212
582	0.211
583	0.211
583	0.21
584	0.21
584	0.208
585	0.208
585	0.208
585	0.207
586	0.206
586	0.206
587	0.205
587	0.204
588	0.203
588	0.203
589	0.203
589	0.203
590	0.202
590	0.202
590	0.203
591	0.202
591	0.202
592	0.201
592	0.201
593	0.201
593	0.2
594	0.2
594	0.199
594	0.199
595	0.198
595	0.198
596	0.197
596	0.197
597	0.197
597	0.197
598	0.197
598	0.197
598	0.197
599	0.197
599	0.196
600	0.196
600	0.195
601	0.195
601	0.195
602	0.194
602	0.193
602	0.193
603	0.192
603	0.192
604	0.192
604	0.192
605	0.192
605	0.192
606	0.191
606	0.191
606	0.191
607	0.191
607	0.19
608	0.19
608	0.19
609	0.189
609	0.189
610	0.188
610	0.188
610	0.188
611	0.188
611	0.188
612	0.188
612	0.188
613	0.188
613	0.187
614	0.187
614	0.186
614	0.186
615	0.186
615	0.185
616	0.185
616	0.185
617	0.184
617	0.184
618	0.184
618	0.184
618	0.184
619	0.184
619	0.184
620	0.184
620	0.184
621	0.184
621	0.183
622	0.183
622	0.183
622	0.182
623	0.182
623	0.182
624	0.182
624	0.181
625	0.18
625	0.18
626	0.18
626	0.18
626	0.18
627	0.179
627	0.179
628	0.179
628	0.178
629	0.178
629	0.177
630	0.177
630	0.176
630	0.176
631	0.177
631	0.177
632	0.177
632	0.177
633	0.177
633	0.177
634	0.178
634	0.179
634	0.179
635	0.179
635	0.179
636	0.179
636	0.179
637	0.179
637	0.179
638	0.178
638	0.178
638	0.177
639	0.176
639	0.176
640	0.175
640	0.175
641	0.174
641	0.174
642	0.173
642	0.173
642	0.173
643	0.173
643	0.173
644	0.173
644	0.173
645	0.173
645	0.173
646	0.173
646	0.173
646	0.174
647	0.174
647	0.174
648	0.173
648	0.173
649	0.173
649	0.173
650	0.173
650	0.172
650	0.172
651	0.172
651	0.172
652	0.172
652	0.172
653	0.172
653	0.174
653	0.179
654	0.141
654	0.113
655	0.115
655	0.115
656	0.116
656	0.116
657	0.116
657	0.117
657	0.117
658	0.116
658	0.107
659	0.135
659	0.173
660	0.176
660	0.176
661	0.175
661	0.175
661	0.175
662	0.175
662	0.175
663	0.174
663	0.174
664	0.173
664	0.173
665	0.173
665	0.173
665	0.173
666	0.173
666	0.173
667	0.173
667	0.173
668	0.173
668	0.173
669	0.173
669	0.173
669	0.173
670	0.173
670	0.173
671	0.173
671	0.173
672	0.172
672	0.172
672	0.172
673	0.172
673	0.172
674	0.172
674	0.172
675	0.172
675	0.172
676	0.173
676	0.173
676	0.173
677	0.173
677	0.174
678	0.174
678	0.174
679	0.173
679	0.173
680	0.174
680	0.174
680	0.174
681	0.174
681	0.175
682	0.175
682	0.175
683	0.176
683	0.177
684	0.177
684	0.177
684	0.177
685	0.177
685	0.178
686	0.178
686	0.177
687	0.177
687	0.177
687	0.177
688	0.177
688	0.177
689	0.177
689	0.177
690	0.177
690	0.177
691	0.177
691	0.177
691	0.178
692	0.178
692	0.179
693	0.179
693	0.179
694	0.179
694	0.179
695	0.18
695	0.181
695	0.181
696	0.181
696	0.181
697	0.181
697	0.181
698	0.181
698	0.181
698	0.181
699	0.181
699	0.181
700	0.181
700	0.181
701	0.181
701	0.181
702	0.181
702	0.181
702	0.181
703	0.18
703	0.18
704	0.18
704	0.179
705	0.179
705	0.179
705	0.179
706	0.18
706	0.18
707	0.18
707	0.181
708	0.181
708	0.182
709	0.182
709	0.182
709	0.182
710	0.182
710	0.183
711	0.183
711	0.183
712	0.183
712	0.183
713	0.183
713	0.183
713	0.183
714	0.183
714	0.183
715	0.183
715	0.184
716	0.184
716	0.184
716	0.184
717	0.184
717	0.184
718	0.184
718	0.184
719	0.184
719	0.184
720	0.184
720	0.185
720	0.185
721	0.186
721	0.186
722	0.187
722	0.187
723	0.187
723	0.187
723	0.187
724	0.187
724	0.186
725	0.185
725	0.185
726	0.184
726	0.183
727	0.183
727	0.183
727	0.183
728	0.183
728	0.183
729	0.184
729	0.184
730	0.185
730	0.185
730	0.186
731	0.186
731	0.187
732	0.187
732	0.187
733	0.187
733	0.187
734	0.187
734	0.187
734	0.187
735	0.187
735	0.187
736	0.187
736	0.187
737	0.187
737	0.187
737	0.187
738	0.187
738	0.186
739	0.186
739	0.186
740	0.186
740	0.186
741	0.186
741	0.186
741	0.186
742	0.186
742	0.186
743	0.187
743	0.187
744	0.188
744	0.188
744	0.188
745	0.189
745	0.189
746	0.189
746	0.189
747	0.189
747	0.19
748	0.19
748	0.19
748	0.19
749	0.19
749	0.19
750	0.19
750	0.189
751	0.189
751	0.189
751	0.189
752	0.189
752	0.188
753	0.188
753	0.188
754	0.189
754	0.189
754	0.189
755	0.19
755	0.19
756	0.19
756	0.189
757	0.188
757	0.188
758	0.187
758	0.187
758	0.187
759	0.187
759	0.187
760	0.187
760	0.187
761	0.188
761	0.189
761	0.19
762	0.19
762	0.191
763	0.191
763	0.191
764	0.191
764	0.191
764	0.191
765	0.19
765	0.19
766	0.19
766	0.189
767	0.189
767	0.188
768	0.187
768	0.187
768	0.187
769	0.187
769	0.187
770	0.187
770	0.187
771	0.187
771	0.188
771	0.188
772	0.188
772	0.188
773	0.188
773	0.188
774	0.188
774	0.188
775	0.189
775	0.189
775	0.189
776	0.189
776	0.189
777	0.19
777	0.19
778	0.19
778	0.19
778	0.19
779	0.19
779	0.19
780	0.189
780	0.189
781	0.189
781	0.19
781	0.19
782	0.19
782	0.19
783	0.191
783	0.191
784	0.191
784	0.192
784	0.192
785	0.192
785	0.193
786	0.193
786	0.193
787	0.193
787	0.193
788	0.193
788	0.193
788	0.193
789	0.193
789	0.193
790	0.193
790	0.192
791	0.192
791	0.191
791	0.19
792	0.19
792	0.19
793	0.19
793	0.189
794	0.189
794	0.188
794	0.188
795	0.188
795	0.188
796	0.188
796	0.188
797	0.188
797	0.189
797	0.189
798	0.19
798	0.19
799	0.19
799	0.19
800	0.19
800	0.19
801	0.19
801	0.19
801	0.19
802	0.19
802	0.19
803	0.19
803	0.19
804	0.19
804	0.191
804	0.191
805	0.192
805	0.192
806	0.192
806	0.193
807	0.193
807	0.193
807	0.193
808	0.194
808	0.194
809	0.194
809	0.195
810	0.195
810	0.195
810	0.196
811	0.196
811	0.196
812	0.197
812	0.197
813	0.197
813	0.197
813	0.197
814	0.197
814	0.197
815	0.197
815	0.197
816	0.197
816	0.197
817	0.196
817	0.196
817	0.196
818	0.196
818	0.196
819	0.195
819	0.195
820	0.195
820	0.195
820	0.194
821	0.194
821	0.194
822	0.194
822	0.194
823	0.193
823	0.193
823	0.194
824	0.194
824	0.195
825	0.195
825	0.196
826	0.196
826	0.196
826	0.196
827	0.197
827	0.197
828	0.197
828	0.196
829	0.196
829	0.196
829	0.196
830	0.195
830	0.196
831	0.196
831	0.196
832	0.196
832	0.197
832	0.197
833	0.197
833	0.196
834	0.196
834	0.196
835	0.196
835	0.196
835	0.195
836	0.195
836	0.195
837	0.195
837	0.194
838	0.194
838	0.193
839	0.192
839	0.191
839	0.19
840	0.189
840	0.188
841	0.187
841	0.186
842	0.186
842	0.185
842	0.185
843	0.185
843	0.185
844	0.185
844	0.185
845	0.185
845	0.185
845	0.185
846	0.185
846	0.185
847	0.185
847	0.185
848	0.186
848	0.186
848	0.187
849	0.187
849	0.187
850	0.188
850	0.188
851	0.188
851	0.188
851	0.188
852	0.188
852	0.187
853	0.187
853	0.186
854	0.186
854	0.186
854	0.186
855	0.187
855	0.187
856	0.187
856	0.187
857	0.188
857	0.188
857	0.188
858	0.188
858	0.187
859	0.186
859	0.185
860	0.184
860	0.183
860	0.182
861	0.181
861	0.18
862	0.179
862	0.179
863	0.178
863	0.178
863	0.177
864	0.177
864	0.177
865	0.177
865	0.177
866	0.177
866	0.177
866	0.177
867	0.177
867	0.178
868	0.178
868	0.178
869	0.178
869	0.178
869	0.178
870	0.178
870	0.178
871	0.178
871	0.179
872	0.179
872	0.179
872	0.179
873	0.179
873	0.178
874	0.178
874	0.177
875	0.177
875	0.176
875	0.176
876	0.175
876	0.175
877	0.174
877	0.175
878	0.175
878	0.175
878	0.176
879	0.176
879	0.176
880	0.177
880	0.177
881	0.177
881	0.176
881	0.176
882	0.175
882	0.174
883	0.173
883	0.172
884	0.17
884	0.169
884	0.168
885	0.167
885	0.165
886	0.164
886	0.163
887	0.162
887	0.161
887	0.16
888	0.159
888	0.158
889	0.158
889	0.157
890	0.157
890	0.158
890	0.158
891	0.158
891	0.159
892	0.16
892	0.161
893	0.161
893	0.162
893	0.162
894	0.163
894	0.163
895	0.163
895	0.162
895	0.162
896	0.161
896	0.161
897	0.16
897	0.159
898	0.158
898	0.157
898	0.156
899	0.155
899	0.155
900	0.154
900	0.154
901	0.154
901	0.154
901	0.153
902	0.153
902	0.153
903	0.153
903	0.152
904	0.152
904	0.151
904	0.15
905	0.15
905	0.149
906	0.149
906	0.149
907	0.149
907	0.149
907	0.149
908	0.149
908	0.149
909	0.149
909	0.149
910	0.149
910	0.149
910	0.148
911	0.148
911	0.147
912	0.147
912	0.147
913	0.146
913	0.146
913	0.145
914	0.145
914	0.144
915	0.144
915	0.143
916	0.143
916	0.142
916	0.142
917	0.141
917	0.14
918	0.139
918	0.139
918	0.138
919	0.138
919	0.138
920	0.138
920	0.139
921	0.139
921	0.139
921	0.139
922	0.139
922	0.14
923	0.14
923	0.14
924	0.14
924	0.14
924	0.141
925	0.141
925	0.141
926	0.141
926	0.141
927	0.141
927	0.141
927	0.14
928	0.14
928	0.139
929	0.139
929	0.139
930	0.138
930	0.137
930	0.136
931	0.136
931	0.135
932	0.135
932	0.134
933	0.134
933	0.133
933	0.132
934	0.131
934	0.13
935	0.13
935	0.129
935	0.128
936	0.128
936	0.127
937	0.127
937	0.126
938	0.126
938	0.126
938	0.125
939	0.125
939	0.125
940	0.124
940	0.124
941	0.124
941	0.124
941	0.124
942	0.124
942	0.124
943	0.125
943	0.125
944	0.125
944	0.125
944	0.126
945	0.126
945	0.126
946	0.126
946	0.126
946	0.126
947	0.125
947	0.125
948	0.124
948	0.124
949	0.123
949	0.122
949	0.121
950	0.121
950	0.12
951	0.119
951	0.119
952	0.118
952	0.117
952	0.116
953	0.115
953	0.114
954	0.113
954	0.112
955	0.111
955	0.11
955	0.11
956	0.109
956	0.109
957	0.108
957	0.108
957	0.107
958	0.107
958	0.107
959	0.107
959	0.106
960	0.106
960	0.106
960	0.106
961	0.105
961	0.106
962	0.105
962	0.105
963	0.105
963	0.105
963	0.105
964	0.105
964	0.104
965	0.104
965	0.104
966	0.105
966	0.105
966	0.105
967	0.106
967	0.106
968	0.107
968	0.108
968	0.108
969	0.108
969	0.108
970	0.108
970	0.108
971	0.107
971	0.107
971	0.107
972	0.106
972	0.105
973	0.105
973	0.104
974	0.104
974	0.104
974	0.104
975	0.104
975	0.105
976	0.105
976	0.105
976	0.105
977	0.105
977	0.104
978	0.104
978	0.104
979	0.103
979	0.102
979	0.102
980	0.101
980	0.099
981	0.098
981	0.097
982	0.096
982	0.095
982	0.094
983	0.093
983	0.092
984	0.092
984	0.091
984	0.09
985	0.09
985	0.089
986	0.089
986	0.089
987	0.089
987	0.088
987	0.088
988	0.088
988	0.088
989	0.087
989	0.087
990	0.087
990	0.086
990	0.086
991	0.086
991	0.086
992	0.086
992	0.085
992	0.085
993	0.085
993	0.084
994	0.084
994	0.084
995	0.084
995	0.084
995	0.084
996	0.084
996	0.085
997	0.085
997	0.086
997	0.086
998	0.087
998	0.088
999	0.089
999	0.089
1000	0.09
1000	0.091
1000	0.091
1001	0.091
1001	0.092
1002	0.091
1002	0.091
1003	0.091
1003	0.091
1003	0.091
1004	0.09
1004	0.09
1005	0.089
1005	0.089
1005	0.089
1006	0.088
1006	0.088
1007	0.087
1007	0.087
1008	0.087
1008	0.086
1008	0.086
1009	0.086
1009	0.086
1010	0.086
1010	0.086
1010	0.086
1011	0.085
1011	0.085
1012	0.085
1012	0.085
1013	0.085
1013	0.085
1013	0.084
1014	0.084
1014	0.084
1015	0.083
1015	0.083
1016	0.083
1016	0.082
1016	0.082
1017	0.081
1017	0.081
1018	0.08
1018	0.08
1018	0.08
1019	0.079
1019	0.079
1020	0.078
1020	0.078
1021	0.078
1021	0.078
1021	0.077
1022	0.077
1022	0.076
1023	0.076
1023	0.076
1023	0.076
1024	0.075
1024	0.075
1025	0.074
1025	0.074
1026	0.073
1026	0.073
1026	0.072
1027	0.072
1027	0.071
1028	0.07
1028	0.07
1028	0.07
1029	0.069
1029	0.069
1030	0.069
1030	0.069
1031	0.068
1031	0.068
1031	0.068
1032	0.068
1032	0.068
1033	0.067
1033	0.067
1033	0.067
1034	0.066
1034	0.066
1035	0.065
1035	0.065
1036	0.065
1036	0.065
1036	0.064
1037	0.064
1037	0.064
1038	0.064
1038	0.063
1039	0.063
1039	0.063
1039	0.063
1040	0.064
1040	0.063
1041	0.064
1041	0.064
1041	0.063
1042	0.064
1042	0.064
1043	0.064
1043	0.065
1044	0.065
1044	0.065
1044	0.065
1045	0.066
1045	0.066
1046	0.067
1046	0.068
1046	0.068
1047	0.069
1047	0.07
1048	0.07
1048	0.071
1049	0.071
1049	0.071
1049	0.071
1050	0.071
1050	0.071
1051	0.07
1051	0.07
1051	0.069
1052	0.069
1052	0.068
1053	0.067
1053	0.066
1053	0.066
1054	0.065
1054	0.064
1055	0.064
1055	0.064
1056	0.063
1056	0.063
1056	0.062
1057	0.062
1057	0.061
1058	0.06
1058	0.059
1058	0.058
1059	0.058
1059	0.057
1060	0.056
1060	0.056
1061	0.055
1061	0.055
1061	0.055
1062	0.054
1062	0.054
1063	0.054
1063	0.054
1063	0.053
1064	0.053
1064	0.052
1065	0.052
1065	0.051
1066	0.051
1066	0.05
1066	0.05
1067	0.05
1067	0.049
1068	0.049
1068	0.049
1068	0.049
1069	0.048
1069	0.048
1070	0.047
1070	0.046
1071	0.046
1071	0.045
1071	0.044
1072	0.044
1072	0.043
1073	0.042
1073	0.042
1073	0.041
1074	0.042
1074	0.042
1075	0.042
1075	0.042
1076	0.042
1076	0.043
1076	0.043
1077	0.043
1077	0.044
1078	0.044
1078	0.044
1078	0.044
1079	0.045
1079	0.045
1080	0.045
1080	0.045
1080	0.045
1081	0.045
1081	0.046
1082	0.046
1082	0.047
1083	0.047
1083	0.046
1083	0.046
1084	0.046
1084	0.046
1085	0.045
1085	0.045
1085	0.045
1086	0.045
1086	0.043
1087	0.043
1087	0.042
1088	0.041
1088	0.041
1088	0.04
1089	0.039
1089	0.039
1090	0.038
1090	0.037
1090	0.036
1091	0.036
1091	0.036
1092	0.036
1092	0.036
1092	0.035
1093	0.034
1093	0.035
1094	0.034
1094	0.034
1095	0.034
1095	0.034
1095	0.034
1096	0.034
1096	0.032
1097	0.032
1097	0.032
1097	0.031
1098	0.03
1098	0.029
1099	0.029
1099	0.028
1100	0.026
1100	0.025
1100	0.024
1101	0.023
1101	0.022
1102	0.022
1102	0.021
1102	0.02
1103	0.02
1103	0.019
1104	0.018
1104	0.017
1104	0.017
1105	0.016
1105	0.015
1106	0.014
1106	0.012
1107	0.012
1107	0.012
1107	0.012
1108	0.012
1108	0.012
1109	0.012
1109	0.011
1109	0.012
1110	0.013
1110	0.012
1111	0.014
1111	0.012
