Data from reversibility-20sec_Absorbance__6009__000000000006009.txt Node

Date: Wed Dec 06 21:36:07 CET 2023
User: Marek
Spectrometer: MAYP115816
Trigger mode: 0
Integration Time (sec): 2.000000E-1
Scans to average: 10
Electric dark correction enabled: true
Nonlinearity correction enabled: true
Boxcar width: 5
XAxis mode: Wavelengths
Number of Pixels in Spectrum: 2068
>>>>>Begin Spectral Data<<<<<
199	-0.163
199	-0.135
200	-0.066
200	-0.011
201	0.022
201	0.04
202	0.051
202	0.059
203	0.068
203	0.072
204	0.083
204	0.097
205	0.109
205	0.117
205	0.114
206	0.112
206	0.109
207	0.112
207	0.113
208	0.113
208	0.111
209	0.114
209	0.112
210	0.114
210	0.112
211	0.115
211	0.118
212	0.118
212	0.12
213	0.122
213	0.121
213	0.12
214	0.125
214	0.125
215	0.127
215	0.124
216	0.125
216	0.123
217	0.128
217	0.129
218	0.127
218	0.131
219	0.135
219	0.134
220	0.139
220	0.137
221	0.14
221	0.141
221	0.146
222	0.149
222	0.152
223	0.157
223	0.161
224	0.167
224	0.172
225	0.178
225	0.188
226	0.201
226	0.211
227	0.22
227	0.231
228	0.247
228	0.263
229	0.278
229	0.302
229	0.326
230	0.352
230	0.38
231	0.41
231	0.449
232	0.488
232	0.531
233	0.572
233	0.621
234	0.674
234	0.724
235	0.778
235	0.83
236	0.881
236	0.935
236	0.986
237	1.035
237	1.085
238	1.134
238	1.179
239	1.225
239	1.267
240	1.305
240	1.342
241	1.378
241	1.412
242	1.443
242	1.476
243	1.503
243	1.528
243	1.556
244	1.577
244	1.601
245	1.62
245	1.641
246	1.661
246	1.678
247	1.691
247	1.706
248	1.722
248	1.735
249	1.746
249	1.753
250	1.759
250	1.767
250	1.771
251	1.773
251	1.776
252	1.78
252	1.779
253	1.781
253	1.778
254	1.777
254	1.779
255	1.776
255	1.777
256	1.775
256	1.775
257	1.774
257	1.771
258	1.772
258	1.772
258	1.772
259	1.771
259	1.769
260	1.77
260	1.772
261	1.773
261	1.776
262	1.779
262	1.782
263	1.785
263	1.785
264	1.787
264	1.787
265	1.789
265	1.79
265	1.79
266	1.79
266	1.79
267	1.788
267	1.788
268	1.786
268	1.787
269	1.788
269	1.788
270	1.788
270	1.786
271	1.783
271	1.783
272	1.779
272	1.776
272	1.773
273	1.768
273	1.761
274	1.755
274	1.749
275	1.741
275	1.734
276	1.727
276	1.719
277	1.711
277	1.701
278	1.689
278	1.677
278	1.662
279	1.645
279	1.625
280	1.599
280	1.567
281	1.53
281	1.49
282	1.447
282	1.404
283	1.361
283	1.32
284	1.28
284	1.24
285	1.204
285	1.171
285	1.142
286	1.116
286	1.093
287	1.073
287	1.056
288	1.042
288	1.029
289	1.019
289	1.01
290	1.002
290	0.995
291	0.989
291	0.984
292	0.979
292	0.975
292	0.971
293	0.967
293	0.964
294	0.961
294	0.958
295	0.955
295	0.952
296	0.949
296	0.946
297	0.944
297	0.941
298	0.938
298	0.935
298	0.932
299	0.93
299	0.927
300	0.924
300	0.921
301	0.919
301	0.916
302	0.913
302	0.911
303	0.909
303	0.906
304	0.904
304	0.902
305	0.9
305	0.898
305	0.895
306	0.893
306	0.891
307	0.889
307	0.886
308	0.884
308	0.881
309	0.878
309	0.876
310	0.873
310	0.87
311	0.868
311	0.864
311	0.861
312	0.858
312	0.854
313	0.851
313	0.847
314	0.843
314	0.839
315	0.835
315	0.831
316	0.827
316	0.822
317	0.818
317	0.813
318	0.809
318	0.803
318	0.798
319	0.793
319	0.787
320	0.782
320	0.776
321	0.77
321	0.764
322	0.758
322	0.752
323	0.746
323	0.739
324	0.733
324	0.726
324	0.72
325	0.713
325	0.706
326	0.699
326	0.692
327	0.686
327	0.679
328	0.672
328	0.665
329	0.658
329	0.651
330	0.644
330	0.637
330	0.63
331	0.623
331	0.616
332	0.609
332	0.602
333	0.595
333	0.588
334	0.581
334	0.575
335	0.568
335	0.561
336	0.555
336	0.548
336	0.542
337	0.535
337	0.529
338	0.523
338	0.517
339	0.511
339	0.505
340	0.499
340	0.493
341	0.487
341	0.482
342	0.476
342	0.471
342	0.466
343	0.461
343	0.456
344	0.451
344	0.446
345	0.442
345	0.437
346	0.432
346	0.428
347	0.424
347	0.42
348	0.416
348	0.412
348	0.408
349	0.404
349	0.4
350	0.396
350	0.393
351	0.39
351	0.386
352	0.383
352	0.38
353	0.377
353	0.375
354	0.372
354	0.369
354	0.366
355	0.363
355	0.36
356	0.358
356	0.355
357	0.352
357	0.349
358	0.346
358	0.344
359	0.341
359	0.339
360	0.337
360	0.335
360	0.333
361	0.332
361	0.33
362	0.329
362	0.327
363	0.325
363	0.324
364	0.321
364	0.32
365	0.318
365	0.316
366	0.315
366	0.313
366	0.311
367	0.31
367	0.308
368	0.306
368	0.305
369	0.303
369	0.302
370	0.301
370	0.299
371	0.298
371	0.297
372	0.295
372	0.294
372	0.293
373	0.292
373	0.291
374	0.29
374	0.29
375	0.289
375	0.288
376	0.287
376	0.286
377	0.285
377	0.284
378	0.284
378	0.283
378	0.282
379	0.281
379	0.281
380	0.28
380	0.279
381	0.279
381	0.278
382	0.278
382	0.277
383	0.276
383	0.276
383	0.275
384	0.275
384	0.274
385	0.273
385	0.273
386	0.273
386	0.272
387	0.272
387	0.271
388	0.271
388	0.271
389	0.27
389	0.27
389	0.27
390	0.269
390	0.269
391	0.268
391	0.268
392	0.268
392	0.268
393	0.268
393	0.267
394	0.267
394	0.267
394	0.266
395	0.266
395	0.266
396	0.265
396	0.265
397	0.264
397	0.264
398	0.264
398	0.263
399	0.263
399	0.263
400	0.262
400	0.262
400	0.262
401	0.262
401	0.262
402	0.261
402	0.261
403	0.261
403	0.261
404	0.26
404	0.26
405	0.26
405	0.26
405	0.259
406	0.259
406	0.258
407	0.258
407	0.258
408	0.257
408	0.257
409	0.257
409	0.256
410	0.256
410	0.256
411	0.256
411	0.256
411	0.255
412	0.255
412	0.255
413	0.255
413	0.254
414	0.254
414	0.254
415	0.253
415	0.253
416	0.253
416	0.252
416	0.252
417	0.252
417	0.251
418	0.251
418	0.251
419	0.25
419	0.25
420	0.249
420	0.249
421	0.249
421	0.248
421	0.248
422	0.248
422	0.248
423	0.247
423	0.247
424	0.247
424	0.246
425	0.246
425	0.246
426	0.246
426	0.245
427	0.245
427	0.245
427	0.244
428	0.244
428	0.244
429	0.243
429	0.243
430	0.243
430	0.243
431	0.242
431	0.242
432	0.242
432	0.242
432	0.242
433	0.242
433	0.242
434	0.242
434	0.241
435	0.241
435	0.241
436	0.241
436	0.24
437	0.24
437	0.24
437	0.24
438	0.24
438	0.239
439	0.239
439	0.239
440	0.238
440	0.238
441	0.238
441	0.238
442	0.237
442	0.237
442	0.237
443	0.236
443	0.236
444	0.236
444	0.236
445	0.236
445	0.236
446	0.235
446	0.235
447	0.235
447	0.235
447	0.234
448	0.234
448	0.234
449	0.234
449	0.233
450	0.233
450	0.233
451	0.232
451	0.232
452	0.232
452	0.232
452	0.232
453	0.232
453	0.232
454	0.232
454	0.232
455	0.231
455	0.231
456	0.231
456	0.231
457	0.231
457	0.231
458	0.23
458	0.23
458	0.23
459	0.23
459	0.23
460	0.23
460	0.229
461	0.229
461	0.229
462	0.229
462	0.228
463	0.228
463	0.228
463	0.228
464	0.227
464	0.227
465	0.227
465	0.227
466	0.226
466	0.227
467	0.227
467	0.227
467	0.226
468	0.227
468	0.226
469	0.227
469	0.227
470	0.227
470	0.227
471	0.227
471	0.228
472	0.228
472	0.228
472	0.228
473	0.228
473	0.228
474	0.227
474	0.227
475	0.227
475	0.227
476	0.227
476	0.227
477	0.227
477	0.227
477	0.228
478	0.227
478	0.227
479	0.227
479	0.227
480	0.227
480	0.227
481	0.227
481	0.227
482	0.227
482	0.227
482	0.227
483	0.228
483	0.228
484	0.228
484	0.228
485	0.228
485	0.228
486	0.228
486	0.228
487	0.228
487	0.229
487	0.229
488	0.229
488	0.229
489	0.23
489	0.231
490	0.231
490	0.232
491	0.232
491	0.233
492	0.233
492	0.234
492	0.234
493	0.234
493	0.235
494	0.235
494	0.236
495	0.236
495	0.236
496	0.237
496	0.237
496	0.237
497	0.238
497	0.238
498	0.239
498	0.239
499	0.239
499	0.24
500	0.241
500	0.241
501	0.242
501	0.242
501	0.243
502	0.243
502	0.243
503	0.244
503	0.244
504	0.245
504	0.245
505	0.246
505	0.246
506	0.247
506	0.247
506	0.248
507	0.248
507	0.248
508	0.249
508	0.249
509	0.25
509	0.25
510	0.251
510	0.251
511	0.252
511	0.253
511	0.253
512	0.253
512	0.254
513	0.255
513	0.255
514	0.255
514	0.256
515	0.256
515	0.257
515	0.257
516	0.257
516	0.258
517	0.259
517	0.259
518	0.259
518	0.26
519	0.26
519	0.26
520	0.261
520	0.261
520	0.261
521	0.261
521	0.261
522	0.261
522	0.261
523	0.261
523	0.262
524	0.261
524	0.262
524	0.262
525	0.262
525	0.262
526	0.262
526	0.262
527	0.262
527	0.262
528	0.262
528	0.262
529	0.262
529	0.262
529	0.262
530	0.262
530	0.262
531	0.262
531	0.261
532	0.261
532	0.261
533	0.261
533	0.26
533	0.26
534	0.26
534	0.259
535	0.259
535	0.259
536	0.259
536	0.259
537	0.258
537	0.258
538	0.258
538	0.258
538	0.257
539	0.257
539	0.257
540	0.256
540	0.256
541	0.255
541	0.255
542	0.254
542	0.254
542	0.253
543	0.253
543	0.253
544	0.252
544	0.252
545	0.252
545	0.251
546	0.251
546	0.25
547	0.25
547	0.25
547	0.249
548	0.249
548	0.248
549	0.248
549	0.247
550	0.247
550	0.246
551	0.246
551	0.245
551	0.245
552	0.244
552	0.243
553	0.243
553	0.242
554	0.241
554	0.241
555	0.24
555	0.239
556	0.238
556	0.238
556	0.237
557	0.237
557	0.237
558	0.237
558	0.236
559	0.236
559	0.236
560	0.236
560	0.235
560	0.235
561	0.235
561	0.234
562	0.234
562	0.233
563	0.232
563	0.231
564	0.23
564	0.23
564	0.23
565	0.229
565	0.229
566	0.228
566	0.228
567	0.228
567	0.228
568	0.227
568	0.227
568	0.226
569	0.226
569	0.225
570	0.224
570	0.223
571	0.223
571	0.222
572	0.221
572	0.22
573	0.22
573	0.22
573	0.219
574	0.218
574	0.218
575	0.218
575	0.218
576	0.218
576	0.217
577	0.217
577	0.216
577	0.216
578	0.216
578	0.215
579	0.215
579	0.215
580	0.214
580	0.213
581	0.213
581	0.212
581	0.212
582	0.213
582	0.212
583	0.212
583	0.212
584	0.211
584	0.21
585	0.21
585	0.21
585	0.209
586	0.209
586	0.208
587	0.207
587	0.206
588	0.205
588	0.205
589	0.205
589	0.205
590	0.204
590	0.204
590	0.205
591	0.205
591	0.205
592	0.204
592	0.204
593	0.204
593	0.203
594	0.203
594	0.202
594	0.202
595	0.201
595	0.201
596	0.2
596	0.2
597	0.201
597	0.201
598	0.2
598	0.2
598	0.2
599	0.2
599	0.199
600	0.199
600	0.198
601	0.198
601	0.198
602	0.197
602	0.197
602	0.196
603	0.196
603	0.196
604	0.196
604	0.196
605	0.196
605	0.196
606	0.196
606	0.195
606	0.195
607	0.195
607	0.195
608	0.194
608	0.194
609	0.193
609	0.193
610	0.193
610	0.192
610	0.192
611	0.192
611	0.192
612	0.192
612	0.192
613	0.192
613	0.192
614	0.191
614	0.191
614	0.191
615	0.191
615	0.191
616	0.191
616	0.191
617	0.191
617	0.19
618	0.19
618	0.19
618	0.191
619	0.191
619	0.191
620	0.191
620	0.191
621	0.191
621	0.19
622	0.19
622	0.189
622	0.188
623	0.188
623	0.188
624	0.187
624	0.186
625	0.186
625	0.185
626	0.185
626	0.185
626	0.185
627	0.185
627	0.185
628	0.184
628	0.184
629	0.184
629	0.183
630	0.183
630	0.183
630	0.182
631	0.182
631	0.182
632	0.182
632	0.181
633	0.181
633	0.181
634	0.182
634	0.182
634	0.182
635	0.182
635	0.182
636	0.182
636	0.182
637	0.182
637	0.181
638	0.181
638	0.181
638	0.18
639	0.18
639	0.18
640	0.18
640	0.18
641	0.179
641	0.18
642	0.179
642	0.18
642	0.18
643	0.18
643	0.18
644	0.18
644	0.18
645	0.179
645	0.18
646	0.179
646	0.179
646	0.179
647	0.179
647	0.178
648	0.178
648	0.178
649	0.177
649	0.177
650	0.177
650	0.177
650	0.177
651	0.177
651	0.177
652	0.177
652	0.177
653	0.178
653	0.179
653	0.185
654	0.146
654	0.117
655	0.117
655	0.118
656	0.118
656	0.118
657	0.119
657	0.119
657	0.119
658	0.118
658	0.108
659	0.136
659	0.175
660	0.18
660	0.18
661	0.18
661	0.179
661	0.179
662	0.179
662	0.178
663	0.178
663	0.177
664	0.177
664	0.177
665	0.177
665	0.176
665	0.176
666	0.176
666	0.176
667	0.177
667	0.177
668	0.177
668	0.177
669	0.178
669	0.178
669	0.179
670	0.18
670	0.18
671	0.18
671	0.18
672	0.18
672	0.179
672	0.179
673	0.179
673	0.178
674	0.178
674	0.177
675	0.177
675	0.176
676	0.176
676	0.176
676	0.176
677	0.176
677	0.176
678	0.176
678	0.176
679	0.176
679	0.176
680	0.177
680	0.176
680	0.176
681	0.177
681	0.177
682	0.177
682	0.177
683	0.178
683	0.178
684	0.178
684	0.178
684	0.177
685	0.177
685	0.177
686	0.177
686	0.177
687	0.176
687	0.177
687	0.177
688	0.176
688	0.176
689	0.177
689	0.178
690	0.178
690	0.177
691	0.177
691	0.178
691	0.178
692	0.178
692	0.178
693	0.178
693	0.179
694	0.178
694	0.178
695	0.179
695	0.18
695	0.18
696	0.179
696	0.179
697	0.179
697	0.179
698	0.179
698	0.178
698	0.178
699	0.178
699	0.178
700	0.177
700	0.178
701	0.178
701	0.178
702	0.178
702	0.179
702	0.179
703	0.179
703	0.179
704	0.179
704	0.179
705	0.18
705	0.179
705	0.179
706	0.179
706	0.179
707	0.18
707	0.18
708	0.18
708	0.18
709	0.18
709	0.18
709	0.179
710	0.18
710	0.18
711	0.18
711	0.18
712	0.18
712	0.18
713	0.18
713	0.18
713	0.181
714	0.18
714	0.18
715	0.18
715	0.18
716	0.179
716	0.179
716	0.179
717	0.178
717	0.178
718	0.178
718	0.177
719	0.178
719	0.178
720	0.178
720	0.179
720	0.179
721	0.179
721	0.18
722	0.181
722	0.181
723	0.182
723	0.182
723	0.182
724	0.182
724	0.182
725	0.181
725	0.181
726	0.18
726	0.18
727	0.179
727	0.179
727	0.179
728	0.178
728	0.178
729	0.178
729	0.178
730	0.178
730	0.179
730	0.179
731	0.18
731	0.181
732	0.182
732	0.182
733	0.182
733	0.183
734	0.183
734	0.184
734	0.184
735	0.184
735	0.184
736	0.184
736	0.184
737	0.184
737	0.184
737	0.184
738	0.184
738	0.183
739	0.183
739	0.183
740	0.182
740	0.182
741	0.182
741	0.182
741	0.182
742	0.182
742	0.182
743	0.183
743	0.184
744	0.185
744	0.185
744	0.186
745	0.186
745	0.186
746	0.187
746	0.187
747	0.187
747	0.187
748	0.187
748	0.187
748	0.186
749	0.186
749	0.186
750	0.186
750	0.185
751	0.185
751	0.185
751	0.185
752	0.185
752	0.185
753	0.184
753	0.184
754	0.184
754	0.183
754	0.183
755	0.183
755	0.183
756	0.183
756	0.182
757	0.182
757	0.182
758	0.182
758	0.183
758	0.183
759	0.184
759	0.184
760	0.184
760	0.184
761	0.185
761	0.185
761	0.186
762	0.185
762	0.186
763	0.185
763	0.185
764	0.184
764	0.184
764	0.184
765	0.184
765	0.184
766	0.184
766	0.184
767	0.184
767	0.183
768	0.182
768	0.183
768	0.183
769	0.183
769	0.183
770	0.184
770	0.185
771	0.185
771	0.186
771	0.187
772	0.188
772	0.189
773	0.19
773	0.19
774	0.191
774	0.191
775	0.192
775	0.192
775	0.192
776	0.192
776	0.193
777	0.193
777	0.193
778	0.193
778	0.193
778	0.193
779	0.193
779	0.193
780	0.192
780	0.191
781	0.191
781	0.19
781	0.19
782	0.19
782	0.19
783	0.191
783	0.191
784	0.191
784	0.192
784	0.193
785	0.193
785	0.194
786	0.194
786	0.194
787	0.194
787	0.194
788	0.193
788	0.193
788	0.192
789	0.191
789	0.191
790	0.19
790	0.19
791	0.189
791	0.189
791	0.188
792	0.189
792	0.189
793	0.19
793	0.19
794	0.19
794	0.19
794	0.19
795	0.191
795	0.191
796	0.192
796	0.192
797	0.192
797	0.192
797	0.192
798	0.193
798	0.193
799	0.193
799	0.193
800	0.192
800	0.192
801	0.192
801	0.192
801	0.191
802	0.192
802	0.192
803	0.192
803	0.192
804	0.192
804	0.193
804	0.193
805	0.193
805	0.193
806	0.193
806	0.193
807	0.192
807	0.192
807	0.192
808	0.192
808	0.192
809	0.192
809	0.192
810	0.192
810	0.192
810	0.193
811	0.193
811	0.194
812	0.195
812	0.195
813	0.196
813	0.196
813	0.197
814	0.198
814	0.198
815	0.199
815	0.199
816	0.199
816	0.198
817	0.198
817	0.198
817	0.197
818	0.197
818	0.197
819	0.196
819	0.195
820	0.194
820	0.194
820	0.194
821	0.194
821	0.194
822	0.194
822	0.194
823	0.194
823	0.194
823	0.195
824	0.196
824	0.197
825	0.198
825	0.199
826	0.199
826	0.199
826	0.199
827	0.2
827	0.2
828	0.2
828	0.2
829	0.2
829	0.2
829	0.2
830	0.2
830	0.201
831	0.202
831	0.202
832	0.202
832	0.202
832	0.202
833	0.201
833	0.201
834	0.2
834	0.2
835	0.199
835	0.199
835	0.198
836	0.198
836	0.198
837	0.198
837	0.198
838	0.198
838	0.198
839	0.197
839	0.197
839	0.196
840	0.195
840	0.194
841	0.193
841	0.192
842	0.191
842	0.19
842	0.189
843	0.188
843	0.187
844	0.187
844	0.186
845	0.185
845	0.185
845	0.185
846	0.184
846	0.184
847	0.184
847	0.185
848	0.185
848	0.186
848	0.187
849	0.188
849	0.189
850	0.19
850	0.19
851	0.191
851	0.191
851	0.191
852	0.19
852	0.19
853	0.19
853	0.189
854	0.189
854	0.189
854	0.189
855	0.189
855	0.19
856	0.19
856	0.191
857	0.191
857	0.192
857	0.193
858	0.193
858	0.193
859	0.193
859	0.192
860	0.191
860	0.191
860	0.19
861	0.189
861	0.189
862	0.187
862	0.186
863	0.185
863	0.185
863	0.184
864	0.184
864	0.184
865	0.184
865	0.185
866	0.185
866	0.185
866	0.185
867	0.186
867	0.186
868	0.187
868	0.187
869	0.188
869	0.188
869	0.188
870	0.188
870	0.188
871	0.188
871	0.188
872	0.188
872	0.187
872	0.187
873	0.187
873	0.186
874	0.186
874	0.185
875	0.185
875	0.184
875	0.184
876	0.183
876	0.183
877	0.182
877	0.182
878	0.182
878	0.182
878	0.183
879	0.183
879	0.183
880	0.184
880	0.184
881	0.185
881	0.185
881	0.185
882	0.185
882	0.185
883	0.185
883	0.185
884	0.185
884	0.184
884	0.184
885	0.183
885	0.183
886	0.182
886	0.181
887	0.181
887	0.18
887	0.179
888	0.178
888	0.177
889	0.176
889	0.176
890	0.176
890	0.176
890	0.176
891	0.175
891	0.175
892	0.175
892	0.175
893	0.175
893	0.175
893	0.175
894	0.175
894	0.174
895	0.174
895	0.174
895	0.175
896	0.175
896	0.175
897	0.175
897	0.175
898	0.175
898	0.175
898	0.174
899	0.174
899	0.173
900	0.173
900	0.172
901	0.171
901	0.17
901	0.17
902	0.169
902	0.168
903	0.168
903	0.167
904	0.167
904	0.167
904	0.166
905	0.166
905	0.166
906	0.166
906	0.166
907	0.166
907	0.166
907	0.166
908	0.166
908	0.166
909	0.166
909	0.166
910	0.165
910	0.165
910	0.165
911	0.165
911	0.164
912	0.164
912	0.164
913	0.163
913	0.163
913	0.163
914	0.163
914	0.163
915	0.163
915	0.164
916	0.164
916	0.164
916	0.163
917	0.163
917	0.162
918	0.162
918	0.161
918	0.161
919	0.16
919	0.16
920	0.159
920	0.159
921	0.159
921	0.158
921	0.158
922	0.158
922	0.158
923	0.158
923	0.159
924	0.159
924	0.159
924	0.159
925	0.16
925	0.16
926	0.161
926	0.161
927	0.162
927	0.162
927	0.162
928	0.162
928	0.162
929	0.162
929	0.162
930	0.161
930	0.161
930	0.16
931	0.159
931	0.158
932	0.158
932	0.157
933	0.156
933	0.156
933	0.155
934	0.154
934	0.154
935	0.153
935	0.153
935	0.153
936	0.152
936	0.152
937	0.152
937	0.152
938	0.151
938	0.151
938	0.151
939	0.15
939	0.15
940	0.149
940	0.149
941	0.149
941	0.149
941	0.149
942	0.149
942	0.149
943	0.149
943	0.149
944	0.149
944	0.149
944	0.149
945	0.149
945	0.149
946	0.149
946	0.149
946	0.148
947	0.149
947	0.149
948	0.148
948	0.148
949	0.148
949	0.147
949	0.147
950	0.146
950	0.146
951	0.146
951	0.145
952	0.145
952	0.144
952	0.144
953	0.144
953	0.143
954	0.143
954	0.143
955	0.142
955	0.142
955	0.141
956	0.141
956	0.141
957	0.141
957	0.141
957	0.141
958	0.14
958	0.14
959	0.14
959	0.14
960	0.14
960	0.139
960	0.139
961	0.139
961	0.138
962	0.138
962	0.138
963	0.138
963	0.138
963	0.138
964	0.139
964	0.139
965	0.139
965	0.139
966	0.139
966	0.139
966	0.139
967	0.139
967	0.138
968	0.138
968	0.137
968	0.137
969	0.136
969	0.135
970	0.134
970	0.134
971	0.133
971	0.133
971	0.132
972	0.132
972	0.131
973	0.131
973	0.131
974	0.131
974	0.131
974	0.131
975	0.131
975	0.131
976	0.132
976	0.132
976	0.133
977	0.133
977	0.133
978	0.132
978	0.132
979	0.132
979	0.131
979	0.131
980	0.131
980	0.13
981	0.13
981	0.129
982	0.129
982	0.129
982	0.129
983	0.129
983	0.129
984	0.129
984	0.128
984	0.128
985	0.128
985	0.128
986	0.128
986	0.128
987	0.128
987	0.128
987	0.127
988	0.127
988	0.126
989	0.126
989	0.126
990	0.125
990	0.125
990	0.125
991	0.124
991	0.123
992	0.123
992	0.122
992	0.121
993	0.12
993	0.119
994	0.118
994	0.117
995	0.116
995	0.116
995	0.116
996	0.116
996	0.116
997	0.116
997	0.116
997	0.117
998	0.117
998	0.118
999	0.119
999	0.119
1000	0.12
1000	0.121
1000	0.121
1001	0.121
1001	0.121
1002	0.121
1002	0.121
1003	0.121
1003	0.12
1003	0.119
1004	0.118
1004	0.118
1005	0.117
1005	0.116
1005	0.115
1006	0.115
1006	0.114
1007	0.113
1007	0.113
1008	0.113
1008	0.112
1008	0.113
1009	0.113
1009	0.113
1010	0.113
1010	0.113
1010	0.114
1011	0.114
1011	0.114
1012	0.114
1012	0.114
1013	0.114
1013	0.113
1013	0.113
1014	0.113
1014	0.112
1015	0.112
1015	0.112
1016	0.112
1016	0.111
1016	0.11
1017	0.11
1017	0.109
1018	0.109
1018	0.108
1018	0.108
1019	0.107
1019	0.107
1020	0.107
1020	0.106
1021	0.106
1021	0.107
1021	0.107
1022	0.107
1022	0.107
1023	0.107
1023	0.108
1023	0.108
1024	0.109
1024	0.109
1025	0.109
1025	0.109
1026	0.109
1026	0.109
1026	0.109
1027	0.109
1027	0.109
1028	0.109
1028	0.109
1028	0.109
1029	0.109
1029	0.109
1030	0.109
1030	0.11
1031	0.11
1031	0.11
1031	0.11
1032	0.11
1032	0.11
1033	0.111
1033	0.111
1033	0.111
1034	0.111
1034	0.111
1035	0.11
1035	0.11
1036	0.11
1036	0.11
1036	0.11
1037	0.11
1037	0.11
1038	0.109
1038	0.109
1039	0.109
1039	0.109
1039	0.109
1040	0.109
1040	0.109
1041	0.109
1041	0.109
1041	0.108
1042	0.108
1042	0.108
1043	0.108
1043	0.108
1044	0.108
1044	0.108
1044	0.108
1045	0.107
1045	0.107
1046	0.107
1046	0.107
1046	0.107
1047	0.107
1047	0.107
1048	0.107
1048	0.107
1049	0.106
1049	0.106
1049	0.106
1050	0.105
1050	0.105
1051	0.104
1051	0.104
1051	0.103
1052	0.103
1052	0.102
1053	0.101
1053	0.101
1053	0.1
1054	0.099
1054	0.099
1055	0.099
1055	0.098
1056	0.098
1056	0.097
1056	0.096
1057	0.095
1057	0.095
1058	0.094
1058	0.094
1058	0.093
1059	0.092
1059	0.092
1060	0.092
1060	0.091
1061	0.09
1061	0.09
1061	0.09
1062	0.089
1062	0.089
1063	0.089
1063	0.088
1063	0.088
1064	0.088
1064	0.088
1065	0.088
1065	0.088
1066	0.088
1066	0.087
1066	0.087
1067	0.087
1067	0.086
1068	0.086
1068	0.085
1068	0.085
1069	0.085
1069	0.084
1070	0.083
1070	0.083
1071	0.082
1071	0.082
1071	0.081
1072	0.08
1072	0.08
1073	0.079
1073	0.079
1073	0.078
1074	0.079
1074	0.079
1075	0.079
1075	0.079
1076	0.08
1076	0.08
1076	0.08
1077	0.08
1077	0.08
1078	0.08
1078	0.08
1078	0.08
1079	0.079
1079	0.079
1080	0.078
1080	0.078
1080	0.077
1081	0.077
1081	0.077
1082	0.077
1082	0.077
1083	0.077
1083	0.077
1083	0.077
1084	0.077
1084	0.078
1085	0.078
1085	0.077
1085	0.078
1086	0.078
1086	0.077
1087	0.077
1087	0.076
1088	0.076
1088	0.076
1088	0.076
1089	0.075
1089	0.074
1090	0.073
1090	0.073
1090	0.072
1091	0.072
1091	0.071
1092	0.072
1092	0.072
1092	0.072
1093	0.072
1093	0.072
1094	0.072
1094	0.073
1095	0.072
1095	0.072
1095	0.072
1096	0.072
1096	0.071
1097	0.07
1097	0.068
1097	0.068
1098	0.066
1098	0.065
1099	0.064
1099	0.063
1100	0.061
1100	0.059
1100	0.058
1101	0.057
1101	0.055
1102	0.054
1102	0.053
1102	0.051
1103	0.05
1103	0.049
1104	0.048
1104	0.048
1104	0.048
1105	0.046
1105	0.044
1106	0.043
1106	0.042
1107	0.04
1107	0.039
1107	0.038
1108	0.037
1108	0.035
1109	0.034
1109	0.032
1109	0.032
1110	0.033
1110	0.032
1111	0.029
1111	0.031
