Data from reversibility-20sec_Absorbance__6731__000000000006731.txt Node

Date: Thu Dec 07 01:36:46 CET 2023
User: Marek
Spectrometer: MAYP115816
Trigger mode: 0
Integration Time (sec): 2.000000E-1
Scans to average: 10
Electric dark correction enabled: true
Nonlinearity correction enabled: true
Boxcar width: 5
XAxis mode: Wavelengths
Number of Pixels in Spectrum: 2068
>>>>>Begin Spectral Data<<<<<
199	-0.194
199	-0.16
200	-0.092
200	-0.041
201	-0.013
201	0.005
202	0.017
202	0.028
203	0.037
203	0.038
204	0.053
204	0.068
205	0.079
205	0.085
205	0.083
206	0.084
206	0.087
207	0.089
207	0.087
208	0.086
208	0.087
209	0.088
209	0.086
210	0.088
210	0.087
211	0.089
211	0.09
212	0.085
212	0.087
213	0.091
213	0.092
213	0.093
214	0.098
214	0.1
215	0.103
215	0.103
216	0.106
216	0.105
217	0.112
217	0.114
218	0.113
218	0.117
219	0.121
219	0.119
220	0.124
220	0.124
221	0.127
221	0.129
221	0.132
222	0.138
222	0.141
223	0.146
223	0.151
224	0.155
224	0.165
225	0.174
225	0.183
226	0.194
226	0.206
227	0.218
227	0.228
228	0.243
228	0.259
229	0.274
229	0.296
229	0.319
230	0.34
230	0.369
231	0.4
231	0.438
232	0.477
232	0.52
233	0.562
233	0.609
234	0.661
234	0.715
235	0.77
235	0.826
236	0.878
236	0.927
236	0.979
237	1.029
237	1.078
238	1.125
238	1.174
239	1.219
239	1.26
240	1.297
240	1.332
241	1.366
241	1.402
242	1.432
242	1.465
243	1.495
243	1.52
243	1.544
244	1.569
244	1.59
245	1.608
245	1.63
246	1.649
246	1.664
247	1.677
247	1.69
248	1.702
248	1.717
249	1.727
249	1.734
250	1.742
250	1.751
250	1.755
251	1.76
251	1.765
252	1.772
252	1.773
253	1.773
253	1.772
254	1.772
254	1.773
255	1.774
255	1.776
256	1.776
256	1.776
257	1.776
257	1.776
258	1.777
258	1.778
258	1.777
259	1.777
259	1.776
260	1.775
260	1.774
261	1.775
261	1.776
262	1.779
262	1.779
263	1.781
263	1.781
264	1.783
264	1.785
265	1.786
265	1.786
265	1.786
266	1.786
266	1.786
267	1.782
267	1.783
268	1.781
268	1.782
269	1.783
269	1.78
270	1.779
270	1.779
271	1.776
271	1.776
272	1.774
272	1.773
272	1.77
273	1.766
273	1.762
274	1.757
274	1.752
275	1.746
275	1.74
276	1.734
276	1.727
277	1.719
277	1.71
278	1.699
278	1.689
278	1.677
279	1.663
279	1.647
280	1.628
280	1.604
281	1.576
281	1.544
282	1.51
282	1.475
283	1.438
283	1.402
284	1.365
284	1.33
285	1.296
285	1.264
285	1.236
286	1.21
286	1.187
287	1.167
287	1.149
288	1.134
288	1.12
289	1.109
289	1.099
290	1.09
290	1.082
291	1.075
291	1.069
292	1.063
292	1.058
292	1.053
293	1.048
293	1.044
294	1.039
294	1.035
295	1.032
295	1.029
296	1.025
296	1.021
297	1.018
297	1.015
298	1.012
298	1.008
298	1.005
299	1.002
299	0.999
300	0.996
300	0.993
301	0.99
301	0.987
302	0.983
302	0.981
303	0.978
303	0.975
304	0.973
304	0.97
305	0.967
305	0.964
305	0.962
306	0.959
306	0.956
307	0.954
307	0.951
308	0.947
308	0.945
309	0.942
309	0.939
310	0.935
310	0.932
311	0.929
311	0.925
311	0.922
312	0.918
312	0.914
313	0.91
313	0.906
314	0.902
314	0.898
315	0.894
315	0.889
316	0.885
316	0.88
317	0.875
317	0.87
318	0.865
318	0.86
318	0.855
319	0.849
319	0.844
320	0.838
320	0.832
321	0.826
321	0.82
322	0.814
322	0.808
323	0.801
323	0.795
324	0.788
324	0.781
324	0.775
325	0.768
325	0.761
326	0.754
326	0.747
327	0.741
327	0.734
328	0.727
328	0.72
329	0.713
329	0.706
330	0.699
330	0.692
330	0.685
331	0.678
331	0.671
332	0.664
332	0.657
333	0.65
333	0.643
334	0.636
334	0.629
335	0.622
335	0.615
336	0.609
336	0.602
336	0.596
337	0.589
337	0.583
338	0.577
338	0.571
339	0.565
339	0.559
340	0.553
340	0.547
341	0.542
341	0.536
342	0.531
342	0.525
342	0.519
343	0.514
343	0.509
344	0.504
344	0.499
345	0.494
345	0.489
346	0.485
346	0.48
347	0.476
347	0.472
348	0.468
348	0.464
348	0.46
349	0.456
349	0.452
350	0.449
350	0.445
351	0.442
351	0.438
352	0.435
352	0.432
353	0.428
353	0.426
354	0.422
354	0.42
354	0.417
355	0.414
355	0.41
356	0.408
356	0.405
357	0.401
357	0.399
358	0.396
358	0.393
359	0.391
359	0.388
360	0.386
360	0.384
360	0.382
361	0.38
361	0.378
362	0.377
362	0.375
363	0.374
363	0.372
364	0.37
364	0.368
365	0.366
365	0.363
366	0.362
366	0.36
366	0.358
367	0.356
367	0.354
368	0.352
368	0.351
369	0.349
369	0.348
370	0.347
370	0.345
371	0.344
371	0.342
372	0.341
372	0.34
372	0.338
373	0.337
373	0.336
374	0.335
374	0.334
375	0.333
375	0.332
376	0.331
376	0.33
377	0.329
377	0.328
378	0.327
378	0.326
378	0.325
379	0.324
379	0.323
380	0.322
380	0.321
381	0.321
381	0.32
382	0.319
382	0.318
383	0.318
383	0.317
383	0.316
384	0.315
384	0.315
385	0.314
385	0.313
386	0.313
386	0.312
387	0.311
387	0.311
388	0.311
388	0.31
389	0.31
389	0.309
389	0.308
390	0.308
390	0.307
391	0.307
391	0.306
392	0.306
392	0.305
393	0.305
393	0.304
394	0.304
394	0.303
394	0.303
395	0.302
395	0.302
396	0.301
396	0.301
397	0.301
397	0.3
398	0.3
398	0.299
399	0.299
399	0.299
400	0.298
400	0.298
400	0.297
401	0.297
401	0.296
402	0.296
402	0.296
403	0.295
403	0.294
404	0.294
404	0.294
405	0.293
405	0.293
405	0.293
406	0.293
406	0.292
407	0.292
407	0.291
408	0.291
408	0.291
409	0.29
409	0.29
410	0.29
410	0.289
411	0.289
411	0.289
411	0.288
412	0.288
412	0.287
413	0.287
413	0.287
414	0.286
414	0.286
415	0.286
415	0.285
416	0.285
416	0.285
416	0.284
417	0.284
417	0.284
418	0.283
418	0.283
419	0.283
419	0.282
420	0.282
420	0.281
421	0.281
421	0.28
421	0.28
422	0.28
422	0.279
423	0.279
423	0.279
424	0.278
424	0.278
425	0.278
425	0.278
426	0.278
426	0.278
427	0.277
427	0.277
427	0.277
428	0.276
428	0.276
429	0.276
429	0.275
430	0.275
430	0.274
431	0.274
431	0.274
432	0.274
432	0.274
432	0.273
433	0.273
433	0.273
434	0.273
434	0.273
435	0.273
435	0.272
436	0.272
436	0.272
437	0.272
437	0.271
437	0.271
438	0.271
438	0.271
439	0.271
439	0.271
440	0.27
440	0.27
441	0.27
441	0.269
442	0.269
442	0.269
442	0.269
443	0.269
443	0.269
444	0.269
444	0.268
445	0.268
445	0.268
446	0.268
446	0.268
447	0.267
447	0.267
447	0.267
448	0.267
448	0.267
449	0.267
449	0.267
450	0.267
450	0.267
451	0.267
451	0.267
452	0.267
452	0.267
452	0.267
453	0.267
453	0.267
454	0.267
454	0.267
455	0.266
455	0.266
456	0.266
456	0.266
457	0.266
457	0.266
458	0.266
458	0.266
458	0.267
459	0.267
459	0.267
460	0.267
460	0.267
461	0.267
461	0.267
462	0.267
462	0.267
463	0.267
463	0.267
463	0.267
464	0.267
464	0.267
465	0.266
465	0.266
466	0.266
466	0.266
467	0.266
467	0.267
467	0.267
468	0.267
468	0.267
469	0.268
469	0.268
470	0.269
470	0.269
471	0.27
471	0.27
472	0.27
472	0.27
472	0.271
473	0.271
473	0.272
474	0.272
474	0.272
475	0.272
475	0.273
476	0.273
476	0.273
477	0.274
477	0.274
477	0.275
478	0.275
478	0.275
479	0.276
479	0.276
480	0.277
480	0.277
481	0.278
481	0.278
482	0.279
482	0.28
482	0.28
483	0.281
483	0.282
484	0.282
484	0.283
485	0.283
485	0.284
486	0.284
486	0.285
487	0.285
487	0.286
487	0.287
488	0.287
488	0.288
489	0.289
489	0.291
490	0.292
490	0.293
491	0.294
491	0.295
492	0.296
492	0.298
492	0.299
493	0.3
493	0.301
494	0.302
494	0.303
495	0.304
495	0.305
496	0.307
496	0.308
496	0.309
497	0.31
497	0.311
498	0.312
498	0.313
499	0.314
499	0.315
500	0.317
500	0.318
501	0.319
501	0.32
501	0.321
502	0.322
502	0.323
503	0.324
503	0.325
504	0.326
504	0.328
505	0.329
505	0.33
506	0.331
506	0.332
506	0.333
507	0.334
507	0.335
508	0.336
508	0.337
509	0.338
509	0.339
510	0.34
510	0.341
511	0.342
511	0.343
511	0.344
512	0.345
512	0.346
513	0.347
513	0.348
514	0.349
514	0.349
515	0.35
515	0.35
515	0.351
516	0.351
516	0.352
517	0.353
517	0.353
518	0.354
518	0.354
519	0.354
519	0.354
520	0.355
520	0.355
520	0.355
521	0.356
521	0.355
522	0.355
522	0.355
523	0.355
523	0.355
524	0.354
524	0.354
524	0.354
525	0.354
525	0.353
526	0.353
526	0.352
527	0.352
527	0.351
528	0.351
528	0.35
529	0.349
529	0.348
529	0.347
530	0.346
530	0.345
531	0.344
531	0.343
532	0.342
532	0.341
533	0.34
533	0.339
533	0.338
534	0.336
534	0.335
535	0.334
535	0.333
536	0.332
536	0.33
537	0.329
537	0.328
538	0.326
538	0.324
538	0.323
539	0.322
539	0.32
540	0.319
540	0.317
541	0.315
541	0.313
542	0.312
542	0.31
542	0.308
543	0.306
543	0.304
544	0.302
544	0.3
545	0.299
545	0.297
546	0.295
546	0.293
547	0.291
547	0.289
547	0.287
548	0.286
548	0.284
549	0.282
549	0.28
550	0.278
550	0.276
551	0.274
551	0.272
551	0.27
552	0.269
552	0.267
553	0.266
553	0.264
554	0.262
554	0.26
555	0.259
555	0.256
556	0.254
556	0.253
556	0.251
557	0.249
557	0.248
558	0.246
558	0.245
559	0.243
559	0.241
560	0.24
560	0.238
560	0.237
561	0.236
561	0.234
562	0.232
562	0.23
563	0.228
563	0.227
564	0.225
564	0.223
564	0.222
565	0.22
565	0.219
566	0.217
566	0.215
567	0.214
567	0.212
568	0.211
568	0.209
568	0.208
569	0.206
569	0.205
570	0.203
570	0.201
571	0.2
571	0.199
572	0.198
572	0.196
573	0.195
573	0.194
573	0.193
574	0.191
574	0.19
575	0.189
575	0.189
576	0.188
576	0.186
577	0.185
577	0.184
577	0.182
578	0.181
578	0.18
579	0.18
579	0.179
580	0.177
580	0.176
581	0.174
581	0.173
581	0.173
582	0.172
582	0.171
583	0.171
583	0.17
584	0.169
584	0.167
585	0.166
585	0.165
585	0.164
586	0.164
586	0.163
587	0.162
587	0.161
588	0.159
588	0.159
589	0.158
589	0.157
590	0.157
590	0.156
590	0.156
591	0.156
591	0.155
592	0.154
592	0.153
593	0.152
593	0.151
594	0.15
594	0.149
594	0.148
595	0.147
595	0.146
596	0.145
596	0.145
597	0.145
597	0.145
598	0.144
598	0.144
598	0.143
599	0.143
599	0.142
600	0.142
600	0.141
601	0.14
601	0.14
602	0.139
602	0.138
602	0.137
603	0.137
603	0.136
604	0.136
604	0.136
605	0.135
605	0.135
606	0.134
606	0.133
606	0.133
607	0.133
607	0.132
608	0.132
608	0.131
609	0.13
609	0.129
610	0.129
610	0.128
610	0.128
611	0.127
611	0.127
612	0.127
612	0.127
613	0.126
613	0.126
614	0.126
614	0.125
614	0.125
615	0.125
615	0.125
616	0.125
616	0.124
617	0.124
617	0.123
618	0.123
618	0.123
618	0.122
619	0.122
619	0.123
620	0.123
620	0.122
621	0.121
621	0.121
622	0.12
622	0.119
622	0.119
623	0.118
623	0.117
624	0.117
624	0.116
625	0.115
625	0.115
626	0.115
626	0.115
626	0.115
627	0.115
627	0.114
628	0.114
628	0.114
629	0.114
629	0.113
630	0.113
630	0.112
630	0.112
631	0.112
631	0.111
632	0.111
632	0.11
633	0.11
633	0.11
634	0.11
634	0.11
634	0.11
635	0.11
635	0.109
636	0.11
636	0.11
637	0.11
637	0.109
638	0.109
638	0.109
638	0.108
639	0.108
639	0.107
640	0.107
640	0.107
641	0.107
641	0.106
642	0.106
642	0.106
642	0.106
643	0.106
643	0.105
644	0.105
644	0.105
645	0.105
645	0.105
646	0.104
646	0.104
646	0.104
647	0.103
647	0.103
648	0.102
648	0.101
649	0.101
649	0.1
650	0.1
650	0.1
650	0.1
651	0.1
651	0.1
652	0.1
652	0.1
653	0.101
653	0.103
653	0.109
654	0.087
654	0.071
655	0.069
655	0.069
656	0.069
656	0.069
657	0.07
657	0.07
657	0.07
658	0.069
658	0.061
659	0.077
659	0.096
660	0.102
660	0.102
661	0.102
661	0.101
661	0.101
662	0.1
662	0.1
663	0.099
663	0.099
664	0.098
664	0.098
665	0.098
665	0.098
665	0.098
666	0.097
666	0.097
667	0.098
667	0.098
668	0.098
668	0.098
669	0.098
669	0.099
669	0.099
670	0.099
670	0.099
671	0.098
671	0.098
672	0.097
672	0.097
672	0.096
673	0.096
673	0.095
674	0.095
674	0.094
675	0.094
675	0.094
676	0.094
676	0.095
676	0.095
677	0.095
677	0.095
678	0.095
678	0.094
679	0.094
679	0.094
680	0.093
680	0.093
680	0.092
681	0.092
681	0.092
682	0.093
682	0.093
683	0.093
683	0.094
684	0.094
684	0.094
684	0.094
685	0.095
685	0.095
686	0.095
686	0.095
687	0.094
687	0.094
687	0.094
688	0.094
688	0.093
689	0.094
689	0.094
690	0.094
690	0.093
691	0.093
691	0.093
691	0.093
692	0.093
692	0.093
693	0.093
693	0.094
694	0.093
694	0.093
695	0.094
695	0.095
695	0.095
696	0.095
696	0.095
697	0.095
697	0.095
698	0.095
698	0.094
698	0.095
699	0.095
699	0.094
700	0.093
700	0.093
701	0.093
701	0.093
702	0.092
702	0.092
702	0.092
703	0.091
703	0.091
704	0.09
704	0.09
705	0.09
705	0.09
705	0.09
706	0.09
706	0.09
707	0.09
707	0.09
708	0.09
708	0.09
709	0.09
709	0.09
709	0.089
710	0.089
710	0.09
711	0.09
711	0.09
712	0.09
712	0.09
713	0.09
713	0.09
713	0.09
714	0.089
714	0.089
715	0.089
715	0.088
716	0.088
716	0.087
716	0.087
717	0.086
717	0.086
718	0.085
718	0.085
719	0.086
719	0.086
720	0.086
720	0.087
720	0.087
721	0.088
721	0.088
722	0.089
722	0.089
723	0.089
723	0.089
723	0.089
724	0.089
724	0.088
725	0.087
725	0.087
726	0.086
726	0.085
727	0.085
727	0.085
727	0.085
728	0.084
728	0.084
729	0.084
729	0.084
730	0.084
730	0.084
730	0.085
731	0.085
731	0.085
732	0.086
732	0.086
733	0.086
733	0.086
734	0.086
734	0.087
734	0.087
735	0.087
735	0.086
736	0.086
736	0.086
737	0.085
737	0.085
737	0.085
738	0.084
738	0.083
739	0.083
739	0.083
740	0.082
740	0.083
741	0.083
741	0.083
741	0.083
742	0.083
742	0.084
743	0.085
743	0.085
744	0.085
744	0.086
744	0.086
745	0.085
745	0.085
746	0.085
746	0.084
747	0.084
747	0.083
748	0.083
748	0.083
748	0.082
749	0.082
749	0.083
750	0.082
750	0.082
751	0.082
751	0.083
751	0.083
752	0.082
752	0.082
753	0.081
753	0.081
754	0.081
754	0.08
754	0.08
755	0.08
755	0.08
756	0.079
756	0.078
757	0.078
757	0.078
758	0.078
758	0.078
758	0.078
759	0.079
759	0.078
760	0.078
760	0.078
761	0.078
761	0.078
761	0.078
762	0.078
762	0.078
763	0.078
763	0.077
764	0.076
764	0.076
764	0.075
765	0.075
765	0.074
766	0.074
766	0.074
767	0.074
767	0.073
768	0.072
768	0.073
768	0.073
769	0.074
769	0.074
770	0.075
770	0.076
771	0.076
771	0.077
771	0.078
772	0.078
772	0.079
773	0.079
773	0.079
774	0.079
774	0.08
775	0.08
775	0.08
775	0.08
776	0.08
776	0.08
777	0.081
777	0.081
778	0.08
778	0.08
778	0.08
779	0.08
779	0.079
780	0.078
780	0.077
781	0.076
781	0.076
781	0.075
782	0.074
782	0.074
783	0.074
783	0.074
784	0.074
784	0.074
784	0.074
785	0.074
785	0.074
786	0.074
786	0.074
787	0.074
787	0.074
788	0.073
788	0.072
788	0.071
789	0.071
789	0.071
790	0.071
790	0.07
791	0.07
791	0.069
791	0.069
792	0.069
792	0.069
793	0.069
793	0.068
794	0.068
794	0.067
794	0.067
795	0.067
795	0.067
796	0.067
796	0.067
797	0.067
797	0.067
797	0.068
798	0.068
798	0.069
799	0.069
799	0.069
800	0.069
800	0.068
801	0.068
801	0.068
801	0.068
802	0.068
802	0.068
803	0.068
803	0.068
804	0.069
804	0.069
804	0.069
805	0.069
805	0.068
806	0.068
806	0.068
807	0.067
807	0.067
807	0.067
808	0.067
808	0.067
809	0.066
809	0.066
810	0.067
810	0.067
810	0.066
811	0.066
811	0.067
812	0.067
812	0.067
813	0.067
813	0.067
813	0.067
814	0.067
814	0.067
815	0.067
815	0.066
816	0.066
816	0.066
817	0.065
817	0.065
817	0.065
818	0.065
818	0.065
819	0.065
819	0.065
820	0.064
820	0.064
820	0.064
821	0.064
821	0.064
822	0.064
822	0.064
823	0.064
823	0.064
823	0.064
824	0.065
824	0.066
825	0.067
825	0.067
826	0.068
826	0.068
826	0.068
827	0.069
827	0.069
828	0.069
828	0.069
829	0.069
829	0.069
829	0.069
830	0.069
830	0.07
831	0.071
831	0.071
832	0.071
832	0.071
832	0.071
833	0.071
833	0.07
834	0.07
834	0.069
835	0.069
835	0.068
835	0.067
836	0.067
836	0.067
837	0.066
837	0.066
838	0.065
838	0.065
839	0.064
839	0.063
839	0.062
840	0.061
840	0.06
841	0.059
841	0.058
842	0.057
842	0.056
842	0.056
843	0.055
843	0.054
844	0.054
844	0.053
845	0.053
845	0.052
845	0.052
846	0.052
846	0.052
847	0.052
847	0.053
848	0.053
848	0.054
848	0.054
849	0.055
849	0.056
850	0.056
850	0.056
851	0.057
851	0.057
851	0.057
852	0.057
852	0.057
853	0.057
853	0.057
854	0.057
854	0.057
854	0.058
855	0.058
855	0.059
856	0.059
856	0.06
857	0.061
857	0.061
857	0.061
858	0.062
858	0.062
859	0.061
859	0.061
860	0.06
860	0.06
860	0.059
861	0.059
861	0.058
862	0.057
862	0.056
863	0.056
863	0.055
863	0.055
864	0.055
864	0.055
865	0.055
865	0.055
866	0.055
866	0.055
866	0.056
867	0.056
867	0.057
868	0.057
868	0.057
869	0.057
869	0.057
869	0.057
870	0.056
870	0.056
871	0.056
871	0.055
872	0.055
872	0.054
872	0.054
873	0.053
873	0.053
874	0.052
874	0.052
875	0.052
875	0.052
875	0.052
876	0.052
876	0.052
877	0.052
877	0.052
878	0.052
878	0.053
878	0.053
879	0.053
879	0.053
880	0.053
880	0.053
881	0.053
881	0.053
881	0.053
882	0.053
882	0.053
883	0.053
883	0.053
884	0.054
884	0.054
884	0.054
885	0.054
885	0.053
886	0.053
886	0.053
887	0.053
887	0.053
887	0.052
888	0.052
888	0.051
889	0.051
889	0.051
890	0.051
890	0.051
890	0.05
891	0.05
891	0.05
892	0.05
892	0.05
893	0.05
893	0.049
893	0.049
894	0.048
894	0.048
895	0.048
895	0.047
895	0.048
896	0.048
896	0.048
897	0.048
897	0.049
898	0.049
898	0.049
898	0.05
899	0.05
899	0.05
900	0.05
900	0.05
901	0.05
901	0.049
901	0.049
902	0.049
902	0.048
903	0.048
903	0.048
904	0.048
904	0.048
904	0.048
905	0.047
905	0.047
906	0.047
906	0.047
907	0.047
907	0.048
907	0.048
908	0.048
908	0.048
909	0.048
909	0.048
910	0.048
910	0.048
910	0.048
911	0.048
911	0.047
912	0.047
912	0.046
913	0.046
913	0.046
913	0.046
914	0.045
914	0.045
915	0.045
915	0.045
916	0.045
916	0.044
916	0.044
917	0.044
917	0.044
918	0.043
918	0.043
918	0.042
919	0.042
919	0.041
920	0.041
920	0.041
921	0.04
921	0.04
921	0.04
922	0.039
922	0.039
923	0.04
923	0.04
924	0.04
924	0.041
924	0.041
925	0.042
925	0.043
926	0.043
926	0.044
927	0.045
927	0.045
927	0.046
928	0.046
928	0.047
929	0.047
929	0.048
930	0.048
930	0.048
930	0.049
931	0.049
931	0.049
932	0.049
932	0.05
933	0.05
933	0.05
933	0.05
934	0.05
934	0.049
935	0.049
935	0.048
935	0.048
936	0.047
936	0.046
937	0.045
937	0.045
938	0.044
938	0.043
938	0.042
939	0.042
939	0.041
940	0.041
940	0.041
941	0.041
941	0.041
941	0.042
942	0.042
942	0.042
943	0.042
943	0.043
944	0.043
944	0.043
944	0.044
945	0.044
945	0.044
946	0.045
946	0.045
946	0.045
947	0.045
947	0.045
948	0.045
948	0.045
949	0.045
949	0.044
949	0.044
950	0.043
950	0.043
951	0.043
951	0.042
952	0.042
952	0.042
952	0.042
953	0.042
953	0.042
954	0.042
954	0.042
955	0.043
955	0.043
955	0.043
956	0.043
956	0.044
957	0.044
957	0.045
957	0.045
958	0.045
958	0.045
959	0.045
959	0.045
960	0.045
960	0.045
960	0.045
961	0.045
961	0.044
962	0.044
962	0.044
963	0.043
963	0.043
963	0.043
964	0.043
964	0.044
965	0.044
965	0.044
966	0.044
966	0.045
966	0.045
967	0.045
967	0.045
968	0.045
968	0.045
968	0.045
969	0.044
969	0.044
970	0.043
970	0.042
971	0.041
971	0.041
971	0.04
972	0.039
972	0.039
973	0.038
973	0.038
974	0.038
974	0.038
974	0.039
975	0.039
975	0.04
976	0.041
976	0.041
976	0.042
977	0.042
977	0.043
978	0.043
978	0.043
979	0.043
979	0.043
979	0.043
980	0.043
980	0.042
981	0.042
981	0.041
982	0.041
982	0.041
982	0.04
983	0.04
983	0.04
984	0.04
984	0.04
984	0.04
985	0.04
985	0.04
986	0.04
986	0.04
987	0.04
987	0.041
987	0.041
988	0.041
988	0.041
989	0.041
989	0.041
990	0.041
990	0.041
990	0.041
991	0.04
991	0.04
992	0.039
992	0.039
992	0.038
993	0.037
993	0.036
994	0.035
994	0.035
995	0.034
995	0.033
995	0.033
996	0.033
996	0.033
997	0.033
997	0.033
997	0.034
998	0.034
998	0.035
999	0.036
999	0.036
1000	0.037
1000	0.037
1000	0.037
1001	0.037
1001	0.037
1002	0.037
1002	0.036
1003	0.036
1003	0.036
1003	0.035
1004	0.034
1004	0.033
1005	0.032
1005	0.031
1005	0.03
1006	0.029
1006	0.029
1007	0.028
1007	0.028
1008	0.027
1008	0.027
1008	0.027
1009	0.027
1009	0.027
1010	0.027
1010	0.027
1010	0.027
1011	0.027
1011	0.027
1012	0.027
1012	0.028
1013	0.028
1013	0.027
1013	0.027
1014	0.027
1014	0.027
1015	0.027
1015	0.027
1016	0.027
1016	0.027
1016	0.028
1017	0.028
1017	0.028
1018	0.028
1018	0.029
1018	0.029
1019	0.029
1019	0.03
1020	0.03
1020	0.03
1021	0.031
1021	0.032
1021	0.032
1022	0.033
1022	0.033
1023	0.033
1023	0.033
1023	0.034
1024	0.034
1024	0.034
1025	0.034
1025	0.034
1026	0.034
1026	0.034
1026	0.034
1027	0.034
1027	0.034
1028	0.034
1028	0.033
1028	0.033
1029	0.033
1029	0.033
1030	0.033
1030	0.034
1031	0.034
1031	0.034
1031	0.034
1032	0.035
1032	0.035
1033	0.036
1033	0.036
1033	0.037
1034	0.037
1034	0.037
1035	0.037
1035	0.037
1036	0.037
1036	0.037
1036	0.037
1037	0.037
1037	0.037
1038	0.037
1038	0.037
1039	0.037
1039	0.037
1039	0.037
1040	0.037
1040	0.037
1041	0.037
1041	0.037
1041	0.037
1042	0.037
1042	0.036
1043	0.036
1043	0.036
1044	0.036
1044	0.035
1044	0.035
1045	0.035
1045	0.034
1046	0.034
1046	0.034
1046	0.034
1047	0.034
1047	0.034
1048	0.034
1048	0.035
1049	0.035
1049	0.035
1049	0.035
1050	0.035
1050	0.035
1051	0.035
1051	0.035
1051	0.035
1052	0.034
1052	0.034
1053	0.033
1053	0.032
1053	0.032
1054	0.031
1054	0.031
1055	0.031
1055	0.031
1056	0.03
1056	0.029
1056	0.029
1057	0.028
1057	0.028
1058	0.027
1058	0.026
1058	0.026
1059	0.025
1059	0.025
1060	0.025
1060	0.024
1061	0.024
1061	0.024
1061	0.024
1062	0.023
1062	0.023
1063	0.023
1063	0.023
1063	0.023
1064	0.023
1064	0.023
1065	0.022
1065	0.022
1066	0.022
1066	0.022
1066	0.022
1067	0.022
1067	0.022
1068	0.022
1068	0.022
1068	0.022
1069	0.022
1069	0.022
1070	0.022
1070	0.021
1071	0.021
1071	0.021
1071	0.021
1072	0.022
1072	0.021
1073	0.021
1073	0.021
1073	0.021
1074	0.021
1074	0.022
1075	0.022
1075	0.022
1076	0.023
1076	0.024
1076	0.024
1077	0.024
1077	0.024
1078	0.024
1078	0.024
1078	0.024
1079	0.024
1079	0.023
1080	0.023
1080	0.023
1080	0.022
1081	0.022
1081	0.022
1082	0.022
1082	0.023
1083	0.022
1083	0.022
1083	0.022
1084	0.022
1084	0.022
1085	0.023
1085	0.023
1085	0.024
1086	0.024
1086	0.023
1087	0.023
1087	0.023
1088	0.024
1088	0.024
1088	0.024
1089	0.024
1089	0.023
1090	0.022
1090	0.022
1090	0.021
1091	0.021
1091	0.02
1092	0.02
1092	0.02
1092	0.019
1093	0.018
1093	0.018
1094	0.018
1094	0.017
1095	0.017
1095	0.017
1095	0.016
1096	0.016
1096	0.015
1097	0.015
1097	0.014
1097	0.014
1098	0.013
1098	0.012
1099	0.011
1099	0.01
1100	0.009
1100	0.008
1100	0.006
1101	0.005
1101	0.005
1102	0.004
1102	0.003
1102	0.002
1103	0.002
1103	0.002
1104	0.001
1104	0.001
1104	0
1105	-0
1105	-0.002
1106	-0.004
1106	-0.006
1107	-0.006
1107	-0.007
1107	-0.008
1108	-0.01
1108	-0.011
1109	-0.012
1109	-0.013
1109	-0.013
1110	-0.013
1110	-0.012
1111	-0.009
1111	-0.012
