Data from reversibility-20sec_Absorbance__5190__000000000005190.txt Node

Date: Wed Dec 06 17:03:06 CET 2023
User: Marek
Spectrometer: MAYP115816
Trigger mode: 0
Integration Time (sec): 2.000000E-1
Scans to average: 10
Electric dark correction enabled: true
Nonlinearity correction enabled: true
Boxcar width: 5
XAxis mode: Wavelengths
Number of Pixels in Spectrum: 2068
>>>>>Begin Spectral Data<<<<<
199	-0.166
199	-0.144
200	-0.076
200	-0.021
201	0.012
201	0.03
202	0.042
202	0.052
203	0.062
203	0.064
204	0.079
204	0.094
205	0.107
205	0.113
205	0.111
206	0.112
206	0.11
207	0.114
207	0.113
208	0.111
208	0.11
209	0.112
209	0.108
210	0.109
210	0.108
211	0.11
211	0.111
212	0.109
212	0.109
213	0.109
213	0.111
213	0.113
214	0.115
214	0.119
215	0.12
215	0.119
216	0.118
216	0.117
217	0.122
217	0.123
218	0.124
218	0.128
219	0.13
219	0.131
220	0.133
220	0.131
221	0.133
221	0.136
221	0.139
222	0.145
222	0.151
223	0.154
223	0.155
224	0.161
224	0.165
225	0.172
225	0.183
226	0.192
226	0.203
227	0.213
227	0.221
228	0.236
228	0.254
229	0.269
229	0.292
229	0.316
230	0.34
230	0.371
231	0.404
231	0.441
232	0.477
232	0.52
233	0.564
233	0.611
234	0.662
234	0.713
235	0.763
235	0.818
236	0.865
236	0.917
236	0.968
237	1.023
237	1.071
238	1.116
238	1.162
239	1.213
239	1.254
240	1.295
240	1.329
241	1.368
241	1.402
242	1.435
242	1.467
243	1.498
243	1.524
243	1.547
244	1.569
244	1.591
245	1.612
245	1.639
246	1.657
246	1.672
247	1.683
247	1.697
248	1.71
248	1.723
249	1.735
249	1.74
250	1.747
250	1.753
250	1.755
251	1.757
251	1.761
252	1.766
252	1.764
253	1.763
253	1.76
254	1.757
254	1.759
255	1.756
255	1.754
256	1.754
256	1.753
257	1.754
257	1.752
258	1.753
258	1.752
258	1.752
259	1.752
259	1.75
260	1.75
260	1.751
261	1.751
261	1.754
262	1.755
262	1.758
263	1.762
263	1.766
264	1.768
264	1.772
265	1.774
265	1.777
265	1.778
266	1.779
266	1.78
267	1.778
267	1.781
268	1.781
268	1.78
269	1.783
269	1.78
270	1.78
270	1.78
271	1.777
271	1.776
272	1.773
272	1.772
272	1.766
273	1.758
273	1.751
274	1.743
274	1.737
275	1.729
275	1.723
276	1.715
276	1.707
277	1.698
277	1.687
278	1.676
278	1.664
278	1.649
279	1.632
279	1.609
280	1.582
280	1.548
281	1.51
281	1.467
282	1.423
282	1.378
283	1.334
283	1.291
284	1.25
284	1.211
285	1.174
285	1.141
285	1.112
286	1.087
286	1.065
287	1.046
287	1.03
288	1.016
288	1.004
289	0.995
289	0.986
290	0.979
290	0.972
291	0.966
291	0.962
292	0.957
292	0.953
292	0.949
293	0.946
293	0.943
294	0.939
294	0.937
295	0.934
295	0.932
296	0.929
296	0.926
297	0.924
297	0.921
298	0.918
298	0.916
298	0.914
299	0.911
299	0.909
300	0.906
300	0.904
301	0.901
301	0.899
302	0.896
302	0.894
303	0.892
303	0.89
304	0.888
304	0.886
305	0.884
305	0.882
305	0.879
306	0.877
306	0.875
307	0.873
307	0.87
308	0.868
308	0.865
309	0.863
309	0.86
310	0.858
310	0.855
311	0.852
311	0.849
311	0.847
312	0.843
312	0.84
313	0.837
313	0.833
314	0.83
314	0.826
315	0.822
315	0.818
316	0.814
316	0.81
317	0.805
317	0.8
318	0.795
318	0.79
318	0.785
319	0.78
319	0.775
320	0.769
320	0.763
321	0.758
321	0.752
322	0.746
322	0.739
323	0.733
323	0.727
324	0.721
324	0.715
324	0.708
325	0.701
325	0.695
326	0.688
326	0.681
327	0.674
327	0.668
328	0.661
328	0.654
329	0.647
329	0.64
330	0.633
330	0.626
330	0.619
331	0.612
331	0.605
332	0.599
332	0.592
333	0.585
333	0.578
334	0.571
334	0.564
335	0.558
335	0.551
336	0.545
336	0.538
336	0.532
337	0.526
337	0.519
338	0.513
338	0.507
339	0.501
339	0.496
340	0.49
340	0.484
341	0.478
341	0.473
342	0.468
342	0.462
342	0.457
343	0.452
343	0.447
344	0.442
344	0.437
345	0.433
345	0.428
346	0.424
346	0.419
347	0.415
347	0.411
348	0.407
348	0.404
348	0.4
349	0.396
349	0.392
350	0.389
350	0.386
351	0.382
351	0.379
352	0.376
352	0.373
353	0.37
353	0.367
354	0.364
354	0.361
354	0.358
355	0.355
355	0.353
356	0.35
356	0.347
357	0.344
357	0.341
358	0.339
358	0.336
359	0.334
359	0.332
360	0.33
360	0.328
360	0.327
361	0.325
361	0.323
362	0.322
362	0.32
363	0.319
363	0.317
364	0.315
364	0.313
365	0.312
365	0.31
366	0.308
366	0.306
366	0.305
367	0.303
367	0.301
368	0.3
368	0.298
369	0.297
369	0.296
370	0.294
370	0.293
371	0.292
371	0.29
372	0.289
372	0.288
372	0.287
373	0.286
373	0.285
374	0.284
374	0.283
375	0.283
375	0.282
376	0.281
376	0.28
377	0.279
377	0.278
378	0.278
378	0.277
378	0.276
379	0.276
379	0.275
380	0.274
380	0.273
381	0.273
381	0.272
382	0.272
382	0.271
383	0.271
383	0.27
383	0.27
384	0.269
384	0.269
385	0.268
385	0.268
386	0.267
386	0.267
387	0.266
387	0.266
388	0.266
388	0.265
389	0.265
389	0.265
389	0.264
390	0.264
390	0.264
391	0.263
391	0.263
392	0.263
392	0.263
393	0.262
393	0.262
394	0.262
394	0.261
394	0.261
395	0.261
395	0.26
396	0.26
396	0.26
397	0.259
397	0.259
398	0.259
398	0.258
399	0.258
399	0.258
400	0.257
400	0.257
400	0.257
401	0.257
401	0.257
402	0.256
402	0.256
403	0.256
403	0.256
404	0.256
404	0.256
405	0.255
405	0.255
405	0.255
406	0.255
406	0.254
407	0.254
407	0.254
408	0.254
408	0.253
409	0.253
409	0.253
410	0.252
410	0.252
411	0.252
411	0.252
411	0.251
412	0.251
412	0.251
413	0.251
413	0.25
414	0.25
414	0.25
415	0.25
415	0.249
416	0.249
416	0.249
416	0.248
417	0.248
417	0.248
418	0.247
418	0.247
419	0.247
419	0.246
420	0.246
420	0.245
421	0.245
421	0.245
421	0.245
422	0.244
422	0.244
423	0.244
423	0.243
424	0.243
424	0.243
425	0.242
425	0.242
426	0.242
426	0.241
427	0.241
427	0.241
427	0.24
428	0.24
428	0.24
429	0.24
429	0.239
430	0.239
430	0.239
431	0.238
431	0.238
432	0.238
432	0.238
432	0.238
433	0.238
433	0.237
434	0.237
434	0.237
435	0.237
435	0.237
436	0.236
436	0.236
437	0.236
437	0.235
437	0.235
438	0.235
438	0.235
439	0.235
439	0.235
440	0.234
440	0.234
441	0.234
441	0.234
442	0.234
442	0.234
442	0.234
443	0.233
443	0.233
444	0.233
444	0.233
445	0.233
445	0.232
446	0.232
446	0.232
447	0.231
447	0.231
447	0.231
448	0.231
448	0.231
449	0.231
449	0.23
450	0.23
450	0.23
451	0.23
451	0.229
452	0.23
452	0.229
452	0.229
453	0.229
453	0.229
454	0.229
454	0.229
455	0.228
455	0.228
456	0.228
456	0.227
457	0.227
457	0.227
458	0.226
458	0.226
458	0.225
459	0.225
459	0.225
460	0.225
460	0.224
461	0.224
461	0.224
462	0.224
462	0.223
463	0.223
463	0.223
463	0.223
464	0.222
464	0.222
465	0.222
465	0.222
466	0.221
466	0.221
467	0.221
467	0.221
467	0.221
468	0.221
468	0.221
469	0.221
469	0.221
470	0.221
470	0.221
471	0.221
471	0.221
472	0.221
472	0.221
472	0.221
473	0.221
473	0.22
474	0.22
474	0.22
475	0.22
475	0.22
476	0.22
476	0.22
477	0.22
477	0.22
477	0.22
478	0.219
478	0.219
479	0.22
479	0.219
480	0.219
480	0.22
481	0.219
481	0.219
482	0.219
482	0.219
482	0.219
483	0.22
483	0.22
484	0.22
484	0.22
485	0.22
485	0.22
486	0.22
486	0.22
487	0.22
487	0.22
487	0.22
488	0.22
488	0.22
489	0.22
489	0.221
490	0.221
490	0.222
491	0.222
491	0.222
492	0.223
492	0.223
492	0.223
493	0.224
493	0.224
494	0.224
494	0.225
495	0.225
495	0.225
496	0.226
496	0.226
496	0.227
497	0.227
497	0.227
498	0.227
498	0.227
499	0.228
499	0.228
500	0.229
500	0.229
501	0.229
501	0.229
501	0.23
502	0.23
502	0.23
503	0.23
503	0.231
504	0.231
504	0.231
505	0.232
505	0.232
506	0.232
506	0.233
506	0.233
507	0.233
507	0.234
508	0.234
508	0.235
509	0.235
509	0.235
510	0.236
510	0.236
511	0.237
511	0.237
511	0.238
512	0.238
512	0.239
513	0.239
513	0.24
514	0.24
514	0.241
515	0.241
515	0.241
515	0.241
516	0.242
516	0.242
517	0.243
517	0.243
518	0.243
518	0.243
519	0.244
519	0.244
520	0.244
520	0.244
520	0.244
521	0.245
521	0.245
522	0.245
522	0.245
523	0.245
523	0.245
524	0.246
524	0.246
524	0.246
525	0.247
525	0.247
526	0.247
526	0.247
527	0.248
527	0.248
528	0.248
528	0.248
529	0.248
529	0.248
529	0.248
530	0.248
530	0.248
531	0.248
531	0.248
532	0.248
532	0.248
533	0.248
533	0.248
533	0.248
534	0.248
534	0.248
535	0.248
535	0.248
536	0.248
536	0.248
537	0.248
537	0.248
538	0.248
538	0.247
538	0.247
539	0.247
539	0.247
540	0.247
540	0.247
541	0.247
541	0.246
542	0.246
542	0.246
542	0.246
543	0.246
543	0.246
544	0.246
544	0.246
545	0.246
545	0.246
546	0.246
546	0.246
547	0.245
547	0.245
547	0.245
548	0.245
548	0.244
549	0.244
549	0.244
550	0.243
550	0.243
551	0.243
551	0.243
551	0.243
552	0.242
552	0.242
553	0.241
553	0.241
554	0.241
554	0.24
555	0.239
555	0.239
556	0.239
556	0.238
556	0.238
557	0.238
557	0.239
558	0.239
558	0.239
559	0.239
559	0.239
560	0.239
560	0.239
560	0.239
561	0.239
561	0.239
562	0.238
562	0.237
563	0.236
563	0.236
564	0.235
564	0.234
564	0.234
565	0.234
565	0.234
566	0.233
566	0.233
567	0.233
567	0.234
568	0.233
568	0.233
568	0.233
569	0.233
569	0.233
570	0.232
570	0.231
571	0.231
571	0.23
572	0.23
572	0.229
573	0.229
573	0.229
573	0.228
574	0.228
574	0.228
575	0.228
575	0.228
576	0.228
576	0.227
577	0.227
577	0.227
577	0.226
578	0.226
578	0.226
579	0.226
579	0.226
580	0.226
580	0.225
581	0.224
581	0.224
581	0.224
582	0.224
582	0.224
583	0.224
583	0.224
584	0.223
584	0.222
585	0.222
585	0.222
585	0.222
586	0.221
586	0.221
587	0.22
587	0.219
588	0.219
588	0.218
589	0.218
589	0.218
590	0.218
590	0.218
590	0.219
591	0.219
591	0.219
592	0.218
592	0.218
593	0.218
593	0.218
594	0.217
594	0.217
594	0.216
595	0.216
595	0.215
596	0.214
596	0.215
597	0.216
597	0.216
598	0.216
598	0.216
598	0.216
599	0.215
599	0.215
600	0.215
600	0.214
601	0.214
601	0.214
602	0.213
602	0.213
602	0.212
603	0.212
603	0.213
604	0.213
604	0.213
605	0.213
605	0.213
606	0.213
606	0.212
606	0.212
607	0.211
607	0.211
608	0.211
608	0.21
609	0.21
609	0.21
610	0.21
610	0.209
610	0.21
611	0.21
611	0.209
612	0.209
612	0.209
613	0.209
613	0.209
614	0.209
614	0.208
614	0.208
615	0.208
615	0.207
616	0.207
616	0.207
617	0.206
617	0.206
618	0.206
618	0.206
618	0.206
619	0.206
619	0.206
620	0.207
620	0.206
621	0.206
621	0.206
622	0.205
622	0.205
622	0.205
623	0.204
623	0.204
624	0.204
624	0.203
625	0.203
625	0.203
626	0.202
626	0.202
626	0.202
627	0.202
627	0.202
628	0.202
628	0.202
629	0.202
629	0.201
630	0.201
630	0.201
630	0.202
631	0.202
631	0.202
632	0.202
632	0.201
633	0.201
633	0.202
634	0.202
634	0.202
634	0.202
635	0.202
635	0.202
636	0.201
636	0.201
637	0.2
637	0.2
638	0.2
638	0.199
638	0.199
639	0.198
639	0.198
640	0.198
640	0.198
641	0.198
641	0.198
642	0.198
642	0.198
642	0.199
643	0.199
643	0.199
644	0.199
644	0.199
645	0.199
645	0.199
646	0.2
646	0.199
646	0.199
647	0.199
647	0.199
648	0.198
648	0.197
649	0.197
649	0.197
650	0.197
650	0.197
650	0.197
651	0.196
651	0.196
652	0.196
652	0.196
653	0.196
653	0.198
653	0.205
654	0.161
654	0.128
655	0.129
655	0.129
656	0.13
656	0.13
657	0.131
657	0.131
657	0.131
658	0.13
658	0.119
659	0.151
659	0.195
660	0.2
660	0.2
661	0.2
661	0.2
661	0.199
662	0.199
662	0.199
663	0.198
663	0.198
664	0.198
664	0.198
665	0.197
665	0.197
665	0.198
666	0.198
666	0.198
667	0.198
667	0.198
668	0.199
668	0.198
669	0.199
669	0.199
669	0.199
670	0.2
670	0.199
671	0.199
671	0.198
672	0.198
672	0.197
672	0.197
673	0.197
673	0.197
674	0.197
674	0.196
675	0.196
675	0.196
676	0.196
676	0.196
676	0.196
677	0.196
677	0.196
678	0.196
678	0.196
679	0.195
679	0.195
680	0.196
680	0.195
680	0.195
681	0.196
681	0.196
682	0.196
682	0.196
683	0.197
683	0.197
684	0.197
684	0.197
684	0.197
685	0.197
685	0.197
686	0.197
686	0.197
687	0.197
687	0.197
687	0.197
688	0.197
688	0.196
689	0.197
689	0.197
690	0.197
690	0.197
691	0.197
691	0.197
691	0.197
692	0.197
692	0.197
693	0.197
693	0.198
694	0.197
694	0.197
695	0.198
695	0.2
695	0.2
696	0.2
696	0.2
697	0.201
697	0.201
698	0.2
698	0.2
698	0.201
699	0.201
699	0.2
700	0.2
700	0.199
701	0.199
701	0.199
702	0.198
702	0.198
702	0.198
703	0.198
703	0.197
704	0.197
704	0.197
705	0.198
705	0.198
705	0.199
706	0.199
706	0.2
707	0.201
707	0.201
708	0.202
708	0.203
709	0.204
709	0.204
709	0.204
710	0.204
710	0.204
711	0.205
711	0.205
712	0.205
712	0.204
713	0.204
713	0.204
713	0.203
714	0.203
714	0.203
715	0.202
715	0.202
716	0.201
716	0.2
716	0.199
717	0.199
717	0.199
718	0.198
718	0.198
719	0.199
719	0.199
720	0.2
720	0.201
720	0.202
721	0.202
721	0.203
722	0.204
722	0.204
723	0.205
723	0.205
723	0.205
724	0.205
724	0.204
725	0.203
725	0.203
726	0.203
726	0.202
727	0.202
727	0.202
727	0.202
728	0.202
728	0.202
729	0.202
729	0.203
730	0.203
730	0.203
730	0.204
731	0.204
731	0.205
732	0.206
732	0.206
733	0.206
733	0.207
734	0.207
734	0.208
734	0.208
735	0.209
735	0.209
736	0.209
736	0.209
737	0.209
737	0.209
737	0.209
738	0.209
738	0.208
739	0.207
739	0.207
740	0.206
740	0.206
741	0.206
741	0.206
741	0.206
742	0.206
742	0.207
743	0.208
743	0.209
744	0.21
744	0.21
744	0.211
745	0.211
745	0.212
746	0.212
746	0.212
747	0.212
747	0.212
748	0.211
748	0.211
748	0.211
749	0.211
749	0.211
750	0.21
750	0.21
751	0.21
751	0.21
751	0.209
752	0.209
752	0.208
753	0.208
753	0.207
754	0.206
754	0.206
754	0.206
755	0.206
755	0.206
756	0.206
756	0.205
757	0.205
757	0.205
758	0.205
758	0.205
758	0.206
759	0.206
759	0.206
760	0.206
760	0.206
761	0.206
761	0.207
761	0.207
762	0.207
762	0.208
763	0.208
763	0.208
764	0.208
764	0.208
764	0.208
765	0.208
765	0.208
766	0.208
766	0.209
767	0.209
767	0.208
768	0.208
768	0.208
768	0.209
769	0.209
769	0.21
770	0.21
770	0.211
771	0.211
771	0.211
771	0.212
772	0.212
772	0.213
773	0.213
773	0.213
774	0.213
774	0.213
775	0.213
775	0.213
775	0.213
776	0.213
776	0.213
777	0.213
777	0.213
778	0.213
778	0.213
778	0.213
779	0.213
779	0.213
780	0.213
780	0.213
781	0.214
781	0.214
781	0.214
782	0.215
782	0.215
783	0.216
783	0.217
784	0.217
784	0.217
784	0.218
785	0.218
785	0.218
786	0.218
786	0.218
787	0.218
787	0.217
788	0.217
788	0.216
788	0.215
789	0.214
789	0.214
790	0.213
790	0.213
791	0.212
791	0.211
791	0.21
792	0.211
792	0.211
793	0.21
793	0.21
794	0.21
794	0.21
794	0.211
795	0.211
795	0.212
796	0.212
796	0.213
797	0.213
797	0.213
797	0.214
798	0.215
798	0.215
799	0.216
799	0.216
800	0.216
800	0.216
801	0.216
801	0.216
801	0.216
802	0.216
802	0.216
803	0.216
803	0.216
804	0.216
804	0.216
804	0.216
805	0.216
805	0.216
806	0.216
806	0.216
807	0.216
807	0.217
807	0.217
808	0.217
808	0.217
809	0.217
809	0.217
810	0.217
810	0.218
810	0.218
811	0.218
811	0.218
812	0.219
812	0.219
813	0.219
813	0.22
813	0.22
814	0.221
814	0.221
815	0.222
815	0.222
816	0.222
816	0.222
817	0.222
817	0.222
817	0.222
818	0.222
818	0.222
819	0.222
819	0.221
820	0.22
820	0.22
820	0.22
821	0.221
821	0.221
822	0.221
822	0.221
823	0.222
823	0.222
823	0.222
824	0.223
824	0.224
825	0.225
825	0.225
826	0.225
826	0.225
826	0.225
827	0.225
827	0.225
828	0.225
828	0.225
829	0.225
829	0.225
829	0.225
830	0.225
830	0.226
831	0.227
831	0.227
832	0.227
832	0.228
832	0.228
833	0.228
833	0.227
834	0.227
834	0.227
835	0.227
835	0.226
835	0.226
836	0.225
836	0.225
837	0.225
837	0.224
838	0.224
838	0.223
839	0.223
839	0.222
839	0.221
840	0.22
840	0.22
841	0.219
841	0.218
842	0.217
842	0.217
842	0.216
843	0.216
843	0.216
844	0.215
844	0.215
845	0.215
845	0.215
845	0.215
846	0.215
846	0.215
847	0.215
847	0.215
848	0.215
848	0.215
848	0.215
849	0.216
849	0.216
850	0.217
850	0.217
851	0.218
851	0.218
851	0.219
852	0.219
852	0.219
853	0.22
853	0.22
854	0.22
854	0.221
854	0.222
855	0.223
855	0.223
856	0.224
856	0.224
857	0.225
857	0.225
857	0.226
858	0.226
858	0.226
859	0.225
859	0.224
860	0.224
860	0.224
860	0.223
861	0.223
861	0.222
862	0.222
862	0.221
863	0.221
863	0.221
863	0.221
864	0.221
864	0.221
865	0.221
865	0.221
866	0.221
866	0.221
866	0.221
867	0.221
867	0.222
868	0.222
868	0.222
869	0.223
869	0.222
869	0.222
870	0.221
870	0.221
871	0.221
871	0.221
872	0.22
872	0.22
872	0.22
873	0.219
873	0.219
874	0.218
874	0.218
875	0.218
875	0.218
875	0.218
876	0.218
876	0.219
877	0.219
877	0.219
878	0.219
878	0.219
878	0.219
879	0.219
879	0.219
880	0.219
880	0.219
881	0.218
881	0.218
881	0.217
882	0.217
882	0.217
883	0.217
883	0.217
884	0.217
884	0.217
884	0.217
885	0.217
885	0.217
886	0.217
886	0.217
887	0.216
887	0.215
887	0.214
888	0.213
888	0.212
889	0.211
889	0.211
890	0.21
890	0.21
890	0.21
891	0.209
891	0.209
892	0.209
892	0.209
893	0.209
893	0.209
893	0.209
894	0.21
894	0.21
895	0.21
895	0.21
895	0.211
896	0.211
896	0.212
897	0.212
897	0.212
898	0.212
898	0.212
898	0.212
899	0.212
899	0.212
900	0.212
900	0.212
901	0.211
901	0.21
901	0.21
902	0.209
902	0.209
903	0.208
903	0.207
904	0.206
904	0.206
904	0.205
905	0.204
905	0.204
906	0.203
906	0.203
907	0.203
907	0.204
907	0.204
908	0.204
908	0.204
909	0.204
909	0.204
910	0.204
910	0.204
910	0.204
911	0.203
911	0.203
912	0.203
912	0.202
913	0.202
913	0.202
913	0.201
914	0.201
914	0.201
915	0.201
915	0.2
916	0.2
916	0.2
916	0.2
917	0.2
917	0.199
918	0.199
918	0.199
918	0.198
919	0.198
919	0.198
920	0.198
920	0.197
921	0.197
921	0.197
921	0.197
922	0.197
922	0.197
923	0.197
923	0.197
924	0.198
924	0.198
924	0.199
925	0.199
925	0.2
926	0.2
926	0.2
927	0.201
927	0.201
927	0.201
928	0.2
928	0.2
929	0.199
929	0.198
930	0.197
930	0.196
930	0.195
931	0.194
931	0.193
932	0.193
932	0.192
933	0.192
933	0.191
933	0.191
934	0.19
934	0.19
935	0.189
935	0.189
935	0.189
936	0.188
936	0.188
937	0.187
937	0.187
938	0.186
938	0.186
938	0.186
939	0.185
939	0.185
940	0.185
940	0.185
941	0.185
941	0.185
941	0.186
942	0.186
942	0.185
943	0.185
943	0.185
944	0.185
944	0.185
944	0.185
945	0.185
945	0.185
946	0.186
946	0.185
946	0.185
947	0.185
947	0.185
948	0.184
948	0.184
949	0.183
949	0.182
949	0.181
950	0.181
950	0.18
951	0.18
951	0.179
952	0.178
952	0.177
952	0.177
953	0.177
953	0.176
954	0.176
954	0.176
955	0.176
955	0.175
955	0.175
956	0.175
956	0.175
957	0.176
957	0.176
957	0.176
958	0.176
958	0.175
959	0.175
959	0.175
960	0.174
960	0.174
960	0.174
961	0.173
961	0.172
962	0.172
962	0.171
963	0.171
963	0.171
963	0.17
964	0.17
964	0.17
965	0.171
965	0.171
966	0.171
966	0.17
966	0.17
967	0.17
967	0.17
968	0.17
968	0.17
968	0.169
969	0.169
969	0.168
970	0.167
970	0.167
971	0.166
971	0.166
971	0.165
972	0.164
972	0.163
973	0.162
973	0.162
974	0.161
974	0.161
974	0.16
975	0.16
975	0.16
976	0.16
976	0.16
976	0.16
977	0.159
977	0.159
978	0.159
978	0.158
979	0.158
979	0.158
979	0.157
980	0.157
980	0.157
981	0.156
981	0.156
982	0.155
982	0.155
982	0.155
983	0.155
983	0.155
984	0.155
984	0.155
984	0.155
985	0.155
985	0.155
986	0.155
986	0.155
987	0.155
987	0.155
987	0.155
988	0.155
988	0.155
989	0.155
989	0.154
990	0.154
990	0.154
990	0.154
991	0.154
991	0.153
992	0.153
992	0.152
992	0.152
993	0.151
993	0.15
994	0.149
994	0.149
995	0.148
995	0.147
995	0.147
996	0.146
996	0.146
997	0.146
997	0.147
997	0.147
998	0.148
998	0.148
999	0.149
999	0.15
1000	0.15
1000	0.151
1000	0.151
1001	0.151
1001	0.151
1002	0.15
1002	0.15
1003	0.149
1003	0.148
1003	0.147
1004	0.146
1004	0.146
1005	0.145
1005	0.144
1005	0.144
1006	0.143
1006	0.143
1007	0.143
1007	0.143
1008	0.143
1008	0.143
1008	0.143
1009	0.143
1009	0.142
1010	0.142
1010	0.142
1010	0.142
1011	0.142
1011	0.141
1012	0.14
1012	0.14
1013	0.14
1013	0.139
1013	0.139
1014	0.138
1014	0.138
1015	0.137
1015	0.137
1016	0.137
1016	0.137
1016	0.137
1017	0.136
1017	0.136
1018	0.136
1018	0.136
1018	0.135
1019	0.135
1019	0.135
1020	0.135
1020	0.135
1021	0.135
1021	0.135
1021	0.135
1022	0.135
1022	0.135
1023	0.135
1023	0.135
1023	0.136
1024	0.136
1024	0.136
1025	0.136
1025	0.136
1026	0.136
1026	0.135
1026	0.135
1027	0.135
1027	0.135
1028	0.135
1028	0.135
1028	0.134
1029	0.134
1029	0.134
1030	0.134
1030	0.134
1031	0.133
1031	0.133
1031	0.133
1032	0.133
1032	0.133
1033	0.133
1033	0.132
1033	0.132
1034	0.132
1034	0.131
1035	0.131
1035	0.13
1036	0.13
1036	0.13
1036	0.129
1037	0.129
1037	0.128
1038	0.128
1038	0.128
1039	0.128
1039	0.128
1039	0.128
1040	0.128
1040	0.128
1041	0.128
1041	0.128
1041	0.128
1042	0.127
1042	0.127
1043	0.127
1043	0.127
1044	0.126
1044	0.126
1044	0.126
1045	0.126
1045	0.125
1046	0.125
1046	0.125
1046	0.125
1047	0.125
1047	0.126
1048	0.126
1048	0.126
1049	0.126
1049	0.126
1049	0.125
1050	0.125
1050	0.124
1051	0.124
1051	0.123
1051	0.122
1052	0.121
1052	0.121
1053	0.119
1053	0.119
1053	0.118
1054	0.117
1054	0.117
1055	0.117
1055	0.116
1056	0.115
1056	0.115
1056	0.114
1057	0.113
1057	0.113
1058	0.112
1058	0.111
1058	0.11
1059	0.109
1059	0.109
1060	0.108
1060	0.107
1061	0.106
1061	0.106
1061	0.106
1062	0.105
1062	0.105
1063	0.105
1063	0.105
1063	0.105
1064	0.104
1064	0.104
1065	0.104
1065	0.104
1066	0.104
1066	0.104
1066	0.104
1067	0.104
1067	0.104
1068	0.104
1068	0.104
1068	0.104
1069	0.104
1069	0.103
1070	0.103
1070	0.102
1071	0.102
1071	0.102
1071	0.101
1072	0.101
1072	0.1
1073	0.1
1073	0.099
1073	0.099
1074	0.099
1074	0.099
1075	0.098
1075	0.098
1076	0.098
1076	0.098
1076	0.097
1077	0.097
1077	0.097
1078	0.096
1078	0.096
1078	0.096
1079	0.095
1079	0.095
1080	0.094
1080	0.094
1080	0.094
1081	0.094
1081	0.094
1082	0.094
1082	0.094
1083	0.094
1083	0.094
1083	0.093
1084	0.093
1084	0.093
1085	0.093
1085	0.093
1085	0.093
1086	0.094
1086	0.093
1087	0.093
1087	0.093
1088	0.093
1088	0.094
1088	0.094
1089	0.094
1089	0.093
1090	0.092
1090	0.091
1090	0.09
1091	0.09
1091	0.089
1092	0.089
1092	0.089
1092	0.088
1093	0.088
1093	0.088
1094	0.088
1094	0.087
1095	0.087
1095	0.087
1095	0.087
1096	0.086
1096	0.084
1097	0.083
1097	0.083
1097	0.082
1098	0.081
1098	0.079
1099	0.078
1099	0.076
1100	0.075
1100	0.073
1100	0.072
1101	0.071
1101	0.069
1102	0.068
1102	0.066
1102	0.064
1103	0.063
1103	0.062
1104	0.062
1104	0.061
1104	0.061
1105	0.06
1105	0.058
1106	0.057
1106	0.056
1107	0.055
1107	0.054
1107	0.053
1108	0.051
1108	0.05
1109	0.048
1109	0.047
1109	0.046
1110	0.047
1110	0.043
1111	0.042
1111	0.038
