Data from reversibility-20sec_Absorbance__3623__000000000003623.txt Node

Date: Wed Dec 06 08:20:47 CET 2023
User: Marek
Spectrometer: MAYP115816
Trigger mode: 0
Integration Time (sec): 2.000000E-1
Scans to average: 10
Electric dark correction enabled: true
Nonlinearity correction enabled: true
Boxcar width: 5
XAxis mode: Wavelengths
Number of Pixels in Spectrum: 2068
>>>>>Begin Spectral Data<<<<<
199	-0.141
199	-0.122
200	-0.06
200	-0.004
201	0.028
201	0.045
202	0.056
202	0.062
203	0.071
203	0.074
204	0.087
204	0.1
205	0.112
205	0.118
205	0.117
206	0.115
206	0.115
207	0.117
207	0.117
208	0.115
208	0.115
209	0.118
209	0.119
210	0.122
210	0.121
211	0.12
211	0.123
212	0.122
212	0.122
213	0.127
213	0.128
213	0.131
214	0.131
214	0.133
215	0.134
215	0.137
216	0.14
216	0.141
217	0.144
217	0.147
218	0.144
218	0.148
219	0.151
219	0.153
220	0.155
220	0.154
221	0.154
221	0.155
221	0.161
222	0.166
222	0.172
223	0.177
223	0.183
224	0.187
224	0.194
225	0.202
225	0.215
226	0.223
226	0.236
227	0.242
227	0.251
228	0.266
228	0.284
229	0.302
229	0.327
229	0.35
230	0.378
230	0.408
231	0.44
231	0.478
232	0.518
232	0.565
233	0.608
233	0.654
234	0.705
234	0.756
235	0.807
235	0.857
236	0.912
236	0.967
236	1.019
237	1.069
237	1.118
238	1.164
238	1.21
239	1.256
239	1.299
240	1.338
240	1.375
241	1.404
241	1.435
242	1.464
242	1.496
243	1.523
243	1.551
243	1.577
244	1.598
244	1.617
245	1.639
245	1.662
246	1.683
246	1.703
247	1.716
247	1.73
248	1.743
248	1.755
249	1.764
249	1.77
250	1.779
250	1.786
250	1.788
251	1.792
251	1.793
252	1.8
252	1.799
253	1.801
253	1.8
254	1.802
254	1.803
255	1.801
255	1.8
256	1.8
256	1.799
257	1.799
257	1.797
258	1.798
258	1.798
258	1.797
259	1.796
259	1.795
260	1.795
260	1.794
261	1.794
261	1.797
262	1.799
262	1.799
263	1.8
263	1.8
264	1.8
264	1.801
265	1.802
265	1.804
265	1.804
266	1.804
266	1.802
267	1.799
267	1.798
268	1.799
268	1.798
269	1.799
269	1.798
270	1.796
270	1.794
271	1.793
271	1.792
272	1.79
272	1.789
272	1.786
273	1.781
273	1.777
274	1.772
274	1.766
275	1.76
275	1.754
276	1.748
276	1.741
277	1.732
277	1.722
278	1.712
278	1.7
278	1.687
279	1.672
279	1.655
280	1.633
280	1.607
281	1.576
281	1.542
282	1.506
282	1.468
283	1.431
283	1.394
284	1.358
284	1.323
285	1.289
285	1.258
285	1.23
286	1.205
286	1.184
287	1.164
287	1.148
288	1.134
288	1.122
289	1.111
289	1.101
290	1.093
290	1.086
291	1.08
291	1.074
292	1.069
292	1.065
292	1.06
293	1.056
293	1.052
294	1.049
294	1.046
295	1.042
295	1.039
296	1.036
296	1.033
297	1.03
297	1.027
298	1.023
298	1.02
298	1.017
299	1.014
299	1.011
300	1.008
300	1.006
301	1.002
301	1
302	0.997
302	0.994
303	0.992
303	0.989
304	0.987
304	0.984
305	0.982
305	0.979
305	0.977
306	0.974
306	0.972
307	0.97
307	0.967
308	0.964
308	0.961
309	0.958
309	0.955
310	0.952
310	0.949
311	0.946
311	0.943
311	0.939
312	0.936
312	0.932
313	0.929
313	0.925
314	0.922
314	0.917
315	0.913
315	0.909
316	0.905
316	0.9
317	0.896
317	0.891
318	0.886
318	0.88
318	0.875
319	0.87
319	0.864
320	0.859
320	0.853
321	0.847
321	0.841
322	0.835
322	0.829
323	0.823
323	0.816
324	0.81
324	0.804
324	0.797
325	0.79
325	0.784
326	0.777
326	0.77
327	0.764
327	0.757
328	0.75
328	0.744
329	0.737
329	0.73
330	0.723
330	0.716
330	0.709
331	0.702
331	0.696
332	0.689
332	0.682
333	0.675
333	0.669
334	0.662
334	0.655
335	0.648
335	0.642
336	0.635
336	0.629
336	0.622
337	0.616
337	0.61
338	0.604
338	0.598
339	0.592
339	0.586
340	0.58
340	0.575
341	0.569
341	0.564
342	0.559
342	0.553
342	0.548
343	0.543
343	0.538
344	0.533
344	0.529
345	0.524
345	0.519
346	0.515
346	0.511
347	0.506
347	0.502
348	0.498
348	0.494
348	0.49
349	0.486
349	0.482
350	0.479
350	0.475
351	0.472
351	0.469
352	0.465
352	0.462
353	0.46
353	0.457
354	0.454
354	0.451
354	0.448
355	0.445
355	0.442
356	0.439
356	0.436
357	0.433
357	0.43
358	0.427
358	0.425
359	0.422
359	0.42
360	0.418
360	0.416
360	0.414
361	0.413
361	0.411
362	0.409
362	0.407
363	0.405
363	0.403
364	0.401
364	0.399
365	0.397
365	0.395
366	0.393
366	0.392
366	0.39
367	0.388
367	0.386
368	0.385
368	0.383
369	0.382
369	0.38
370	0.378
370	0.377
371	0.376
371	0.374
372	0.373
372	0.372
372	0.37
373	0.369
373	0.368
374	0.367
374	0.366
375	0.365
375	0.364
376	0.363
376	0.361
377	0.36
377	0.359
378	0.358
378	0.357
378	0.356
379	0.355
379	0.354
380	0.353
380	0.352
381	0.351
381	0.351
382	0.35
382	0.349
383	0.348
383	0.348
383	0.347
384	0.346
384	0.346
385	0.345
385	0.344
386	0.344
386	0.343
387	0.342
387	0.341
388	0.341
388	0.34
389	0.34
389	0.339
389	0.338
390	0.338
390	0.337
391	0.337
391	0.336
392	0.336
392	0.336
393	0.335
393	0.334
394	0.334
394	0.334
394	0.333
395	0.333
395	0.333
396	0.332
396	0.332
397	0.331
397	0.331
398	0.33
398	0.33
399	0.329
399	0.329
400	0.328
400	0.328
400	0.327
401	0.327
401	0.326
402	0.326
402	0.326
403	0.325
403	0.324
404	0.324
404	0.324
405	0.323
405	0.323
405	0.323
406	0.322
406	0.322
407	0.321
407	0.321
408	0.321
408	0.32
409	0.32
409	0.32
410	0.319
410	0.319
411	0.319
411	0.319
411	0.318
412	0.318
412	0.318
413	0.317
413	0.317
414	0.317
414	0.316
415	0.316
415	0.316
416	0.315
416	0.315
416	0.314
417	0.314
417	0.313
418	0.313
418	0.313
419	0.312
419	0.312
420	0.311
420	0.311
421	0.31
421	0.31
421	0.31
422	0.309
422	0.309
423	0.308
423	0.308
424	0.308
424	0.308
425	0.307
425	0.307
426	0.307
426	0.307
427	0.306
427	0.306
427	0.305
428	0.305
428	0.305
429	0.304
429	0.304
430	0.303
430	0.303
431	0.303
431	0.303
432	0.303
432	0.303
432	0.302
433	0.302
433	0.302
434	0.302
434	0.302
435	0.302
435	0.302
436	0.302
436	0.302
437	0.301
437	0.301
437	0.301
438	0.301
438	0.301
439	0.301
439	0.301
440	0.3
440	0.3
441	0.3
441	0.299
442	0.299
442	0.299
442	0.299
443	0.298
443	0.298
444	0.298
444	0.298
445	0.298
445	0.298
446	0.298
446	0.298
447	0.298
447	0.298
447	0.298
448	0.298
448	0.298
449	0.298
449	0.297
450	0.298
450	0.297
451	0.297
451	0.297
452	0.297
452	0.297
452	0.297
453	0.297
453	0.297
454	0.297
454	0.297
455	0.297
455	0.297
456	0.296
456	0.296
457	0.296
457	0.296
458	0.296
458	0.296
458	0.296
459	0.296
459	0.296
460	0.296
460	0.296
461	0.296
461	0.296
462	0.296
462	0.296
463	0.297
463	0.297
463	0.297
464	0.297
464	0.296
465	0.296
465	0.296
466	0.296
466	0.297
467	0.297
467	0.297
467	0.297
468	0.298
468	0.298
469	0.298
469	0.299
470	0.299
470	0.3
471	0.3
471	0.3
472	0.3
472	0.3
472	0.301
473	0.301
473	0.302
474	0.302
474	0.302
475	0.302
475	0.303
476	0.303
476	0.304
477	0.304
477	0.305
477	0.305
478	0.306
478	0.306
479	0.307
479	0.308
480	0.308
480	0.309
481	0.31
481	0.31
482	0.311
482	0.312
482	0.312
483	0.313
483	0.314
484	0.315
484	0.315
485	0.316
485	0.316
486	0.317
486	0.317
487	0.318
487	0.319
487	0.32
488	0.321
488	0.321
489	0.322
489	0.324
490	0.325
490	0.326
491	0.328
491	0.329
492	0.33
492	0.332
492	0.333
493	0.334
493	0.335
494	0.337
494	0.338
495	0.339
495	0.34
496	0.342
496	0.343
496	0.344
497	0.345
497	0.347
498	0.348
498	0.349
499	0.35
499	0.352
500	0.353
500	0.355
501	0.356
501	0.357
501	0.358
502	0.359
502	0.361
503	0.362
503	0.363
504	0.364
504	0.366
505	0.367
505	0.368
506	0.37
506	0.371
506	0.372
507	0.373
507	0.375
508	0.375
508	0.376
509	0.377
509	0.378
510	0.379
510	0.38
511	0.381
511	0.382
511	0.384
512	0.385
512	0.386
513	0.387
513	0.388
514	0.389
514	0.389
515	0.39
515	0.391
515	0.391
516	0.392
516	0.393
517	0.393
517	0.394
518	0.394
518	0.394
519	0.395
519	0.395
520	0.395
520	0.395
520	0.396
521	0.396
521	0.396
522	0.396
522	0.396
523	0.396
523	0.397
524	0.397
524	0.397
524	0.396
525	0.396
525	0.395
526	0.395
526	0.395
527	0.394
527	0.393
528	0.392
528	0.392
529	0.391
529	0.39
529	0.389
530	0.388
530	0.387
531	0.386
531	0.385
532	0.384
532	0.382
533	0.381
533	0.38
533	0.379
534	0.378
534	0.376
535	0.374
535	0.373
536	0.371
536	0.37
537	0.368
537	0.366
538	0.364
538	0.362
538	0.361
539	0.359
539	0.357
540	0.356
540	0.354
541	0.352
541	0.351
542	0.349
542	0.347
542	0.346
543	0.344
543	0.342
544	0.34
544	0.339
545	0.337
545	0.335
546	0.333
546	0.331
547	0.329
547	0.327
547	0.325
548	0.323
548	0.321
549	0.319
549	0.318
550	0.315
550	0.313
551	0.311
551	0.309
551	0.307
552	0.305
552	0.303
553	0.301
553	0.299
554	0.298
554	0.295
555	0.293
555	0.292
556	0.29
556	0.288
556	0.286
557	0.285
557	0.283
558	0.282
558	0.28
559	0.278
559	0.277
560	0.275
560	0.274
560	0.272
561	0.27
561	0.268
562	0.266
562	0.264
563	0.262
563	0.26
564	0.258
564	0.257
564	0.255
565	0.253
565	0.252
566	0.25
566	0.248
567	0.247
567	0.245
568	0.244
568	0.242
568	0.241
569	0.24
569	0.238
570	0.236
570	0.234
571	0.233
571	0.232
572	0.23
572	0.229
573	0.227
573	0.226
573	0.225
574	0.223
574	0.222
575	0.221
575	0.22
576	0.219
576	0.218
577	0.216
577	0.215
577	0.214
578	0.213
578	0.212
579	0.211
579	0.211
580	0.209
580	0.208
581	0.206
581	0.205
581	0.205
582	0.204
582	0.203
583	0.202
583	0.201
584	0.2
584	0.198
585	0.197
585	0.196
585	0.195
586	0.194
586	0.193
587	0.192
587	0.191
588	0.19
588	0.189
589	0.188
589	0.188
590	0.187
590	0.187
590	0.186
591	0.186
591	0.184
592	0.183
592	0.182
593	0.181
593	0.18
594	0.179
594	0.178
594	0.177
595	0.176
595	0.175
596	0.174
596	0.173
597	0.173
597	0.173
598	0.173
598	0.173
598	0.172
599	0.172
599	0.171
600	0.171
600	0.17
601	0.17
601	0.169
602	0.168
602	0.167
602	0.166
603	0.166
603	0.165
604	0.165
604	0.165
605	0.164
605	0.164
606	0.163
606	0.162
606	0.161
607	0.161
607	0.16
608	0.16
608	0.159
609	0.158
609	0.157
610	0.157
610	0.156
610	0.155
611	0.155
611	0.155
612	0.155
612	0.155
613	0.155
613	0.154
614	0.154
614	0.153
614	0.153
615	0.153
615	0.153
616	0.152
616	0.152
617	0.151
617	0.151
618	0.151
618	0.15
618	0.15
619	0.15
619	0.15
620	0.15
620	0.15
621	0.149
621	0.148
622	0.148
622	0.147
622	0.147
623	0.146
623	0.146
624	0.145
624	0.145
625	0.144
625	0.144
626	0.143
626	0.143
626	0.143
627	0.142
627	0.142
628	0.142
628	0.141
629	0.141
629	0.14
630	0.14
630	0.139
630	0.139
631	0.139
631	0.139
632	0.139
632	0.138
633	0.138
633	0.138
634	0.138
634	0.139
634	0.138
635	0.138
635	0.138
636	0.138
636	0.138
637	0.137
637	0.137
638	0.136
638	0.136
638	0.135
639	0.135
639	0.134
640	0.134
640	0.134
641	0.133
641	0.133
642	0.133
642	0.133
642	0.133
643	0.133
643	0.133
644	0.133
644	0.133
645	0.133
645	0.133
646	0.133
646	0.133
646	0.133
647	0.133
647	0.133
648	0.132
648	0.132
649	0.131
649	0.131
650	0.131
650	0.131
650	0.131
651	0.13
651	0.13
652	0.13
652	0.13
653	0.13
653	0.132
653	0.137
654	0.109
654	0.088
655	0.087
655	0.087
656	0.088
656	0.088
657	0.088
657	0.088
657	0.088
658	0.087
658	0.079
659	0.099
659	0.125
660	0.13
660	0.13
661	0.129
661	0.128
661	0.128
662	0.127
662	0.126
663	0.125
663	0.125
664	0.124
664	0.124
665	0.123
665	0.123
665	0.123
666	0.123
666	0.123
667	0.124
667	0.124
668	0.124
668	0.124
669	0.124
669	0.125
669	0.125
670	0.126
670	0.126
671	0.125
671	0.125
672	0.125
672	0.124
672	0.124
673	0.123
673	0.123
674	0.123
674	0.122
675	0.122
675	0.122
676	0.122
676	0.123
676	0.123
677	0.123
677	0.123
678	0.123
678	0.123
679	0.123
679	0.123
680	0.123
680	0.122
680	0.122
681	0.121
681	0.121
682	0.122
682	0.122
683	0.122
683	0.122
684	0.123
684	0.122
684	0.122
685	0.122
685	0.122
686	0.122
686	0.122
687	0.122
687	0.122
687	0.123
688	0.123
688	0.123
689	0.124
689	0.124
690	0.124
690	0.124
691	0.124
691	0.124
691	0.124
692	0.124
692	0.124
693	0.124
693	0.124
694	0.123
694	0.123
695	0.124
695	0.125
695	0.125
696	0.125
696	0.124
697	0.124
697	0.124
698	0.124
698	0.123
698	0.123
699	0.123
699	0.123
700	0.122
700	0.122
701	0.121
701	0.121
702	0.12
702	0.12
702	0.12
703	0.119
703	0.119
704	0.119
704	0.119
705	0.119
705	0.119
705	0.119
706	0.119
706	0.119
707	0.119
707	0.119
708	0.119
708	0.119
709	0.119
709	0.119
709	0.118
710	0.117
710	0.117
711	0.117
711	0.117
712	0.116
712	0.116
713	0.116
713	0.116
713	0.116
714	0.116
714	0.116
715	0.116
715	0.116
716	0.115
716	0.115
716	0.114
717	0.114
717	0.114
718	0.113
718	0.113
719	0.113
719	0.114
720	0.114
720	0.114
720	0.115
721	0.115
721	0.116
722	0.116
722	0.116
723	0.117
723	0.117
723	0.116
724	0.116
724	0.115
725	0.114
725	0.113
726	0.112
726	0.111
727	0.111
727	0.11
727	0.11
728	0.11
728	0.11
729	0.111
729	0.112
730	0.112
730	0.113
730	0.114
731	0.114
731	0.114
732	0.115
732	0.115
733	0.115
733	0.115
734	0.115
734	0.114
734	0.114
735	0.114
735	0.113
736	0.113
736	0.112
737	0.112
737	0.111
737	0.111
738	0.11
738	0.11
739	0.109
739	0.109
740	0.109
740	0.109
741	0.109
741	0.109
741	0.109
742	0.109
742	0.11
743	0.11
743	0.11
744	0.111
744	0.111
744	0.11
745	0.11
745	0.11
746	0.11
746	0.109
747	0.109
747	0.109
748	0.109
748	0.109
748	0.109
749	0.108
749	0.109
750	0.109
750	0.109
751	0.109
751	0.109
751	0.109
752	0.109
752	0.109
753	0.108
753	0.108
754	0.108
754	0.107
754	0.107
755	0.107
755	0.106
756	0.106
756	0.104
757	0.104
757	0.104
758	0.103
758	0.103
758	0.103
759	0.103
759	0.102
760	0.102
760	0.101
761	0.101
761	0.102
761	0.102
762	0.102
762	0.102
763	0.102
763	0.101
764	0.101
764	0.101
764	0.101
765	0.1
765	0.1
766	0.1
766	0.1
767	0.099
767	0.099
768	0.098
768	0.098
768	0.099
769	0.099
769	0.099
770	0.099
770	0.099
771	0.099
771	0.099
771	0.099
772	0.099
772	0.099
773	0.099
773	0.099
774	0.098
774	0.098
775	0.098
775	0.098
775	0.098
776	0.098
776	0.099
777	0.099
777	0.099
778	0.099
778	0.098
778	0.098
779	0.098
779	0.097
780	0.096
780	0.095
781	0.095
781	0.094
781	0.093
782	0.093
782	0.093
783	0.093
783	0.093
784	0.093
784	0.093
784	0.094
785	0.094
785	0.094
786	0.095
786	0.095
787	0.095
787	0.095
788	0.094
788	0.094
788	0.093
789	0.092
789	0.092
790	0.091
790	0.091
791	0.09
791	0.089
791	0.089
792	0.089
792	0.088
793	0.088
793	0.088
794	0.087
794	0.087
794	0.086
795	0.086
795	0.086
796	0.087
796	0.086
797	0.086
797	0.086
797	0.086
798	0.087
798	0.087
799	0.087
799	0.087
800	0.086
800	0.086
801	0.085
801	0.085
801	0.085
802	0.085
802	0.084
803	0.084
803	0.084
804	0.084
804	0.085
804	0.085
805	0.085
805	0.085
806	0.085
806	0.085
807	0.085
807	0.085
807	0.085
808	0.085
808	0.085
809	0.085
809	0.085
810	0.084
810	0.084
810	0.084
811	0.083
811	0.083
812	0.084
812	0.083
813	0.083
813	0.083
813	0.084
814	0.084
814	0.084
815	0.084
815	0.084
816	0.084
816	0.083
817	0.083
817	0.082
817	0.082
818	0.081
818	0.081
819	0.081
819	0.08
820	0.079
820	0.078
820	0.078
821	0.078
821	0.078
822	0.078
822	0.078
823	0.078
823	0.079
823	0.079
824	0.08
824	0.081
825	0.083
825	0.083
826	0.084
826	0.084
826	0.084
827	0.084
827	0.084
828	0.084
828	0.083
829	0.083
829	0.083
829	0.083
830	0.083
830	0.083
831	0.084
831	0.084
832	0.084
832	0.084
832	0.085
833	0.084
833	0.084
834	0.084
834	0.083
835	0.082
835	0.081
835	0.08
836	0.079
836	0.078
837	0.077
837	0.076
838	0.075
838	0.075
839	0.074
839	0.074
839	0.073
840	0.073
840	0.072
841	0.071
841	0.07
842	0.069
842	0.069
842	0.068
843	0.068
843	0.068
844	0.068
844	0.069
845	0.069
845	0.069
845	0.07
846	0.071
846	0.071
847	0.072
847	0.072
848	0.072
848	0.072
848	0.071
849	0.071
849	0.07
850	0.07
850	0.069
851	0.069
851	0.068
851	0.068
852	0.067
852	0.067
853	0.067
853	0.067
854	0.067
854	0.067
854	0.068
855	0.069
855	0.069
856	0.07
856	0.07
857	0.071
857	0.072
857	0.072
858	0.072
858	0.072
859	0.072
859	0.071
860	0.071
860	0.07
860	0.069
861	0.068
861	0.067
862	0.066
862	0.065
863	0.064
863	0.064
863	0.064
864	0.064
864	0.063
865	0.064
865	0.064
866	0.064
866	0.064
866	0.064
867	0.064
867	0.064
868	0.064
868	0.064
869	0.063
869	0.062
869	0.061
870	0.061
870	0.06
871	0.06
871	0.059
872	0.059
872	0.059
872	0.058
873	0.058
873	0.058
874	0.058
874	0.058
875	0.058
875	0.058
875	0.058
876	0.058
876	0.058
877	0.058
877	0.058
878	0.058
878	0.059
878	0.059
879	0.059
879	0.06
880	0.06
880	0.06
881	0.059
881	0.059
881	0.059
882	0.059
882	0.059
883	0.059
883	0.059
884	0.058
884	0.059
884	0.059
885	0.059
885	0.059
886	0.059
886	0.059
887	0.058
887	0.058
887	0.057
888	0.057
888	0.056
889	0.056
889	0.056
890	0.055
890	0.055
890	0.055
891	0.055
891	0.055
892	0.055
892	0.055
893	0.055
893	0.055
893	0.055
894	0.055
894	0.055
895	0.054
895	0.054
895	0.054
896	0.054
896	0.054
897	0.054
897	0.054
898	0.053
898	0.053
898	0.053
899	0.052
899	0.052
900	0.052
900	0.051
901	0.051
901	0.051
901	0.051
902	0.05
902	0.05
903	0.05
903	0.05
904	0.05
904	0.05
904	0.049
905	0.05
905	0.05
906	0.05
906	0.051
907	0.051
907	0.052
907	0.053
908	0.054
908	0.054
909	0.055
909	0.056
910	0.056
910	0.057
910	0.057
911	0.057
911	0.057
912	0.057
912	0.058
913	0.058
913	0.058
913	0.057
914	0.057
914	0.057
915	0.057
915	0.056
916	0.056
916	0.056
916	0.055
917	0.055
917	0.054
918	0.054
918	0.054
918	0.053
919	0.053
919	0.052
920	0.052
920	0.052
921	0.051
921	0.051
921	0.051
922	0.051
922	0.051
923	0.051
923	0.052
924	0.052
924	0.052
924	0.053
925	0.053
925	0.053
926	0.053
926	0.053
927	0.053
927	0.052
927	0.052
928	0.052
928	0.052
929	0.052
929	0.052
930	0.052
930	0.052
930	0.052
931	0.052
931	0.052
932	0.052
932	0.053
933	0.053
933	0.053
933	0.053
934	0.053
934	0.053
935	0.053
935	0.053
935	0.052
936	0.052
936	0.052
937	0.052
937	0.051
938	0.051
938	0.051
938	0.05
939	0.05
939	0.049
940	0.049
940	0.048
941	0.048
941	0.048
941	0.048
942	0.047
942	0.047
943	0.048
943	0.048
944	0.048
944	0.048
944	0.049
945	0.049
945	0.05
946	0.05
946	0.05
946	0.051
947	0.051
947	0.051
948	0.052
948	0.052
949	0.052
949	0.052
949	0.052
950	0.052
950	0.052
951	0.052
951	0.051
952	0.051
952	0.05
952	0.05
953	0.049
953	0.048
954	0.047
954	0.047
955	0.046
955	0.045
955	0.045
956	0.045
956	0.045
957	0.045
957	0.045
957	0.045
958	0.045
958	0.045
959	0.045
959	0.045
960	0.045
960	0.045
960	0.045
961	0.045
961	0.045
962	0.045
962	0.044
963	0.044
963	0.044
963	0.044
964	0.044
964	0.044
965	0.044
965	0.044
966	0.045
966	0.046
966	0.046
967	0.047
967	0.048
968	0.049
968	0.049
968	0.049
969	0.049
969	0.049
970	0.049
970	0.049
971	0.049
971	0.048
971	0.047
972	0.047
972	0.046
973	0.046
973	0.045
974	0.045
974	0.045
974	0.045
975	0.045
975	0.045
976	0.045
976	0.045
976	0.045
977	0.045
977	0.045
978	0.045
978	0.045
979	0.045
979	0.045
979	0.045
980	0.046
980	0.045
981	0.045
981	0.045
982	0.046
982	0.046
982	0.046
983	0.046
983	0.046
984	0.047
984	0.047
984	0.047
985	0.047
985	0.047
986	0.047
986	0.047
987	0.047
987	0.046
987	0.046
988	0.046
988	0.045
989	0.044
989	0.044
990	0.043
990	0.043
990	0.042
991	0.042
991	0.041
992	0.041
992	0.04
992	0.039
993	0.039
993	0.038
994	0.038
994	0.038
995	0.038
995	0.038
995	0.038
996	0.038
996	0.039
997	0.04
997	0.04
997	0.041
998	0.042
998	0.042
999	0.043
999	0.044
1000	0.045
1000	0.045
1000	0.046
1001	0.046
1001	0.045
1002	0.045
1002	0.044
1003	0.044
1003	0.043
1003	0.042
1004	0.041
1004	0.04
1005	0.038
1005	0.038
1005	0.036
1006	0.035
1006	0.035
1007	0.035
1007	0.034
1008	0.034
1008	0.034
1008	0.035
1009	0.035
1009	0.035
1010	0.036
1010	0.036
1010	0.037
1011	0.037
1011	0.037
1012	0.037
1012	0.038
1013	0.038
1013	0.038
1013	0.038
1014	0.037
1014	0.037
1015	0.037
1015	0.037
1016	0.037
1016	0.037
1016	0.036
1017	0.036
1017	0.035
1018	0.035
1018	0.034
1018	0.034
1019	0.034
1019	0.034
1020	0.034
1020	0.034
1021	0.034
1021	0.034
1021	0.034
1022	0.035
1022	0.035
1023	0.035
1023	0.035
1023	0.035
1024	0.035
1024	0.035
1025	0.035
1025	0.035
1026	0.035
1026	0.035
1026	0.035
1027	0.035
1027	0.035
1028	0.034
1028	0.034
1028	0.035
1029	0.035
1029	0.035
1030	0.035
1030	0.035
1031	0.036
1031	0.036
1031	0.036
1032	0.036
1032	0.037
1033	0.037
1033	0.037
1033	0.037
1034	0.037
1034	0.037
1035	0.037
1035	0.037
1036	0.036
1036	0.036
1036	0.036
1037	0.036
1037	0.035
1038	0.035
1038	0.035
1039	0.035
1039	0.034
1039	0.034
1040	0.034
1040	0.035
1041	0.035
1041	0.035
1041	0.035
1042	0.035
1042	0.035
1043	0.035
1043	0.035
1044	0.036
1044	0.036
1044	0.037
1045	0.037
1045	0.037
1046	0.037
1046	0.038
1046	0.038
1047	0.039
1047	0.039
1048	0.039
1048	0.039
1049	0.039
1049	0.04
1049	0.04
1050	0.04
1050	0.04
1051	0.04
1051	0.04
1051	0.04
1052	0.039
1052	0.039
1053	0.038
1053	0.038
1053	0.037
1054	0.036
1054	0.036
1055	0.036
1055	0.035
1056	0.035
1056	0.034
1056	0.034
1057	0.033
1057	0.032
1058	0.032
1058	0.031
1058	0.031
1059	0.03
1059	0.03
1060	0.03
1060	0.03
1061	0.029
1061	0.029
1061	0.029
1062	0.029
1062	0.03
1063	0.029
1063	0.029
1063	0.029
1064	0.029
1064	0.029
1065	0.029
1065	0.029
1066	0.029
1066	0.028
1066	0.028
1067	0.028
1067	0.028
1068	0.028
1068	0.028
1068	0.028
1069	0.027
1069	0.027
1070	0.027
1070	0.026
1071	0.026
1071	0.026
1071	0.026
1072	0.026
1072	0.025
1073	0.025
1073	0.025
1073	0.025
1074	0.026
1074	0.026
1075	0.026
1075	0.026
1076	0.027
1076	0.027
1076	0.027
1077	0.028
1077	0.028
1078	0.028
1078	0.028
1078	0.028
1079	0.028
1079	0.028
1080	0.027
1080	0.027
1080	0.027
1081	0.027
1081	0.027
1082	0.027
1082	0.028
1083	0.028
1083	0.027
1083	0.028
1084	0.028
1084	0.028
1085	0.028
1085	0.028
1085	0.028
1086	0.028
1086	0.027
1087	0.027
1087	0.026
1088	0.026
1088	0.026
1088	0.026
1089	0.024
1089	0.024
1090	0.023
1090	0.023
1090	0.022
1091	0.021
1091	0.021
1092	0.021
1092	0.021
1092	0.021
1093	0.021
1093	0.022
1094	0.022
1094	0.022
1095	0.022
1095	0.022
1095	0.022
1096	0.022
1096	0.021
1097	0.021
1097	0.021
1097	0.021
1098	0.021
1098	0.02
1099	0.019
1099	0.019
1100	0.018
1100	0.017
1100	0.016
1101	0.016
1101	0.016
1102	0.016
1102	0.015
1102	0.014
1103	0.014
1103	0.014
1104	0.014
1104	0.015
1104	0.014
1105	0.013
1105	0.012
1106	0.01
1106	0.009
1107	0.009
1107	0.008
1107	0.008
1108	0.006
1108	0.005
1109	0.004
1109	0.003
1109	0.003
1110	0.005
1110	0.003
1111	0.003
1111	0.002
