Data from reversibility-20sec_Absorbance__134__000000000000134.txt Node

Date: Tue Dec 05 12:57:45 CET 2023
User: Marek
Spectrometer: MAYP115816
Trigger mode: 0
Integration Time (sec): 2.000000E-1
Scans to average: 10
Electric dark correction enabled: true
Nonlinearity correction enabled: true
Boxcar width: 5
XAxis mode: Wavelengths
Number of Pixels in Spectrum: 2068
>>>>>Begin Spectral Data<<<<<
199	-0.183
199	-0.167
200	-0.095
200	-0.035
201	-0.001
201	0.015
202	0.026
202	0.034
203	0.045
203	0.046
204	0.062
204	0.075
205	0.091
205	0.098
205	0.097
206	0.095
206	0.095
207	0.099
207	0.099
208	0.097
208	0.098
209	0.1
209	0.098
210	0.098
210	0.097
211	0.096
211	0.099
212	0.099
212	0.1
213	0.101
213	0.103
213	0.102
214	0.104
214	0.106
215	0.106
215	0.105
216	0.107
216	0.105
217	0.106
217	0.107
218	0.106
218	0.109
219	0.115
219	0.115
220	0.117
220	0.119
221	0.122
221	0.126
221	0.132
222	0.138
222	0.144
223	0.15
223	0.153
224	0.156
224	0.167
225	0.174
225	0.186
226	0.195
226	0.205
227	0.215
227	0.224
228	0.236
228	0.251
229	0.268
229	0.293
229	0.315
230	0.339
230	0.365
231	0.396
231	0.434
232	0.47
232	0.515
233	0.561
233	0.608
234	0.654
234	0.703
235	0.751
235	0.803
236	0.854
236	0.905
236	0.956
237	1.005
237	1.05
238	1.097
238	1.144
239	1.194
239	1.238
240	1.279
240	1.315
241	1.351
241	1.384
242	1.412
242	1.445
243	1.475
243	1.501
243	1.524
244	1.544
244	1.564
245	1.582
245	1.605
246	1.623
246	1.64
247	1.653
247	1.664
248	1.677
248	1.687
249	1.697
249	1.702
250	1.709
250	1.715
250	1.717
251	1.718
251	1.718
252	1.72
252	1.72
253	1.72
253	1.716
254	1.712
254	1.712
255	1.708
255	1.705
256	1.702
256	1.702
257	1.701
257	1.7
258	1.699
258	1.699
258	1.7
259	1.7
259	1.7
260	1.699
260	1.701
261	1.701
261	1.704
262	1.706
262	1.707
263	1.71
263	1.711
264	1.712
264	1.714
265	1.715
265	1.716
265	1.717
266	1.717
266	1.716
267	1.714
267	1.715
268	1.714
268	1.714
269	1.715
269	1.715
270	1.714
270	1.713
271	1.71
271	1.71
272	1.708
272	1.704
272	1.698
273	1.691
273	1.683
274	1.677
274	1.669
275	1.66
275	1.652
276	1.644
276	1.636
277	1.628
277	1.618
278	1.607
278	1.594
278	1.579
279	1.561
279	1.538
280	1.512
280	1.478
281	1.439
281	1.397
282	1.353
282	1.308
283	1.265
283	1.223
284	1.183
284	1.145
285	1.11
285	1.078
285	1.05
286	1.026
286	1.004
287	0.986
287	0.971
288	0.958
288	0.948
289	0.939
289	0.931
290	0.924
290	0.919
291	0.914
291	0.91
292	0.907
292	0.904
292	0.901
293	0.899
293	0.897
294	0.894
294	0.892
295	0.891
295	0.888
296	0.886
296	0.884
297	0.882
297	0.88
298	0.878
298	0.876
298	0.874
299	0.872
299	0.87
300	0.868
300	0.866
301	0.865
301	0.863
302	0.861
302	0.86
303	0.858
303	0.857
304	0.855
304	0.853
305	0.852
305	0.85
305	0.848
306	0.847
306	0.845
307	0.843
307	0.841
308	0.839
308	0.837
309	0.835
309	0.832
310	0.83
310	0.828
311	0.825
311	0.822
311	0.819
312	0.816
312	0.813
313	0.811
313	0.807
314	0.804
314	0.8
315	0.797
315	0.793
316	0.789
316	0.785
317	0.781
317	0.776
318	0.771
318	0.767
318	0.762
319	0.757
319	0.752
320	0.746
320	0.741
321	0.735
321	0.729
322	0.724
322	0.718
323	0.712
323	0.706
324	0.699
324	0.693
324	0.687
325	0.681
325	0.674
326	0.668
326	0.662
327	0.655
327	0.649
328	0.642
328	0.636
329	0.629
329	0.622
330	0.616
330	0.609
330	0.602
331	0.595
331	0.588
332	0.581
332	0.575
333	0.568
333	0.561
334	0.555
334	0.548
335	0.542
335	0.535
336	0.529
336	0.522
336	0.516
337	0.51
337	0.504
338	0.498
338	0.492
339	0.486
339	0.48
340	0.475
340	0.469
341	0.464
341	0.458
342	0.453
342	0.448
342	0.443
343	0.438
343	0.433
344	0.428
344	0.424
345	0.419
345	0.415
346	0.41
346	0.406
347	0.402
347	0.398
348	0.394
348	0.391
348	0.387
349	0.383
349	0.379
350	0.376
350	0.372
351	0.369
351	0.366
352	0.363
352	0.36
353	0.357
353	0.355
354	0.352
354	0.349
354	0.347
355	0.344
355	0.341
356	0.338
356	0.336
357	0.333
357	0.331
358	0.328
358	0.326
359	0.324
359	0.321
360	0.319
360	0.317
360	0.316
361	0.314
361	0.312
362	0.31
362	0.309
363	0.307
363	0.305
364	0.303
364	0.302
365	0.3
365	0.298
366	0.296
366	0.295
366	0.293
367	0.292
367	0.29
368	0.288
368	0.287
369	0.286
369	0.284
370	0.283
370	0.282
371	0.281
371	0.279
372	0.278
372	0.277
372	0.276
373	0.275
373	0.274
374	0.273
374	0.272
375	0.272
375	0.271
376	0.27
376	0.269
377	0.268
377	0.267
378	0.266
378	0.265
378	0.265
379	0.264
379	0.263
380	0.262
380	0.262
381	0.261
381	0.26
382	0.26
382	0.259
383	0.259
383	0.258
383	0.257
384	0.257
384	0.256
385	0.256
385	0.255
386	0.255
386	0.254
387	0.254
387	0.253
388	0.253
388	0.252
389	0.252
389	0.251
389	0.251
390	0.25
390	0.25
391	0.249
391	0.249
392	0.249
392	0.249
393	0.248
393	0.247
394	0.247
394	0.247
394	0.246
395	0.246
395	0.246
396	0.245
396	0.245
397	0.244
397	0.244
398	0.244
398	0.243
399	0.243
399	0.243
400	0.242
400	0.242
400	0.242
401	0.241
401	0.241
402	0.241
402	0.24
403	0.24
403	0.24
404	0.239
404	0.239
405	0.239
405	0.239
405	0.239
406	0.238
406	0.238
407	0.238
407	0.237
408	0.237
408	0.237
409	0.237
409	0.236
410	0.236
410	0.236
411	0.235
411	0.235
411	0.235
412	0.235
412	0.234
413	0.234
413	0.234
414	0.234
414	0.234
415	0.233
415	0.233
416	0.233
416	0.233
416	0.232
417	0.232
417	0.231
418	0.231
418	0.231
419	0.231
419	0.23
420	0.23
420	0.23
421	0.23
421	0.229
421	0.229
422	0.229
422	0.229
423	0.229
423	0.228
424	0.228
424	0.228
425	0.228
425	0.227
426	0.227
426	0.227
427	0.227
427	0.226
427	0.226
428	0.226
428	0.225
429	0.225
429	0.225
430	0.225
430	0.225
431	0.225
431	0.225
432	0.225
432	0.225
432	0.224
433	0.224
433	0.224
434	0.224
434	0.224
435	0.224
435	0.224
436	0.224
436	0.224
437	0.223
437	0.223
437	0.223
438	0.223
438	0.223
439	0.223
439	0.222
440	0.222
440	0.222
441	0.222
441	0.222
442	0.221
442	0.221
442	0.221
443	0.221
443	0.221
444	0.221
444	0.22
445	0.22
445	0.22
446	0.22
446	0.22
447	0.22
447	0.22
447	0.219
448	0.219
448	0.219
449	0.219
449	0.219
450	0.219
450	0.219
451	0.218
451	0.218
452	0.218
452	0.218
452	0.218
453	0.218
453	0.217
454	0.218
454	0.217
455	0.217
455	0.217
456	0.217
456	0.217
457	0.217
457	0.217
458	0.217
458	0.216
458	0.216
459	0.216
459	0.216
460	0.216
460	0.215
461	0.215
461	0.215
462	0.215
462	0.215
463	0.214
463	0.214
463	0.214
464	0.214
464	0.214
465	0.214
465	0.214
466	0.214
466	0.214
467	0.214
467	0.214
467	0.214
468	0.214
468	0.214
469	0.214
469	0.214
470	0.214
470	0.214
471	0.214
471	0.214
472	0.214
472	0.214
472	0.214
473	0.214
473	0.213
474	0.213
474	0.213
475	0.214
475	0.214
476	0.214
476	0.214
477	0.214
477	0.214
477	0.215
478	0.215
478	0.215
479	0.215
479	0.215
480	0.215
480	0.216
481	0.216
481	0.216
482	0.216
482	0.216
482	0.216
483	0.216
483	0.217
484	0.217
484	0.217
485	0.217
485	0.217
486	0.217
486	0.218
487	0.218
487	0.218
487	0.219
488	0.219
488	0.219
489	0.22
489	0.221
490	0.221
490	0.222
491	0.222
491	0.223
492	0.223
492	0.224
492	0.224
493	0.225
493	0.225
494	0.226
494	0.226
495	0.226
495	0.227
496	0.228
496	0.228
496	0.229
497	0.229
497	0.23
498	0.23
498	0.231
499	0.231
499	0.232
500	0.233
500	0.234
501	0.234
501	0.235
501	0.235
502	0.236
502	0.237
503	0.237
503	0.238
504	0.239
504	0.239
505	0.24
505	0.24
506	0.241
506	0.241
506	0.242
507	0.243
507	0.243
508	0.243
508	0.244
509	0.244
509	0.245
510	0.246
510	0.246
511	0.247
511	0.248
511	0.249
512	0.249
512	0.25
513	0.25
513	0.251
514	0.252
514	0.252
515	0.253
515	0.253
515	0.253
516	0.254
516	0.254
517	0.255
517	0.255
518	0.256
518	0.256
519	0.257
519	0.257
520	0.257
520	0.257
520	0.258
521	0.258
521	0.258
522	0.258
522	0.259
523	0.259
523	0.259
524	0.26
524	0.26
524	0.26
525	0.261
525	0.26
526	0.261
526	0.261
527	0.261
527	0.261
528	0.261
528	0.261
529	0.261
529	0.26
529	0.26
530	0.26
530	0.26
531	0.26
531	0.26
532	0.26
532	0.26
533	0.26
533	0.26
533	0.26
534	0.26
534	0.26
535	0.259
535	0.26
536	0.259
536	0.259
537	0.259
537	0.259
538	0.258
538	0.258
538	0.257
539	0.257
539	0.257
540	0.256
540	0.255
541	0.255
541	0.254
542	0.254
542	0.254
542	0.253
543	0.253
543	0.252
544	0.252
544	0.252
545	0.251
545	0.251
546	0.251
546	0.251
547	0.25
547	0.25
547	0.249
548	0.249
548	0.249
549	0.248
549	0.247
550	0.247
550	0.246
551	0.246
551	0.245
551	0.244
552	0.244
552	0.243
553	0.243
553	0.242
554	0.242
554	0.241
555	0.24
555	0.24
556	0.239
556	0.239
556	0.238
557	0.238
557	0.238
558	0.238
558	0.237
559	0.237
559	0.237
560	0.237
560	0.236
560	0.236
561	0.236
561	0.235
562	0.234
562	0.234
563	0.233
563	0.232
564	0.231
564	0.231
564	0.23
565	0.23
565	0.229
566	0.229
566	0.228
567	0.228
567	0.228
568	0.228
568	0.227
568	0.227
569	0.226
569	0.226
570	0.225
570	0.225
571	0.225
571	0.224
572	0.224
572	0.223
573	0.223
573	0.223
573	0.222
574	0.222
574	0.221
575	0.221
575	0.221
576	0.221
576	0.22
577	0.22
577	0.219
577	0.219
578	0.219
578	0.219
579	0.218
579	0.218
580	0.217
580	0.217
581	0.216
581	0.216
581	0.216
582	0.216
582	0.215
583	0.215
583	0.214
584	0.214
584	0.213
585	0.212
585	0.212
585	0.211
586	0.211
586	0.21
587	0.209
587	0.208
588	0.208
588	0.208
589	0.207
589	0.207
590	0.207
590	0.207
590	0.207
591	0.207
591	0.207
592	0.206
592	0.206
593	0.206
593	0.206
594	0.205
594	0.205
594	0.204
595	0.204
595	0.203
596	0.203
596	0.203
597	0.203
597	0.203
598	0.202
598	0.202
598	0.202
599	0.202
599	0.201
600	0.201
600	0.201
601	0.2
601	0.2
602	0.199
602	0.199
602	0.199
603	0.198
603	0.198
604	0.198
604	0.198
605	0.198
605	0.198
606	0.198
606	0.197
606	0.197
607	0.197
607	0.196
608	0.196
608	0.195
609	0.195
609	0.194
610	0.194
610	0.194
610	0.194
611	0.194
611	0.194
612	0.194
612	0.194
613	0.193
613	0.193
614	0.193
614	0.193
614	0.193
615	0.192
615	0.192
616	0.192
616	0.192
617	0.191
617	0.191
618	0.191
618	0.191
618	0.191
619	0.191
619	0.191
620	0.191
620	0.19
621	0.19
621	0.19
622	0.189
622	0.189
622	0.189
623	0.188
623	0.188
624	0.188
624	0.187
625	0.187
625	0.187
626	0.187
626	0.187
626	0.187
627	0.186
627	0.186
628	0.185
628	0.185
629	0.184
629	0.184
630	0.183
630	0.183
630	0.183
631	0.183
631	0.183
632	0.183
632	0.183
633	0.183
633	0.183
634	0.184
634	0.185
634	0.185
635	0.185
635	0.185
636	0.185
636	0.185
637	0.185
637	0.184
638	0.184
638	0.184
638	0.183
639	0.183
639	0.183
640	0.182
640	0.182
641	0.181
641	0.181
642	0.181
642	0.181
642	0.181
643	0.18
643	0.18
644	0.18
644	0.18
645	0.18
645	0.18
646	0.18
646	0.18
646	0.18
647	0.18
647	0.18
648	0.18
648	0.179
649	0.179
649	0.179
650	0.179
650	0.179
650	0.179
651	0.179
651	0.179
652	0.179
652	0.179
653	0.179
653	0.181
653	0.185
654	0.146
654	0.117
655	0.119
655	0.12
656	0.12
656	0.12
657	0.121
657	0.121
657	0.121
658	0.12
658	0.112
659	0.141
659	0.18
660	0.183
660	0.183
661	0.182
661	0.182
661	0.182
662	0.182
662	0.181
663	0.181
663	0.181
664	0.18
664	0.18
665	0.18
665	0.179
665	0.179
666	0.179
666	0.179
667	0.179
667	0.179
668	0.18
668	0.18
669	0.18
669	0.18
669	0.18
670	0.18
670	0.18
671	0.18
671	0.18
672	0.179
672	0.179
672	0.179
673	0.178
673	0.178
674	0.178
674	0.178
675	0.178
675	0.179
676	0.179
676	0.18
676	0.18
677	0.18
677	0.18
678	0.18
678	0.18
679	0.18
679	0.18
680	0.18
680	0.18
680	0.18
681	0.18
681	0.18
682	0.181
682	0.181
683	0.182
683	0.183
684	0.183
684	0.184
684	0.184
685	0.184
685	0.185
686	0.185
686	0.185
687	0.185
687	0.185
687	0.185
688	0.184
688	0.184
689	0.184
689	0.184
690	0.184
690	0.184
691	0.184
691	0.185
691	0.185
692	0.185
692	0.186
693	0.186
693	0.186
694	0.187
694	0.187
695	0.188
695	0.189
695	0.189
696	0.189
696	0.189
697	0.189
697	0.189
698	0.189
698	0.189
698	0.189
699	0.189
699	0.189
700	0.188
700	0.188
701	0.188
701	0.189
702	0.189
702	0.189
702	0.189
703	0.189
703	0.189
704	0.189
704	0.189
705	0.189
705	0.189
705	0.189
706	0.189
706	0.189
707	0.189
707	0.19
708	0.19
708	0.19
709	0.19
709	0.19
709	0.19
710	0.19
710	0.19
711	0.191
711	0.191
712	0.191
712	0.191
713	0.191
713	0.192
713	0.192
714	0.192
714	0.192
715	0.193
715	0.193
716	0.193
716	0.193
716	0.193
717	0.192
717	0.192
718	0.192
718	0.192
719	0.192
719	0.192
720	0.192
720	0.192
720	0.192
721	0.192
721	0.193
722	0.193
722	0.194
723	0.194
723	0.194
723	0.194
724	0.194
724	0.194
725	0.193
725	0.193
726	0.192
726	0.192
727	0.192
727	0.192
727	0.192
728	0.192
728	0.193
729	0.193
729	0.194
730	0.194
730	0.195
730	0.195
731	0.196
731	0.196
732	0.196
732	0.196
733	0.196
733	0.196
734	0.196
734	0.196
734	0.196
735	0.196
735	0.196
736	0.196
736	0.195
737	0.195
737	0.195
737	0.195
738	0.195
738	0.195
739	0.194
739	0.194
740	0.194
740	0.194
741	0.194
741	0.195
741	0.195
742	0.195
742	0.196
743	0.196
743	0.197
744	0.198
744	0.198
744	0.198
745	0.198
745	0.199
746	0.199
746	0.199
747	0.199
747	0.199
748	0.198
748	0.198
748	0.198
749	0.198
749	0.198
750	0.197
750	0.197
751	0.197
751	0.197
751	0.197
752	0.197
752	0.197
753	0.197
753	0.197
754	0.198
754	0.198
754	0.198
755	0.199
755	0.199
756	0.199
756	0.198
757	0.197
757	0.197
758	0.197
758	0.196
758	0.196
759	0.196
759	0.196
760	0.196
760	0.197
761	0.197
761	0.198
761	0.198
762	0.199
762	0.199
763	0.2
763	0.2
764	0.2
764	0.2
764	0.2
765	0.199
765	0.199
766	0.199
766	0.198
767	0.198
767	0.198
768	0.197
768	0.197
768	0.197
769	0.197
769	0.196
770	0.197
770	0.197
771	0.197
771	0.197
771	0.197
772	0.198
772	0.198
773	0.198
773	0.198
774	0.199
774	0.199
775	0.199
775	0.2
775	0.2
776	0.2
776	0.201
777	0.201
777	0.201
778	0.201
778	0.201
778	0.201
779	0.201
779	0.2
780	0.2
780	0.199
781	0.199
781	0.199
781	0.199
782	0.198
782	0.198
783	0.198
783	0.198
784	0.198
784	0.199
784	0.199
785	0.199
785	0.2
786	0.2
786	0.2
787	0.201
787	0.201
788	0.201
788	0.201
788	0.201
789	0.201
789	0.201
790	0.201
790	0.201
791	0.201
791	0.201
791	0.2
792	0.201
792	0.2
793	0.2
793	0.2
794	0.2
794	0.199
794	0.199
795	0.198
795	0.199
796	0.199
796	0.199
797	0.198
797	0.199
797	0.199
798	0.199
798	0.199
799	0.199
799	0.199
800	0.199
800	0.198
801	0.198
801	0.198
801	0.198
802	0.198
802	0.198
803	0.198
803	0.198
804	0.199
804	0.199
804	0.2
805	0.201
805	0.201
806	0.202
806	0.203
807	0.203
807	0.203
807	0.204
808	0.204
808	0.204
809	0.204
809	0.205
810	0.205
810	0.204
810	0.204
811	0.204
811	0.204
812	0.205
812	0.205
813	0.205
813	0.206
813	0.206
814	0.206
814	0.207
815	0.207
815	0.207
816	0.208
816	0.207
817	0.207
817	0.207
817	0.206
818	0.206
818	0.206
819	0.205
819	0.205
820	0.204
820	0.203
820	0.203
821	0.203
821	0.202
822	0.202
822	0.202
823	0.202
823	0.202
823	0.203
824	0.204
824	0.205
825	0.206
825	0.207
826	0.208
826	0.208
826	0.208
827	0.209
827	0.209
828	0.209
828	0.209
829	0.208
829	0.208
829	0.208
830	0.208
830	0.208
831	0.208
831	0.208
832	0.208
832	0.208
832	0.208
833	0.208
833	0.208
834	0.208
834	0.207
835	0.207
835	0.207
835	0.206
836	0.206
836	0.206
837	0.206
837	0.205
838	0.205
838	0.204
839	0.204
839	0.203
839	0.202
840	0.201
840	0.2
841	0.199
841	0.198
842	0.197
842	0.197
842	0.197
843	0.196
843	0.196
844	0.196
844	0.196
845	0.196
845	0.196
845	0.196
846	0.196
846	0.196
847	0.196
847	0.196
848	0.196
848	0.197
848	0.197
849	0.197
849	0.198
850	0.198
850	0.199
851	0.199
851	0.2
851	0.2
852	0.199
852	0.199
853	0.199
853	0.198
854	0.198
854	0.198
854	0.198
855	0.198
855	0.198
856	0.198
856	0.199
857	0.199
857	0.199
857	0.199
858	0.199
858	0.198
859	0.197
859	0.197
860	0.196
860	0.195
860	0.194
861	0.194
861	0.194
862	0.193
862	0.193
863	0.192
863	0.192
863	0.192
864	0.192
864	0.191
865	0.191
865	0.191
866	0.19
866	0.19
866	0.19
867	0.19
867	0.19
868	0.19
868	0.19
869	0.191
869	0.191
869	0.191
870	0.191
870	0.192
871	0.192
871	0.192
872	0.193
872	0.193
872	0.193
873	0.192
873	0.192
874	0.191
874	0.191
875	0.191
875	0.19
875	0.19
876	0.19
876	0.19
877	0.19
877	0.19
878	0.19
878	0.191
878	0.192
879	0.192
879	0.192
880	0.193
880	0.193
881	0.192
881	0.192
881	0.191
882	0.19
882	0.189
883	0.188
883	0.187
884	0.185
884	0.184
884	0.183
885	0.182
885	0.18
886	0.179
886	0.178
887	0.177
887	0.176
887	0.175
888	0.174
888	0.173
889	0.172
889	0.172
890	0.172
890	0.173
890	0.173
891	0.174
891	0.175
892	0.175
892	0.177
893	0.177
893	0.178
893	0.179
894	0.179
894	0.179
895	0.179
895	0.179
895	0.178
896	0.178
896	0.178
897	0.177
897	0.176
898	0.175
898	0.175
898	0.174
899	0.174
899	0.173
900	0.173
900	0.173
901	0.172
901	0.172
901	0.172
902	0.172
902	0.172
903	0.171
903	0.171
904	0.17
904	0.169
904	0.169
905	0.168
905	0.167
906	0.166
906	0.166
907	0.166
907	0.166
907	0.166
908	0.165
908	0.165
909	0.165
909	0.165
910	0.165
910	0.165
910	0.165
911	0.164
911	0.164
912	0.163
912	0.163
913	0.162
913	0.162
913	0.161
914	0.161
914	0.16
915	0.16
915	0.159
916	0.159
916	0.158
916	0.158
917	0.157
917	0.156
918	0.156
918	0.156
918	0.155
919	0.155
919	0.155
920	0.155
920	0.155
921	0.155
921	0.155
921	0.155
922	0.155
922	0.156
923	0.156
923	0.157
924	0.157
924	0.157
924	0.158
925	0.158
925	0.158
926	0.157
926	0.157
927	0.156
927	0.155
927	0.155
928	0.154
928	0.153
929	0.152
929	0.152
930	0.151
930	0.151
930	0.15
931	0.15
931	0.15
932	0.15
932	0.149
933	0.149
933	0.149
933	0.148
934	0.148
934	0.148
935	0.147
935	0.147
935	0.146
936	0.146
936	0.145
937	0.145
937	0.144
938	0.144
938	0.143
938	0.142
939	0.142
939	0.141
940	0.141
940	0.141
941	0.141
941	0.141
941	0.141
942	0.141
942	0.141
943	0.141
943	0.141
944	0.14
944	0.141
944	0.14
945	0.14
945	0.14
946	0.139
946	0.139
946	0.138
947	0.138
947	0.137
948	0.136
948	0.136
949	0.135
949	0.134
949	0.133
950	0.132
950	0.132
951	0.132
951	0.131
952	0.13
952	0.129
952	0.128
953	0.128
953	0.127
954	0.126
954	0.125
955	0.125
955	0.124
955	0.123
956	0.123
956	0.123
957	0.122
957	0.122
957	0.122
958	0.122
958	0.122
959	0.122
959	0.122
960	0.122
960	0.122
960	0.121
961	0.121
961	0.121
962	0.121
962	0.12
963	0.12
963	0.12
963	0.12
964	0.12
964	0.12
965	0.12
965	0.12
966	0.121
966	0.121
966	0.122
967	0.122
967	0.123
968	0.124
968	0.124
968	0.124
969	0.124
969	0.124
970	0.124
970	0.123
971	0.123
971	0.123
971	0.122
972	0.121
972	0.121
973	0.12
973	0.12
974	0.119
974	0.119
974	0.119
975	0.119
975	0.118
976	0.118
976	0.118
976	0.118
977	0.117
977	0.117
978	0.117
978	0.116
979	0.115
979	0.115
979	0.114
980	0.114
980	0.113
981	0.112
981	0.111
982	0.111
982	0.11
982	0.11
983	0.109
983	0.109
984	0.109
984	0.108
984	0.108
985	0.108
985	0.108
986	0.107
986	0.107
987	0.107
987	0.107
987	0.107
988	0.106
988	0.106
989	0.105
989	0.105
990	0.104
990	0.104
990	0.103
991	0.102
991	0.102
992	0.101
992	0.1
992	0.099
993	0.098
993	0.097
994	0.097
994	0.096
995	0.096
995	0.095
995	0.095
996	0.095
996	0.095
997	0.095
997	0.096
997	0.097
998	0.097
998	0.098
999	0.099
999	0.1
1000	0.101
1000	0.101
1000	0.102
1001	0.102
1001	0.103
1002	0.103
1002	0.103
1003	0.103
1003	0.103
1003	0.102
1004	0.102
1004	0.102
1005	0.101
1005	0.101
1005	0.1
1006	0.1
1006	0.1
1007	0.099
1007	0.099
1008	0.099
1008	0.098
1008	0.098
1009	0.098
1009	0.098
1010	0.097
1010	0.097
1010	0.097
1011	0.097
1011	0.096
1012	0.096
1012	0.096
1013	0.095
1013	0.095
1013	0.094
1014	0.094
1014	0.093
1015	0.093
1015	0.093
1016	0.092
1016	0.092
1016	0.091
1017	0.091
1017	0.09
1018	0.09
1018	0.09
1018	0.09
1019	0.089
1019	0.089
1020	0.089
1020	0.089
1021	0.089
1021	0.089
1021	0.089
1022	0.089
1022	0.089
1023	0.088
1023	0.088
1023	0.088
1024	0.087
1024	0.086
1025	0.086
1025	0.085
1026	0.085
1026	0.084
1026	0.083
1027	0.082
1027	0.082
1028	0.081
1028	0.08
1028	0.08
1029	0.08
1029	0.079
1030	0.079
1030	0.078
1031	0.078
1031	0.078
1031	0.077
1032	0.077
1032	0.077
1033	0.077
1033	0.076
1033	0.076
1034	0.076
1034	0.075
1035	0.075
1035	0.075
1036	0.075
1036	0.074
1036	0.074
1037	0.074
1037	0.074
1038	0.074
1038	0.074
1039	0.074
1039	0.074
1039	0.074
1040	0.074
1040	0.074
1041	0.074
1041	0.074
1041	0.074
1042	0.073
1042	0.074
1043	0.074
1043	0.074
1044	0.074
1044	0.074
1044	0.074
1045	0.075
1045	0.075
1046	0.076
1046	0.076
1046	0.077
1047	0.077
1047	0.078
1048	0.079
1048	0.079
1049	0.079
1049	0.079
1049	0.079
1050	0.079
1050	0.078
1051	0.078
1051	0.077
1051	0.077
1052	0.076
1052	0.075
1053	0.074
1053	0.073
1053	0.072
1054	0.071
1054	0.07
1055	0.07
1055	0.069
1056	0.068
1056	0.068
1056	0.067
1057	0.066
1057	0.066
1058	0.065
1058	0.064
1058	0.064
1059	0.063
1059	0.063
1060	0.063
1060	0.062
1061	0.061
1061	0.061
1061	0.061
1062	0.061
1062	0.061
1063	0.061
1063	0.06
1063	0.06
1064	0.059
1064	0.059
1065	0.059
1065	0.059
1066	0.058
1066	0.058
1066	0.058
1067	0.057
1067	0.057
1068	0.057
1068	0.057
1068	0.056
1069	0.056
1069	0.055
1070	0.055
1070	0.054
1071	0.053
1071	0.053
1071	0.052
1072	0.052
1072	0.051
1073	0.05
1073	0.05
1073	0.049
1074	0.049
1074	0.049
1075	0.049
1075	0.05
1076	0.05
1076	0.05
1076	0.05
1077	0.051
1077	0.051
1078	0.051
1078	0.052
1078	0.053
1079	0.053
1079	0.053
1080	0.053
1080	0.054
1080	0.054
1081	0.054
1081	0.054
1082	0.055
1082	0.055
1083	0.055
1083	0.055
1083	0.054
1084	0.054
1084	0.054
1085	0.053
1085	0.053
1085	0.053
1086	0.053
1086	0.051
1087	0.051
1087	0.05
1088	0.049
1088	0.049
1088	0.049
1089	0.048
1089	0.047
1090	0.047
1090	0.046
1090	0.045
1091	0.045
1091	0.045
1092	0.045
1092	0.045
1092	0.045
1093	0.044
1093	0.045
1094	0.045
1094	0.044
1095	0.045
1095	0.045
1095	0.045
1096	0.045
1096	0.044
1097	0.043
1097	0.042
1097	0.042
1098	0.041
1098	0.04
1099	0.039
1099	0.037
1100	0.036
1100	0.035
1100	0.034
1101	0.033
1101	0.033
1102	0.032
1102	0.031
1102	0.03
1103	0.03
1103	0.03
1104	0.029
1104	0.028
1104	0.028
1105	0.026
1105	0.024
1106	0.023
1106	0.022
1107	0.021
1107	0.02
1107	0.019
1108	0.018
1108	0.018
1109	0.016
1109	0.015
1109	0.015
1110	0.019
1110	0.019
1111	0.02
1111	0.018
