Data from reversibility-20sec_Absorbance__5200__000000000005200.txt Node

Date: Wed Dec 06 17:06:26 CET 2023
User: Marek
Spectrometer: MAYP115816
Trigger mode: 0
Integration Time (sec): 2.000000E-1
Scans to average: 10
Electric dark correction enabled: true
Nonlinearity correction enabled: true
Boxcar width: 5
XAxis mode: Wavelengths
Number of Pixels in Spectrum: 2068
>>>>>Begin Spectral Data<<<<<
199	-0.155
199	-0.128
200	-0.067
200	-0.011
201	0.019
201	0.033
202	0.043
202	0.053
203	0.063
203	0.064
204	0.08
204	0.093
205	0.106
205	0.113
205	0.111
206	0.11
206	0.111
207	0.115
207	0.113
208	0.109
208	0.112
209	0.113
209	0.11
210	0.111
210	0.112
211	0.111
211	0.113
212	0.112
212	0.114
213	0.118
213	0.122
213	0.12
214	0.122
214	0.121
215	0.121
215	0.12
216	0.12
216	0.12
217	0.122
217	0.123
218	0.121
218	0.124
219	0.129
219	0.129
220	0.134
220	0.134
221	0.135
221	0.137
221	0.142
222	0.147
222	0.153
223	0.158
223	0.159
224	0.164
224	0.171
225	0.179
225	0.188
226	0.197
226	0.209
227	0.218
227	0.227
228	0.241
228	0.255
229	0.274
229	0.296
229	0.319
230	0.343
230	0.372
231	0.405
231	0.442
232	0.478
232	0.519
233	0.56
233	0.609
234	0.659
234	0.709
235	0.762
235	0.814
236	0.865
236	0.917
236	0.969
237	1.022
237	1.075
238	1.123
238	1.169
239	1.218
239	1.261
240	1.299
240	1.338
241	1.372
241	1.406
242	1.438
242	1.47
243	1.5
243	1.527
243	1.551
244	1.57
244	1.591
245	1.61
245	1.631
246	1.652
246	1.671
247	1.684
247	1.697
248	1.71
248	1.723
249	1.733
249	1.742
250	1.749
250	1.756
250	1.759
251	1.761
251	1.762
252	1.767
252	1.767
253	1.766
253	1.763
254	1.763
254	1.764
255	1.762
255	1.764
256	1.764
256	1.762
257	1.762
257	1.76
258	1.76
258	1.759
258	1.759
259	1.758
259	1.759
260	1.758
260	1.758
261	1.759
261	1.763
262	1.765
262	1.767
263	1.77
263	1.771
264	1.773
264	1.776
265	1.776
265	1.778
265	1.779
266	1.779
266	1.779
267	1.777
267	1.778
268	1.778
268	1.779
269	1.78
269	1.78
270	1.778
270	1.778
271	1.776
271	1.776
272	1.773
272	1.77
272	1.766
273	1.76
273	1.752
274	1.746
274	1.738
275	1.733
275	1.725
276	1.716
276	1.707
277	1.699
277	1.69
278	1.678
278	1.666
278	1.653
279	1.636
279	1.616
280	1.588
280	1.557
281	1.52
281	1.479
282	1.436
282	1.391
283	1.35
283	1.308
284	1.268
284	1.229
285	1.193
285	1.16
285	1.132
286	1.106
286	1.084
287	1.064
287	1.048
288	1.033
288	1.022
289	1.011
289	1.003
290	0.995
290	0.988
291	0.983
291	0.978
292	0.973
292	0.97
292	0.966
293	0.962
293	0.959
294	0.956
294	0.953
295	0.95
295	0.947
296	0.944
296	0.942
297	0.939
297	0.936
298	0.933
298	0.931
298	0.928
299	0.926
299	0.923
300	0.921
300	0.918
301	0.915
301	0.913
302	0.911
302	0.909
303	0.907
303	0.904
304	0.902
304	0.9
305	0.898
305	0.896
305	0.894
306	0.892
306	0.889
307	0.887
307	0.885
308	0.882
308	0.88
309	0.877
309	0.875
310	0.872
310	0.869
311	0.867
311	0.863
311	0.861
312	0.857
312	0.854
313	0.85
313	0.847
314	0.843
314	0.839
315	0.835
315	0.831
316	0.827
316	0.823
317	0.818
317	0.813
318	0.809
318	0.803
318	0.798
319	0.793
319	0.788
320	0.783
320	0.777
321	0.771
321	0.765
322	0.759
322	0.753
323	0.747
323	0.741
324	0.734
324	0.728
324	0.721
325	0.714
325	0.708
326	0.701
326	0.694
327	0.688
327	0.681
328	0.674
328	0.667
329	0.66
329	0.653
330	0.646
330	0.64
330	0.633
331	0.626
331	0.619
332	0.612
332	0.605
333	0.599
333	0.592
334	0.585
334	0.579
335	0.572
335	0.565
336	0.558
336	0.552
336	0.545
337	0.539
337	0.533
338	0.527
338	0.521
339	0.515
339	0.509
340	0.503
340	0.498
341	0.492
341	0.486
342	0.481
342	0.476
342	0.471
343	0.466
343	0.461
344	0.456
344	0.451
345	0.447
345	0.442
346	0.438
346	0.433
347	0.429
347	0.425
348	0.421
348	0.417
348	0.413
349	0.409
349	0.406
350	0.402
350	0.398
351	0.395
351	0.392
352	0.389
352	0.386
353	0.383
353	0.38
354	0.377
354	0.374
354	0.372
355	0.369
355	0.366
356	0.363
356	0.361
357	0.358
357	0.356
358	0.353
358	0.35
359	0.348
359	0.346
360	0.344
360	0.342
360	0.34
361	0.338
361	0.337
362	0.335
362	0.333
363	0.331
363	0.33
364	0.328
364	0.326
365	0.324
365	0.322
366	0.321
366	0.319
366	0.317
367	0.316
367	0.314
368	0.313
368	0.311
369	0.31
369	0.308
370	0.307
370	0.306
371	0.304
371	0.303
372	0.302
372	0.301
372	0.3
373	0.299
373	0.298
374	0.297
374	0.296
375	0.296
375	0.295
376	0.294
376	0.293
377	0.292
377	0.291
378	0.29
378	0.29
378	0.289
379	0.288
379	0.287
380	0.287
380	0.286
381	0.285
381	0.285
382	0.284
382	0.284
383	0.283
383	0.282
383	0.282
384	0.281
384	0.281
385	0.28
385	0.28
386	0.28
386	0.279
387	0.279
387	0.278
388	0.278
388	0.278
389	0.277
389	0.277
389	0.277
390	0.277
390	0.276
391	0.276
391	0.275
392	0.275
392	0.275
393	0.275
393	0.274
394	0.274
394	0.273
394	0.273
395	0.272
395	0.272
396	0.272
396	0.271
397	0.271
397	0.271
398	0.27
398	0.27
399	0.27
399	0.27
400	0.269
400	0.269
400	0.269
401	0.269
401	0.268
402	0.268
402	0.268
403	0.268
403	0.268
404	0.267
404	0.267
405	0.267
405	0.267
405	0.267
406	0.266
406	0.266
407	0.266
407	0.265
408	0.265
408	0.265
409	0.264
409	0.264
410	0.264
410	0.264
411	0.263
411	0.263
411	0.263
412	0.263
412	0.262
413	0.262
413	0.262
414	0.262
414	0.262
415	0.261
415	0.261
416	0.26
416	0.26
416	0.26
417	0.259
417	0.259
418	0.259
418	0.258
419	0.258
419	0.258
420	0.257
420	0.257
421	0.257
421	0.256
421	0.256
422	0.256
422	0.255
423	0.255
423	0.255
424	0.254
424	0.254
425	0.254
425	0.253
426	0.253
426	0.253
427	0.252
427	0.252
427	0.252
428	0.251
428	0.251
429	0.251
429	0.25
430	0.25
430	0.25
431	0.25
431	0.25
432	0.25
432	0.249
432	0.249
433	0.249
433	0.248
434	0.248
434	0.248
435	0.248
435	0.248
436	0.247
436	0.247
437	0.247
437	0.247
437	0.246
438	0.246
438	0.246
439	0.246
439	0.246
440	0.245
440	0.245
441	0.245
441	0.245
442	0.245
442	0.244
442	0.244
443	0.244
443	0.244
444	0.244
444	0.244
445	0.243
445	0.243
446	0.243
446	0.243
447	0.243
447	0.243
447	0.242
448	0.242
448	0.242
449	0.242
449	0.241
450	0.241
450	0.241
451	0.241
451	0.24
452	0.241
452	0.24
452	0.24
453	0.24
453	0.24
454	0.24
454	0.24
455	0.24
455	0.239
456	0.239
456	0.239
457	0.239
457	0.238
458	0.238
458	0.238
458	0.237
459	0.237
459	0.237
460	0.236
460	0.236
461	0.236
461	0.236
462	0.235
462	0.235
463	0.235
463	0.235
463	0.234
464	0.234
464	0.234
465	0.233
465	0.233
466	0.233
466	0.233
467	0.233
467	0.233
467	0.233
468	0.233
468	0.233
469	0.233
469	0.233
470	0.233
470	0.233
471	0.233
471	0.233
472	0.233
472	0.233
472	0.233
473	0.233
473	0.233
474	0.233
474	0.233
475	0.232
475	0.232
476	0.233
476	0.233
477	0.232
477	0.232
477	0.233
478	0.232
478	0.232
479	0.232
479	0.232
480	0.232
480	0.232
481	0.232
481	0.232
482	0.232
482	0.232
482	0.232
483	0.233
483	0.233
484	0.233
484	0.233
485	0.233
485	0.233
486	0.233
486	0.233
487	0.233
487	0.233
487	0.233
488	0.233
488	0.233
489	0.234
489	0.234
490	0.235
490	0.235
491	0.236
491	0.236
492	0.236
492	0.237
492	0.237
493	0.237
493	0.238
494	0.238
494	0.238
495	0.239
495	0.239
496	0.239
496	0.24
496	0.241
497	0.241
497	0.241
498	0.242
498	0.242
499	0.242
499	0.243
500	0.243
500	0.244
501	0.245
501	0.245
501	0.245
502	0.245
502	0.245
503	0.246
503	0.246
504	0.246
504	0.247
505	0.247
505	0.247
506	0.248
506	0.248
506	0.249
507	0.249
507	0.25
508	0.25
508	0.251
509	0.251
509	0.251
510	0.252
510	0.252
511	0.253
511	0.254
511	0.254
512	0.254
512	0.255
513	0.256
513	0.256
514	0.257
514	0.257
515	0.258
515	0.258
515	0.258
516	0.259
516	0.259
517	0.26
517	0.26
518	0.261
518	0.261
519	0.261
519	0.261
520	0.261
520	0.261
520	0.261
521	0.261
521	0.261
522	0.261
522	0.262
523	0.262
523	0.262
524	0.262
524	0.262
524	0.263
525	0.263
525	0.263
526	0.263
526	0.264
527	0.264
527	0.264
528	0.264
528	0.264
529	0.264
529	0.264
529	0.264
530	0.263
530	0.263
531	0.263
531	0.263
532	0.263
532	0.263
533	0.263
533	0.263
533	0.262
534	0.262
534	0.262
535	0.262
535	0.262
536	0.262
536	0.262
537	0.262
537	0.262
538	0.261
538	0.261
538	0.261
539	0.261
539	0.261
540	0.261
540	0.261
541	0.26
541	0.26
542	0.26
542	0.26
542	0.26
543	0.259
543	0.259
544	0.259
544	0.258
545	0.258
545	0.258
546	0.257
546	0.257
547	0.256
547	0.256
547	0.255
548	0.255
548	0.255
549	0.254
549	0.254
550	0.254
550	0.253
551	0.253
551	0.252
551	0.252
552	0.252
552	0.252
553	0.251
553	0.251
554	0.25
554	0.25
555	0.249
555	0.249
556	0.248
556	0.248
556	0.248
557	0.248
557	0.248
558	0.248
558	0.248
559	0.248
559	0.248
560	0.248
560	0.248
560	0.248
561	0.248
561	0.247
562	0.247
562	0.246
563	0.245
563	0.244
564	0.243
564	0.242
564	0.242
565	0.242
565	0.241
566	0.241
566	0.24
567	0.24
567	0.24
568	0.24
568	0.24
568	0.24
569	0.24
569	0.239
570	0.239
570	0.238
571	0.237
571	0.237
572	0.236
572	0.235
573	0.235
573	0.235
573	0.234
574	0.234
574	0.234
575	0.233
575	0.234
576	0.234
576	0.233
577	0.233
577	0.232
577	0.232
578	0.231
578	0.231
579	0.231
579	0.231
580	0.231
580	0.23
581	0.229
581	0.229
581	0.229
582	0.229
582	0.229
583	0.229
583	0.229
584	0.228
584	0.227
585	0.227
585	0.227
585	0.226
586	0.226
586	0.225
587	0.224
587	0.224
588	0.223
588	0.223
589	0.222
589	0.223
590	0.223
590	0.223
590	0.223
591	0.224
591	0.223
592	0.223
592	0.222
593	0.222
593	0.222
594	0.221
594	0.221
594	0.22
595	0.22
595	0.219
596	0.218
596	0.218
597	0.219
597	0.219
598	0.219
598	0.219
598	0.219
599	0.219
599	0.218
600	0.218
600	0.218
601	0.217
601	0.217
602	0.217
602	0.216
602	0.216
603	0.216
603	0.216
604	0.216
604	0.216
605	0.216
605	0.216
606	0.215
606	0.214
606	0.214
607	0.214
607	0.214
608	0.213
608	0.212
609	0.212
609	0.212
610	0.212
610	0.211
610	0.211
611	0.211
611	0.211
612	0.211
612	0.212
613	0.212
613	0.211
614	0.211
614	0.21
614	0.21
615	0.21
615	0.21
616	0.21
616	0.21
617	0.209
617	0.209
618	0.209
618	0.209
618	0.209
619	0.209
619	0.209
620	0.21
620	0.21
621	0.209
621	0.209
622	0.208
622	0.207
622	0.207
623	0.206
623	0.206
624	0.206
624	0.205
625	0.205
625	0.204
626	0.204
626	0.204
626	0.204
627	0.204
627	0.204
628	0.204
628	0.204
629	0.204
629	0.203
630	0.203
630	0.203
630	0.203
631	0.203
631	0.203
632	0.203
632	0.202
633	0.202
633	0.202
634	0.203
634	0.203
634	0.203
635	0.202
635	0.202
636	0.202
636	0.202
637	0.202
637	0.202
638	0.201
638	0.201
638	0.201
639	0.2
639	0.2
640	0.201
640	0.201
641	0.201
641	0.201
642	0.201
642	0.201
642	0.202
643	0.202
643	0.202
644	0.202
644	0.202
645	0.202
645	0.202
646	0.202
646	0.201
646	0.201
647	0.201
647	0.2
648	0.2
648	0.199
649	0.199
649	0.199
650	0.199
650	0.199
650	0.199
651	0.199
651	0.198
652	0.198
652	0.198
653	0.198
653	0.2
653	0.207
654	0.162
654	0.129
655	0.13
655	0.13
656	0.131
656	0.131
657	0.131
657	0.132
657	0.132
658	0.131
658	0.12
659	0.151
659	0.195
660	0.2
660	0.2
661	0.2
661	0.2
661	0.199
662	0.199
662	0.199
663	0.199
663	0.199
664	0.199
664	0.199
665	0.199
665	0.199
665	0.199
666	0.199
666	0.199
667	0.199
667	0.2
668	0.2
668	0.2
669	0.2
669	0.2
669	0.201
670	0.201
670	0.2
671	0.2
671	0.2
672	0.199
672	0.199
672	0.198
673	0.198
673	0.198
674	0.198
674	0.197
675	0.197
675	0.197
676	0.197
676	0.197
676	0.197
677	0.197
677	0.197
678	0.197
678	0.197
679	0.196
679	0.196
680	0.197
680	0.197
680	0.196
681	0.197
681	0.197
682	0.198
682	0.198
683	0.198
683	0.199
684	0.199
684	0.199
684	0.199
685	0.199
685	0.199
686	0.199
686	0.199
687	0.198
687	0.198
687	0.199
688	0.198
688	0.198
689	0.199
689	0.2
690	0.199
690	0.199
691	0.199
691	0.199
691	0.199
692	0.199
692	0.198
693	0.198
693	0.199
694	0.198
694	0.198
695	0.199
695	0.2
695	0.2
696	0.201
696	0.201
697	0.202
697	0.202
698	0.202
698	0.202
698	0.203
699	0.203
699	0.203
700	0.203
700	0.203
701	0.202
701	0.202
702	0.201
702	0.201
702	0.201
703	0.2
703	0.2
704	0.199
704	0.199
705	0.2
705	0.2
705	0.201
706	0.201
706	0.202
707	0.202
707	0.203
708	0.203
708	0.204
709	0.204
709	0.204
709	0.204
710	0.204
710	0.204
711	0.205
711	0.205
712	0.205
712	0.205
713	0.205
713	0.205
713	0.204
714	0.204
714	0.204
715	0.203
715	0.203
716	0.202
716	0.202
716	0.201
717	0.2
717	0.2
718	0.199
718	0.199
719	0.2
719	0.2
720	0.2
720	0.201
720	0.202
721	0.202
721	0.203
722	0.204
722	0.204
723	0.204
723	0.205
723	0.205
724	0.205
724	0.205
725	0.204
725	0.204
726	0.203
726	0.203
727	0.203
727	0.203
727	0.203
728	0.203
728	0.203
729	0.203
729	0.204
730	0.204
730	0.204
730	0.204
731	0.204
731	0.205
732	0.205
732	0.206
733	0.206
733	0.206
734	0.206
734	0.207
734	0.208
735	0.208
735	0.208
736	0.208
736	0.208
737	0.208
737	0.209
737	0.209
738	0.208
738	0.207
739	0.206
739	0.206
740	0.205
740	0.205
741	0.205
741	0.205
741	0.205
742	0.205
742	0.206
743	0.207
743	0.207
744	0.208
744	0.209
744	0.21
745	0.21
745	0.211
746	0.211
746	0.211
747	0.211
747	0.21
748	0.21
748	0.209
748	0.209
749	0.208
749	0.208
750	0.207
750	0.207
751	0.207
751	0.207
751	0.207
752	0.206
752	0.206
753	0.206
753	0.206
754	0.206
754	0.206
754	0.206
755	0.207
755	0.207
756	0.207
756	0.206
757	0.206
757	0.207
758	0.207
758	0.208
758	0.208
759	0.209
759	0.209
760	0.209
760	0.209
761	0.209
761	0.21
761	0.211
762	0.211
762	0.211
763	0.211
763	0.211
764	0.211
764	0.211
764	0.211
765	0.211
765	0.211
766	0.211
766	0.21
767	0.21
767	0.209
768	0.208
768	0.208
768	0.208
769	0.208
769	0.208
770	0.209
770	0.209
771	0.21
771	0.21
771	0.211
772	0.212
772	0.213
773	0.213
773	0.213
774	0.213
774	0.214
775	0.214
775	0.213
775	0.213
776	0.213
776	0.212
777	0.212
777	0.212
778	0.212
778	0.211
778	0.211
779	0.211
779	0.211
780	0.211
780	0.211
781	0.212
781	0.212
781	0.212
782	0.213
782	0.213
783	0.214
783	0.214
784	0.215
784	0.215
784	0.216
785	0.216
785	0.217
786	0.217
786	0.218
787	0.218
787	0.218
788	0.218
788	0.217
788	0.217
789	0.216
789	0.216
790	0.216
790	0.215
791	0.214
791	0.213
791	0.213
792	0.213
792	0.213
793	0.212
793	0.212
794	0.212
794	0.211
794	0.211
795	0.212
795	0.212
796	0.213
796	0.213
797	0.213
797	0.213
797	0.214
798	0.215
798	0.216
799	0.216
799	0.216
800	0.216
800	0.216
801	0.216
801	0.216
801	0.216
802	0.216
802	0.216
803	0.216
803	0.216
804	0.216
804	0.217
804	0.217
805	0.217
805	0.217
806	0.217
806	0.217
807	0.217
807	0.217
807	0.217
808	0.218
808	0.218
809	0.218
809	0.218
810	0.218
810	0.218
810	0.218
811	0.218
811	0.219
812	0.219
812	0.219
813	0.219
813	0.219
813	0.219
814	0.219
814	0.22
815	0.221
815	0.221
816	0.221
816	0.221
817	0.221
817	0.221
817	0.221
818	0.221
818	0.221
819	0.221
819	0.221
820	0.22
820	0.22
820	0.22
821	0.22
821	0.221
822	0.221
822	0.221
823	0.221
823	0.222
823	0.222
824	0.223
824	0.224
825	0.224
825	0.225
826	0.225
826	0.225
826	0.225
827	0.226
827	0.226
828	0.226
828	0.226
829	0.226
829	0.226
829	0.226
830	0.225
830	0.226
831	0.226
831	0.226
832	0.226
832	0.226
832	0.226
833	0.226
833	0.226
834	0.226
834	0.225
835	0.225
835	0.225
835	0.225
836	0.225
836	0.224
837	0.224
837	0.223
838	0.223
838	0.222
839	0.222
839	0.221
839	0.22
840	0.22
840	0.219
841	0.218
841	0.217
842	0.217
842	0.216
842	0.216
843	0.215
843	0.214
844	0.214
844	0.213
845	0.213
845	0.213
845	0.213
846	0.212
846	0.212
847	0.212
847	0.213
848	0.213
848	0.214
848	0.214
849	0.215
849	0.215
850	0.216
850	0.217
851	0.217
851	0.218
851	0.219
852	0.219
852	0.219
853	0.219
853	0.22
854	0.22
854	0.221
854	0.221
855	0.222
855	0.222
856	0.222
856	0.222
857	0.222
857	0.222
857	0.222
858	0.222
858	0.221
859	0.22
859	0.219
860	0.219
860	0.218
860	0.218
861	0.218
861	0.217
862	0.217
862	0.217
863	0.217
863	0.216
863	0.216
864	0.216
864	0.216
865	0.216
865	0.216
866	0.216
866	0.216
866	0.216
867	0.216
867	0.216
868	0.216
868	0.217
869	0.217
869	0.217
869	0.216
870	0.216
870	0.216
871	0.216
871	0.216
872	0.216
872	0.216
872	0.216
873	0.216
873	0.215
874	0.215
874	0.215
875	0.215
875	0.216
875	0.216
876	0.216
876	0.216
877	0.216
877	0.217
878	0.217
878	0.217
878	0.217
879	0.217
879	0.217
880	0.217
880	0.216
881	0.215
881	0.215
881	0.214
882	0.214
882	0.213
883	0.213
883	0.213
884	0.213
884	0.213
884	0.213
885	0.213
885	0.212
886	0.212
886	0.212
887	0.211
887	0.211
887	0.21
888	0.209
888	0.208
889	0.208
889	0.207
890	0.207
890	0.206
890	0.206
891	0.206
891	0.205
892	0.205
892	0.205
893	0.204
893	0.204
893	0.204
894	0.203
894	0.203
895	0.202
895	0.202
895	0.202
896	0.202
896	0.202
897	0.203
897	0.203
898	0.203
898	0.204
898	0.204
899	0.204
899	0.204
900	0.205
900	0.205
901	0.205
901	0.204
901	0.204
902	0.203
902	0.203
903	0.202
903	0.202
904	0.201
904	0.201
904	0.2
905	0.199
905	0.199
906	0.199
906	0.199
907	0.199
907	0.199
907	0.199
908	0.199
908	0.199
909	0.198
909	0.198
910	0.198
910	0.198
910	0.197
911	0.197
911	0.196
912	0.196
912	0.196
913	0.196
913	0.196
913	0.196
914	0.196
914	0.196
915	0.196
915	0.196
916	0.196
916	0.196
916	0.196
917	0.195
917	0.195
918	0.195
918	0.194
918	0.194
919	0.193
919	0.193
920	0.192
920	0.192
921	0.192
921	0.192
921	0.191
922	0.191
922	0.192
923	0.192
923	0.193
924	0.193
924	0.194
924	0.194
925	0.195
925	0.195
926	0.195
926	0.196
927	0.195
927	0.195
927	0.195
928	0.194
928	0.193
929	0.192
929	0.192
930	0.191
930	0.19
930	0.19
931	0.189
931	0.189
932	0.188
932	0.188
933	0.188
933	0.187
933	0.187
934	0.186
934	0.186
935	0.185
935	0.185
935	0.184
936	0.183
936	0.183
937	0.182
937	0.182
938	0.181
938	0.181
938	0.18
939	0.18
939	0.18
940	0.18
940	0.18
941	0.18
941	0.18
941	0.18
942	0.18
942	0.179
943	0.179
943	0.179
944	0.179
944	0.179
944	0.179
945	0.178
945	0.178
946	0.178
946	0.178
946	0.178
947	0.178
947	0.177
948	0.177
948	0.177
949	0.177
949	0.177
949	0.177
950	0.177
950	0.177
951	0.176
951	0.176
952	0.175
952	0.174
952	0.174
953	0.173
953	0.172
954	0.172
954	0.171
955	0.17
955	0.169
955	0.168
956	0.168
956	0.168
957	0.168
957	0.167
957	0.167
958	0.167
958	0.167
959	0.166
959	0.166
960	0.166
960	0.166
960	0.165
961	0.165
961	0.165
962	0.164
962	0.164
963	0.164
963	0.164
963	0.164
964	0.164
964	0.164
965	0.164
965	0.165
966	0.165
966	0.164
966	0.164
967	0.164
967	0.164
968	0.164
968	0.163
968	0.163
969	0.162
969	0.161
970	0.161
970	0.16
971	0.159
971	0.159
971	0.158
972	0.158
972	0.157
973	0.157
973	0.156
974	0.156
974	0.156
974	0.156
975	0.156
975	0.156
976	0.156
976	0.156
976	0.156
977	0.156
977	0.155
978	0.155
978	0.154
979	0.153
979	0.153
979	0.152
980	0.151
980	0.15
981	0.15
981	0.149
982	0.149
982	0.148
982	0.148
983	0.148
983	0.147
984	0.147
984	0.147
984	0.147
985	0.147
985	0.148
986	0.147
986	0.147
987	0.147
987	0.147
987	0.147
988	0.147
988	0.147
989	0.147
989	0.147
990	0.147
990	0.147
990	0.147
991	0.147
991	0.147
992	0.146
992	0.145
992	0.145
993	0.144
993	0.143
994	0.142
994	0.141
995	0.14
995	0.139
995	0.139
996	0.139
996	0.138
997	0.138
997	0.139
997	0.139
998	0.139
998	0.14
999	0.141
999	0.142
1000	0.142
1000	0.143
1000	0.143
1001	0.143
1001	0.143
1002	0.143
1002	0.143
1003	0.142
1003	0.142
1003	0.141
1004	0.14
1004	0.139
1005	0.138
1005	0.138
1005	0.137
1006	0.136
1006	0.136
1007	0.136
1007	0.135
1008	0.135
1008	0.135
1008	0.135
1009	0.135
1009	0.135
1010	0.135
1010	0.135
1010	0.135
1011	0.135
1011	0.134
1012	0.133
1012	0.133
1013	0.132
1013	0.132
1013	0.131
1014	0.13
1014	0.13
1015	0.129
1015	0.129
1016	0.129
1016	0.129
1016	0.129
1017	0.129
1017	0.128
1018	0.129
1018	0.128
1018	0.129
1019	0.128
1019	0.129
1020	0.128
1020	0.128
1021	0.128
1021	0.129
1021	0.129
1022	0.129
1022	0.129
1023	0.129
1023	0.129
1023	0.129
1024	0.129
1024	0.129
1025	0.129
1025	0.129
1026	0.129
1026	0.128
1026	0.128
1027	0.128
1027	0.128
1028	0.128
1028	0.128
1028	0.128
1029	0.128
1029	0.128
1030	0.128
1030	0.129
1031	0.129
1031	0.13
1031	0.13
1032	0.13
1032	0.13
1033	0.13
1033	0.129
1033	0.129
1034	0.129
1034	0.128
1035	0.128
1035	0.128
1036	0.127
1036	0.127
1036	0.127
1037	0.126
1037	0.126
1038	0.126
1038	0.126
1039	0.126
1039	0.125
1039	0.126
1040	0.125
1040	0.125
1041	0.126
1041	0.125
1041	0.125
1042	0.125
1042	0.125
1043	0.124
1043	0.124
1044	0.124
1044	0.124
1044	0.124
1045	0.124
1045	0.123
1046	0.123
1046	0.123
1046	0.123
1047	0.123
1047	0.123
1048	0.123
1048	0.123
1049	0.123
1049	0.123
1049	0.122
1050	0.122
1050	0.121
1051	0.121
1051	0.12
1051	0.119
1052	0.119
1052	0.118
1053	0.117
1053	0.117
1053	0.116
1054	0.115
1054	0.115
1055	0.115
1055	0.114
1056	0.113
1056	0.113
1056	0.112
1057	0.111
1057	0.11
1058	0.109
1058	0.108
1058	0.107
1059	0.106
1059	0.106
1060	0.105
1060	0.104
1061	0.104
1061	0.103
1061	0.103
1062	0.102
1062	0.102
1063	0.102
1063	0.101
1063	0.101
1064	0.101
1064	0.1
1065	0.1
1065	0.1
1066	0.099
1066	0.099
1066	0.099
1067	0.098
1067	0.098
1068	0.097
1068	0.097
1068	0.097
1069	0.096
1069	0.096
1070	0.096
1070	0.095
1071	0.095
1071	0.094
1071	0.094
1072	0.094
1072	0.094
1073	0.094
1073	0.094
1073	0.094
1074	0.095
1074	0.095
1075	0.095
1075	0.096
1076	0.097
1076	0.097
1076	0.097
1077	0.097
1077	0.097
1078	0.097
1078	0.097
1078	0.097
1079	0.097
1079	0.096
1080	0.095
1080	0.096
1080	0.095
1081	0.095
1081	0.096
1082	0.096
1082	0.096
1083	0.095
1083	0.095
1083	0.095
1084	0.094
1084	0.095
1085	0.094
1085	0.094
1085	0.094
1086	0.094
1086	0.093
1087	0.093
1087	0.093
1088	0.092
1088	0.092
1088	0.092
1089	0.091
1089	0.091
1090	0.091
1090	0.09
1090	0.089
1091	0.089
1091	0.089
1092	0.089
1092	0.089
1092	0.089
1093	0.088
1093	0.089
1094	0.088
1094	0.088
1095	0.088
1095	0.088
1095	0.087
1096	0.086
1096	0.085
1097	0.085
1097	0.084
1097	0.083
1098	0.082
1098	0.081
1099	0.079
1099	0.078
1100	0.076
1100	0.074
1100	0.073
1101	0.072
1101	0.07
1102	0.069
1102	0.067
1102	0.065
1103	0.064
1103	0.064
1104	0.063
1104	0.063
1104	0.062
1105	0.061
1105	0.059
1106	0.058
1106	0.057
1107	0.057
1107	0.055
1107	0.054
1108	0.054
1108	0.052
1109	0.051
1109	0.05
1109	0.05
1110	0.052
1110	0.052
1111	0.048
1111	0.042
