Data from reversibility-20sec_Absorbance__7906__000000000007906.txt Node

Date: Thu Dec 07 08:08:26 CET 2023
User: Marek
Spectrometer: MAYP115816
Trigger mode: 0
Integration Time (sec): 2.000000E-1
Scans to average: 10
Electric dark correction enabled: true
Nonlinearity correction enabled: true
Boxcar width: 5
XAxis mode: Wavelengths
Number of Pixels in Spectrum: 2068
>>>>>Begin Spectral Data<<<<<
199	-0.083
199	-0.052
200	0
200	0.054
201	0.082
201	0.099
202	0.102
202	0.113
203	0.122
203	0.125
204	0.135
204	0.148
205	0.157
205	0.167
205	0.165
206	0.164
206	0.164
207	0.166
207	0.166
208	0.164
208	0.165
209	0.168
209	0.167
210	0.168
210	0.166
211	0.167
211	0.17
212	0.166
212	0.171
213	0.172
213	0.173
213	0.173
214	0.179
214	0.182
215	0.184
215	0.182
216	0.183
216	0.179
217	0.186
217	0.188
218	0.191
218	0.195
219	0.202
219	0.2
220	0.205
220	0.208
221	0.21
221	0.212
221	0.221
222	0.224
222	0.226
223	0.23
223	0.231
224	0.236
224	0.242
225	0.247
225	0.255
226	0.264
226	0.277
227	0.284
227	0.296
228	0.311
228	0.33
229	0.348
229	0.368
229	0.391
230	0.413
230	0.441
231	0.473
231	0.509
232	0.546
232	0.591
233	0.633
233	0.675
234	0.725
234	0.779
235	0.833
235	0.889
236	0.938
236	0.987
236	1.037
237	1.089
237	1.135
238	1.182
238	1.233
239	1.281
239	1.32
240	1.358
240	1.391
241	1.428
241	1.465
242	1.497
242	1.528
243	1.556
243	1.581
243	1.603
244	1.623
244	1.647
245	1.663
245	1.687
246	1.704
246	1.72
247	1.732
247	1.745
248	1.761
248	1.774
249	1.783
249	1.789
250	1.795
250	1.802
250	1.804
251	1.808
251	1.81
252	1.814
252	1.813
253	1.812
253	1.809
254	1.806
254	1.807
255	1.805
255	1.804
256	1.803
256	1.802
257	1.8
257	1.801
258	1.802
258	1.8
258	1.801
259	1.8
259	1.801
260	1.8
260	1.803
261	1.803
261	1.806
262	1.81
262	1.811
263	1.813
263	1.815
264	1.816
264	1.818
265	1.818
265	1.818
265	1.817
266	1.817
266	1.817
267	1.814
267	1.814
268	1.814
268	1.814
269	1.815
269	1.813
270	1.813
270	1.813
271	1.811
271	1.81
272	1.807
272	1.805
272	1.801
273	1.795
273	1.789
274	1.782
274	1.776
275	1.77
275	1.762
276	1.754
276	1.745
277	1.738
277	1.726
278	1.715
278	1.702
278	1.686
279	1.669
279	1.648
280	1.619
280	1.586
281	1.547
281	1.504
282	1.459
282	1.413
283	1.369
283	1.325
284	1.282
284	1.242
285	1.204
285	1.17
285	1.139
286	1.113
286	1.089
287	1.069
287	1.052
288	1.037
288	1.025
289	1.014
289	1.005
290	0.997
290	0.99
291	0.984
291	0.979
292	0.975
292	0.971
292	0.967
293	0.963
293	0.959
294	0.955
294	0.952
295	0.949
295	0.946
296	0.943
296	0.94
297	0.937
297	0.934
298	0.93
298	0.928
298	0.925
299	0.922
299	0.919
300	0.916
300	0.914
301	0.911
301	0.908
302	0.905
302	0.903
303	0.901
303	0.898
304	0.896
304	0.894
305	0.891
305	0.889
305	0.887
306	0.885
306	0.882
307	0.88
307	0.878
308	0.875
308	0.873
309	0.87
309	0.867
310	0.864
310	0.861
311	0.858
311	0.855
311	0.852
312	0.848
312	0.845
313	0.841
313	0.837
314	0.834
314	0.829
315	0.825
315	0.821
316	0.817
316	0.812
317	0.807
317	0.802
318	0.797
318	0.792
318	0.787
319	0.781
319	0.776
320	0.77
320	0.764
321	0.758
321	0.752
322	0.745
322	0.739
323	0.733
323	0.726
324	0.72
324	0.713
324	0.706
325	0.699
325	0.692
326	0.685
326	0.678
327	0.671
327	0.663
328	0.656
328	0.649
329	0.642
329	0.634
330	0.627
330	0.62
330	0.613
331	0.606
331	0.599
332	0.591
332	0.584
333	0.577
333	0.57
334	0.563
334	0.556
335	0.549
335	0.542
336	0.535
336	0.528
336	0.521
337	0.514
337	0.508
338	0.501
338	0.495
339	0.489
339	0.483
340	0.477
340	0.471
341	0.465
341	0.459
342	0.454
342	0.449
342	0.443
343	0.438
343	0.433
344	0.428
344	0.423
345	0.418
345	0.413
346	0.408
346	0.403
347	0.399
347	0.394
348	0.39
348	0.386
348	0.382
349	0.378
349	0.374
350	0.371
350	0.367
351	0.364
351	0.36
352	0.357
352	0.354
353	0.351
353	0.349
354	0.346
354	0.343
354	0.34
355	0.337
355	0.335
356	0.332
356	0.329
357	0.326
357	0.323
358	0.321
358	0.318
359	0.316
359	0.313
360	0.311
360	0.309
360	0.307
361	0.305
361	0.304
362	0.302
362	0.3
363	0.299
363	0.297
364	0.295
364	0.293
365	0.291
365	0.289
366	0.287
366	0.286
366	0.284
367	0.282
367	0.281
368	0.279
368	0.278
369	0.277
369	0.275
370	0.274
370	0.273
371	0.271
371	0.27
372	0.269
372	0.268
372	0.267
373	0.266
373	0.265
374	0.264
374	0.263
375	0.263
375	0.262
376	0.261
376	0.26
377	0.259
377	0.258
378	0.257
378	0.256
378	0.255
379	0.255
379	0.254
380	0.253
380	0.253
381	0.252
381	0.251
382	0.251
382	0.251
383	0.25
383	0.25
383	0.249
384	0.249
384	0.248
385	0.248
385	0.247
386	0.247
386	0.247
387	0.246
387	0.246
388	0.246
388	0.245
389	0.245
389	0.245
389	0.244
390	0.244
390	0.244
391	0.243
391	0.243
392	0.243
392	0.243
393	0.242
393	0.242
394	0.241
394	0.241
394	0.24
395	0.24
395	0.24
396	0.24
396	0.239
397	0.239
397	0.238
398	0.238
398	0.238
399	0.238
399	0.238
400	0.237
400	0.237
400	0.237
401	0.237
401	0.237
402	0.236
402	0.236
403	0.236
403	0.236
404	0.236
404	0.235
405	0.235
405	0.235
405	0.235
406	0.235
406	0.234
407	0.234
407	0.234
408	0.234
408	0.233
409	0.233
409	0.233
410	0.233
410	0.233
411	0.232
411	0.232
411	0.232
412	0.232
412	0.231
413	0.231
413	0.231
414	0.23
414	0.23
415	0.23
415	0.229
416	0.229
416	0.229
416	0.229
417	0.228
417	0.228
418	0.228
418	0.227
419	0.227
419	0.227
420	0.226
420	0.226
421	0.225
421	0.225
421	0.224
422	0.224
422	0.223
423	0.223
423	0.223
424	0.222
424	0.222
425	0.222
425	0.222
426	0.222
426	0.221
427	0.221
427	0.221
427	0.22
428	0.22
428	0.22
429	0.219
429	0.219
430	0.218
430	0.218
431	0.218
431	0.218
432	0.218
432	0.217
432	0.217
433	0.217
433	0.216
434	0.216
434	0.217
435	0.216
435	0.216
436	0.216
436	0.216
437	0.215
437	0.215
437	0.215
438	0.215
438	0.214
439	0.214
439	0.214
440	0.213
440	0.213
441	0.213
441	0.212
442	0.212
442	0.212
442	0.212
443	0.211
443	0.211
444	0.211
444	0.211
445	0.211
445	0.211
446	0.21
446	0.21
447	0.21
447	0.21
447	0.21
448	0.21
448	0.209
449	0.209
449	0.209
450	0.209
450	0.209
451	0.209
451	0.208
452	0.208
452	0.208
452	0.208
453	0.208
453	0.207
454	0.207
454	0.207
455	0.206
455	0.206
456	0.206
456	0.206
457	0.205
457	0.205
458	0.205
458	0.204
458	0.204
459	0.204
459	0.203
460	0.203
460	0.203
461	0.203
461	0.203
462	0.203
462	0.203
463	0.203
463	0.202
463	0.202
464	0.202
464	0.201
465	0.201
465	0.201
466	0.2
466	0.2
467	0.2
467	0.2
467	0.2
468	0.2
468	0.2
469	0.2
469	0.2
470	0.2
470	0.2
471	0.2
471	0.2
472	0.2
472	0.2
472	0.2
473	0.199
473	0.199
474	0.199
474	0.199
475	0.198
475	0.198
476	0.198
476	0.198
477	0.198
477	0.198
477	0.198
478	0.198
478	0.197
479	0.198
479	0.197
480	0.197
480	0.197
481	0.197
481	0.197
482	0.197
482	0.197
482	0.197
483	0.197
483	0.197
484	0.197
484	0.197
485	0.197
485	0.197
486	0.196
486	0.196
487	0.196
487	0.196
487	0.196
488	0.196
488	0.196
489	0.196
489	0.197
490	0.197
490	0.197
491	0.198
491	0.198
492	0.198
492	0.199
492	0.199
493	0.2
493	0.2
494	0.2
494	0.2
495	0.201
495	0.201
496	0.201
496	0.201
496	0.202
497	0.202
497	0.202
498	0.202
498	0.202
499	0.203
499	0.203
500	0.204
500	0.204
501	0.204
501	0.205
501	0.205
502	0.205
502	0.205
503	0.206
503	0.206
504	0.206
504	0.206
505	0.206
505	0.207
506	0.207
506	0.207
506	0.208
507	0.208
507	0.208
508	0.209
508	0.209
509	0.209
509	0.21
510	0.21
510	0.21
511	0.21
511	0.211
511	0.211
512	0.212
512	0.212
513	0.212
513	0.212
514	0.213
514	0.213
515	0.214
515	0.214
515	0.214
516	0.215
516	0.215
517	0.215
517	0.216
518	0.216
518	0.216
519	0.216
519	0.216
520	0.216
520	0.217
520	0.217
521	0.217
521	0.217
522	0.217
522	0.218
523	0.218
523	0.218
524	0.218
524	0.218
524	0.219
525	0.219
525	0.219
526	0.219
526	0.22
527	0.22
527	0.22
528	0.22
528	0.22
529	0.22
529	0.22
529	0.22
530	0.22
530	0.22
531	0.22
531	0.219
532	0.219
532	0.219
533	0.219
533	0.219
533	0.219
534	0.219
534	0.219
535	0.219
535	0.219
536	0.219
536	0.219
537	0.219
537	0.219
538	0.219
538	0.219
538	0.219
539	0.219
539	0.219
540	0.219
540	0.219
541	0.219
541	0.218
542	0.218
542	0.219
542	0.219
543	0.218
543	0.219
544	0.218
544	0.218
545	0.218
545	0.218
546	0.218
546	0.217
547	0.217
547	0.216
547	0.216
548	0.216
548	0.216
549	0.215
549	0.215
550	0.215
550	0.215
551	0.215
551	0.215
551	0.215
552	0.215
552	0.215
553	0.214
553	0.214
554	0.214
554	0.213
555	0.213
555	0.212
556	0.212
556	0.212
556	0.212
557	0.212
557	0.212
558	0.212
558	0.212
559	0.212
559	0.212
560	0.212
560	0.212
560	0.212
561	0.212
561	0.212
562	0.211
562	0.211
563	0.21
563	0.209
564	0.208
564	0.208
564	0.208
565	0.208
565	0.207
566	0.207
566	0.207
567	0.207
567	0.207
568	0.207
568	0.207
568	0.207
569	0.207
569	0.206
570	0.205
570	0.205
571	0.204
571	0.204
572	0.203
572	0.203
573	0.202
573	0.202
573	0.202
574	0.201
574	0.201
575	0.201
575	0.201
576	0.201
576	0.2
577	0.199
577	0.199
577	0.198
578	0.198
578	0.198
579	0.198
579	0.199
580	0.198
580	0.197
581	0.197
581	0.197
581	0.197
582	0.197
582	0.197
583	0.197
583	0.197
584	0.196
584	0.195
585	0.195
585	0.195
585	0.194
586	0.194
586	0.194
587	0.193
587	0.193
588	0.193
588	0.193
589	0.193
589	0.193
590	0.193
590	0.193
590	0.193
591	0.193
591	0.192
592	0.192
592	0.191
593	0.191
593	0.191
594	0.19
594	0.189
594	0.189
595	0.189
595	0.188
596	0.188
596	0.188
597	0.189
597	0.189
598	0.189
598	0.189
598	0.189
599	0.189
599	0.188
600	0.188
600	0.188
601	0.187
601	0.187
602	0.186
602	0.186
602	0.186
603	0.186
603	0.186
604	0.186
604	0.186
605	0.186
605	0.186
606	0.186
606	0.185
606	0.185
607	0.184
607	0.184
608	0.183
608	0.183
609	0.182
609	0.182
610	0.182
610	0.181
610	0.181
611	0.182
611	0.182
612	0.182
612	0.182
613	0.182
613	0.182
614	0.182
614	0.182
614	0.182
615	0.182
615	0.182
616	0.182
616	0.182
617	0.182
617	0.182
618	0.182
618	0.182
618	0.182
619	0.182
619	0.182
620	0.182
620	0.182
621	0.181
621	0.181
622	0.18
622	0.18
622	0.18
623	0.179
623	0.179
624	0.179
624	0.178
625	0.178
625	0.178
626	0.178
626	0.178
626	0.178
627	0.178
627	0.178
628	0.178
628	0.178
629	0.178
629	0.178
630	0.178
630	0.178
630	0.178
631	0.178
631	0.177
632	0.177
632	0.177
633	0.177
633	0.177
634	0.177
634	0.177
634	0.177
635	0.177
635	0.176
636	0.176
636	0.176
637	0.176
637	0.176
638	0.176
638	0.175
638	0.175
639	0.174
639	0.174
640	0.174
640	0.173
641	0.173
641	0.173
642	0.172
642	0.172
642	0.173
643	0.173
643	0.173
644	0.173
644	0.174
645	0.174
645	0.175
646	0.175
646	0.176
646	0.176
647	0.176
647	0.176
648	0.175
648	0.175
649	0.174
649	0.174
650	0.174
650	0.174
650	0.174
651	0.173
651	0.173
652	0.174
652	0.174
653	0.174
653	0.176
653	0.181
654	0.143
654	0.114
655	0.115
655	0.115
656	0.115
656	0.116
657	0.116
657	0.116
657	0.116
658	0.115
658	0.106
659	0.133
659	0.17
660	0.175
660	0.175
661	0.174
661	0.173
661	0.173
662	0.173
662	0.172
663	0.172
663	0.172
664	0.172
664	0.172
665	0.172
665	0.172
665	0.172
666	0.173
666	0.173
667	0.173
667	0.173
668	0.173
668	0.173
669	0.173
669	0.174
669	0.174
670	0.174
670	0.174
671	0.174
671	0.173
672	0.173
672	0.172
672	0.172
673	0.172
673	0.172
674	0.172
674	0.171
675	0.171
675	0.171
676	0.171
676	0.171
676	0.171
677	0.172
677	0.172
678	0.172
678	0.172
679	0.172
679	0.172
680	0.172
680	0.172
680	0.172
681	0.172
681	0.172
682	0.172
682	0.172
683	0.172
683	0.172
684	0.172
684	0.172
684	0.171
685	0.171
685	0.171
686	0.171
686	0.171
687	0.171
687	0.171
687	0.172
688	0.172
688	0.173
689	0.174
689	0.175
690	0.175
690	0.174
691	0.174
691	0.174
691	0.174
692	0.174
692	0.174
693	0.175
693	0.175
694	0.174
694	0.174
695	0.175
695	0.176
695	0.176
696	0.177
696	0.177
697	0.177
697	0.177
698	0.176
698	0.176
698	0.176
699	0.176
699	0.175
700	0.175
700	0.174
701	0.174
701	0.174
702	0.173
702	0.172
702	0.172
703	0.172
703	0.171
704	0.171
704	0.17
705	0.17
705	0.17
705	0.17
706	0.17
706	0.17
707	0.17
707	0.171
708	0.171
708	0.172
709	0.172
709	0.172
709	0.172
710	0.172
710	0.173
711	0.173
711	0.174
712	0.174
712	0.174
713	0.175
713	0.175
713	0.175
714	0.175
714	0.175
715	0.175
715	0.175
716	0.174
716	0.174
716	0.173
717	0.173
717	0.172
718	0.172
718	0.172
719	0.172
719	0.172
720	0.173
720	0.173
720	0.174
721	0.175
721	0.176
722	0.177
722	0.177
723	0.178
723	0.178
723	0.178
724	0.178
724	0.177
725	0.176
725	0.176
726	0.175
726	0.174
727	0.174
727	0.173
727	0.173
728	0.173
728	0.173
729	0.173
729	0.173
730	0.174
730	0.174
730	0.174
731	0.175
731	0.175
732	0.176
732	0.176
733	0.176
733	0.176
734	0.176
734	0.177
734	0.177
735	0.177
735	0.177
736	0.177
736	0.177
737	0.177
737	0.177
737	0.176
738	0.176
738	0.175
739	0.175
739	0.175
740	0.175
740	0.175
741	0.176
741	0.176
741	0.177
742	0.177
742	0.178
743	0.179
743	0.18
744	0.181
744	0.181
744	0.182
745	0.182
745	0.182
746	0.181
746	0.181
747	0.181
747	0.181
748	0.18
748	0.18
748	0.18
749	0.18
749	0.18
750	0.181
750	0.181
751	0.181
751	0.182
751	0.182
752	0.182
752	0.182
753	0.181
753	0.181
754	0.181
754	0.18
754	0.18
755	0.18
755	0.18
756	0.179
756	0.179
757	0.178
757	0.178
758	0.178
758	0.178
758	0.178
759	0.178
759	0.178
760	0.178
760	0.177
761	0.178
761	0.178
761	0.179
762	0.179
762	0.179
763	0.179
763	0.179
764	0.179
764	0.18
764	0.18
765	0.179
765	0.179
766	0.179
766	0.179
767	0.179
767	0.178
768	0.178
768	0.178
768	0.179
769	0.179
769	0.179
770	0.18
770	0.18
771	0.18
771	0.181
771	0.181
772	0.181
772	0.182
773	0.182
773	0.182
774	0.182
774	0.182
775	0.183
775	0.183
775	0.183
776	0.183
776	0.184
777	0.185
777	0.185
778	0.185
778	0.185
778	0.185
779	0.186
779	0.185
780	0.184
780	0.184
781	0.183
781	0.182
781	0.182
782	0.181
782	0.181
783	0.181
783	0.181
784	0.181
784	0.182
784	0.182
785	0.183
785	0.183
786	0.184
786	0.184
787	0.184
787	0.184
788	0.184
788	0.184
788	0.183
789	0.183
789	0.184
790	0.184
790	0.184
791	0.184
791	0.184
791	0.184
792	0.185
792	0.185
793	0.185
793	0.185
794	0.185
794	0.185
794	0.185
795	0.185
795	0.185
796	0.185
796	0.185
797	0.185
797	0.185
797	0.185
798	0.185
798	0.185
799	0.185
799	0.185
800	0.185
800	0.184
801	0.185
801	0.185
801	0.185
802	0.186
802	0.186
803	0.187
803	0.187
804	0.188
804	0.188
804	0.188
805	0.188
805	0.188
806	0.188
806	0.187
807	0.187
807	0.187
807	0.187
808	0.187
808	0.187
809	0.186
809	0.186
810	0.186
810	0.187
810	0.187
811	0.187
811	0.188
812	0.189
812	0.189
813	0.19
813	0.19
813	0.191
814	0.192
814	0.192
815	0.193
815	0.192
816	0.192
816	0.192
817	0.191
817	0.191
817	0.19
818	0.19
818	0.19
819	0.189
819	0.189
820	0.188
820	0.188
820	0.188
821	0.188
821	0.189
822	0.189
822	0.189
823	0.189
823	0.189
823	0.19
824	0.191
824	0.192
825	0.193
825	0.194
826	0.195
826	0.195
826	0.196
827	0.197
827	0.197
828	0.198
828	0.198
829	0.198
829	0.198
829	0.198
830	0.198
830	0.199
831	0.199
831	0.199
832	0.199
832	0.199
832	0.199
833	0.199
833	0.199
834	0.198
834	0.198
835	0.198
835	0.197
835	0.197
836	0.197
836	0.197
837	0.196
837	0.195
838	0.195
838	0.194
839	0.193
839	0.192
839	0.191
840	0.19
840	0.189
841	0.189
841	0.188
842	0.187
842	0.186
842	0.186
843	0.185
843	0.185
844	0.185
844	0.185
845	0.185
845	0.185
845	0.185
846	0.186
846	0.186
847	0.187
847	0.187
848	0.187
848	0.187
848	0.187
849	0.186
849	0.186
850	0.185
850	0.185
851	0.184
851	0.184
851	0.183
852	0.183
852	0.183
853	0.183
853	0.183
854	0.184
854	0.185
854	0.186
855	0.187
855	0.188
856	0.189
856	0.19
857	0.191
857	0.192
857	0.193
858	0.194
858	0.194
859	0.194
859	0.194
860	0.194
860	0.194
860	0.194
861	0.194
861	0.193
862	0.192
862	0.191
863	0.191
863	0.19
863	0.19
864	0.19
864	0.189
865	0.189
865	0.189
866	0.189
866	0.189
866	0.189
867	0.189
867	0.19
868	0.19
868	0.189
869	0.189
869	0.189
869	0.188
870	0.188
870	0.188
871	0.188
871	0.188
872	0.188
872	0.188
872	0.188
873	0.188
873	0.187
874	0.187
874	0.187
875	0.186
875	0.186
875	0.186
876	0.185
876	0.185
877	0.184
877	0.184
878	0.184
878	0.184
878	0.184
879	0.184
879	0.184
880	0.184
880	0.184
881	0.185
881	0.185
881	0.185
882	0.185
882	0.185
883	0.186
883	0.186
884	0.186
884	0.187
884	0.187
885	0.187
885	0.187
886	0.187
886	0.187
887	0.187
887	0.187
887	0.187
888	0.186
888	0.186
889	0.186
889	0.186
890	0.186
890	0.187
890	0.187
891	0.187
891	0.187
892	0.187
892	0.188
893	0.188
893	0.188
893	0.187
894	0.187
894	0.186
895	0.185
895	0.184
895	0.184
896	0.184
896	0.183
897	0.182
897	0.182
898	0.181
898	0.18
898	0.18
899	0.179
899	0.179
900	0.178
900	0.178
901	0.178
901	0.178
901	0.178
902	0.178
902	0.178
903	0.178
903	0.178
904	0.178
904	0.178
904	0.178
905	0.178
905	0.178
906	0.178
906	0.178
907	0.177
907	0.177
907	0.177
908	0.177
908	0.177
909	0.176
909	0.176
910	0.175
910	0.175
910	0.174
911	0.173
911	0.173
912	0.172
912	0.171
913	0.171
913	0.17
913	0.17
914	0.17
914	0.169
915	0.169
915	0.169
916	0.169
916	0.169
916	0.169
917	0.169
917	0.169
918	0.169
918	0.169
918	0.169
919	0.169
919	0.168
920	0.168
920	0.168
921	0.168
921	0.168
921	0.168
922	0.168
922	0.168
923	0.168
923	0.168
924	0.169
924	0.169
924	0.169
925	0.169
925	0.169
926	0.169
926	0.169
927	0.169
927	0.169
927	0.169
928	0.169
928	0.17
929	0.17
929	0.17
930	0.17
930	0.17
930	0.169
931	0.169
931	0.168
932	0.168
932	0.168
933	0.167
933	0.167
933	0.166
934	0.166
934	0.165
935	0.165
935	0.164
935	0.164
936	0.163
936	0.163
937	0.163
937	0.162
938	0.162
938	0.161
938	0.16
939	0.16
939	0.159
940	0.158
940	0.158
941	0.158
941	0.158
941	0.159
942	0.159
942	0.159
943	0.16
943	0.16
944	0.16
944	0.16
944	0.161
945	0.161
945	0.161
946	0.16
946	0.16
946	0.16
947	0.16
947	0.159
948	0.159
948	0.159
949	0.158
949	0.158
949	0.157
950	0.157
950	0.156
951	0.156
951	0.155
952	0.154
952	0.153
952	0.153
953	0.152
953	0.152
954	0.151
954	0.151
955	0.151
955	0.151
955	0.151
956	0.152
956	0.153
957	0.154
957	0.155
957	0.156
958	0.157
958	0.157
959	0.158
959	0.159
960	0.159
960	0.159
960	0.159
961	0.159
961	0.159
962	0.158
962	0.158
963	0.157
963	0.157
963	0.156
964	0.156
964	0.155
965	0.155
965	0.154
966	0.154
966	0.154
966	0.154
967	0.154
967	0.154
968	0.154
968	0.154
968	0.154
969	0.154
969	0.153
970	0.153
970	0.152
971	0.151
971	0.15
971	0.149
972	0.148
972	0.147
973	0.146
973	0.146
974	0.146
974	0.145
974	0.145
975	0.145
975	0.145
976	0.145
976	0.146
976	0.146
977	0.146
977	0.146
978	0.146
978	0.146
979	0.146
979	0.146
979	0.146
980	0.146
980	0.146
981	0.146
981	0.146
982	0.146
982	0.146
982	0.147
983	0.147
983	0.147
984	0.147
984	0.147
984	0.146
985	0.146
985	0.146
986	0.145
986	0.145
987	0.144
987	0.144
987	0.143
988	0.143
988	0.142
989	0.142
989	0.141
990	0.141
990	0.141
990	0.141
991	0.14
991	0.14
992	0.14
992	0.139
992	0.138
993	0.138
993	0.137
994	0.136
994	0.136
995	0.135
995	0.135
995	0.135
996	0.134
996	0.134
997	0.135
997	0.135
997	0.135
998	0.136
998	0.136
999	0.137
999	0.137
1000	0.138
1000	0.139
1000	0.14
1001	0.14
1001	0.14
1002	0.14
1002	0.14
1003	0.141
1003	0.141
1003	0.14
1004	0.14
1004	0.139
1005	0.138
1005	0.138
1005	0.138
1006	0.137
1006	0.137
1007	0.137
1007	0.136
1008	0.136
1008	0.136
1008	0.136
1009	0.136
1009	0.135
1010	0.135
1010	0.135
1010	0.134
1011	0.133
1011	0.133
1012	0.132
1012	0.132
1013	0.131
1013	0.131
1013	0.13
1014	0.13
1014	0.129
1015	0.129
1015	0.129
1016	0.129
1016	0.129
1016	0.129
1017	0.129
1017	0.129
1018	0.129
1018	0.129
1018	0.129
1019	0.129
1019	0.129
1020	0.128
1020	0.129
1021	0.129
1021	0.129
1021	0.13
1022	0.13
1022	0.13
1023	0.13
1023	0.13
1023	0.131
1024	0.131
1024	0.131
1025	0.131
1025	0.131
1026	0.131
1026	0.131
1026	0.13
1027	0.13
1027	0.131
1028	0.13
1028	0.13
1028	0.13
1029	0.13
1029	0.13
1030	0.13
1030	0.13
1031	0.13
1031	0.129
1031	0.129
1032	0.129
1032	0.129
1033	0.129
1033	0.129
1033	0.129
1034	0.129
1034	0.129
1035	0.129
1035	0.129
1036	0.129
1036	0.128
1036	0.128
1037	0.128
1037	0.128
1038	0.127
1038	0.127
1039	0.127
1039	0.126
1039	0.126
1040	0.126
1040	0.125
1041	0.125
1041	0.125
1041	0.125
1042	0.124
1042	0.124
1043	0.124
1043	0.124
1044	0.124
1044	0.123
1044	0.123
1045	0.123
1045	0.122
1046	0.122
1046	0.121
1046	0.121
1047	0.121
1047	0.121
1048	0.12
1048	0.12
1049	0.12
1049	0.12
1049	0.12
1050	0.119
1050	0.119
1051	0.118
1051	0.118
1051	0.117
1052	0.117
1052	0.116
1053	0.115
1053	0.115
1053	0.114
1054	0.114
1054	0.114
1055	0.113
1055	0.113
1056	0.112
1056	0.112
1056	0.111
1057	0.111
1057	0.11
1058	0.11
1058	0.109
1058	0.108
1059	0.108
1059	0.107
1060	0.107
1060	0.107
1061	0.106
1061	0.106
1061	0.106
1062	0.106
1062	0.106
1063	0.106
1063	0.106
1063	0.106
1064	0.106
1064	0.106
1065	0.106
1065	0.105
1066	0.105
1066	0.105
1066	0.105
1067	0.104
1067	0.104
1068	0.104
1068	0.104
1068	0.104
1069	0.104
1069	0.104
1070	0.104
1070	0.103
1071	0.103
1071	0.103
1071	0.103
1072	0.103
1072	0.103
1073	0.102
1073	0.102
1073	0.102
1074	0.102
1074	0.102
1075	0.102
1075	0.102
1076	0.102
1076	0.103
1076	0.103
1077	0.104
1077	0.104
1078	0.103
1078	0.104
1078	0.103
1079	0.103
1079	0.103
1080	0.103
1080	0.103
1080	0.102
1081	0.102
1081	0.102
1082	0.102
1082	0.103
1083	0.102
1083	0.102
1083	0.102
1084	0.102
1084	0.103
1085	0.103
1085	0.103
1085	0.103
1086	0.103
1086	0.103
1087	0.103
1087	0.102
1088	0.102
1088	0.102
1088	0.102
1089	0.101
1089	0.1
1090	0.099
1090	0.099
1090	0.098
1091	0.098
1091	0.097
1092	0.097
1092	0.097
1092	0.097
1093	0.097
1093	0.097
1094	0.097
1094	0.097
1095	0.097
1095	0.097
1095	0.096
1096	0.096
1096	0.095
1097	0.094
1097	0.093
1097	0.093
1098	0.092
1098	0.091
1099	0.09
1099	0.089
1100	0.088
1100	0.087
1100	0.087
1101	0.086
1101	0.085
1102	0.084
1102	0.083
1102	0.083
1103	0.083
1103	0.083
1104	0.083
1104	0.082
1104	0.082
1105	0.08
1105	0.079
1106	0.078
1106	0.078
1107	0.078
1107	0.077
1107	0.077
1108	0.076
1108	0.075
1109	0.074
1109	0.074
1109	0.074
1110	0.075
1110	0.077
1111	0.076
1111	0.074
