Data from reversibility-20sec_Absorbance__6691__000000000006691.txt Node

Date: Thu Dec 07 01:23:26 CET 2023
User: Marek
Spectrometer: MAYP115816
Trigger mode: 0
Integration Time (sec): 2.000000E-1
Scans to average: 10
Electric dark correction enabled: true
Nonlinearity correction enabled: true
Boxcar width: 5
XAxis mode: Wavelengths
Number of Pixels in Spectrum: 2068
>>>>>Begin Spectral Data<<<<<
199	-0.119
199	-0.106
200	-0.035
200	0.016
201	0.045
201	0.059
202	0.072
202	0.079
203	0.087
203	0.089
204	0.099
204	0.111
205	0.126
205	0.131
205	0.13
206	0.128
206	0.13
207	0.13
207	0.13
208	0.127
208	0.13
209	0.135
209	0.133
210	0.133
210	0.133
211	0.135
211	0.138
212	0.136
212	0.139
213	0.146
213	0.15
213	0.147
214	0.151
214	0.153
215	0.154
215	0.156
216	0.157
216	0.157
217	0.16
217	0.162
218	0.159
218	0.164
219	0.169
219	0.169
220	0.172
220	0.17
221	0.168
221	0.169
221	0.175
222	0.178
222	0.182
223	0.185
223	0.186
224	0.189
224	0.194
225	0.201
225	0.215
226	0.224
226	0.237
227	0.245
227	0.256
228	0.269
228	0.285
229	0.303
229	0.329
229	0.354
230	0.38
230	0.41
231	0.442
231	0.48
232	0.519
232	0.564
233	0.607
233	0.658
234	0.709
234	0.761
235	0.816
235	0.87
236	0.919
236	0.972
236	1.022
237	1.074
237	1.12
238	1.171
238	1.218
239	1.263
239	1.302
240	1.341
240	1.376
241	1.412
241	1.444
242	1.474
242	1.508
243	1.537
243	1.561
243	1.584
244	1.605
244	1.625
245	1.641
245	1.663
246	1.68
246	1.695
247	1.706
247	1.719
248	1.731
248	1.744
249	1.755
249	1.763
250	1.77
250	1.777
250	1.778
251	1.782
251	1.784
252	1.789
252	1.79
253	1.789
253	1.786
254	1.785
254	1.783
255	1.782
255	1.781
256	1.781
256	1.781
257	1.781
257	1.78
258	1.779
258	1.779
258	1.778
259	1.777
259	1.778
260	1.778
260	1.779
261	1.78
261	1.783
262	1.786
262	1.786
263	1.789
263	1.79
264	1.792
264	1.794
265	1.795
265	1.794
265	1.796
266	1.796
266	1.795
267	1.792
267	1.794
268	1.793
268	1.794
269	1.794
269	1.793
270	1.792
270	1.792
271	1.789
271	1.788
272	1.786
272	1.783
272	1.779
273	1.772
273	1.765
274	1.759
274	1.752
275	1.746
275	1.739
276	1.731
276	1.723
277	1.715
277	1.706
278	1.694
278	1.683
278	1.668
279	1.65
279	1.628
280	1.602
280	1.57
281	1.533
281	1.491
282	1.447
282	1.402
283	1.358
283	1.316
284	1.275
284	1.235
285	1.198
285	1.165
285	1.135
286	1.108
286	1.086
287	1.066
287	1.049
288	1.035
288	1.022
289	1.012
289	1.003
290	0.996
290	0.989
291	0.983
291	0.978
292	0.973
292	0.969
292	0.965
293	0.962
293	0.958
294	0.955
294	0.951
295	0.948
295	0.946
296	0.943
296	0.94
297	0.937
297	0.934
298	0.931
298	0.928
298	0.926
299	0.923
299	0.92
300	0.917
300	0.915
301	0.912
301	0.909
302	0.906
302	0.904
303	0.902
303	0.9
304	0.898
304	0.895
305	0.893
305	0.891
305	0.888
306	0.886
306	0.884
307	0.882
307	0.879
308	0.877
308	0.875
309	0.872
309	0.869
310	0.866
310	0.863
311	0.86
311	0.857
311	0.854
312	0.85
312	0.847
313	0.843
313	0.839
314	0.836
314	0.832
315	0.827
315	0.823
316	0.819
316	0.815
317	0.81
317	0.805
318	0.801
318	0.796
318	0.79
319	0.785
319	0.779
320	0.774
320	0.768
321	0.762
321	0.756
322	0.75
322	0.744
323	0.737
323	0.731
324	0.724
324	0.718
324	0.711
325	0.704
325	0.698
326	0.691
326	0.684
327	0.677
327	0.67
328	0.663
328	0.656
329	0.649
329	0.642
330	0.635
330	0.628
330	0.621
331	0.614
331	0.607
332	0.6
332	0.593
333	0.586
333	0.579
334	0.572
334	0.565
335	0.558
335	0.551
336	0.545
336	0.538
336	0.532
337	0.525
337	0.519
338	0.513
338	0.506
339	0.5
339	0.494
340	0.489
340	0.483
341	0.477
341	0.472
342	0.466
342	0.461
342	0.455
343	0.45
343	0.445
344	0.44
344	0.435
345	0.43
345	0.426
346	0.421
346	0.417
347	0.412
347	0.408
348	0.404
348	0.4
348	0.396
349	0.393
349	0.389
350	0.385
350	0.382
351	0.379
351	0.375
352	0.372
352	0.369
353	0.366
353	0.363
354	0.361
354	0.358
354	0.355
355	0.352
355	0.349
356	0.346
356	0.343
357	0.341
357	0.338
358	0.335
358	0.333
359	0.33
359	0.328
360	0.326
360	0.324
360	0.322
361	0.321
361	0.319
362	0.317
362	0.315
363	0.314
363	0.312
364	0.31
364	0.308
365	0.306
365	0.305
366	0.303
366	0.301
366	0.299
367	0.298
367	0.296
368	0.295
368	0.293
369	0.292
369	0.29
370	0.289
370	0.288
371	0.287
371	0.286
372	0.284
372	0.283
372	0.282
373	0.281
373	0.28
374	0.279
374	0.279
375	0.278
375	0.277
376	0.276
376	0.275
377	0.274
377	0.273
378	0.272
378	0.271
378	0.271
379	0.27
379	0.269
380	0.268
380	0.268
381	0.267
381	0.266
382	0.266
382	0.265
383	0.265
383	0.264
383	0.264
384	0.263
384	0.263
385	0.262
385	0.262
386	0.262
386	0.262
387	0.261
387	0.261
388	0.26
388	0.26
389	0.26
389	0.259
389	0.259
390	0.258
390	0.258
391	0.258
391	0.257
392	0.257
392	0.257
393	0.256
393	0.256
394	0.256
394	0.255
394	0.255
395	0.255
395	0.255
396	0.254
396	0.254
397	0.254
397	0.253
398	0.253
398	0.253
399	0.252
399	0.252
400	0.252
400	0.252
400	0.251
401	0.251
401	0.251
402	0.25
402	0.25
403	0.25
403	0.25
404	0.249
404	0.249
405	0.249
405	0.249
405	0.249
406	0.248
406	0.248
407	0.248
407	0.247
408	0.247
408	0.247
409	0.246
409	0.246
410	0.246
410	0.246
411	0.245
411	0.245
411	0.245
412	0.245
412	0.244
413	0.244
413	0.244
414	0.244
414	0.243
415	0.243
415	0.243
416	0.242
416	0.242
416	0.242
417	0.241
417	0.241
418	0.241
418	0.24
419	0.24
419	0.24
420	0.239
420	0.239
421	0.238
421	0.238
421	0.238
422	0.237
422	0.237
423	0.237
423	0.237
424	0.236
424	0.236
425	0.236
425	0.235
426	0.235
426	0.235
427	0.234
427	0.234
427	0.234
428	0.233
428	0.233
429	0.233
429	0.232
430	0.232
430	0.232
431	0.232
431	0.231
432	0.231
432	0.231
432	0.231
433	0.231
433	0.23
434	0.23
434	0.23
435	0.23
435	0.23
436	0.229
436	0.229
437	0.229
437	0.229
437	0.228
438	0.228
438	0.228
439	0.228
439	0.228
440	0.227
440	0.227
441	0.227
441	0.226
442	0.226
442	0.226
442	0.226
443	0.225
443	0.225
444	0.225
444	0.225
445	0.225
445	0.225
446	0.225
446	0.224
447	0.224
447	0.224
447	0.224
448	0.223
448	0.223
449	0.223
449	0.223
450	0.223
450	0.222
451	0.222
451	0.222
452	0.222
452	0.222
452	0.222
453	0.222
453	0.222
454	0.222
454	0.221
455	0.221
455	0.221
456	0.22
456	0.22
457	0.22
457	0.22
458	0.219
458	0.219
458	0.219
459	0.219
459	0.219
460	0.219
460	0.218
461	0.218
461	0.218
462	0.218
462	0.217
463	0.217
463	0.217
463	0.216
464	0.216
464	0.216
465	0.215
465	0.215
466	0.215
466	0.215
467	0.215
467	0.215
467	0.215
468	0.215
468	0.215
469	0.215
469	0.215
470	0.216
470	0.216
471	0.216
471	0.215
472	0.215
472	0.215
472	0.215
473	0.215
473	0.215
474	0.215
474	0.215
475	0.214
475	0.214
476	0.214
476	0.214
477	0.214
477	0.214
477	0.214
478	0.214
478	0.214
479	0.214
479	0.214
480	0.214
480	0.214
481	0.214
481	0.214
482	0.214
482	0.214
482	0.214
483	0.214
483	0.215
484	0.215
484	0.214
485	0.214
485	0.214
486	0.214
486	0.214
487	0.214
487	0.214
487	0.214
488	0.215
488	0.215
489	0.215
489	0.215
490	0.216
490	0.216
491	0.217
491	0.217
492	0.218
492	0.218
492	0.219
493	0.219
493	0.219
494	0.22
494	0.22
495	0.22
495	0.22
496	0.22
496	0.221
496	0.221
497	0.221
497	0.221
498	0.222
498	0.222
499	0.222
499	0.223
500	0.224
500	0.224
501	0.225
501	0.225
501	0.226
502	0.226
502	0.226
503	0.227
503	0.227
504	0.227
504	0.228
505	0.228
505	0.228
506	0.228
506	0.229
506	0.229
507	0.229
507	0.23
508	0.23
508	0.231
509	0.231
509	0.231
510	0.232
510	0.232
511	0.233
511	0.234
511	0.234
512	0.234
512	0.234
513	0.235
513	0.235
514	0.236
514	0.237
515	0.237
515	0.237
515	0.237
516	0.237
516	0.238
517	0.238
517	0.238
518	0.239
518	0.239
519	0.239
519	0.239
520	0.239
520	0.24
520	0.24
521	0.24
521	0.241
522	0.241
522	0.241
523	0.242
523	0.242
524	0.242
524	0.242
524	0.242
525	0.242
525	0.242
526	0.242
526	0.242
527	0.242
527	0.242
528	0.242
528	0.243
529	0.243
529	0.243
529	0.242
530	0.242
530	0.242
531	0.242
531	0.242
532	0.242
532	0.242
533	0.242
533	0.241
533	0.241
534	0.241
534	0.241
535	0.241
535	0.241
536	0.241
536	0.241
537	0.241
537	0.24
538	0.24
538	0.24
538	0.24
539	0.24
539	0.239
540	0.239
540	0.239
541	0.239
541	0.239
542	0.238
542	0.238
542	0.238
543	0.238
543	0.238
544	0.238
544	0.238
545	0.237
545	0.237
546	0.237
546	0.236
547	0.236
547	0.235
547	0.235
548	0.235
548	0.234
549	0.234
549	0.234
550	0.233
550	0.233
551	0.233
551	0.232
551	0.232
552	0.232
552	0.231
553	0.23
553	0.23
554	0.229
554	0.229
555	0.228
555	0.227
556	0.227
556	0.226
556	0.226
557	0.226
557	0.226
558	0.226
558	0.226
559	0.226
559	0.226
560	0.226
560	0.226
560	0.226
561	0.226
561	0.226
562	0.225
562	0.224
563	0.223
563	0.222
564	0.222
564	0.221
564	0.221
565	0.22
565	0.22
566	0.22
566	0.219
567	0.219
567	0.219
568	0.219
568	0.219
568	0.218
569	0.218
569	0.217
570	0.216
570	0.215
571	0.214
571	0.214
572	0.214
572	0.213
573	0.213
573	0.212
573	0.212
574	0.212
574	0.212
575	0.212
575	0.212
576	0.212
576	0.211
577	0.21
577	0.21
577	0.209
578	0.209
578	0.209
579	0.209
579	0.209
580	0.208
580	0.207
581	0.207
581	0.207
581	0.207
582	0.207
582	0.207
583	0.207
583	0.207
584	0.206
584	0.205
585	0.205
585	0.205
585	0.204
586	0.204
586	0.204
587	0.203
587	0.202
588	0.202
588	0.201
589	0.201
589	0.201
590	0.201
590	0.201
590	0.201
591	0.201
591	0.201
592	0.2
592	0.2
593	0.199
593	0.199
594	0.198
594	0.198
594	0.197
595	0.197
595	0.196
596	0.196
596	0.196
597	0.197
597	0.197
598	0.197
598	0.197
598	0.197
599	0.197
599	0.197
600	0.196
600	0.196
601	0.196
601	0.195
602	0.195
602	0.194
602	0.194
603	0.193
603	0.193
604	0.193
604	0.193
605	0.193
605	0.193
606	0.193
606	0.192
606	0.192
607	0.192
607	0.192
608	0.191
608	0.191
609	0.191
609	0.19
610	0.19
610	0.19
610	0.19
611	0.19
611	0.19
612	0.19
612	0.19
613	0.19
613	0.19
614	0.189
614	0.189
614	0.189
615	0.189
615	0.189
616	0.189
616	0.189
617	0.189
617	0.189
618	0.188
618	0.188
618	0.189
619	0.189
619	0.189
620	0.189
620	0.189
621	0.188
621	0.188
622	0.187
622	0.187
622	0.186
623	0.186
623	0.186
624	0.186
624	0.185
625	0.185
625	0.185
626	0.185
626	0.185
626	0.185
627	0.185
627	0.185
628	0.184
628	0.184
629	0.184
629	0.184
630	0.183
630	0.183
630	0.183
631	0.183
631	0.182
632	0.182
632	0.182
633	0.182
633	0.182
634	0.182
634	0.182
634	0.182
635	0.182
635	0.182
636	0.182
636	0.182
637	0.182
637	0.182
638	0.181
638	0.181
638	0.181
639	0.18
639	0.18
640	0.18
640	0.18
641	0.18
641	0.18
642	0.179
642	0.179
642	0.18
643	0.18
643	0.18
644	0.18
644	0.18
645	0.18
645	0.18
646	0.18
646	0.18
646	0.18
647	0.18
647	0.18
648	0.179
648	0.178
649	0.178
649	0.178
650	0.178
650	0.178
650	0.178
651	0.178
651	0.178
652	0.178
652	0.178
653	0.179
653	0.181
653	0.186
654	0.147
654	0.117
655	0.118
655	0.118
656	0.118
656	0.118
657	0.119
657	0.119
657	0.119
658	0.118
658	0.108
659	0.136
659	0.175
660	0.18
660	0.18
661	0.18
661	0.18
661	0.179
662	0.179
662	0.179
663	0.178
663	0.178
664	0.178
664	0.178
665	0.178
665	0.178
665	0.178
666	0.178
666	0.178
667	0.178
667	0.178
668	0.178
668	0.178
669	0.179
669	0.179
669	0.179
670	0.18
670	0.18
671	0.18
671	0.179
672	0.179
672	0.178
672	0.178
673	0.177
673	0.177
674	0.177
674	0.176
675	0.176
675	0.176
676	0.176
676	0.176
676	0.176
677	0.176
677	0.177
678	0.176
678	0.176
679	0.176
679	0.176
680	0.176
680	0.176
680	0.176
681	0.176
681	0.176
682	0.176
682	0.176
683	0.177
683	0.177
684	0.177
684	0.177
684	0.177
685	0.177
685	0.177
686	0.177
686	0.177
687	0.177
687	0.178
687	0.178
688	0.178
688	0.178
689	0.178
689	0.179
690	0.179
690	0.178
691	0.178
691	0.178
691	0.178
692	0.178
692	0.178
693	0.179
693	0.179
694	0.179
694	0.179
695	0.179
695	0.18
695	0.181
696	0.181
696	0.181
697	0.181
697	0.181
698	0.18
698	0.18
698	0.18
699	0.18
699	0.18
700	0.179
700	0.179
701	0.179
701	0.179
702	0.179
702	0.179
702	0.179
703	0.179
703	0.179
704	0.178
704	0.178
705	0.178
705	0.178
705	0.178
706	0.178
706	0.178
707	0.178
707	0.178
708	0.178
708	0.178
709	0.178
709	0.178
709	0.178
710	0.178
710	0.179
711	0.179
711	0.18
712	0.18
712	0.18
713	0.181
713	0.181
713	0.181
714	0.181
714	0.181
715	0.181
715	0.181
716	0.18
716	0.18
716	0.179
717	0.179
717	0.178
718	0.178
718	0.177
719	0.178
719	0.178
720	0.178
720	0.179
720	0.179
721	0.18
721	0.181
722	0.182
722	0.182
723	0.183
723	0.183
723	0.183
724	0.183
724	0.183
725	0.182
725	0.182
726	0.181
726	0.18
727	0.18
727	0.179
727	0.179
728	0.178
728	0.178
729	0.178
729	0.179
730	0.179
730	0.179
730	0.179
731	0.18
731	0.181
732	0.181
732	0.182
733	0.182
733	0.183
734	0.183
734	0.183
734	0.184
735	0.184
735	0.184
736	0.184
736	0.184
737	0.184
737	0.184
737	0.184
738	0.183
738	0.182
739	0.182
739	0.182
740	0.181
740	0.181
741	0.181
741	0.181
741	0.181
742	0.181
742	0.182
743	0.183
743	0.184
744	0.185
744	0.185
744	0.186
745	0.186
745	0.186
746	0.187
746	0.187
747	0.187
747	0.187
748	0.186
748	0.186
748	0.186
749	0.186
749	0.186
750	0.186
750	0.186
751	0.186
751	0.187
751	0.187
752	0.187
752	0.187
753	0.186
753	0.186
754	0.185
754	0.185
754	0.185
755	0.185
755	0.185
756	0.184
756	0.183
757	0.183
757	0.183
758	0.183
758	0.183
758	0.183
759	0.184
759	0.183
760	0.184
760	0.184
761	0.184
761	0.185
761	0.185
762	0.185
762	0.186
763	0.186
763	0.185
764	0.185
764	0.185
764	0.185
765	0.185
765	0.185
766	0.185
766	0.185
767	0.185
767	0.184
768	0.184
768	0.184
768	0.185
769	0.185
769	0.185
770	0.186
770	0.186
771	0.187
771	0.187
771	0.188
772	0.189
772	0.189
773	0.19
773	0.19
774	0.19
774	0.191
775	0.191
775	0.191
775	0.191
776	0.191
776	0.192
777	0.192
777	0.193
778	0.193
778	0.193
778	0.193
779	0.193
779	0.193
780	0.192
780	0.191
781	0.191
781	0.191
781	0.191
782	0.19
782	0.19
783	0.191
783	0.191
784	0.191
784	0.192
784	0.192
785	0.192
785	0.193
786	0.193
786	0.193
787	0.193
787	0.192
788	0.192
788	0.191
788	0.19
789	0.19
789	0.19
790	0.19
790	0.19
791	0.19
791	0.19
791	0.19
792	0.191
792	0.192
793	0.192
793	0.192
794	0.192
794	0.192
794	0.192
795	0.192
795	0.193
796	0.193
796	0.194
797	0.193
797	0.193
797	0.194
798	0.194
798	0.194
799	0.194
799	0.194
800	0.193
800	0.193
801	0.192
801	0.192
801	0.192
802	0.193
802	0.193
803	0.193
803	0.194
804	0.195
804	0.195
804	0.196
805	0.196
805	0.196
806	0.196
806	0.196
807	0.195
807	0.195
807	0.195
808	0.195
808	0.194
809	0.194
809	0.194
810	0.194
810	0.194
810	0.194
811	0.194
811	0.195
812	0.195
812	0.196
813	0.196
813	0.197
813	0.198
814	0.198
814	0.199
815	0.2
815	0.2
816	0.2
816	0.199
817	0.198
817	0.198
817	0.198
818	0.197
818	0.197
819	0.196
819	0.195
820	0.194
820	0.194
820	0.194
821	0.194
821	0.195
822	0.195
822	0.196
823	0.196
823	0.197
823	0.198
824	0.199
824	0.2
825	0.201
825	0.202
826	0.202
826	0.202
826	0.202
827	0.203
827	0.203
828	0.203
828	0.203
829	0.204
829	0.204
829	0.204
830	0.204
830	0.205
831	0.206
831	0.206
832	0.206
832	0.206
832	0.206
833	0.206
833	0.206
834	0.205
834	0.205
835	0.204
835	0.203
835	0.203
836	0.203
836	0.202
837	0.202
837	0.201
838	0.201
838	0.2
839	0.2
839	0.199
839	0.198
840	0.197
840	0.196
841	0.195
841	0.194
842	0.194
842	0.193
842	0.192
843	0.192
843	0.191
844	0.191
844	0.191
845	0.19
845	0.19
845	0.19
846	0.19
846	0.19
847	0.19
847	0.191
848	0.191
848	0.192
848	0.192
849	0.193
849	0.193
850	0.194
850	0.194
851	0.194
851	0.194
851	0.194
852	0.193
852	0.193
853	0.193
853	0.193
854	0.193
854	0.193
854	0.194
855	0.194
855	0.195
856	0.196
856	0.197
857	0.198
857	0.199
857	0.199
858	0.2
858	0.2
859	0.199
859	0.199
860	0.199
860	0.198
860	0.198
861	0.197
861	0.196
862	0.195
862	0.194
863	0.193
863	0.192
863	0.191
864	0.191
864	0.191
865	0.191
865	0.191
866	0.191
866	0.191
866	0.191
867	0.192
867	0.193
868	0.193
868	0.193
869	0.194
869	0.194
869	0.193
870	0.193
870	0.193
871	0.193
871	0.193
872	0.193
872	0.192
872	0.192
873	0.192
873	0.191
874	0.19
874	0.19
875	0.19
875	0.189
875	0.189
876	0.188
876	0.188
877	0.187
877	0.187
878	0.187
878	0.187
878	0.188
879	0.188
879	0.188
880	0.189
880	0.189
881	0.189
881	0.19
881	0.19
882	0.191
882	0.191
883	0.191
883	0.191
884	0.192
884	0.192
884	0.191
885	0.191
885	0.191
886	0.19
886	0.19
887	0.189
887	0.188
887	0.187
888	0.187
888	0.186
889	0.185
889	0.185
890	0.185
890	0.184
890	0.184
891	0.184
891	0.184
892	0.184
892	0.184
893	0.184
893	0.184
893	0.184
894	0.184
894	0.184
895	0.183
895	0.184
895	0.184
896	0.184
896	0.184
897	0.183
897	0.183
898	0.183
898	0.182
898	0.182
899	0.181
899	0.18
900	0.179
900	0.179
901	0.178
901	0.178
901	0.177
902	0.177
902	0.176
903	0.176
903	0.176
904	0.176
904	0.176
904	0.176
905	0.176
905	0.176
906	0.176
906	0.176
907	0.176
907	0.177
907	0.177
908	0.177
908	0.177
909	0.177
909	0.177
910	0.176
910	0.176
910	0.176
911	0.176
911	0.175
912	0.175
912	0.174
913	0.174
913	0.174
913	0.173
914	0.173
914	0.173
915	0.173
915	0.173
916	0.173
916	0.173
916	0.172
917	0.172
917	0.172
918	0.171
918	0.171
918	0.17
919	0.17
919	0.169
920	0.169
920	0.168
921	0.167
921	0.167
921	0.167
922	0.166
922	0.166
923	0.166
923	0.167
924	0.167
924	0.167
924	0.167
925	0.168
925	0.168
926	0.168
926	0.169
927	0.169
927	0.17
927	0.17
928	0.17
928	0.17
929	0.17
929	0.17
930	0.17
930	0.17
930	0.17
931	0.17
931	0.169
932	0.169
932	0.168
933	0.168
933	0.168
933	0.167
934	0.166
934	0.166
935	0.165
935	0.165
935	0.165
936	0.164
936	0.163
937	0.163
937	0.162
938	0.162
938	0.161
938	0.161
939	0.16
939	0.159
940	0.159
940	0.159
941	0.159
941	0.159
941	0.16
942	0.16
942	0.16
943	0.161
943	0.161
944	0.161
944	0.161
944	0.161
945	0.161
945	0.16
946	0.16
946	0.16
946	0.159
947	0.159
947	0.158
948	0.158
948	0.157
949	0.157
949	0.157
949	0.156
950	0.155
950	0.155
951	0.155
951	0.154
952	0.153
952	0.152
952	0.152
953	0.151
953	0.151
954	0.15
954	0.15
955	0.15
955	0.15
955	0.15
956	0.151
956	0.151
957	0.152
957	0.152
957	0.152
958	0.153
958	0.153
959	0.153
959	0.153
960	0.153
960	0.153
960	0.153
961	0.152
961	0.152
962	0.152
962	0.152
963	0.152
963	0.152
963	0.152
964	0.152
964	0.152
965	0.152
965	0.152
966	0.152
966	0.151
966	0.151
967	0.15
967	0.15
968	0.15
968	0.149
968	0.148
969	0.147
969	0.146
970	0.145
970	0.144
971	0.143
971	0.142
971	0.142
972	0.141
972	0.141
973	0.14
973	0.14
974	0.14
974	0.141
974	0.141
975	0.142
975	0.142
976	0.143
976	0.144
976	0.144
977	0.145
977	0.145
978	0.145
978	0.145
979	0.145
979	0.145
979	0.145
980	0.145
980	0.144
981	0.144
981	0.144
982	0.143
982	0.143
982	0.143
983	0.143
983	0.143
984	0.143
984	0.142
984	0.142
985	0.142
985	0.142
986	0.141
986	0.141
987	0.141
987	0.14
987	0.14
988	0.14
988	0.14
989	0.14
989	0.14
990	0.139
990	0.139
990	0.139
991	0.139
991	0.138
992	0.138
992	0.137
992	0.136
993	0.135
993	0.134
994	0.133
994	0.132
995	0.131
995	0.13
995	0.13
996	0.129
996	0.129
997	0.129
997	0.129
997	0.129
998	0.13
998	0.13
999	0.131
999	0.131
1000	0.132
1000	0.133
1000	0.133
1001	0.133
1001	0.134
1002	0.134
1002	0.133
1003	0.133
1003	0.133
1003	0.132
1004	0.132
1004	0.131
1005	0.13
1005	0.129
1005	0.128
1006	0.128
1006	0.127
1007	0.127
1007	0.126
1008	0.125
1008	0.125
1008	0.125
1009	0.125
1009	0.125
1010	0.125
1010	0.125
1010	0.125
1011	0.125
1011	0.125
1012	0.125
1012	0.124
1013	0.124
1013	0.124
1013	0.123
1014	0.122
1014	0.122
1015	0.121
1015	0.121
1016	0.121
1016	0.12
1016	0.12
1017	0.119
1017	0.119
1018	0.119
1018	0.119
1018	0.119
1019	0.118
1019	0.118
1020	0.118
1020	0.118
1021	0.118
1021	0.118
1021	0.119
1022	0.119
1022	0.119
1023	0.12
1023	0.12
1023	0.12
1024	0.121
1024	0.121
1025	0.121
1025	0.122
1026	0.122
1026	0.122
1026	0.122
1027	0.122
1027	0.122
1028	0.122
1028	0.122
1028	0.122
1029	0.122
1029	0.122
1030	0.122
1030	0.122
1031	0.122
1031	0.123
1031	0.122
1032	0.123
1032	0.123
1033	0.123
1033	0.123
1033	0.123
1034	0.122
1034	0.122
1035	0.122
1035	0.121
1036	0.121
1036	0.121
1036	0.121
1037	0.12
1037	0.12
1038	0.119
1038	0.119
1039	0.118
1039	0.118
1039	0.118
1040	0.118
1040	0.117
1041	0.117
1041	0.117
1041	0.117
1042	0.117
1042	0.117
1043	0.116
1043	0.116
1044	0.116
1044	0.116
1044	0.115
1045	0.115
1045	0.115
1046	0.114
1046	0.114
1046	0.113
1047	0.113
1047	0.113
1048	0.113
1048	0.113
1049	0.113
1049	0.113
1049	0.113
1050	0.113
1050	0.112
1051	0.112
1051	0.112
1051	0.111
1052	0.111
1052	0.11
1053	0.109
1053	0.108
1053	0.108
1054	0.107
1054	0.107
1055	0.107
1055	0.106
1056	0.105
1056	0.104
1056	0.104
1057	0.103
1057	0.103
1058	0.102
1058	0.101
1058	0.1
1059	0.099
1059	0.099
1060	0.098
1060	0.098
1061	0.097
1061	0.097
1061	0.097
1062	0.096
1062	0.096
1063	0.095
1063	0.095
1063	0.095
1064	0.095
1064	0.094
1065	0.094
1065	0.094
1066	0.094
1066	0.094
1066	0.094
1067	0.094
1067	0.094
1068	0.094
1068	0.094
1068	0.094
1069	0.093
1069	0.093
1070	0.093
1070	0.093
1071	0.093
1071	0.092
1071	0.092
1072	0.092
1072	0.091
1073	0.091
1073	0.09
1073	0.09
1074	0.091
1074	0.091
1075	0.091
1075	0.091
1076	0.091
1076	0.092
1076	0.092
1077	0.092
1077	0.092
1078	0.092
1078	0.092
1078	0.092
1079	0.092
1079	0.091
1080	0.09
1080	0.09
1080	0.09
1081	0.089
1081	0.089
1082	0.089
1082	0.09
1083	0.089
1083	0.089
1083	0.089
1084	0.089
1084	0.09
1085	0.09
1085	0.091
1085	0.091
1086	0.091
1086	0.091
1087	0.09
1087	0.091
1088	0.091
1088	0.09
1088	0.09
1089	0.089
1089	0.088
1090	0.087
1090	0.086
1090	0.084
1091	0.084
1091	0.084
1092	0.083
1092	0.083
1092	0.083
1093	0.083
1093	0.083
1094	0.083
1094	0.083
1095	0.083
1095	0.083
1095	0.083
1096	0.082
1096	0.082
1097	0.081
1097	0.08
1097	0.079
1098	0.077
1098	0.076
1099	0.075
1099	0.074
1100	0.073
1100	0.072
1100	0.07
1101	0.069
1101	0.068
1102	0.068
1102	0.066
1102	0.065
1103	0.064
1103	0.064
1104	0.064
1104	0.064
1104	0.062
1105	0.062
1105	0.06
1106	0.059
1106	0.058
1107	0.057
1107	0.057
1107	0.056
1108	0.055
1108	0.054
1109	0.052
1109	0.053
1109	0.052
1110	0.054
1110	0.052
1111	0.051
1111	0.058
