Data from reversibility-20sec_Absorbance__7000__000000000007000.txt Node

Date: Thu Dec 07 03:06:25 CET 2023
User: Marek
Spectrometer: MAYP115816
Trigger mode: 0
Integration Time (sec): 2.000000E-1
Scans to average: 10
Electric dark correction enabled: true
Nonlinearity correction enabled: true
Boxcar width: 5
XAxis mode: Wavelengths
Number of Pixels in Spectrum: 2068
>>>>>Begin Spectral Data<<<<<
199	-0.118
199	-0.096
200	-0.033
200	0.023
201	0.053
201	0.07
202	0.08
202	0.091
203	0.1
203	0.104
204	0.117
204	0.132
205	0.146
205	0.152
205	0.148
206	0.146
206	0.146
207	0.149
207	0.148
208	0.148
208	0.145
209	0.148
209	0.145
210	0.146
210	0.146
211	0.15
211	0.153
212	0.152
212	0.152
213	0.154
213	0.157
213	0.159
214	0.159
214	0.161
215	0.162
215	0.163
216	0.163
216	0.161
217	0.165
217	0.166
218	0.164
218	0.167
219	0.172
219	0.174
220	0.179
220	0.18
221	0.178
221	0.183
221	0.189
222	0.193
222	0.196
223	0.202
223	0.204
224	0.207
224	0.212
225	0.218
225	0.229
226	0.239
226	0.25
227	0.257
227	0.268
228	0.285
228	0.301
229	0.318
229	0.343
229	0.365
230	0.391
230	0.42
231	0.451
231	0.487
232	0.527
232	0.571
233	0.614
233	0.66
234	0.711
234	0.763
235	0.819
235	0.873
236	0.925
236	0.977
236	1.029
237	1.078
237	1.128
238	1.174
238	1.22
239	1.264
239	1.303
240	1.343
240	1.376
241	1.41
241	1.444
242	1.475
242	1.508
243	1.537
243	1.564
243	1.587
244	1.608
244	1.631
245	1.648
245	1.67
246	1.688
246	1.705
247	1.719
247	1.732
248	1.744
248	1.754
249	1.764
249	1.772
250	1.777
250	1.785
250	1.788
251	1.79
251	1.79
252	1.793
252	1.791
253	1.791
253	1.79
254	1.79
254	1.79
255	1.788
255	1.787
256	1.785
256	1.784
257	1.786
257	1.784
258	1.783
258	1.784
258	1.784
259	1.783
259	1.784
260	1.782
260	1.784
261	1.785
261	1.788
262	1.79
262	1.793
263	1.797
263	1.798
264	1.799
264	1.801
265	1.801
265	1.803
265	1.804
266	1.804
266	1.805
267	1.804
267	1.804
268	1.803
268	1.802
269	1.804
269	1.803
270	1.803
270	1.802
271	1.8
271	1.798
272	1.795
272	1.791
272	1.787
273	1.78
273	1.774
274	1.768
274	1.761
275	1.753
275	1.745
276	1.736
276	1.728
277	1.719
277	1.709
278	1.698
278	1.686
278	1.671
279	1.653
279	1.63
280	1.603
280	1.57
281	1.532
281	1.489
282	1.444
282	1.398
283	1.353
283	1.31
284	1.268
284	1.228
285	1.191
285	1.158
285	1.127
286	1.1
286	1.077
287	1.058
287	1.041
288	1.026
288	1.015
289	1.004
289	0.996
290	0.988
290	0.981
291	0.976
291	0.971
292	0.966
292	0.962
292	0.958
293	0.955
293	0.951
294	0.948
294	0.945
295	0.942
295	0.939
296	0.936
296	0.932
297	0.93
297	0.927
298	0.924
298	0.921
298	0.918
299	0.916
299	0.913
300	0.91
300	0.907
301	0.905
301	0.902
302	0.9
302	0.898
303	0.895
303	0.893
304	0.89
304	0.888
305	0.886
305	0.884
305	0.881
306	0.88
306	0.877
307	0.875
307	0.873
308	0.87
308	0.867
309	0.865
309	0.862
310	0.859
310	0.857
311	0.853
311	0.85
311	0.847
312	0.844
312	0.84
313	0.837
313	0.833
314	0.83
314	0.825
315	0.821
315	0.817
316	0.813
316	0.808
317	0.804
317	0.799
318	0.794
318	0.789
318	0.783
319	0.778
319	0.773
320	0.768
320	0.762
321	0.756
321	0.75
322	0.743
322	0.737
323	0.731
323	0.724
324	0.718
324	0.711
324	0.704
325	0.697
325	0.69
326	0.683
326	0.676
327	0.669
327	0.662
328	0.655
328	0.648
329	0.641
329	0.634
330	0.627
330	0.62
330	0.613
331	0.606
331	0.599
332	0.592
332	0.585
333	0.578
333	0.571
334	0.564
334	0.557
335	0.55
335	0.543
336	0.537
336	0.53
336	0.523
337	0.517
337	0.511
338	0.505
338	0.498
339	0.492
339	0.486
340	0.48
340	0.475
341	0.469
341	0.463
342	0.458
342	0.452
342	0.447
343	0.441
343	0.436
344	0.431
344	0.426
345	0.421
345	0.416
346	0.412
346	0.407
347	0.403
347	0.399
348	0.395
348	0.391
348	0.387
349	0.383
349	0.379
350	0.376
350	0.373
351	0.37
351	0.366
352	0.363
352	0.36
353	0.357
353	0.354
354	0.352
354	0.349
354	0.346
355	0.343
355	0.34
356	0.337
356	0.335
357	0.332
357	0.329
358	0.327
358	0.324
359	0.322
359	0.32
360	0.318
360	0.316
360	0.314
361	0.312
361	0.31
362	0.308
362	0.307
363	0.305
363	0.303
364	0.301
364	0.299
365	0.298
365	0.296
366	0.294
366	0.292
366	0.291
367	0.289
367	0.287
368	0.286
368	0.284
369	0.283
369	0.282
370	0.28
370	0.279
371	0.278
371	0.277
372	0.275
372	0.274
372	0.274
373	0.273
373	0.272
374	0.271
374	0.27
375	0.269
375	0.268
376	0.268
376	0.267
377	0.266
377	0.265
378	0.264
378	0.263
378	0.262
379	0.261
379	0.261
380	0.26
380	0.259
381	0.258
381	0.258
382	0.257
382	0.257
383	0.257
383	0.256
383	0.256
384	0.255
384	0.255
385	0.254
385	0.254
386	0.254
386	0.253
387	0.253
387	0.252
388	0.252
388	0.252
389	0.252
389	0.251
389	0.251
390	0.251
390	0.25
391	0.25
391	0.25
392	0.249
392	0.249
393	0.249
393	0.248
394	0.248
394	0.248
394	0.247
395	0.247
395	0.247
396	0.246
396	0.246
397	0.246
397	0.246
398	0.245
398	0.245
399	0.245
399	0.245
400	0.244
400	0.244
400	0.244
401	0.244
401	0.243
402	0.243
402	0.243
403	0.243
403	0.242
404	0.242
404	0.242
405	0.242
405	0.242
405	0.242
406	0.241
406	0.241
407	0.241
407	0.241
408	0.24
408	0.24
409	0.24
409	0.24
410	0.239
410	0.239
411	0.239
411	0.238
411	0.238
412	0.238
412	0.237
413	0.237
413	0.237
414	0.237
414	0.236
415	0.236
415	0.236
416	0.235
416	0.235
416	0.235
417	0.235
417	0.234
418	0.234
418	0.234
419	0.233
419	0.233
420	0.232
420	0.232
421	0.232
421	0.231
421	0.231
422	0.231
422	0.23
423	0.23
423	0.23
424	0.229
424	0.229
425	0.229
425	0.228
426	0.228
426	0.228
427	0.228
427	0.227
427	0.227
428	0.227
428	0.226
429	0.226
429	0.225
430	0.225
430	0.225
431	0.224
431	0.224
432	0.224
432	0.224
432	0.224
433	0.223
433	0.223
434	0.223
434	0.223
435	0.223
435	0.223
436	0.223
436	0.223
437	0.222
437	0.222
437	0.222
438	0.222
438	0.221
439	0.221
439	0.221
440	0.22
440	0.22
441	0.22
441	0.219
442	0.219
442	0.219
442	0.219
443	0.218
443	0.218
444	0.218
444	0.218
445	0.218
445	0.217
446	0.217
446	0.217
447	0.217
447	0.216
447	0.216
448	0.216
448	0.216
449	0.216
449	0.215
450	0.215
450	0.215
451	0.215
451	0.215
452	0.215
452	0.214
452	0.214
453	0.214
453	0.214
454	0.214
454	0.213
455	0.213
455	0.213
456	0.212
456	0.212
457	0.212
457	0.212
458	0.211
458	0.211
458	0.211
459	0.211
459	0.211
460	0.21
460	0.21
461	0.21
461	0.21
462	0.21
462	0.21
463	0.21
463	0.209
463	0.209
464	0.209
464	0.208
465	0.208
465	0.207
466	0.207
466	0.207
467	0.207
467	0.207
467	0.207
468	0.207
468	0.207
469	0.207
469	0.207
470	0.207
470	0.207
471	0.207
471	0.206
472	0.206
472	0.206
472	0.206
473	0.206
473	0.206
474	0.206
474	0.205
475	0.205
475	0.205
476	0.205
476	0.205
477	0.205
477	0.205
477	0.205
478	0.205
478	0.205
479	0.205
479	0.205
480	0.205
480	0.205
481	0.205
481	0.204
482	0.204
482	0.205
482	0.204
483	0.205
483	0.205
484	0.205
484	0.205
485	0.204
485	0.204
486	0.204
486	0.204
487	0.204
487	0.204
487	0.204
488	0.204
488	0.204
489	0.204
489	0.205
490	0.205
490	0.205
491	0.206
491	0.206
492	0.207
492	0.207
492	0.208
493	0.208
493	0.208
494	0.209
494	0.209
495	0.209
495	0.209
496	0.209
496	0.209
496	0.209
497	0.209
497	0.21
498	0.21
498	0.21
499	0.21
499	0.211
500	0.211
500	0.212
501	0.212
501	0.213
501	0.213
502	0.213
502	0.213
503	0.214
503	0.214
504	0.214
504	0.214
505	0.215
505	0.215
506	0.215
506	0.215
506	0.216
507	0.216
507	0.217
508	0.217
508	0.217
509	0.217
509	0.217
510	0.218
510	0.218
511	0.219
511	0.219
511	0.22
512	0.22
512	0.22
513	0.22
513	0.221
514	0.221
514	0.222
515	0.222
515	0.222
515	0.222
516	0.223
516	0.223
517	0.224
517	0.224
518	0.224
518	0.225
519	0.225
519	0.225
520	0.225
520	0.226
520	0.226
521	0.226
521	0.226
522	0.226
522	0.226
523	0.227
523	0.227
524	0.227
524	0.227
524	0.228
525	0.228
525	0.228
526	0.228
526	0.228
527	0.229
527	0.229
528	0.229
528	0.229
529	0.229
529	0.229
529	0.228
530	0.228
530	0.228
531	0.228
531	0.228
532	0.228
532	0.228
533	0.228
533	0.228
533	0.228
534	0.228
534	0.228
535	0.228
535	0.228
536	0.228
536	0.228
537	0.228
537	0.228
538	0.228
538	0.228
538	0.228
539	0.228
539	0.228
540	0.228
540	0.227
541	0.227
541	0.227
542	0.227
542	0.227
542	0.228
543	0.228
543	0.228
544	0.228
544	0.228
545	0.228
545	0.227
546	0.227
546	0.227
547	0.226
547	0.226
547	0.226
548	0.225
548	0.225
549	0.225
549	0.224
550	0.224
550	0.224
551	0.224
551	0.223
551	0.223
552	0.223
552	0.223
553	0.223
553	0.223
554	0.223
554	0.222
555	0.221
555	0.221
556	0.221
556	0.22
556	0.22
557	0.22
557	0.22
558	0.221
558	0.221
559	0.221
559	0.221
560	0.221
560	0.221
560	0.221
561	0.221
561	0.221
562	0.22
562	0.219
563	0.218
563	0.217
564	0.217
564	0.216
564	0.216
565	0.216
565	0.215
566	0.215
566	0.215
567	0.215
567	0.215
568	0.215
568	0.214
568	0.214
569	0.214
569	0.214
570	0.213
570	0.212
571	0.211
571	0.211
572	0.211
572	0.21
573	0.21
573	0.21
573	0.209
574	0.209
574	0.209
575	0.209
575	0.209
576	0.209
576	0.208
577	0.208
577	0.207
577	0.207
578	0.207
578	0.206
579	0.207
579	0.207
580	0.207
580	0.206
581	0.205
581	0.205
581	0.205
582	0.206
582	0.205
583	0.206
583	0.205
584	0.205
584	0.203
585	0.203
585	0.203
585	0.203
586	0.203
586	0.202
587	0.202
587	0.201
588	0.201
588	0.2
589	0.2
589	0.201
590	0.2
590	0.2
590	0.201
591	0.201
591	0.2
592	0.2
592	0.199
593	0.199
593	0.199
594	0.198
594	0.197
594	0.197
595	0.197
595	0.196
596	0.196
596	0.196
597	0.197
597	0.197
598	0.197
598	0.197
598	0.197
599	0.197
599	0.197
600	0.197
600	0.196
601	0.196
601	0.196
602	0.195
602	0.195
602	0.194
603	0.194
603	0.194
604	0.194
604	0.194
605	0.194
605	0.194
606	0.194
606	0.193
606	0.192
607	0.192
607	0.192
608	0.192
608	0.192
609	0.191
609	0.191
610	0.191
610	0.19
610	0.19
611	0.191
611	0.191
612	0.19
612	0.191
613	0.191
613	0.19
614	0.19
614	0.19
614	0.19
615	0.19
615	0.19
616	0.19
616	0.19
617	0.19
617	0.19
618	0.19
618	0.19
618	0.19
619	0.19
619	0.19
620	0.19
620	0.19
621	0.189
621	0.189
622	0.188
622	0.188
622	0.188
623	0.187
623	0.187
624	0.187
624	0.186
625	0.186
625	0.187
626	0.187
626	0.187
626	0.187
627	0.187
627	0.187
628	0.186
628	0.186
629	0.186
629	0.186
630	0.186
630	0.185
630	0.185
631	0.185
631	0.185
632	0.185
632	0.184
633	0.184
633	0.184
634	0.185
634	0.185
634	0.184
635	0.184
635	0.184
636	0.183
636	0.183
637	0.183
637	0.183
638	0.183
638	0.182
638	0.182
639	0.181
639	0.181
640	0.181
640	0.181
641	0.181
641	0.181
642	0.181
642	0.181
642	0.181
643	0.182
643	0.182
644	0.182
644	0.183
645	0.183
645	0.183
646	0.183
646	0.183
646	0.183
647	0.183
647	0.182
648	0.182
648	0.181
649	0.181
649	0.181
650	0.18
650	0.18
650	0.18
651	0.18
651	0.18
652	0.181
652	0.181
653	0.182
653	0.183
653	0.189
654	0.148
654	0.119
655	0.119
655	0.119
656	0.12
656	0.12
657	0.12
657	0.121
657	0.121
658	0.119
658	0.11
659	0.138
659	0.178
660	0.182
660	0.182
661	0.182
661	0.181
661	0.181
662	0.181
662	0.181
663	0.18
663	0.18
664	0.18
664	0.18
665	0.18
665	0.18
665	0.18
666	0.18
666	0.18
667	0.18
667	0.18
668	0.18
668	0.18
669	0.181
669	0.181
669	0.181
670	0.182
670	0.182
671	0.181
671	0.181
672	0.181
672	0.18
672	0.18
673	0.179
673	0.179
674	0.179
674	0.179
675	0.178
675	0.178
676	0.179
676	0.179
676	0.179
677	0.179
677	0.179
678	0.179
678	0.179
679	0.179
679	0.179
680	0.179
680	0.178
680	0.178
681	0.178
681	0.178
682	0.178
682	0.178
683	0.179
683	0.179
684	0.179
684	0.179
684	0.179
685	0.18
685	0.18
686	0.18
686	0.18
687	0.18
687	0.18
687	0.18
688	0.18
688	0.181
689	0.181
689	0.182
690	0.182
690	0.181
691	0.181
691	0.182
691	0.182
692	0.182
692	0.182
693	0.182
693	0.183
694	0.183
694	0.183
695	0.183
695	0.184
695	0.185
696	0.185
696	0.185
697	0.185
697	0.185
698	0.184
698	0.184
698	0.184
699	0.184
699	0.183
700	0.183
700	0.183
701	0.182
701	0.182
702	0.182
702	0.181
702	0.181
703	0.181
703	0.181
704	0.18
704	0.18
705	0.18
705	0.18
705	0.18
706	0.18
706	0.18
707	0.18
707	0.18
708	0.18
708	0.18
709	0.18
709	0.18
709	0.18
710	0.18
710	0.181
711	0.181
711	0.182
712	0.182
712	0.183
713	0.183
713	0.184
713	0.184
714	0.184
714	0.185
715	0.185
715	0.184
716	0.184
716	0.183
716	0.182
717	0.181
717	0.181
718	0.18
718	0.18
719	0.18
719	0.18
720	0.18
720	0.181
720	0.181
721	0.182
721	0.183
722	0.184
722	0.185
723	0.185
723	0.186
723	0.185
724	0.185
724	0.185
725	0.184
725	0.184
726	0.183
726	0.182
727	0.181
727	0.181
727	0.18
728	0.18
728	0.18
729	0.181
729	0.181
730	0.181
730	0.181
730	0.182
731	0.182
731	0.183
732	0.183
732	0.184
733	0.184
733	0.185
734	0.185
734	0.186
734	0.186
735	0.186
735	0.187
736	0.187
736	0.187
737	0.187
737	0.187
737	0.186
738	0.186
738	0.185
739	0.185
739	0.185
740	0.184
740	0.185
741	0.185
741	0.185
741	0.185
742	0.185
742	0.186
743	0.187
743	0.188
744	0.189
744	0.19
744	0.19
745	0.19
745	0.19
746	0.19
746	0.19
747	0.19
747	0.189
748	0.189
748	0.189
748	0.188
749	0.188
749	0.189
750	0.189
750	0.189
751	0.189
751	0.189
751	0.19
752	0.19
752	0.19
753	0.19
753	0.189
754	0.189
754	0.189
754	0.189
755	0.188
755	0.188
756	0.188
756	0.187
757	0.187
757	0.187
758	0.187
758	0.187
758	0.187
759	0.188
759	0.187
760	0.187
760	0.187
761	0.188
761	0.188
761	0.188
762	0.188
762	0.189
763	0.189
763	0.189
764	0.189
764	0.189
764	0.189
765	0.189
765	0.188
766	0.188
766	0.188
767	0.188
767	0.187
768	0.187
768	0.187
768	0.187
769	0.187
769	0.187
770	0.188
770	0.188
771	0.189
771	0.189
771	0.19
772	0.191
772	0.191
773	0.191
773	0.192
774	0.192
774	0.192
775	0.192
775	0.192
775	0.192
776	0.192
776	0.193
777	0.193
777	0.194
778	0.194
778	0.194
778	0.194
779	0.195
779	0.194
780	0.194
780	0.193
781	0.193
781	0.193
781	0.193
782	0.192
782	0.192
783	0.193
783	0.193
784	0.193
784	0.194
784	0.194
785	0.195
785	0.195
786	0.195
786	0.195
787	0.195
787	0.195
788	0.194
788	0.193
788	0.193
789	0.192
789	0.192
790	0.193
790	0.192
791	0.192
791	0.192
791	0.192
792	0.193
792	0.193
793	0.194
793	0.194
794	0.194
794	0.194
794	0.194
795	0.194
795	0.195
796	0.195
796	0.195
797	0.195
797	0.195
797	0.195
798	0.196
798	0.196
799	0.196
799	0.196
800	0.196
800	0.195
801	0.195
801	0.195
801	0.195
802	0.196
802	0.196
803	0.196
803	0.197
804	0.198
804	0.198
804	0.198
805	0.199
805	0.199
806	0.199
806	0.199
807	0.198
807	0.198
807	0.198
808	0.198
808	0.198
809	0.198
809	0.198
810	0.197
810	0.197
810	0.197
811	0.197
811	0.198
812	0.198
812	0.198
813	0.199
813	0.199
813	0.2
814	0.201
814	0.202
815	0.203
815	0.203
816	0.203
816	0.203
817	0.202
817	0.202
817	0.202
818	0.201
818	0.201
819	0.2
819	0.2
820	0.199
820	0.198
820	0.198
821	0.199
821	0.199
822	0.199
822	0.2
823	0.2
823	0.2
823	0.201
824	0.202
824	0.204
825	0.205
825	0.206
826	0.206
826	0.207
826	0.207
827	0.208
827	0.208
828	0.208
828	0.209
829	0.209
829	0.209
829	0.209
830	0.209
830	0.21
831	0.21
831	0.21
832	0.21
832	0.21
832	0.209
833	0.209
833	0.209
834	0.209
834	0.209
835	0.208
835	0.208
835	0.207
836	0.207
836	0.207
837	0.206
837	0.206
838	0.205
838	0.204
839	0.203
839	0.203
839	0.202
840	0.201
840	0.2
841	0.199
841	0.199
842	0.198
842	0.197
842	0.197
843	0.197
843	0.197
844	0.196
844	0.196
845	0.196
845	0.196
845	0.197
846	0.197
846	0.197
847	0.197
847	0.198
848	0.198
848	0.199
848	0.199
849	0.199
849	0.199
850	0.199
850	0.198
851	0.198
851	0.198
851	0.197
852	0.197
852	0.196
853	0.196
853	0.196
854	0.197
854	0.198
854	0.198
855	0.199
855	0.2
856	0.201
856	0.202
857	0.203
857	0.204
857	0.205
858	0.205
858	0.206
859	0.206
859	0.206
860	0.206
860	0.205
860	0.205
861	0.205
861	0.204
862	0.203
862	0.202
863	0.201
863	0.201
863	0.2
864	0.2
864	0.2
865	0.2
865	0.2
866	0.2
866	0.2
866	0.2
867	0.2
867	0.201
868	0.201
868	0.201
869	0.201
869	0.201
869	0.2
870	0.2
870	0.199
871	0.199
871	0.199
872	0.199
872	0.198
872	0.198
873	0.198
873	0.198
874	0.197
874	0.197
875	0.197
875	0.197
875	0.197
876	0.197
876	0.196
877	0.196
877	0.196
878	0.196
878	0.196
878	0.196
879	0.196
879	0.196
880	0.196
880	0.197
881	0.197
881	0.197
881	0.197
882	0.197
882	0.198
883	0.198
883	0.198
884	0.199
884	0.199
884	0.199
885	0.199
885	0.198
886	0.198
886	0.198
887	0.198
887	0.197
887	0.197
888	0.196
888	0.195
889	0.195
889	0.194
890	0.194
890	0.194
890	0.194
891	0.194
891	0.194
892	0.194
892	0.194
893	0.194
893	0.194
893	0.194
894	0.194
894	0.194
895	0.193
895	0.193
895	0.193
896	0.193
896	0.193
897	0.193
897	0.193
898	0.192
898	0.192
898	0.191
899	0.19
899	0.19
900	0.189
900	0.189
901	0.188
901	0.188
901	0.188
902	0.187
902	0.187
903	0.187
903	0.187
904	0.187
904	0.187
904	0.186
905	0.186
905	0.186
906	0.186
906	0.186
907	0.186
907	0.187
907	0.187
908	0.186
908	0.186
909	0.186
909	0.186
910	0.186
910	0.185
910	0.185
911	0.184
911	0.184
912	0.183
912	0.183
913	0.182
913	0.182
913	0.182
914	0.182
914	0.181
915	0.181
915	0.181
916	0.181
916	0.181
916	0.181
917	0.181
917	0.181
918	0.181
918	0.181
918	0.18
919	0.18
919	0.18
920	0.179
920	0.179
921	0.178
921	0.178
921	0.178
922	0.177
922	0.177
923	0.177
923	0.177
924	0.177
924	0.177
924	0.177
925	0.177
925	0.177
926	0.178
926	0.178
927	0.178
927	0.179
927	0.179
928	0.179
928	0.179
929	0.179
929	0.18
930	0.18
930	0.179
930	0.179
931	0.179
931	0.179
932	0.178
932	0.178
933	0.178
933	0.177
933	0.177
934	0.176
934	0.176
935	0.175
935	0.175
935	0.174
936	0.174
936	0.173
937	0.172
937	0.172
938	0.171
938	0.171
938	0.17
939	0.169
939	0.169
940	0.168
940	0.168
941	0.168
941	0.169
941	0.169
942	0.169
942	0.169
943	0.17
943	0.17
944	0.17
944	0.17
944	0.17
945	0.17
945	0.17
946	0.17
946	0.169
946	0.169
947	0.168
947	0.168
948	0.168
948	0.167
949	0.167
949	0.166
949	0.165
950	0.165
950	0.164
951	0.164
951	0.163
952	0.162
952	0.162
952	0.161
953	0.161
953	0.16
954	0.16
954	0.16
955	0.16
955	0.16
955	0.16
956	0.161
956	0.162
957	0.162
957	0.163
957	0.164
958	0.164
958	0.164
959	0.165
959	0.165
960	0.165
960	0.165
960	0.165
961	0.164
961	0.164
962	0.163
962	0.163
963	0.163
963	0.162
963	0.162
964	0.162
964	0.162
965	0.162
965	0.162
966	0.162
966	0.162
966	0.162
967	0.162
967	0.161
968	0.161
968	0.161
968	0.16
969	0.159
969	0.159
970	0.157
970	0.156
971	0.155
971	0.154
971	0.154
972	0.153
972	0.152
973	0.151
973	0.151
974	0.151
974	0.151
974	0.151
975	0.152
975	0.152
976	0.153
976	0.154
976	0.154
977	0.155
977	0.155
978	0.155
978	0.155
979	0.155
979	0.155
979	0.155
980	0.155
980	0.155
981	0.154
981	0.154
982	0.154
982	0.154
982	0.154
983	0.153
983	0.153
984	0.153
984	0.153
984	0.153
985	0.153
985	0.152
986	0.152
986	0.152
987	0.151
987	0.151
987	0.151
988	0.15
988	0.15
989	0.15
989	0.149
990	0.149
990	0.149
990	0.148
991	0.148
991	0.148
992	0.147
992	0.146
992	0.145
993	0.144
993	0.144
994	0.142
994	0.142
995	0.141
995	0.14
995	0.14
996	0.139
996	0.139
997	0.139
997	0.14
997	0.14
998	0.141
998	0.141
999	0.142
999	0.142
1000	0.143
1000	0.144
1000	0.145
1001	0.145
1001	0.145
1002	0.145
1002	0.145
1003	0.145
1003	0.145
1003	0.144
1004	0.144
1004	0.143
1005	0.142
1005	0.141
1005	0.141
1006	0.14
1006	0.139
1007	0.139
1007	0.138
1008	0.138
1008	0.138
1008	0.138
1009	0.138
1009	0.138
1010	0.138
1010	0.138
1010	0.137
1011	0.137
1011	0.137
1012	0.136
1012	0.136
1013	0.135
1013	0.135
1013	0.134
1014	0.133
1014	0.133
1015	0.132
1015	0.132
1016	0.132
1016	0.131
1016	0.131
1017	0.13
1017	0.13
1018	0.13
1018	0.13
1018	0.13
1019	0.129
1019	0.129
1020	0.129
1020	0.129
1021	0.129
1021	0.13
1021	0.13
1022	0.13
1022	0.13
1023	0.13
1023	0.131
1023	0.131
1024	0.131
1024	0.131
1025	0.131
1025	0.132
1026	0.132
1026	0.132
1026	0.132
1027	0.132
1027	0.132
1028	0.132
1028	0.132
1028	0.132
1029	0.132
1029	0.132
1030	0.132
1030	0.132
1031	0.132
1031	0.132
1031	0.132
1032	0.132
1032	0.132
1033	0.132
1033	0.132
1033	0.132
1034	0.132
1034	0.131
1035	0.131
1035	0.131
1036	0.131
1036	0.131
1036	0.13
1037	0.13
1037	0.13
1038	0.129
1038	0.129
1039	0.129
1039	0.128
1039	0.128
1040	0.128
1040	0.127
1041	0.127
1041	0.127
1041	0.126
1042	0.126
1042	0.126
1043	0.126
1043	0.125
1044	0.125
1044	0.125
1044	0.124
1045	0.124
1045	0.124
1046	0.123
1046	0.123
1046	0.122
1047	0.122
1047	0.122
1048	0.122
1048	0.122
1049	0.122
1049	0.122
1049	0.122
1050	0.122
1050	0.121
1051	0.121
1051	0.121
1051	0.121
1052	0.12
1052	0.12
1053	0.119
1053	0.119
1053	0.118
1054	0.117
1054	0.117
1055	0.116
1055	0.116
1056	0.115
1056	0.114
1056	0.114
1057	0.113
1057	0.112
1058	0.111
1058	0.11
1058	0.109
1059	0.108
1059	0.108
1060	0.107
1060	0.106
1061	0.105
1061	0.105
1061	0.105
1062	0.105
1062	0.104
1063	0.104
1063	0.104
1063	0.104
1064	0.104
1064	0.104
1065	0.104
1065	0.104
1066	0.104
1066	0.104
1066	0.104
1067	0.103
1067	0.103
1068	0.103
1068	0.103
1068	0.103
1069	0.103
1069	0.103
1070	0.102
1070	0.102
1071	0.102
1071	0.102
1071	0.101
1072	0.101
1072	0.101
1073	0.101
1073	0.1
1073	0.1
1074	0.101
1074	0.101
1075	0.101
1075	0.102
1076	0.102
1076	0.103
1076	0.103
1077	0.103
1077	0.104
1078	0.103
1078	0.103
1078	0.103
1079	0.102
1079	0.102
1080	0.101
1080	0.1
1080	0.1
1081	0.099
1081	0.099
1082	0.099
1082	0.099
1083	0.099
1083	0.099
1083	0.1
1084	0.1
1084	0.1
1085	0.101
1085	0.1
1085	0.101
1086	0.101
1086	0.101
1087	0.101
1087	0.1
1088	0.1
1088	0.1
1088	0.1
1089	0.099
1089	0.099
1090	0.098
1090	0.097
1090	0.096
1091	0.096
1091	0.095
1092	0.096
1092	0.096
1092	0.095
1093	0.095
1093	0.095
1094	0.094
1094	0.094
1095	0.094
1095	0.093
1095	0.093
1096	0.092
1096	0.091
1097	0.09
1097	0.089
1097	0.089
1098	0.088
1098	0.087
1099	0.087
1099	0.086
1100	0.085
1100	0.084
1100	0.083
1101	0.082
1101	0.081
1102	0.081
1102	0.08
1102	0.078
1103	0.078
1103	0.077
1104	0.076
1104	0.076
1104	0.075
1105	0.074
1105	0.072
1106	0.07
1106	0.07
1107	0.069
1107	0.069
1107	0.068
1108	0.066
1108	0.065
1109	0.063
1109	0.063
1109	0.064
1110	0.065
1110	0.066
1111	0.065
1111	0.066
