Data from reversibility-20sec_Absorbance__6315__000000000006315.txt Node

Date: Wed Dec 06 23:18:06 CET 2023
User: Marek
Spectrometer: MAYP115816
Trigger mode: 0
Integration Time (sec): 2.000000E-1
Scans to average: 10
Electric dark correction enabled: true
Nonlinearity correction enabled: true
Boxcar width: 5
XAxis mode: Wavelengths
Number of Pixels in Spectrum: 2068
>>>>>Begin Spectral Data<<<<<
199	-0.134
199	-0.114
200	-0.043
200	0.005
201	0.032
201	0.05
202	0.063
202	0.075
203	0.083
203	0.085
204	0.098
204	0.113
205	0.125
205	0.131
205	0.13
206	0.13
206	0.129
207	0.128
207	0.123
208	0.12
208	0.12
209	0.12
209	0.119
210	0.12
210	0.121
211	0.121
211	0.124
212	0.122
212	0.126
213	0.132
213	0.136
213	0.137
214	0.142
214	0.141
215	0.141
215	0.141
216	0.144
216	0.144
217	0.151
217	0.151
218	0.148
218	0.151
219	0.156
219	0.156
220	0.159
220	0.161
221	0.161
221	0.161
221	0.166
222	0.167
222	0.173
223	0.18
223	0.183
224	0.186
224	0.193
225	0.201
225	0.212
226	0.222
226	0.233
227	0.24
227	0.25
228	0.268
228	0.282
229	0.299
229	0.323
229	0.348
230	0.37
230	0.4
231	0.43
231	0.469
232	0.509
232	0.553
233	0.597
233	0.642
234	0.691
234	0.745
235	0.798
235	0.852
236	0.901
236	0.952
236	1.003
237	1.055
237	1.105
238	1.15
238	1.196
239	1.242
239	1.282
240	1.319
240	1.353
241	1.391
241	1.425
242	1.456
242	1.486
243	1.514
243	1.541
243	1.569
244	1.591
244	1.61
245	1.628
245	1.653
246	1.667
246	1.686
247	1.7
247	1.714
248	1.727
248	1.741
249	1.749
249	1.757
250	1.764
250	1.772
250	1.775
251	1.781
251	1.78
252	1.784
252	1.784
253	1.784
253	1.778
254	1.776
254	1.776
255	1.776
255	1.775
256	1.773
256	1.771
257	1.77
257	1.77
258	1.768
258	1.769
258	1.77
259	1.771
259	1.77
260	1.77
260	1.772
261	1.774
261	1.777
262	1.781
262	1.782
263	1.786
263	1.786
264	1.788
264	1.79
265	1.791
265	1.792
265	1.793
266	1.793
266	1.793
267	1.791
267	1.791
268	1.789
268	1.79
269	1.792
269	1.791
270	1.791
270	1.79
271	1.787
271	1.787
272	1.784
272	1.781
272	1.777
273	1.772
273	1.765
274	1.758
274	1.751
275	1.743
275	1.736
276	1.729
276	1.719
277	1.711
277	1.702
278	1.69
278	1.677
278	1.664
279	1.646
279	1.624
280	1.597
280	1.564
281	1.526
281	1.483
282	1.439
282	1.395
283	1.351
283	1.309
284	1.268
284	1.229
285	1.192
285	1.159
285	1.129
286	1.103
286	1.081
287	1.062
287	1.045
288	1.031
288	1.018
289	1.008
289	0.999
290	0.991
290	0.985
291	0.979
291	0.974
292	0.969
292	0.965
292	0.961
293	0.957
293	0.953
294	0.95
294	0.948
295	0.945
295	0.942
296	0.939
296	0.936
297	0.933
297	0.93
298	0.928
298	0.925
298	0.922
299	0.919
299	0.916
300	0.914
300	0.911
301	0.909
301	0.906
302	0.904
302	0.901
303	0.899
303	0.897
304	0.895
304	0.893
305	0.89
305	0.889
305	0.886
306	0.884
306	0.882
307	0.879
307	0.877
308	0.875
308	0.872
309	0.87
309	0.867
310	0.864
310	0.861
311	0.858
311	0.855
311	0.852
312	0.849
312	0.845
313	0.842
313	0.838
314	0.835
314	0.83
315	0.826
315	0.822
316	0.818
316	0.813
317	0.808
317	0.804
318	0.799
318	0.794
318	0.789
319	0.783
319	0.778
320	0.773
320	0.767
321	0.761
321	0.755
322	0.749
322	0.743
323	0.736
323	0.73
324	0.723
324	0.717
324	0.71
325	0.703
325	0.696
326	0.69
326	0.683
327	0.676
327	0.669
328	0.663
328	0.656
329	0.649
329	0.642
330	0.635
330	0.628
330	0.621
331	0.614
331	0.607
332	0.6
332	0.593
333	0.586
333	0.579
334	0.572
334	0.565
335	0.558
335	0.552
336	0.545
336	0.539
336	0.532
337	0.526
337	0.519
338	0.513
338	0.507
339	0.501
339	0.495
340	0.489
340	0.484
341	0.478
341	0.473
342	0.467
342	0.462
342	0.456
343	0.451
343	0.446
344	0.441
344	0.436
345	0.432
345	0.427
346	0.422
346	0.418
347	0.414
347	0.409
348	0.405
348	0.401
348	0.398
349	0.394
349	0.39
350	0.387
350	0.383
351	0.38
351	0.377
352	0.373
352	0.37
353	0.367
353	0.365
354	0.362
354	0.359
354	0.356
355	0.353
355	0.35
356	0.347
356	0.344
357	0.341
357	0.339
358	0.336
358	0.333
359	0.331
359	0.329
360	0.327
360	0.325
360	0.323
361	0.321
361	0.319
362	0.318
362	0.317
363	0.315
363	0.313
364	0.311
364	0.31
365	0.308
365	0.306
366	0.305
366	0.303
366	0.302
367	0.3
367	0.298
368	0.297
368	0.295
369	0.294
369	0.293
370	0.291
370	0.29
371	0.289
371	0.287
372	0.286
372	0.285
372	0.284
373	0.283
373	0.282
374	0.281
374	0.28
375	0.279
375	0.278
376	0.277
376	0.276
377	0.276
377	0.275
378	0.274
378	0.273
378	0.272
379	0.272
379	0.271
380	0.27
380	0.27
381	0.269
381	0.268
382	0.268
382	0.267
383	0.267
383	0.266
383	0.266
384	0.265
384	0.265
385	0.264
385	0.264
386	0.263
386	0.263
387	0.262
387	0.262
388	0.262
388	0.261
389	0.261
389	0.261
389	0.26
390	0.26
390	0.26
391	0.259
391	0.259
392	0.259
392	0.259
393	0.258
393	0.258
394	0.258
394	0.257
394	0.257
395	0.257
395	0.256
396	0.256
396	0.256
397	0.255
397	0.255
398	0.255
398	0.254
399	0.254
399	0.254
400	0.254
400	0.254
400	0.253
401	0.253
401	0.253
402	0.252
402	0.252
403	0.252
403	0.252
404	0.252
404	0.252
405	0.251
405	0.251
405	0.251
406	0.251
406	0.25
407	0.25
407	0.25
408	0.249
408	0.249
409	0.249
409	0.248
410	0.248
410	0.248
411	0.248
411	0.247
411	0.247
412	0.247
412	0.246
413	0.246
413	0.246
414	0.246
414	0.245
415	0.245
415	0.245
416	0.245
416	0.244
416	0.244
417	0.243
417	0.243
418	0.243
418	0.243
419	0.242
419	0.242
420	0.241
420	0.241
421	0.241
421	0.24
421	0.24
422	0.24
422	0.239
423	0.239
423	0.239
424	0.238
424	0.238
425	0.238
425	0.237
426	0.237
426	0.237
427	0.236
427	0.236
427	0.236
428	0.235
428	0.235
429	0.235
429	0.234
430	0.234
430	0.234
431	0.234
431	0.234
432	0.234
432	0.233
432	0.233
433	0.233
433	0.233
434	0.233
434	0.233
435	0.232
435	0.232
436	0.232
436	0.232
437	0.232
437	0.231
437	0.231
438	0.231
438	0.231
439	0.231
439	0.231
440	0.23
440	0.23
441	0.23
441	0.229
442	0.229
442	0.229
442	0.229
443	0.229
443	0.228
444	0.228
444	0.228
445	0.228
445	0.227
446	0.227
446	0.227
447	0.226
447	0.226
447	0.226
448	0.226
448	0.225
449	0.225
449	0.225
450	0.225
450	0.225
451	0.224
451	0.225
452	0.224
452	0.224
452	0.224
453	0.224
453	0.224
454	0.224
454	0.224
455	0.223
455	0.223
456	0.223
456	0.222
457	0.222
457	0.222
458	0.221
458	0.221
458	0.221
459	0.221
459	0.221
460	0.22
460	0.22
461	0.22
461	0.219
462	0.219
462	0.219
463	0.219
463	0.219
463	0.219
464	0.218
464	0.218
465	0.217
465	0.217
466	0.217
466	0.217
467	0.217
467	0.217
467	0.217
468	0.217
468	0.217
469	0.217
469	0.217
470	0.218
470	0.218
471	0.218
471	0.218
472	0.218
472	0.218
472	0.218
473	0.218
473	0.217
474	0.217
474	0.217
475	0.217
475	0.217
476	0.217
476	0.217
477	0.217
477	0.216
477	0.217
478	0.216
478	0.216
479	0.216
479	0.216
480	0.216
480	0.216
481	0.216
481	0.216
482	0.216
482	0.216
482	0.216
483	0.216
483	0.216
484	0.216
484	0.216
485	0.216
485	0.216
486	0.216
486	0.216
487	0.216
487	0.216
487	0.217
488	0.217
488	0.217
489	0.217
489	0.218
490	0.218
490	0.219
491	0.219
491	0.219
492	0.22
492	0.22
492	0.22
493	0.221
493	0.221
494	0.221
494	0.221
495	0.222
495	0.222
496	0.222
496	0.223
496	0.223
497	0.223
497	0.223
498	0.224
498	0.224
499	0.225
499	0.225
500	0.226
500	0.226
501	0.227
501	0.227
501	0.227
502	0.228
502	0.228
503	0.228
503	0.229
504	0.229
504	0.23
505	0.23
505	0.23
506	0.231
506	0.231
506	0.231
507	0.231
507	0.232
508	0.232
508	0.232
509	0.233
509	0.233
510	0.233
510	0.234
511	0.234
511	0.235
511	0.236
512	0.236
512	0.236
513	0.237
513	0.237
514	0.238
514	0.238
515	0.239
515	0.239
515	0.239
516	0.24
516	0.24
517	0.24
517	0.241
518	0.241
518	0.241
519	0.241
519	0.242
520	0.242
520	0.242
520	0.243
521	0.243
521	0.243
522	0.244
522	0.244
523	0.244
523	0.244
524	0.244
524	0.244
524	0.244
525	0.245
525	0.245
526	0.245
526	0.245
527	0.245
527	0.245
528	0.245
528	0.245
529	0.245
529	0.245
529	0.245
530	0.245
530	0.245
531	0.245
531	0.245
532	0.244
532	0.244
533	0.244
533	0.244
533	0.244
534	0.244
534	0.244
535	0.244
535	0.244
536	0.243
536	0.243
537	0.243
537	0.243
538	0.243
538	0.243
538	0.242
539	0.242
539	0.242
540	0.242
540	0.242
541	0.241
541	0.241
542	0.241
542	0.24
542	0.24
543	0.24
543	0.24
544	0.24
544	0.239
545	0.239
545	0.239
546	0.239
546	0.239
547	0.238
547	0.238
547	0.238
548	0.237
548	0.237
549	0.237
549	0.237
550	0.236
550	0.236
551	0.236
551	0.235
551	0.235
552	0.235
552	0.234
553	0.234
553	0.234
554	0.233
554	0.233
555	0.232
555	0.231
556	0.23
556	0.23
556	0.23
557	0.23
557	0.23
558	0.23
558	0.229
559	0.229
559	0.229
560	0.229
560	0.229
560	0.229
561	0.229
561	0.229
562	0.228
562	0.227
563	0.227
563	0.226
564	0.225
564	0.225
564	0.225
565	0.224
565	0.224
566	0.224
566	0.223
567	0.223
567	0.223
568	0.223
568	0.223
568	0.222
569	0.222
569	0.221
570	0.22
570	0.22
571	0.219
571	0.219
572	0.218
572	0.218
573	0.217
573	0.217
573	0.217
574	0.216
574	0.216
575	0.216
575	0.216
576	0.216
576	0.216
577	0.215
577	0.214
577	0.214
578	0.214
578	0.213
579	0.214
579	0.214
580	0.213
580	0.212
581	0.211
581	0.211
581	0.211
582	0.212
582	0.212
583	0.212
583	0.212
584	0.211
584	0.21
585	0.21
585	0.21
585	0.209
586	0.209
586	0.208
587	0.207
587	0.207
588	0.206
588	0.206
589	0.205
589	0.205
590	0.205
590	0.205
590	0.206
591	0.206
591	0.205
592	0.205
592	0.205
593	0.205
593	0.204
594	0.204
594	0.203
594	0.203
595	0.202
595	0.202
596	0.201
596	0.201
597	0.202
597	0.202
598	0.202
598	0.202
598	0.201
599	0.201
599	0.201
600	0.2
600	0.2
601	0.2
601	0.2
602	0.199
602	0.198
602	0.198
603	0.198
603	0.198
604	0.198
604	0.198
605	0.198
605	0.198
606	0.198
606	0.197
606	0.197
607	0.197
607	0.197
608	0.197
608	0.196
609	0.196
609	0.196
610	0.195
610	0.195
610	0.195
611	0.195
611	0.194
612	0.194
612	0.194
613	0.194
613	0.194
614	0.194
614	0.194
614	0.194
615	0.194
615	0.194
616	0.194
616	0.194
617	0.194
617	0.193
618	0.193
618	0.193
618	0.194
619	0.194
619	0.194
620	0.194
620	0.194
621	0.194
621	0.193
622	0.193
622	0.192
622	0.192
623	0.191
623	0.191
624	0.191
624	0.19
625	0.189
625	0.189
626	0.189
626	0.188
626	0.189
627	0.189
627	0.188
628	0.188
628	0.188
629	0.187
629	0.187
630	0.187
630	0.187
630	0.187
631	0.187
631	0.186
632	0.186
632	0.186
633	0.186
633	0.186
634	0.186
634	0.187
634	0.186
635	0.186
635	0.186
636	0.186
636	0.186
637	0.186
637	0.185
638	0.185
638	0.185
638	0.185
639	0.184
639	0.184
640	0.185
640	0.185
641	0.184
641	0.184
642	0.184
642	0.185
642	0.185
643	0.185
643	0.185
644	0.185
644	0.185
645	0.185
645	0.184
646	0.184
646	0.184
646	0.184
647	0.184
647	0.183
648	0.183
648	0.182
649	0.182
649	0.182
650	0.181
650	0.181
650	0.182
651	0.182
651	0.182
652	0.182
652	0.182
653	0.183
653	0.185
653	0.191
654	0.15
654	0.12
655	0.121
655	0.121
656	0.121
656	0.121
657	0.122
657	0.122
657	0.122
658	0.121
658	0.111
659	0.14
659	0.18
660	0.185
660	0.185
661	0.184
661	0.184
661	0.184
662	0.183
662	0.183
663	0.183
663	0.183
664	0.182
664	0.182
665	0.182
665	0.182
665	0.181
666	0.182
666	0.182
667	0.182
667	0.182
668	0.183
668	0.183
669	0.183
669	0.184
669	0.184
670	0.185
670	0.185
671	0.185
671	0.185
672	0.185
672	0.184
672	0.184
673	0.183
673	0.183
674	0.183
674	0.182
675	0.181
675	0.181
676	0.181
676	0.182
676	0.182
677	0.182
677	0.182
678	0.182
678	0.181
679	0.181
679	0.182
680	0.182
680	0.182
680	0.181
681	0.181
681	0.182
682	0.182
682	0.182
683	0.182
683	0.183
684	0.183
684	0.182
684	0.182
685	0.182
685	0.182
686	0.182
686	0.182
687	0.182
687	0.182
687	0.182
688	0.182
688	0.182
689	0.183
689	0.183
690	0.183
690	0.183
691	0.183
691	0.183
691	0.183
692	0.183
692	0.183
693	0.184
693	0.184
694	0.183
694	0.183
695	0.184
695	0.185
695	0.185
696	0.185
696	0.185
697	0.185
697	0.185
698	0.184
698	0.184
698	0.184
699	0.184
699	0.183
700	0.183
700	0.183
701	0.184
701	0.184
702	0.184
702	0.184
702	0.185
703	0.185
703	0.185
704	0.185
704	0.185
705	0.185
705	0.185
705	0.185
706	0.185
706	0.185
707	0.185
707	0.185
708	0.185
708	0.185
709	0.185
709	0.185
709	0.184
710	0.185
710	0.185
711	0.186
711	0.186
712	0.186
712	0.186
713	0.186
713	0.186
713	0.186
714	0.186
714	0.186
715	0.186
715	0.185
716	0.185
716	0.185
716	0.184
717	0.183
717	0.183
718	0.182
718	0.182
719	0.183
719	0.183
720	0.183
720	0.184
720	0.184
721	0.185
721	0.185
722	0.186
722	0.187
723	0.187
723	0.188
723	0.188
724	0.188
724	0.188
725	0.187
725	0.187
726	0.186
726	0.186
727	0.185
727	0.184
727	0.184
728	0.184
728	0.183
729	0.184
729	0.184
730	0.184
730	0.184
730	0.185
731	0.186
731	0.187
732	0.188
732	0.188
733	0.189
733	0.189
734	0.19
734	0.19
734	0.19
735	0.191
735	0.19
736	0.19
736	0.19
737	0.19
737	0.19
737	0.19
738	0.189
738	0.188
739	0.188
739	0.188
740	0.187
740	0.187
741	0.188
741	0.187
741	0.187
742	0.187
742	0.188
743	0.189
743	0.19
744	0.191
744	0.191
744	0.192
745	0.192
745	0.192
746	0.193
746	0.193
747	0.193
747	0.193
748	0.192
748	0.192
748	0.192
749	0.191
749	0.191
750	0.191
750	0.191
751	0.191
751	0.191
751	0.191
752	0.191
752	0.19
753	0.19
753	0.189
754	0.189
754	0.189
754	0.189
755	0.189
755	0.189
756	0.189
756	0.188
757	0.187
757	0.188
758	0.188
758	0.188
758	0.188
759	0.189
759	0.189
760	0.189
760	0.189
761	0.189
761	0.19
761	0.19
762	0.19
762	0.191
763	0.191
763	0.19
764	0.19
764	0.191
764	0.191
765	0.191
765	0.191
766	0.191
766	0.191
767	0.191
767	0.19
768	0.19
768	0.19
768	0.19
769	0.19
769	0.19
770	0.191
770	0.191
771	0.192
771	0.192
771	0.193
772	0.194
772	0.194
773	0.195
773	0.195
774	0.196
774	0.196
775	0.197
775	0.197
775	0.197
776	0.198
776	0.198
777	0.198
777	0.199
778	0.199
778	0.199
778	0.199
779	0.199
779	0.199
780	0.198
780	0.198
781	0.197
781	0.197
781	0.197
782	0.196
782	0.196
783	0.197
783	0.197
784	0.197
784	0.198
784	0.198
785	0.199
785	0.199
786	0.2
786	0.2
787	0.2
787	0.199
788	0.199
788	0.198
788	0.197
789	0.196
789	0.196
790	0.196
790	0.195
791	0.195
791	0.195
791	0.195
792	0.196
792	0.196
793	0.197
793	0.197
794	0.197
794	0.197
794	0.197
795	0.198
795	0.199
796	0.199
796	0.199
797	0.199
797	0.199
797	0.2
798	0.2
798	0.2
799	0.2
799	0.2
800	0.199
800	0.199
801	0.198
801	0.198
801	0.198
802	0.198
802	0.199
803	0.199
803	0.199
804	0.2
804	0.2
804	0.201
805	0.201
805	0.201
806	0.201
806	0.2
807	0.2
807	0.2
807	0.2
808	0.199
808	0.199
809	0.199
809	0.199
810	0.199
810	0.199
810	0.199
811	0.2
811	0.201
812	0.202
812	0.202
813	0.203
813	0.203
813	0.204
814	0.205
814	0.205
815	0.206
815	0.206
816	0.206
816	0.206
817	0.205
817	0.205
817	0.205
818	0.204
818	0.204
819	0.203
819	0.203
820	0.202
820	0.202
820	0.201
821	0.202
821	0.202
822	0.202
822	0.203
823	0.203
823	0.203
823	0.204
824	0.205
824	0.206
825	0.207
825	0.208
826	0.208
826	0.208
826	0.208
827	0.208
827	0.209
828	0.209
828	0.209
829	0.209
829	0.209
829	0.209
830	0.21
830	0.21
831	0.211
831	0.212
832	0.212
832	0.212
832	0.211
833	0.211
833	0.211
834	0.21
834	0.21
835	0.209
835	0.208
835	0.208
836	0.208
836	0.207
837	0.207
837	0.207
838	0.207
838	0.207
839	0.206
839	0.206
839	0.205
840	0.204
840	0.203
841	0.202
841	0.202
842	0.201
842	0.2
842	0.199
843	0.199
843	0.198
844	0.197
844	0.197
845	0.196
845	0.196
845	0.196
846	0.196
846	0.196
847	0.196
847	0.196
848	0.197
848	0.197
848	0.198
849	0.199
849	0.2
850	0.2
850	0.201
851	0.201
851	0.201
851	0.201
852	0.201
852	0.201
853	0.2
853	0.2
854	0.2
854	0.2
854	0.201
855	0.201
855	0.201
856	0.202
856	0.202
857	0.203
857	0.204
857	0.205
858	0.205
858	0.205
859	0.204
859	0.204
860	0.203
860	0.203
860	0.202
861	0.201
861	0.2
862	0.199
862	0.198
863	0.197
863	0.197
863	0.196
864	0.196
864	0.196
865	0.197
865	0.197
866	0.197
866	0.197
866	0.198
867	0.198
867	0.199
868	0.2
868	0.2
869	0.201
869	0.2
869	0.2
870	0.2
870	0.2
871	0.2
871	0.2
872	0.2
872	0.2
872	0.2
873	0.2
873	0.199
874	0.199
874	0.198
875	0.198
875	0.198
875	0.197
876	0.197
876	0.196
877	0.196
877	0.196
878	0.196
878	0.196
878	0.196
879	0.197
879	0.197
880	0.197
880	0.198
881	0.198
881	0.198
881	0.199
882	0.199
882	0.199
883	0.199
883	0.199
884	0.199
884	0.199
884	0.199
885	0.199
885	0.198
886	0.198
886	0.197
887	0.196
887	0.195
887	0.195
888	0.194
888	0.193
889	0.192
889	0.191
890	0.191
890	0.191
890	0.19
891	0.19
891	0.19
892	0.19
892	0.19
893	0.189
893	0.189
893	0.189
894	0.189
894	0.189
895	0.189
895	0.189
895	0.189
896	0.19
896	0.19
897	0.19
897	0.19
898	0.19
898	0.19
898	0.189
899	0.189
899	0.188
900	0.188
900	0.187
901	0.186
901	0.185
901	0.185
902	0.184
902	0.184
903	0.183
903	0.183
904	0.183
904	0.183
904	0.183
905	0.183
905	0.182
906	0.182
906	0.182
907	0.182
907	0.183
907	0.183
908	0.183
908	0.183
909	0.183
909	0.182
910	0.182
910	0.182
910	0.182
911	0.182
911	0.181
912	0.181
912	0.181
913	0.18
913	0.18
913	0.18
914	0.18
914	0.18
915	0.18
915	0.18
916	0.18
916	0.18
916	0.18
917	0.179
917	0.179
918	0.178
918	0.178
918	0.177
919	0.176
919	0.176
920	0.175
920	0.175
921	0.174
921	0.174
921	0.174
922	0.174
922	0.174
923	0.174
923	0.174
924	0.174
924	0.174
924	0.175
925	0.175
925	0.176
926	0.176
926	0.176
927	0.177
927	0.177
927	0.177
928	0.177
928	0.177
929	0.177
929	0.177
930	0.177
930	0.176
930	0.176
931	0.175
931	0.175
932	0.174
932	0.174
933	0.173
933	0.173
933	0.172
934	0.172
934	0.171
935	0.171
935	0.17
935	0.17
936	0.17
936	0.169
937	0.169
937	0.168
938	0.168
938	0.168
938	0.167
939	0.167
939	0.166
940	0.166
940	0.166
941	0.166
941	0.166
941	0.167
942	0.167
942	0.167
943	0.167
943	0.167
944	0.167
944	0.167
944	0.167
945	0.166
945	0.166
946	0.166
946	0.166
946	0.165
947	0.165
947	0.165
948	0.164
948	0.164
949	0.164
949	0.163
949	0.163
950	0.162
950	0.162
951	0.161
951	0.161
952	0.16
952	0.159
952	0.159
953	0.158
953	0.158
954	0.158
954	0.157
955	0.157
955	0.157
955	0.157
956	0.157
956	0.157
957	0.157
957	0.157
957	0.157
958	0.157
958	0.157
959	0.157
959	0.157
960	0.157
960	0.157
960	0.156
961	0.156
961	0.156
962	0.156
962	0.156
963	0.156
963	0.156
963	0.156
964	0.156
964	0.156
965	0.157
965	0.157
966	0.157
966	0.156
966	0.156
967	0.156
967	0.155
968	0.155
968	0.154
968	0.153
969	0.152
969	0.151
970	0.151
970	0.15
971	0.149
971	0.148
971	0.148
972	0.147
972	0.147
973	0.146
973	0.146
974	0.146
974	0.146
974	0.147
975	0.147
975	0.147
976	0.148
976	0.148
976	0.149
977	0.149
977	0.149
978	0.149
978	0.148
979	0.148
979	0.148
979	0.148
980	0.147
980	0.147
981	0.147
981	0.146
982	0.146
982	0.146
982	0.146
983	0.146
983	0.146
984	0.146
984	0.146
984	0.146
985	0.146
985	0.146
986	0.146
986	0.145
987	0.145
987	0.145
987	0.145
988	0.144
988	0.144
989	0.144
989	0.144
990	0.143
990	0.143
990	0.142
991	0.142
991	0.141
992	0.141
992	0.14
992	0.139
993	0.138
993	0.137
994	0.135
994	0.134
995	0.133
995	0.133
995	0.132
996	0.132
996	0.132
997	0.132
997	0.132
997	0.133
998	0.133
998	0.134
999	0.135
999	0.136
1000	0.136
1000	0.137
1000	0.137
1001	0.138
1001	0.138
1002	0.138
1002	0.138
1003	0.137
1003	0.137
1003	0.136
1004	0.135
1004	0.134
1005	0.134
1005	0.133
1005	0.132
1006	0.131
1006	0.13
1007	0.129
1007	0.129
1008	0.128
1008	0.128
1008	0.128
1009	0.128
1009	0.128
1010	0.128
1010	0.128
1010	0.128
1011	0.128
1011	0.128
1012	0.128
1012	0.128
1013	0.128
1013	0.127
1013	0.127
1014	0.126
1014	0.126
1015	0.126
1015	0.125
1016	0.125
1016	0.125
1016	0.124
1017	0.124
1017	0.123
1018	0.123
1018	0.123
1018	0.122
1019	0.122
1019	0.122
1020	0.121
1020	0.121
1021	0.121
1021	0.121
1021	0.121
1022	0.122
1022	0.122
1023	0.122
1023	0.123
1023	0.123
1024	0.124
1024	0.124
1025	0.124
1025	0.124
1026	0.124
1026	0.124
1026	0.124
1027	0.125
1027	0.125
1028	0.125
1028	0.124
1028	0.124
1029	0.124
1029	0.124
1030	0.124
1030	0.125
1031	0.125
1031	0.125
1031	0.125
1032	0.125
1032	0.125
1033	0.125
1033	0.125
1033	0.125
1034	0.125
1034	0.125
1035	0.125
1035	0.125
1036	0.125
1036	0.124
1036	0.124
1037	0.124
1037	0.124
1038	0.123
1038	0.123
1039	0.123
1039	0.122
1039	0.122
1040	0.122
1040	0.122
1041	0.122
1041	0.121
1041	0.121
1042	0.121
1042	0.121
1043	0.121
1043	0.12
1044	0.12
1044	0.12
1044	0.119
1045	0.119
1045	0.119
1046	0.119
1046	0.118
1046	0.118
1047	0.118
1047	0.118
1048	0.118
1048	0.118
1049	0.118
1049	0.118
1049	0.117
1050	0.117
1050	0.117
1051	0.117
1051	0.116
1051	0.116
1052	0.115
1052	0.115
1053	0.114
1053	0.114
1053	0.113
1054	0.112
1054	0.112
1055	0.111
1055	0.111
1056	0.11
1056	0.109
1056	0.108
1057	0.107
1057	0.107
1058	0.106
1058	0.105
1058	0.104
1059	0.104
1059	0.103
1060	0.102
1060	0.102
1061	0.101
1061	0.101
1061	0.1
1062	0.1
1062	0.1
1063	0.099
1063	0.099
1063	0.098
1064	0.098
1064	0.098
1065	0.098
1065	0.098
1066	0.098
1066	0.098
1066	0.098
1067	0.098
1067	0.098
1068	0.097
1068	0.097
1068	0.097
1069	0.097
1069	0.096
1070	0.096
1070	0.096
1071	0.095
1071	0.095
1071	0.094
1072	0.094
1072	0.093
1073	0.093
1073	0.092
1073	0.092
1074	0.092
1074	0.092
1075	0.092
1075	0.092
1076	0.092
1076	0.093
1076	0.093
1077	0.093
1077	0.093
1078	0.093
1078	0.093
1078	0.093
1079	0.092
1079	0.092
1080	0.091
1080	0.091
1080	0.09
1081	0.09
1081	0.09
1082	0.09
1082	0.091
1083	0.09
1083	0.089
1083	0.09
1084	0.089
1084	0.09
1085	0.09
1085	0.09
1085	0.09
1086	0.09
1086	0.089
1087	0.089
1087	0.089
1088	0.089
1088	0.089
1088	0.089
1089	0.088
1089	0.088
1090	0.087
1090	0.087
1090	0.086
1091	0.086
1091	0.086
1092	0.086
1092	0.086
1092	0.086
1093	0.085
1093	0.085
1094	0.085
1094	0.085
1095	0.084
1095	0.083
1095	0.083
1096	0.083
1096	0.082
1097	0.081
1097	0.08
1097	0.079
1098	0.078
1098	0.076
1099	0.075
1099	0.073
1100	0.072
1100	0.07
1100	0.068
1101	0.067
1101	0.066
1102	0.064
1102	0.063
1102	0.062
1103	0.062
1103	0.061
1104	0.06
1104	0.061
1104	0.06
1105	0.059
1105	0.057
1106	0.055
1106	0.055
1107	0.055
1107	0.054
1107	0.053
1108	0.052
1108	0.051
1109	0.05
1109	0.05
1109	0.05
1110	0.052
1110	0.051
1111	0.052
1111	0.047
