Data from reversibility-20sec_Absorbance__7965__000000000007965.txt Node

Date: Thu Dec 07 08:28:06 CET 2023
User: Marek
Spectrometer: MAYP115816
Trigger mode: 0
Integration Time (sec): 2.000000E-1
Scans to average: 10
Electric dark correction enabled: true
Nonlinearity correction enabled: true
Boxcar width: 5
XAxis mode: Wavelengths
Number of Pixels in Spectrum: 2068
>>>>>Begin Spectral Data<<<<<
199	-0.09
199	-0.069
200	-0.009
200	0.034
201	0.058
201	0.078
202	0.082
202	0.091
203	0.103
203	0.109
204	0.121
204	0.133
205	0.144
205	0.149
205	0.149
206	0.15
206	0.149
207	0.154
207	0.153
208	0.149
208	0.145
209	0.149
209	0.147
210	0.15
210	0.149
211	0.151
211	0.154
212	0.15
212	0.153
213	0.155
213	0.156
213	0.157
214	0.159
214	0.16
215	0.161
215	0.162
216	0.163
216	0.16
217	0.166
217	0.163
218	0.162
218	0.166
219	0.171
219	0.17
220	0.177
220	0.175
221	0.175
221	0.177
221	0.183
222	0.189
222	0.195
223	0.204
223	0.21
224	0.218
224	0.228
225	0.232
225	0.246
226	0.256
226	0.267
227	0.277
227	0.287
228	0.299
228	0.311
229	0.324
229	0.345
229	0.366
230	0.392
230	0.419
231	0.452
231	0.488
232	0.526
232	0.568
233	0.613
233	0.662
234	0.713
234	0.763
235	0.818
235	0.872
236	0.923
236	0.976
236	1.027
237	1.077
237	1.128
238	1.175
238	1.222
239	1.268
239	1.311
240	1.348
240	1.386
241	1.422
241	1.455
242	1.487
242	1.521
243	1.549
243	1.574
243	1.599
244	1.62
244	1.642
245	1.662
245	1.684
246	1.703
246	1.718
247	1.731
247	1.741
248	1.756
248	1.769
249	1.779
249	1.787
250	1.793
250	1.8
250	1.8
251	1.805
251	1.808
252	1.812
252	1.813
253	1.813
253	1.81
254	1.808
254	1.808
255	1.808
255	1.808
256	1.809
256	1.807
257	1.807
257	1.807
258	1.808
258	1.809
258	1.81
259	1.81
259	1.81
260	1.809
260	1.809
261	1.809
261	1.811
262	1.812
262	1.812
263	1.814
263	1.815
264	1.814
264	1.814
265	1.814
265	1.813
265	1.813
266	1.812
266	1.814
267	1.812
267	1.812
268	1.811
268	1.81
269	1.813
269	1.812
270	1.812
270	1.811
271	1.811
271	1.811
272	1.807
272	1.805
272	1.802
273	1.799
273	1.794
274	1.789
274	1.784
275	1.777
275	1.771
276	1.763
276	1.755
277	1.748
277	1.738
278	1.727
278	1.714
278	1.699
279	1.684
279	1.664
280	1.642
280	1.614
281	1.58
281	1.543
282	1.503
282	1.461
283	1.421
283	1.381
284	1.341
284	1.303
285	1.266
285	1.233
285	1.203
286	1.176
286	1.153
287	1.132
287	1.115
288	1.099
288	1.086
289	1.075
289	1.065
290	1.057
290	1.049
291	1.042
291	1.037
292	1.031
292	1.026
292	1.021
293	1.017
293	1.013
294	1.009
294	1.006
295	1.002
295	0.999
296	0.995
296	0.992
297	0.989
297	0.985
298	0.982
298	0.979
298	0.976
299	0.973
299	0.97
300	0.966
300	0.963
301	0.96
301	0.958
302	0.955
302	0.952
303	0.95
303	0.947
304	0.945
304	0.942
305	0.94
305	0.937
305	0.935
306	0.933
306	0.93
307	0.927
307	0.925
308	0.922
308	0.919
309	0.916
309	0.913
310	0.91
310	0.907
311	0.904
311	0.9
311	0.897
312	0.893
312	0.89
313	0.886
313	0.882
314	0.878
314	0.873
315	0.869
315	0.864
316	0.86
316	0.855
317	0.85
317	0.845
318	0.84
318	0.835
318	0.83
319	0.824
319	0.818
320	0.813
320	0.807
321	0.8
321	0.794
322	0.788
322	0.781
323	0.775
323	0.768
324	0.761
324	0.754
324	0.747
325	0.74
325	0.734
326	0.726
326	0.719
327	0.712
327	0.705
328	0.698
328	0.691
329	0.684
329	0.676
330	0.669
330	0.662
330	0.655
331	0.648
331	0.64
332	0.633
332	0.626
333	0.618
333	0.611
334	0.604
334	0.597
335	0.59
335	0.583
336	0.577
336	0.57
336	0.563
337	0.557
337	0.55
338	0.544
338	0.537
339	0.531
339	0.525
340	0.519
340	0.513
341	0.507
341	0.502
342	0.496
342	0.491
342	0.485
343	0.48
343	0.474
344	0.469
344	0.464
345	0.459
345	0.454
346	0.449
346	0.445
347	0.441
347	0.436
348	0.432
348	0.428
348	0.424
349	0.42
349	0.416
350	0.413
350	0.409
351	0.405
351	0.402
352	0.399
352	0.396
353	0.392
353	0.39
354	0.386
354	0.384
354	0.381
355	0.377
355	0.374
356	0.372
356	0.369
357	0.365
357	0.363
358	0.36
358	0.357
359	0.355
359	0.352
360	0.35
360	0.348
360	0.346
361	0.344
361	0.342
362	0.341
362	0.339
363	0.337
363	0.336
364	0.333
364	0.331
365	0.329
365	0.328
366	0.326
366	0.324
366	0.322
367	0.321
367	0.319
368	0.317
368	0.316
369	0.314
369	0.313
370	0.311
370	0.31
371	0.308
371	0.307
372	0.306
372	0.305
372	0.303
373	0.302
373	0.301
374	0.3
374	0.299
375	0.299
375	0.297
376	0.297
376	0.296
377	0.295
377	0.294
378	0.292
378	0.291
378	0.291
379	0.29
379	0.289
380	0.288
380	0.287
381	0.286
381	0.286
382	0.285
382	0.284
383	0.284
383	0.283
383	0.283
384	0.282
384	0.282
385	0.281
385	0.281
386	0.28
386	0.28
387	0.279
387	0.279
388	0.278
388	0.278
389	0.278
389	0.277
389	0.277
390	0.277
390	0.276
391	0.276
391	0.275
392	0.275
392	0.275
393	0.274
393	0.274
394	0.273
394	0.273
394	0.273
395	0.272
395	0.272
396	0.271
396	0.271
397	0.27
397	0.27
398	0.269
398	0.269
399	0.269
399	0.268
400	0.268
400	0.267
400	0.267
401	0.267
401	0.266
402	0.266
402	0.266
403	0.266
403	0.265
404	0.265
404	0.265
405	0.264
405	0.264
405	0.264
406	0.264
406	0.264
407	0.263
407	0.263
408	0.263
408	0.263
409	0.262
409	0.262
410	0.262
410	0.261
411	0.261
411	0.261
411	0.261
412	0.26
412	0.26
413	0.26
413	0.259
414	0.259
414	0.259
415	0.258
415	0.258
416	0.257
416	0.257
416	0.257
417	0.256
417	0.256
418	0.256
418	0.255
419	0.255
419	0.254
420	0.254
420	0.254
421	0.253
421	0.253
421	0.253
422	0.252
422	0.252
423	0.252
423	0.251
424	0.251
424	0.251
425	0.251
425	0.25
426	0.25
426	0.25
427	0.249
427	0.249
427	0.249
428	0.248
428	0.248
429	0.247
429	0.247
430	0.247
430	0.246
431	0.246
431	0.246
432	0.246
432	0.246
432	0.245
433	0.245
433	0.245
434	0.245
434	0.245
435	0.245
435	0.244
436	0.244
436	0.244
437	0.243
437	0.243
437	0.243
438	0.243
438	0.242
439	0.242
439	0.242
440	0.241
440	0.241
441	0.241
441	0.241
442	0.24
442	0.24
442	0.24
443	0.24
443	0.24
444	0.24
444	0.239
445	0.239
445	0.239
446	0.239
446	0.239
447	0.239
447	0.239
447	0.238
448	0.238
448	0.238
449	0.238
449	0.238
450	0.238
450	0.238
451	0.238
451	0.238
452	0.238
452	0.238
452	0.238
453	0.238
453	0.237
454	0.237
454	0.237
455	0.236
455	0.236
456	0.236
456	0.236
457	0.235
457	0.235
458	0.235
458	0.235
458	0.234
459	0.234
459	0.234
460	0.234
460	0.234
461	0.234
461	0.234
462	0.234
462	0.234
463	0.234
463	0.234
463	0.234
464	0.234
464	0.234
465	0.233
465	0.233
466	0.233
466	0.233
467	0.233
467	0.233
467	0.233
468	0.233
468	0.233
469	0.234
469	0.234
470	0.234
470	0.234
471	0.234
471	0.234
472	0.234
472	0.234
472	0.235
473	0.235
473	0.235
474	0.235
474	0.235
475	0.235
475	0.235
476	0.235
476	0.235
477	0.235
477	0.235
477	0.235
478	0.236
478	0.236
479	0.236
479	0.236
480	0.236
480	0.237
481	0.237
481	0.237
482	0.238
482	0.238
482	0.238
483	0.238
483	0.239
484	0.239
484	0.239
485	0.239
485	0.239
486	0.239
486	0.239
487	0.24
487	0.24
487	0.241
488	0.241
488	0.241
489	0.242
489	0.243
490	0.243
490	0.244
491	0.245
491	0.246
492	0.246
492	0.247
492	0.248
493	0.249
493	0.249
494	0.25
494	0.251
495	0.251
495	0.252
496	0.253
496	0.253
496	0.254
497	0.255
497	0.255
498	0.256
498	0.256
499	0.257
499	0.258
500	0.259
500	0.26
501	0.26
501	0.261
501	0.261
502	0.262
502	0.262
503	0.263
503	0.264
504	0.264
504	0.265
505	0.266
505	0.267
506	0.267
506	0.268
506	0.269
507	0.269
507	0.27
508	0.271
508	0.271
509	0.272
509	0.272
510	0.273
510	0.273
511	0.274
511	0.274
511	0.275
512	0.275
512	0.276
513	0.276
513	0.277
514	0.277
514	0.278
515	0.279
515	0.279
515	0.28
516	0.28
516	0.281
517	0.281
517	0.282
518	0.282
518	0.283
519	0.283
519	0.283
520	0.283
520	0.283
520	0.283
521	0.283
521	0.284
522	0.284
522	0.284
523	0.284
523	0.284
524	0.284
524	0.284
524	0.284
525	0.284
525	0.284
526	0.283
526	0.283
527	0.283
527	0.283
528	0.282
528	0.282
529	0.282
529	0.281
529	0.281
530	0.281
530	0.28
531	0.28
531	0.279
532	0.279
532	0.278
533	0.277
533	0.277
533	0.276
534	0.275
534	0.275
535	0.274
535	0.273
536	0.273
536	0.272
537	0.271
537	0.271
538	0.27
538	0.269
538	0.268
539	0.268
539	0.267
540	0.266
540	0.265
541	0.264
541	0.263
542	0.263
542	0.262
542	0.261
543	0.26
543	0.259
544	0.258
544	0.257
545	0.257
545	0.256
546	0.255
546	0.253
547	0.252
547	0.251
547	0.25
548	0.249
548	0.248
549	0.247
549	0.246
550	0.245
550	0.244
551	0.243
551	0.242
551	0.241
552	0.24
552	0.24
553	0.239
553	0.238
554	0.237
554	0.235
555	0.234
555	0.233
556	0.232
556	0.231
556	0.23
557	0.23
557	0.229
558	0.228
558	0.228
559	0.227
559	0.227
560	0.226
560	0.225
560	0.224
561	0.224
561	0.223
562	0.221
562	0.22
563	0.219
563	0.218
564	0.216
564	0.215
564	0.214
565	0.213
565	0.212
566	0.212
566	0.211
567	0.21
567	0.21
568	0.209
568	0.208
568	0.208
569	0.207
569	0.206
570	0.205
570	0.203
571	0.203
571	0.202
572	0.201
572	0.2
573	0.199
573	0.198
573	0.197
574	0.196
574	0.196
575	0.195
575	0.195
576	0.194
576	0.193
577	0.192
577	0.191
577	0.191
578	0.19
578	0.189
579	0.189
579	0.189
580	0.188
580	0.187
581	0.186
581	0.186
581	0.186
582	0.185
582	0.185
583	0.185
583	0.184
584	0.183
584	0.181
585	0.181
585	0.181
585	0.18
586	0.18
586	0.179
587	0.178
587	0.178
588	0.177
588	0.177
589	0.176
589	0.176
590	0.176
590	0.175
590	0.175
591	0.175
591	0.174
592	0.173
592	0.172
593	0.172
593	0.171
594	0.171
594	0.17
594	0.169
595	0.169
595	0.168
596	0.167
596	0.167
597	0.168
597	0.168
598	0.168
598	0.167
598	0.167
599	0.167
599	0.166
600	0.166
600	0.165
601	0.165
601	0.164
602	0.163
602	0.163
602	0.162
603	0.162
603	0.162
604	0.162
604	0.162
605	0.162
605	0.162
606	0.161
606	0.16
606	0.16
607	0.16
607	0.159
608	0.159
608	0.158
609	0.157
609	0.157
610	0.156
610	0.156
610	0.156
611	0.155
611	0.155
612	0.155
612	0.155
613	0.155
613	0.155
614	0.155
614	0.155
614	0.155
615	0.155
615	0.155
616	0.155
616	0.154
617	0.154
617	0.154
618	0.154
618	0.154
618	0.154
619	0.154
619	0.153
620	0.153
620	0.153
621	0.152
621	0.152
622	0.151
622	0.151
622	0.15
623	0.15
623	0.15
624	0.149
624	0.149
625	0.148
625	0.149
626	0.149
626	0.148
626	0.149
627	0.149
627	0.149
628	0.148
628	0.148
629	0.148
629	0.148
630	0.147
630	0.147
630	0.147
631	0.147
631	0.146
632	0.146
632	0.145
633	0.145
633	0.145
634	0.145
634	0.145
634	0.145
635	0.145
635	0.144
636	0.144
636	0.144
637	0.144
637	0.143
638	0.143
638	0.143
638	0.142
639	0.142
639	0.142
640	0.142
640	0.141
641	0.141
641	0.14
642	0.14
642	0.14
642	0.14
643	0.14
643	0.141
644	0.141
644	0.141
645	0.141
645	0.141
646	0.142
646	0.142
646	0.142
647	0.142
647	0.142
648	0.141
648	0.141
649	0.14
649	0.14
650	0.14
650	0.14
650	0.14
651	0.14
651	0.14
652	0.14
652	0.14
653	0.141
653	0.142
653	0.147
654	0.117
654	0.094
655	0.093
655	0.093
656	0.094
656	0.094
657	0.094
657	0.094
657	0.094
658	0.093
658	0.085
659	0.107
659	0.135
660	0.14
660	0.14
661	0.14
661	0.139
661	0.139
662	0.139
662	0.138
663	0.138
663	0.138
664	0.138
664	0.137
665	0.137
665	0.137
665	0.138
666	0.138
666	0.138
667	0.138
667	0.138
668	0.138
668	0.138
669	0.138
669	0.138
669	0.138
670	0.138
670	0.138
671	0.138
671	0.138
672	0.137
672	0.137
672	0.136
673	0.136
673	0.136
674	0.136
674	0.135
675	0.135
675	0.135
676	0.135
676	0.136
676	0.136
677	0.136
677	0.136
678	0.136
678	0.136
679	0.136
679	0.136
680	0.136
680	0.136
680	0.136
681	0.136
681	0.136
682	0.136
682	0.136
683	0.136
683	0.136
684	0.136
684	0.135
684	0.135
685	0.135
685	0.135
686	0.135
686	0.135
687	0.136
687	0.136
687	0.137
688	0.137
688	0.137
689	0.138
689	0.139
690	0.138
690	0.138
691	0.138
691	0.138
691	0.138
692	0.138
692	0.138
693	0.138
693	0.139
694	0.138
694	0.138
695	0.139
695	0.14
695	0.14
696	0.14
696	0.14
697	0.14
697	0.14
698	0.139
698	0.139
698	0.139
699	0.139
699	0.138
700	0.137
700	0.137
701	0.137
701	0.136
702	0.135
702	0.135
702	0.134
703	0.134
703	0.133
704	0.133
704	0.133
705	0.133
705	0.132
705	0.132
706	0.132
706	0.133
707	0.133
707	0.133
708	0.133
708	0.134
709	0.134
709	0.134
709	0.134
710	0.134
710	0.135
711	0.135
711	0.136
712	0.136
712	0.136
713	0.136
713	0.136
713	0.136
714	0.136
714	0.136
715	0.136
715	0.136
716	0.135
716	0.135
716	0.134
717	0.134
717	0.133
718	0.133
718	0.133
719	0.134
719	0.135
720	0.135
720	0.136
720	0.137
721	0.137
721	0.138
722	0.139
722	0.139
723	0.14
723	0.14
723	0.139
724	0.139
724	0.138
725	0.137
725	0.136
726	0.136
726	0.135
727	0.134
727	0.134
727	0.134
728	0.133
728	0.133
729	0.133
729	0.133
730	0.133
730	0.133
730	0.133
731	0.133
731	0.134
732	0.134
732	0.134
733	0.135
733	0.135
734	0.135
734	0.136
734	0.136
735	0.137
735	0.137
736	0.137
736	0.137
737	0.136
737	0.137
737	0.136
738	0.136
738	0.135
739	0.135
739	0.134
740	0.134
740	0.134
741	0.135
741	0.135
741	0.136
742	0.136
742	0.137
743	0.138
743	0.139
744	0.139
744	0.14
744	0.14
745	0.14
745	0.14
746	0.14
746	0.14
747	0.139
747	0.139
748	0.139
748	0.139
748	0.139
749	0.139
749	0.139
750	0.14
750	0.14
751	0.14
751	0.14
751	0.14
752	0.14
752	0.14
753	0.139
753	0.139
754	0.138
754	0.138
754	0.138
755	0.137
755	0.137
756	0.136
756	0.135
757	0.135
757	0.135
758	0.135
758	0.135
758	0.136
759	0.136
759	0.135
760	0.135
760	0.135
761	0.135
761	0.136
761	0.136
762	0.136
762	0.136
763	0.136
763	0.136
764	0.135
764	0.136
764	0.135
765	0.135
765	0.135
766	0.135
766	0.134
767	0.134
767	0.133
768	0.133
768	0.132
768	0.132
769	0.132
769	0.133
770	0.133
770	0.133
771	0.134
771	0.134
771	0.134
772	0.134
772	0.135
773	0.135
773	0.135
774	0.135
774	0.136
775	0.136
775	0.136
775	0.136
776	0.136
776	0.136
777	0.136
777	0.137
778	0.136
778	0.136
778	0.136
779	0.136
779	0.135
780	0.134
780	0.133
781	0.132
781	0.131
781	0.13
782	0.13
782	0.13
783	0.13
783	0.13
784	0.13
784	0.13
784	0.13
785	0.131
785	0.131
786	0.132
786	0.132
787	0.133
787	0.133
788	0.133
788	0.133
788	0.132
789	0.132
789	0.133
790	0.133
790	0.133
791	0.132
791	0.132
791	0.132
792	0.133
792	0.133
793	0.133
793	0.132
794	0.132
794	0.132
794	0.132
795	0.132
795	0.132
796	0.132
796	0.131
797	0.131
797	0.131
797	0.131
798	0.13
798	0.13
799	0.13
799	0.13
800	0.129
800	0.129
801	0.129
801	0.129
801	0.129
802	0.13
802	0.13
803	0.13
803	0.13
804	0.131
804	0.131
804	0.131
805	0.13
805	0.13
806	0.129
806	0.129
807	0.129
807	0.128
807	0.128
808	0.128
808	0.128
809	0.128
809	0.128
810	0.129
810	0.129
810	0.129
811	0.129
811	0.13
812	0.13
812	0.13
813	0.131
813	0.131
813	0.131
814	0.132
814	0.132
815	0.133
815	0.133
816	0.133
816	0.133
817	0.132
817	0.132
817	0.132
818	0.132
818	0.131
819	0.131
819	0.13
820	0.129
820	0.129
820	0.128
821	0.128
821	0.128
822	0.127
822	0.127
823	0.127
823	0.126
823	0.126
824	0.127
824	0.128
825	0.129
825	0.13
826	0.13
826	0.131
826	0.131
827	0.132
827	0.133
828	0.133
828	0.133
829	0.133
829	0.134
829	0.134
830	0.134
830	0.134
831	0.134
831	0.134
832	0.133
832	0.133
832	0.133
833	0.133
833	0.133
834	0.132
834	0.131
835	0.131
835	0.13
835	0.13
836	0.13
836	0.129
837	0.129
837	0.129
838	0.128
838	0.127
839	0.127
839	0.126
839	0.125
840	0.124
840	0.123
841	0.122
841	0.121
842	0.12
842	0.119
842	0.119
843	0.118
843	0.118
844	0.118
844	0.117
845	0.117
845	0.117
845	0.117
846	0.117
846	0.117
847	0.117
847	0.117
848	0.117
848	0.117
848	0.117
849	0.116
849	0.116
850	0.115
850	0.115
851	0.114
851	0.114
851	0.114
852	0.113
852	0.113
853	0.112
853	0.113
854	0.113
854	0.114
854	0.115
855	0.116
855	0.118
856	0.119
856	0.12
857	0.121
857	0.123
857	0.123
858	0.124
858	0.124
859	0.124
859	0.124
860	0.123
860	0.123
860	0.122
861	0.121
861	0.12
862	0.12
862	0.119
863	0.118
863	0.118
863	0.118
864	0.118
864	0.118
865	0.118
865	0.118
866	0.118
866	0.118
866	0.118
867	0.119
867	0.119
868	0.119
868	0.119
869	0.119
869	0.118
869	0.118
870	0.117
870	0.117
871	0.117
871	0.117
872	0.117
872	0.116
872	0.116
873	0.116
873	0.115
874	0.114
874	0.114
875	0.114
875	0.113
875	0.113
876	0.113
876	0.112
877	0.112
877	0.112
878	0.112
878	0.112
878	0.112
879	0.112
879	0.113
880	0.113
880	0.113
881	0.113
881	0.113
881	0.113
882	0.113
882	0.113
883	0.113
883	0.113
884	0.113
884	0.113
884	0.112
885	0.112
885	0.112
886	0.112
886	0.112
887	0.112
887	0.112
887	0.112
888	0.112
888	0.112
889	0.112
889	0.112
890	0.113
890	0.113
890	0.114
891	0.114
891	0.114
892	0.115
892	0.115
893	0.115
893	0.115
893	0.114
894	0.114
894	0.113
895	0.112
895	0.111
895	0.111
896	0.11
896	0.11
897	0.11
897	0.109
898	0.109
898	0.108
898	0.108
899	0.107
899	0.107
900	0.107
900	0.107
901	0.107
901	0.106
901	0.106
902	0.106
902	0.106
903	0.106
903	0.106
904	0.106
904	0.106
904	0.105
905	0.105
905	0.104
906	0.104
906	0.104
907	0.104
907	0.104
907	0.104
908	0.103
908	0.103
909	0.103
909	0.103
910	0.103
910	0.102
910	0.102
911	0.101
911	0.101
912	0.1
912	0.1
913	0.099
913	0.099
913	0.098
914	0.098
914	0.098
915	0.098
915	0.098
916	0.098
916	0.098
916	0.098
917	0.098
917	0.098
918	0.098
918	0.098
918	0.097
919	0.097
919	0.097
920	0.097
920	0.097
921	0.097
921	0.097
921	0.097
922	0.096
922	0.096
923	0.096
923	0.097
924	0.097
924	0.097
924	0.097
925	0.098
925	0.098
926	0.098
926	0.098
927	0.098
927	0.098
927	0.098
928	0.099
928	0.099
929	0.099
929	0.099
930	0.1
930	0.1
930	0.1
931	0.1
931	0.1
932	0.099
932	0.099
933	0.099
933	0.099
933	0.098
934	0.098
934	0.097
935	0.097
935	0.096
935	0.095
936	0.095
936	0.094
937	0.093
937	0.092
938	0.092
938	0.091
938	0.09
939	0.09
939	0.089
940	0.089
940	0.089
941	0.089
941	0.089
941	0.09
942	0.091
942	0.091
943	0.092
943	0.092
944	0.093
944	0.094
944	0.095
945	0.095
945	0.095
946	0.096
946	0.096
946	0.096
947	0.096
947	0.095
948	0.095
948	0.094
949	0.093
949	0.093
949	0.092
950	0.091
950	0.091
951	0.09
951	0.089
952	0.088
952	0.088
952	0.087
953	0.087
953	0.087
954	0.087
954	0.086
955	0.086
955	0.086
955	0.087
956	0.087
956	0.088
957	0.089
957	0.09
957	0.091
958	0.092
958	0.093
959	0.094
959	0.094
960	0.095
960	0.096
960	0.096
961	0.096
961	0.097
962	0.097
962	0.096
963	0.096
963	0.095
963	0.095
964	0.094
964	0.094
965	0.093
965	0.093
966	0.093
966	0.093
966	0.092
967	0.092
967	0.092
968	0.092
968	0.092
968	0.092
969	0.092
969	0.091
970	0.09
970	0.089
971	0.089
971	0.088
971	0.087
972	0.086
972	0.086
973	0.085
973	0.085
974	0.085
974	0.085
974	0.085
975	0.086
975	0.086
976	0.086
976	0.086
976	0.086
977	0.086
977	0.086
978	0.086
978	0.086
979	0.086
979	0.085
979	0.085
980	0.086
980	0.086
981	0.086
981	0.086
982	0.086
982	0.087
982	0.088
983	0.088
983	0.088
984	0.089
984	0.089
984	0.089
985	0.089
985	0.088
986	0.088
986	0.087
987	0.087
987	0.086
987	0.085
988	0.085
988	0.085
989	0.084
989	0.084
990	0.084
990	0.083
990	0.083
991	0.083
991	0.083
992	0.083
992	0.083
992	0.082
993	0.081
993	0.081
994	0.08
994	0.08
995	0.079
995	0.079
995	0.079
996	0.079
996	0.078
997	0.078
997	0.079
997	0.079
998	0.079
998	0.079
999	0.08
999	0.08
1000	0.081
1000	0.081
1000	0.082
1001	0.082
1001	0.083
1002	0.083
1002	0.083
1003	0.083
1003	0.083
1003	0.083
1004	0.082
1004	0.082
1005	0.081
1005	0.081
1005	0.081
1006	0.08
1006	0.08
1007	0.079
1007	0.079
1008	0.078
1008	0.078
1008	0.078
1009	0.077
1009	0.077
1010	0.076
1010	0.076
1010	0.076
1011	0.075
1011	0.075
1012	0.075
1012	0.074
1013	0.074
1013	0.074
1013	0.074
1014	0.073
1014	0.073
1015	0.073
1015	0.073
1016	0.073
1016	0.073
1016	0.073
1017	0.072
1017	0.072
1018	0.072
1018	0.072
1018	0.072
1019	0.072
1019	0.073
1020	0.073
1020	0.073
1021	0.074
1021	0.074
1021	0.075
1022	0.075
1022	0.076
1023	0.076
1023	0.077
1023	0.077
1024	0.077
1024	0.077
1025	0.078
1025	0.078
1026	0.078
1026	0.077
1026	0.077
1027	0.077
1027	0.077
1028	0.077
1028	0.077
1028	0.077
1029	0.077
1029	0.077
1030	0.077
1030	0.077
1031	0.077
1031	0.077
1031	0.077
1032	0.077
1032	0.077
1033	0.076
1033	0.077
1033	0.077
1034	0.077
1034	0.076
1035	0.076
1035	0.076
1036	0.076
1036	0.076
1036	0.076
1037	0.076
1037	0.075
1038	0.075
1038	0.075
1039	0.074
1039	0.074
1039	0.074
1040	0.073
1040	0.073
1041	0.073
1041	0.072
1041	0.072
1042	0.071
1042	0.071
1043	0.071
1043	0.07
1044	0.07
1044	0.07
1044	0.07
1045	0.069
1045	0.069
1046	0.069
1046	0.069
1046	0.069
1047	0.069
1047	0.069
1048	0.069
1048	0.068
1049	0.069
1049	0.068
1049	0.068
1050	0.068
1050	0.068
1051	0.068
1051	0.068
1051	0.067
1052	0.067
1052	0.067
1053	0.066
1053	0.065
1053	0.065
1054	0.065
1054	0.064
1055	0.065
1055	0.064
1056	0.064
1056	0.063
1056	0.063
1057	0.062
1057	0.062
1058	0.062
1058	0.062
1058	0.061
1059	0.061
1059	0.061
1060	0.061
1060	0.061
1061	0.061
1061	0.061
1061	0.061
1062	0.061
1062	0.061
1063	0.061
1063	0.061
1063	0.061
1064	0.061
1064	0.061
1065	0.061
1065	0.061
1066	0.061
1066	0.061
1066	0.06
1067	0.06
1067	0.06
1068	0.06
1068	0.06
1068	0.06
1069	0.059
1069	0.059
1070	0.059
1070	0.059
1071	0.058
1071	0.058
1071	0.058
1072	0.058
1072	0.058
1073	0.057
1073	0.058
1073	0.057
1074	0.057
1074	0.058
1075	0.058
1075	0.058
1076	0.058
1076	0.059
1076	0.059
1077	0.059
1077	0.059
1078	0.059
1078	0.059
1078	0.059
1079	0.059
1079	0.059
1080	0.059
1080	0.058
1080	0.058
1081	0.057
1081	0.057
1082	0.057
1082	0.058
1083	0.057
1083	0.057
1083	0.057
1084	0.056
1084	0.057
1085	0.057
1085	0.057
1085	0.057
1086	0.058
1086	0.057
1087	0.057
1087	0.057
1088	0.057
1088	0.056
1088	0.057
1089	0.056
1089	0.056
1090	0.056
1090	0.055
1090	0.054
1091	0.054
1091	0.054
1092	0.055
1092	0.055
1092	0.055
1093	0.055
1093	0.055
1094	0.055
1094	0.054
1095	0.054
1095	0.054
1095	0.053
1096	0.052
1096	0.051
1097	0.051
1097	0.05
1097	0.049
1098	0.048
1098	0.048
1099	0.047
1099	0.046
1100	0.045
1100	0.045
1100	0.045
1101	0.044
1101	0.043
1102	0.043
1102	0.042
1102	0.041
1103	0.041
1103	0.041
1104	0.041
1104	0.041
1104	0.041
1105	0.04
1105	0.038
1106	0.037
1106	0.036
1107	0.036
1107	0.036
1107	0.036
1108	0.034
1108	0.033
1109	0.031
1109	0.031
1109	0.031
1110	0.033
1110	0.034
1111	0.035
1111	0.036
