Data from reversibility-20sec_Absorbance__1541__000000000001541.txt Node

Date: Tue Dec 05 20:46:45 CET 2023
User: Marek
Spectrometer: MAYP115816
Trigger mode: 0
Integration Time (sec): 2.000000E-1
Scans to average: 10
Electric dark correction enabled: true
Nonlinearity correction enabled: true
Boxcar width: 5
XAxis mode: Wavelengths
Number of Pixels in Spectrum: 2068
>>>>>Begin Spectral Data<<<<<
199	-0.245
199	-0.211
200	-0.13
200	-0.072
201	-0.045
201	-0.031
202	-0.018
202	-0.004
203	0.002
203	0.005
204	0.021
204	0.035
205	0.049
205	0.053
205	0.052
206	0.053
206	0.057
207	0.059
207	0.056
208	0.057
208	0.057
209	0.059
209	0.057
210	0.055
210	0.055
211	0.054
211	0.056
212	0.054
212	0.056
213	0.058
213	0.059
213	0.059
214	0.062
214	0.065
215	0.066
215	0.067
216	0.068
216	0.068
217	0.07
217	0.071
218	0.073
218	0.076
219	0.08
219	0.079
220	0.08
220	0.082
221	0.081
221	0.083
221	0.087
222	0.093
222	0.097
223	0.1
223	0.102
224	0.106
224	0.117
225	0.125
225	0.137
226	0.151
226	0.162
227	0.172
227	0.181
228	0.198
228	0.215
229	0.232
229	0.256
229	0.278
230	0.305
230	0.333
231	0.363
231	0.402
232	0.437
232	0.481
233	0.522
233	0.57
234	0.623
234	0.678
235	0.73
235	0.779
236	0.833
236	0.887
236	0.941
237	0.995
237	1.042
238	1.092
238	1.143
239	1.192
239	1.236
240	1.28
240	1.323
241	1.362
241	1.401
242	1.435
242	1.475
243	1.515
243	1.544
243	1.575
244	1.599
244	1.625
245	1.646
245	1.672
246	1.695
246	1.715
247	1.733
247	1.751
248	1.769
248	1.788
249	1.799
249	1.811
250	1.824
250	1.836
250	1.846
251	1.855
251	1.863
252	1.872
252	1.875
253	1.881
253	1.88
254	1.884
254	1.891
255	1.891
255	1.896
256	1.899
256	1.898
257	1.9
257	1.901
258	1.904
258	1.906
258	1.91
259	1.913
259	1.912
260	1.914
260	1.916
261	1.915
261	1.92
262	1.926
262	1.929
263	1.933
263	1.935
264	1.938
264	1.941
265	1.946
265	1.95
265	1.952
266	1.954
266	1.956
267	1.956
267	1.959
268	1.96
268	1.963
269	1.967
269	1.967
270	1.967
270	1.965
271	1.964
271	1.966
272	1.965
272	1.964
272	1.962
273	1.956
273	1.948
274	1.942
274	1.936
275	1.929
275	1.924
276	1.919
276	1.911
277	1.905
277	1.897
278	1.885
278	1.874
278	1.861
279	1.845
279	1.825
280	1.802
280	1.773
281	1.737
281	1.697
282	1.654
282	1.611
283	1.57
283	1.528
284	1.489
284	1.45
285	1.413
285	1.379
285	1.349
286	1.321
286	1.298
287	1.277
287	1.259
288	1.243
288	1.23
289	1.218
289	1.207
290	1.199
290	1.191
291	1.185
291	1.179
292	1.173
292	1.168
292	1.163
293	1.159
293	1.155
294	1.151
294	1.148
295	1.145
295	1.142
296	1.138
296	1.135
297	1.132
297	1.129
298	1.126
298	1.122
298	1.119
299	1.116
299	1.113
300	1.11
300	1.107
301	1.104
301	1.101
302	1.098
302	1.095
303	1.093
303	1.091
304	1.088
304	1.086
305	1.083
305	1.08
305	1.077
306	1.075
306	1.071
307	1.069
307	1.066
308	1.062
308	1.059
309	1.056
309	1.053
310	1.049
310	1.046
311	1.043
311	1.039
311	1.036
312	1.032
312	1.028
313	1.024
313	1.02
314	1.016
314	1.012
315	1.007
315	1.003
316	0.998
316	0.993
317	0.988
317	0.983
318	0.978
318	0.972
318	0.967
319	0.961
319	0.955
320	0.95
320	0.943
321	0.937
321	0.931
322	0.925
322	0.918
323	0.911
323	0.905
324	0.898
324	0.892
324	0.885
325	0.878
325	0.871
326	0.864
326	0.857
327	0.849
327	0.842
328	0.835
328	0.828
329	0.821
329	0.814
330	0.806
330	0.799
330	0.792
331	0.785
331	0.778
332	0.771
332	0.763
333	0.756
333	0.749
334	0.742
334	0.735
335	0.728
335	0.721
336	0.714
336	0.707
336	0.7
337	0.694
337	0.688
338	0.681
338	0.675
339	0.669
339	0.663
340	0.657
340	0.651
341	0.645
341	0.64
342	0.634
342	0.628
342	0.623
343	0.617
343	0.612
344	0.607
344	0.602
345	0.597
345	0.592
346	0.587
346	0.582
347	0.578
347	0.573
348	0.569
348	0.565
348	0.561
349	0.557
349	0.553
350	0.55
350	0.546
351	0.542
351	0.539
352	0.535
352	0.532
353	0.529
353	0.526
354	0.523
354	0.52
354	0.517
355	0.514
355	0.51
356	0.508
356	0.505
357	0.501
357	0.498
358	0.495
358	0.492
359	0.489
359	0.487
360	0.485
360	0.482
360	0.48
361	0.478
361	0.475
362	0.474
362	0.472
363	0.47
363	0.468
364	0.466
364	0.464
365	0.462
365	0.46
366	0.458
366	0.456
366	0.454
367	0.452
367	0.45
368	0.448
368	0.446
369	0.445
369	0.443
370	0.441
370	0.439
371	0.438
371	0.436
372	0.434
372	0.433
372	0.431
373	0.43
373	0.429
374	0.428
374	0.426
375	0.425
375	0.424
376	0.422
376	0.421
377	0.42
377	0.419
378	0.418
378	0.416
378	0.416
379	0.414
379	0.413
380	0.412
380	0.411
381	0.41
381	0.409
382	0.408
382	0.407
383	0.406
383	0.405
383	0.404
384	0.403
384	0.402
385	0.401
385	0.401
386	0.4
386	0.399
387	0.398
387	0.397
388	0.396
388	0.395
389	0.395
389	0.394
389	0.393
390	0.393
390	0.392
391	0.392
391	0.391
392	0.39
392	0.39
393	0.389
393	0.388
394	0.388
394	0.387
394	0.386
395	0.386
395	0.385
396	0.384
396	0.383
397	0.382
397	0.382
398	0.381
398	0.381
399	0.38
399	0.379
400	0.379
400	0.379
400	0.378
401	0.378
401	0.377
402	0.377
402	0.376
403	0.376
403	0.375
404	0.375
404	0.375
405	0.374
405	0.374
405	0.373
406	0.373
406	0.372
407	0.371
407	0.371
408	0.37
408	0.37
409	0.369
409	0.369
410	0.368
410	0.367
411	0.367
411	0.366
411	0.366
412	0.366
412	0.365
413	0.365
413	0.364
414	0.364
414	0.364
415	0.363
415	0.363
416	0.362
416	0.362
416	0.361
417	0.361
417	0.361
418	0.36
418	0.359
419	0.359
419	0.359
420	0.358
420	0.358
421	0.357
421	0.357
421	0.357
422	0.356
422	0.356
423	0.355
423	0.355
424	0.354
424	0.354
425	0.354
425	0.353
426	0.353
426	0.352
427	0.352
427	0.352
427	0.352
428	0.351
428	0.351
429	0.351
429	0.35
430	0.35
430	0.35
431	0.349
431	0.349
432	0.349
432	0.349
432	0.348
433	0.348
433	0.347
434	0.347
434	0.347
435	0.347
435	0.347
436	0.347
436	0.347
437	0.346
437	0.346
437	0.346
438	0.345
438	0.345
439	0.345
439	0.345
440	0.345
440	0.345
441	0.345
441	0.345
442	0.344
442	0.344
442	0.344
443	0.344
443	0.344
444	0.344
444	0.344
445	0.344
445	0.344
446	0.343
446	0.343
447	0.343
447	0.343
447	0.343
448	0.343
448	0.343
449	0.342
449	0.342
450	0.342
450	0.342
451	0.342
451	0.342
452	0.342
452	0.342
452	0.342
453	0.342
453	0.342
454	0.342
454	0.342
455	0.342
455	0.342
456	0.342
456	0.342
457	0.342
457	0.342
458	0.342
458	0.342
458	0.342
459	0.342
459	0.342
460	0.342
460	0.342
461	0.342
461	0.342
462	0.342
462	0.343
463	0.343
463	0.343
463	0.343
464	0.343
464	0.343
465	0.343
465	0.343
466	0.343
466	0.343
467	0.343
467	0.344
467	0.344
468	0.344
468	0.344
469	0.344
469	0.345
470	0.345
470	0.346
471	0.346
471	0.347
472	0.347
472	0.348
472	0.348
473	0.349
473	0.35
474	0.35
474	0.35
475	0.351
475	0.351
476	0.352
476	0.353
477	0.353
477	0.354
477	0.355
478	0.356
478	0.356
479	0.357
479	0.358
480	0.358
480	0.359
481	0.36
481	0.361
482	0.362
482	0.362
482	0.363
483	0.364
483	0.365
484	0.367
484	0.367
485	0.368
485	0.369
486	0.37
486	0.37
487	0.371
487	0.372
487	0.373
488	0.374
488	0.376
489	0.377
489	0.379
490	0.381
490	0.382
491	0.384
491	0.385
492	0.387
492	0.388
492	0.389
493	0.39
493	0.392
494	0.394
494	0.395
495	0.397
495	0.398
496	0.399
496	0.401
496	0.403
497	0.404
497	0.406
498	0.408
498	0.409
499	0.411
499	0.413
500	0.415
500	0.417
501	0.418
501	0.42
501	0.421
502	0.422
502	0.424
503	0.425
503	0.426
504	0.428
504	0.429
505	0.43
505	0.432
506	0.433
506	0.434
506	0.436
507	0.437
507	0.439
508	0.441
508	0.442
509	0.444
509	0.445
510	0.446
510	0.448
511	0.449
511	0.451
511	0.452
512	0.453
512	0.454
513	0.455
513	0.456
514	0.457
514	0.458
515	0.459
515	0.46
515	0.461
516	0.462
516	0.463
517	0.464
517	0.464
518	0.465
518	0.465
519	0.465
519	0.465
520	0.465
520	0.465
520	0.465
521	0.465
521	0.465
522	0.465
522	0.465
523	0.465
523	0.465
524	0.464
524	0.464
524	0.464
525	0.464
525	0.463
526	0.462
526	0.461
527	0.46
527	0.459
528	0.458
528	0.457
529	0.456
529	0.454
529	0.453
530	0.451
530	0.45
531	0.449
531	0.447
532	0.446
532	0.444
533	0.443
533	0.441
533	0.44
534	0.438
534	0.436
535	0.434
535	0.433
536	0.431
536	0.429
537	0.427
537	0.425
538	0.423
538	0.42
538	0.418
539	0.416
539	0.414
540	0.412
540	0.409
541	0.407
541	0.404
542	0.402
542	0.399
542	0.396
543	0.394
543	0.391
544	0.388
544	0.385
545	0.383
545	0.38
546	0.378
546	0.375
547	0.372
547	0.37
547	0.367
548	0.365
548	0.362
549	0.36
549	0.358
550	0.355
550	0.352
551	0.349
551	0.346
551	0.343
552	0.341
552	0.338
553	0.335
553	0.333
554	0.33
554	0.327
555	0.324
555	0.322
556	0.319
556	0.316
556	0.314
557	0.312
557	0.31
558	0.307
558	0.305
559	0.302
559	0.3
560	0.298
560	0.296
560	0.293
561	0.291
561	0.289
562	0.286
562	0.284
563	0.281
563	0.279
564	0.276
564	0.274
564	0.272
565	0.269
565	0.267
566	0.265
566	0.263
567	0.261
567	0.259
568	0.258
568	0.256
568	0.254
569	0.252
569	0.25
570	0.248
570	0.246
571	0.244
571	0.243
572	0.241
572	0.239
573	0.237
573	0.235
573	0.233
574	0.231
574	0.23
575	0.228
575	0.227
576	0.225
576	0.223
577	0.221
577	0.219
577	0.218
578	0.217
578	0.215
579	0.214
579	0.213
580	0.211
580	0.209
581	0.207
581	0.206
581	0.205
582	0.204
582	0.203
583	0.203
583	0.201
584	0.2
584	0.197
585	0.196
585	0.195
585	0.194
586	0.192
586	0.191
587	0.189
587	0.188
588	0.186
588	0.185
589	0.183
589	0.183
590	0.182
590	0.181
590	0.18
591	0.18
591	0.178
592	0.177
592	0.176
593	0.175
593	0.174
594	0.173
594	0.172
594	0.171
595	0.17
595	0.169
596	0.167
596	0.167
597	0.167
597	0.166
598	0.165
598	0.165
598	0.164
599	0.163
599	0.162
600	0.161
600	0.16
601	0.159
601	0.158
602	0.157
602	0.156
602	0.155
603	0.154
603	0.154
604	0.153
604	0.152
605	0.152
605	0.151
606	0.15
606	0.149
606	0.148
607	0.148
607	0.147
608	0.146
608	0.145
609	0.144
609	0.144
610	0.143
610	0.142
610	0.141
611	0.141
611	0.141
612	0.14
612	0.14
613	0.14
613	0.14
614	0.139
614	0.138
614	0.138
615	0.137
615	0.137
616	0.136
616	0.135
617	0.135
617	0.134
618	0.133
618	0.133
618	0.132
619	0.132
619	0.132
620	0.132
620	0.131
621	0.13
621	0.129
622	0.128
622	0.128
622	0.127
623	0.126
623	0.125
624	0.125
624	0.124
625	0.123
625	0.123
626	0.123
626	0.122
626	0.122
627	0.121
627	0.121
628	0.121
628	0.12
629	0.12
629	0.119
630	0.119
630	0.118
630	0.117
631	0.117
631	0.116
632	0.116
632	0.116
633	0.115
633	0.115
634	0.115
634	0.116
634	0.115
635	0.115
635	0.115
636	0.114
636	0.114
637	0.114
637	0.113
638	0.113
638	0.112
638	0.111
639	0.111
639	0.11
640	0.11
640	0.109
641	0.109
641	0.108
642	0.108
642	0.108
642	0.108
643	0.108
643	0.108
644	0.107
644	0.107
645	0.107
645	0.107
646	0.106
646	0.106
646	0.106
647	0.106
647	0.105
648	0.104
648	0.104
649	0.103
649	0.103
650	0.103
650	0.103
650	0.102
651	0.102
651	0.102
652	0.102
652	0.101
653	0.101
653	0.103
653	0.11
654	0.088
654	0.072
655	0.07
655	0.069
656	0.069
656	0.07
657	0.07
657	0.07
657	0.07
658	0.068
658	0.059
659	0.074
659	0.093
660	0.098
660	0.098
661	0.097
661	0.096
661	0.096
662	0.095
662	0.095
663	0.094
663	0.093
664	0.093
664	0.092
665	0.092
665	0.092
665	0.091
666	0.091
666	0.091
667	0.091
667	0.091
668	0.091
668	0.09
669	0.09
669	0.09
669	0.09
670	0.091
670	0.091
671	0.09
671	0.09
672	0.09
672	0.09
672	0.089
673	0.089
673	0.089
674	0.089
674	0.088
675	0.088
675	0.088
676	0.088
676	0.088
676	0.087
677	0.087
677	0.087
678	0.087
678	0.086
679	0.085
679	0.085
680	0.085
680	0.085
680	0.084
681	0.084
681	0.084
682	0.085
682	0.085
683	0.085
683	0.086
684	0.086
684	0.086
684	0.085
685	0.085
685	0.085
686	0.085
686	0.085
687	0.084
687	0.084
687	0.083
688	0.083
688	0.083
689	0.083
689	0.083
690	0.083
690	0.083
691	0.083
691	0.083
691	0.084
692	0.083
692	0.083
693	0.084
693	0.084
694	0.083
694	0.083
695	0.084
695	0.085
695	0.084
696	0.084
696	0.083
697	0.083
697	0.082
698	0.081
698	0.08
698	0.08
699	0.08
699	0.08
700	0.079
700	0.079
701	0.079
701	0.079
702	0.079
702	0.079
702	0.079
703	0.079
703	0.079
704	0.079
704	0.079
705	0.078
705	0.077
705	0.077
706	0.077
706	0.076
707	0.076
707	0.076
708	0.076
708	0.076
709	0.075
709	0.075
709	0.074
710	0.074
710	0.074
711	0.074
711	0.074
712	0.074
712	0.073
713	0.073
713	0.074
713	0.074
714	0.074
714	0.074
715	0.074
715	0.074
716	0.074
716	0.074
716	0.073
717	0.073
717	0.073
718	0.072
718	0.071
719	0.072
719	0.072
720	0.072
720	0.072
720	0.072
721	0.072
721	0.073
722	0.073
722	0.073
723	0.074
723	0.074
723	0.074
724	0.074
724	0.074
725	0.073
725	0.072
726	0.071
726	0.071
727	0.07
727	0.069
727	0.069
728	0.068
728	0.067
729	0.067
729	0.067
730	0.066
730	0.066
730	0.066
731	0.066
731	0.066
732	0.067
732	0.067
733	0.066
733	0.066
734	0.066
734	0.067
734	0.067
735	0.067
735	0.067
736	0.066
736	0.066
737	0.066
737	0.067
737	0.066
738	0.066
738	0.065
739	0.064
739	0.064
740	0.063
740	0.063
741	0.062
741	0.062
741	0.061
742	0.06
742	0.06
743	0.061
743	0.062
744	0.063
744	0.063
744	0.064
745	0.064
745	0.064
746	0.065
746	0.066
747	0.066
747	0.066
748	0.066
748	0.066
748	0.066
749	0.066
749	0.066
750	0.065
750	0.065
751	0.064
751	0.064
751	0.064
752	0.063
752	0.062
753	0.062
753	0.061
754	0.061
754	0.061
754	0.061
755	0.061
755	0.061
756	0.06
756	0.059
757	0.058
757	0.058
758	0.058
758	0.057
758	0.057
759	0.057
759	0.056
760	0.056
760	0.056
761	0.056
761	0.057
761	0.058
762	0.058
762	0.058
763	0.058
763	0.058
764	0.058
764	0.057
764	0.057
765	0.056
765	0.056
766	0.055
766	0.055
767	0.054
767	0.053
768	0.052
768	0.051
768	0.051
769	0.051
769	0.051
770	0.051
770	0.051
771	0.051
771	0.051
771	0.052
772	0.053
772	0.053
773	0.054
773	0.054
774	0.054
774	0.055
775	0.055
775	0.056
775	0.056
776	0.055
776	0.055
777	0.055
777	0.055
778	0.055
778	0.054
778	0.054
779	0.053
779	0.053
780	0.052
780	0.051
781	0.051
781	0.051
781	0.05
782	0.05
782	0.05
783	0.05
783	0.051
784	0.051
784	0.051
784	0.051
785	0.052
785	0.052
786	0.053
786	0.053
787	0.053
787	0.053
788	0.053
788	0.052
788	0.052
789	0.052
789	0.052
790	0.052
790	0.051
791	0.051
791	0.051
791	0.051
792	0.052
792	0.052
793	0.051
793	0.052
794	0.051
794	0.051
794	0.051
795	0.051
795	0.051
796	0.05
796	0.05
797	0.05
797	0.05
797	0.05
798	0.049
798	0.049
799	0.049
799	0.049
800	0.049
800	0.048
801	0.048
801	0.048
801	0.048
802	0.048
802	0.049
803	0.049
803	0.05
804	0.05
804	0.051
804	0.051
805	0.051
805	0.051
806	0.05
806	0.05
807	0.049
807	0.049
807	0.048
808	0.048
808	0.048
809	0.047
809	0.047
810	0.047
810	0.047
810	0.047
811	0.047
811	0.048
812	0.049
812	0.049
813	0.049
813	0.05
813	0.05
814	0.051
814	0.051
815	0.052
815	0.052
816	0.052
816	0.052
817	0.052
817	0.052
817	0.051
818	0.051
818	0.051
819	0.05
819	0.049
820	0.048
820	0.048
820	0.047
821	0.047
821	0.047
822	0.047
822	0.047
823	0.047
823	0.047
823	0.048
824	0.049
824	0.05
825	0.05
825	0.051
826	0.051
826	0.05
826	0.05
827	0.05
827	0.05
828	0.049
828	0.049
829	0.049
829	0.048
829	0.048
830	0.048
830	0.048
831	0.049
831	0.049
832	0.049
832	0.05
832	0.05
833	0.05
833	0.05
834	0.05
834	0.05
835	0.05
835	0.05
835	0.051
836	0.051
836	0.052
837	0.052
837	0.052
838	0.051
838	0.051
839	0.05
839	0.049
839	0.048
840	0.046
840	0.045
841	0.044
841	0.043
842	0.042
842	0.041
842	0.041
843	0.041
843	0.041
844	0.041
844	0.041
845	0.041
845	0.041
845	0.041
846	0.041
846	0.041
847	0.041
847	0.042
848	0.042
848	0.043
848	0.043
849	0.044
849	0.044
850	0.044
850	0.044
851	0.044
851	0.044
851	0.044
852	0.043
852	0.042
853	0.042
853	0.041
854	0.041
854	0.041
854	0.041
855	0.041
855	0.042
856	0.042
856	0.042
857	0.043
857	0.043
857	0.043
858	0.043
858	0.043
859	0.042
859	0.041
860	0.041
860	0.04
860	0.039
861	0.039
861	0.038
862	0.038
862	0.037
863	0.037
863	0.036
863	0.036
864	0.036
864	0.036
865	0.037
865	0.037
866	0.037
866	0.037
866	0.037
867	0.037
867	0.037
868	0.037
868	0.037
869	0.037
869	0.038
869	0.037
870	0.038
870	0.038
871	0.039
871	0.039
872	0.04
872	0.04
872	0.041
873	0.041
873	0.041
874	0.041
874	0.041
875	0.041
875	0.041
875	0.041
876	0.041
876	0.041
877	0.041
877	0.042
878	0.042
878	0.043
878	0.044
879	0.045
879	0.046
880	0.046
880	0.046
881	0.046
881	0.045
881	0.044
882	0.043
882	0.042
883	0.041
883	0.04
884	0.039
884	0.038
884	0.037
885	0.036
885	0.036
886	0.035
886	0.035
887	0.035
887	0.035
887	0.034
888	0.034
888	0.033
889	0.033
889	0.033
890	0.033
890	0.033
890	0.033
891	0.033
891	0.034
892	0.034
892	0.035
893	0.035
893	0.036
893	0.036
894	0.036
894	0.037
895	0.037
895	0.037
895	0.038
896	0.038
896	0.038
897	0.037
897	0.037
898	0.037
898	0.037
898	0.037
899	0.037
899	0.037
900	0.037
900	0.037
901	0.038
901	0.038
901	0.038
902	0.039
902	0.039
903	0.039
903	0.039
904	0.039
904	0.038
904	0.038
905	0.038
905	0.038
906	0.038
906	0.038
907	0.039
907	0.039
907	0.04
908	0.04
908	0.041
909	0.042
909	0.042
910	0.043
910	0.043
910	0.043
911	0.043
911	0.043
912	0.042
912	0.042
913	0.042
913	0.041
913	0.041
914	0.04
914	0.04
915	0.039
915	0.039
916	0.039
916	0.038
916	0.037
917	0.037
917	0.036
918	0.035
918	0.035
918	0.034
919	0.033
919	0.033
920	0.033
920	0.033
921	0.033
921	0.033
921	0.034
922	0.034
922	0.035
923	0.036
923	0.036
924	0.037
924	0.038
924	0.038
925	0.038
925	0.038
926	0.038
926	0.038
927	0.038
927	0.037
927	0.037
928	0.036
928	0.036
929	0.036
929	0.036
930	0.035
930	0.035
930	0.035
931	0.035
931	0.036
932	0.036
932	0.036
933	0.036
933	0.036
933	0.036
934	0.036
934	0.036
935	0.036
935	0.036
935	0.035
936	0.035
936	0.035
937	0.035
937	0.035
938	0.035
938	0.035
938	0.035
939	0.035
939	0.035
940	0.036
940	0.036
941	0.037
941	0.037
941	0.037
942	0.038
942	0.038
943	0.039
943	0.039
944	0.039
944	0.039
944	0.039
945	0.039
945	0.039
946	0.039
946	0.039
946	0.04
947	0.04
947	0.04
948	0.04
948	0.04
949	0.04
949	0.04
949	0.04
950	0.04
950	0.04
951	0.04
951	0.039
952	0.038
952	0.038
952	0.038
953	0.038
953	0.037
954	0.037
954	0.037
955	0.037
955	0.037
955	0.037
956	0.037
956	0.038
957	0.038
957	0.039
957	0.039
958	0.039
958	0.04
959	0.04
959	0.04
960	0.041
960	0.041
960	0.041
961	0.04
961	0.04
962	0.04
962	0.04
963	0.04
963	0.04
963	0.04
964	0.04
964	0.04
965	0.04
965	0.04
966	0.04
966	0.041
966	0.041
967	0.041
967	0.042
968	0.042
968	0.042
968	0.043
969	0.043
969	0.042
970	0.042
970	0.042
971	0.042
971	0.042
971	0.042
972	0.042
972	0.042
973	0.042
973	0.042
974	0.042
974	0.042
974	0.042
975	0.041
975	0.041
976	0.041
976	0.042
976	0.041
977	0.041
977	0.041
978	0.041
978	0.041
979	0.041
979	0.041
979	0.041
980	0.041
980	0.041
981	0.04
981	0.04
982	0.04
982	0.04
982	0.04
983	0.04
983	0.039
984	0.039
984	0.038
984	0.038
985	0.037
985	0.037
986	0.036
986	0.036
987	0.035
987	0.035
987	0.034
988	0.034
988	0.033
989	0.033
989	0.032
990	0.032
990	0.031
990	0.031
991	0.031
991	0.031
992	0.031
992	0.03
992	0.03
993	0.03
993	0.03
994	0.029
994	0.029
995	0.029
995	0.029
995	0.029
996	0.029
996	0.029
997	0.03
997	0.031
997	0.031
998	0.032
998	0.033
999	0.034
999	0.035
1000	0.036
1000	0.037
1000	0.038
1001	0.039
1001	0.039
1002	0.039
1002	0.039
1003	0.039
1003	0.039
1003	0.039
1004	0.038
1004	0.038
1005	0.037
1005	0.037
1005	0.036
1006	0.036
1006	0.036
1007	0.036
1007	0.036
1008	0.036
1008	0.036
1008	0.036
1009	0.036
1009	0.036
1010	0.037
1010	0.037
1010	0.037
1011	0.037
1011	0.037
1012	0.037
1012	0.037
1013	0.037
1013	0.036
1013	0.036
1014	0.035
1014	0.035
1015	0.034
1015	0.034
1016	0.034
1016	0.033
1016	0.032
1017	0.032
1017	0.032
1018	0.032
1018	0.032
1018	0.031
1019	0.031
1019	0.031
1020	0.031
1020	0.031
1021	0.031
1021	0.031
1021	0.031
1022	0.031
1022	0.03
1023	0.03
1023	0.03
1023	0.031
1024	0.031
1024	0.031
1025	0.031
1025	0.03
1026	0.03
1026	0.03
1026	0.03
1027	0.03
1027	0.03
1028	0.03
1028	0.03
1028	0.03
1029	0.03
1029	0.03
1030	0.03
1030	0.03
1031	0.03
1031	0.031
1031	0.031
1032	0.031
1032	0.031
1033	0.031
1033	0.031
1033	0.031
1034	0.031
1034	0.03
1035	0.03
1035	0.03
1036	0.03
1036	0.03
1036	0.03
1037	0.03
1037	0.03
1038	0.03
1038	0.031
1039	0.031
1039	0.031
1039	0.031
1040	0.032
1040	0.032
1041	0.032
1041	0.031
1041	0.031
1042	0.031
1042	0.031
1043	0.03
1043	0.03
1044	0.03
1044	0.03
1044	0.03
1045	0.03
1045	0.03
1046	0.031
1046	0.031
1046	0.031
1047	0.032
1047	0.032
1048	0.033
1048	0.034
1049	0.034
1049	0.035
1049	0.034
1050	0.034
1050	0.034
1051	0.033
1051	0.033
1051	0.032
1052	0.031
1052	0.03
1053	0.029
1053	0.028
1053	0.027
1054	0.026
1054	0.026
1055	0.026
1055	0.025
1056	0.025
1056	0.025
1056	0.024
1057	0.024
1057	0.024
1058	0.023
1058	0.023
1058	0.022
1059	0.022
1059	0.022
1060	0.021
1060	0.021
1061	0.021
1061	0.021
1061	0.021
1062	0.021
1062	0.021
1063	0.021
1063	0.021
1063	0.021
1064	0.021
1064	0.021
1065	0.021
1065	0.022
1066	0.022
1066	0.022
1066	0.021
1067	0.021
1067	0.021
1068	0.021
1068	0.021
1068	0.02
1069	0.02
1069	0.019
1070	0.018
1070	0.018
1071	0.017
1071	0.017
1071	0.016
1072	0.016
1072	0.015
1073	0.014
1073	0.014
1073	0.014
1074	0.015
1074	0.015
1075	0.015
1075	0.016
1076	0.017
1076	0.017
1076	0.017
1077	0.018
1077	0.018
1078	0.018
1078	0.018
1078	0.018
1079	0.018
1079	0.018
1080	0.017
1080	0.017
1080	0.016
1081	0.016
1081	0.016
1082	0.016
1082	0.016
1083	0.016
1083	0.016
1083	0.015
1084	0.015
1084	0.015
1085	0.015
1085	0.015
1085	0.015
1086	0.015
1086	0.015
1087	0.015
1087	0.014
1088	0.014
1088	0.014
1088	0.014
1089	0.014
1089	0.013
1090	0.012
1090	0.012
1090	0.011
1091	0.011
1091	0.01
1092	0.011
1092	0.011
1092	0.011
1093	0.01
1093	0.011
1094	0.011
1094	0.011
1095	0.011
1095	0.011
1095	0.011
1096	0.011
1096	0.01
1097	0.009
1097	0.009
1097	0.009
1098	0.008
1098	0.006
1099	0.006
1099	0.005
1100	0.004
1100	0.003
1100	0.002
1101	0.001
1101	-0
1102	-0.001
1102	-0.002
1102	-0.002
1103	-0.003
1103	-0.003
1104	-0.003
1104	-0.004
1104	-0.004
1105	-0.005
1105	-0.006
1106	-0.007
1106	-0.008
1107	-0.01
1107	-0.01
1107	-0.012
1108	-0.013
1108	-0.013
1109	-0.015
1109	-0.016
1109	-0.016
1110	-0.015
1110	-0.016
1111	-0.017
1111	-0.019
