Data from reversibility-20sec_Absorbance__3175__000000000003175.txt Node

Date: Wed Dec 06 05:51:25 CET 2023
User: Marek
Spectrometer: MAYP115816
Trigger mode: 0
Integration Time (sec): 2.000000E-1
Scans to average: 10
Electric dark correction enabled: true
Nonlinearity correction enabled: true
Boxcar width: 5
XAxis mode: Wavelengths
Number of Pixels in Spectrum: 2068
>>>>>Begin Spectral Data<<<<<
199	-0.167
199	-0.138
200	-0.078
200	-0.026
201	-0
201	0.021
202	0.032
202	0.043
203	0.052
203	0.057
204	0.073
204	0.086
205	0.1
205	0.107
205	0.107
206	0.109
206	0.109
207	0.112
207	0.114
208	0.111
208	0.11
209	0.109
209	0.107
210	0.106
210	0.108
211	0.109
211	0.11
212	0.108
212	0.111
213	0.111
213	0.113
213	0.113
214	0.117
214	0.118
215	0.118
215	0.118
216	0.118
216	0.118
217	0.122
217	0.12
218	0.121
218	0.125
219	0.128
219	0.129
220	0.131
220	0.134
221	0.136
221	0.139
221	0.142
222	0.146
222	0.152
223	0.158
223	0.161
224	0.168
224	0.177
225	0.186
225	0.197
226	0.207
226	0.218
227	0.229
227	0.24
228	0.257
228	0.271
229	0.288
229	0.313
229	0.337
230	0.364
230	0.392
231	0.422
231	0.459
232	0.5
232	0.545
233	0.588
233	0.637
234	0.689
234	0.739
235	0.791
235	0.842
236	0.893
236	0.95
236	1
237	1.051
237	1.097
238	1.146
238	1.194
239	1.241
239	1.284
240	1.325
240	1.362
241	1.4
241	1.432
242	1.467
242	1.501
243	1.531
243	1.554
243	1.579
244	1.601
244	1.62
245	1.638
245	1.661
246	1.678
246	1.692
247	1.703
247	1.715
248	1.729
248	1.743
249	1.75
249	1.755
250	1.763
250	1.769
250	1.77
251	1.774
251	1.779
252	1.786
252	1.786
253	1.789
253	1.786
254	1.786
254	1.788
255	1.787
255	1.788
256	1.788
256	1.788
257	1.787
257	1.783
258	1.783
258	1.78
258	1.78
259	1.782
259	1.781
260	1.78
260	1.781
261	1.78
261	1.783
262	1.785
262	1.785
263	1.786
263	1.788
264	1.789
264	1.788
265	1.789
265	1.79
265	1.79
266	1.79
266	1.789
267	1.786
267	1.788
268	1.788
268	1.789
269	1.789
269	1.788
270	1.787
270	1.786
271	1.784
271	1.783
272	1.779
272	1.779
272	1.777
273	1.772
273	1.766
274	1.761
274	1.756
275	1.75
275	1.744
276	1.737
276	1.728
277	1.72
277	1.711
278	1.7
278	1.687
278	1.675
279	1.662
279	1.644
280	1.624
280	1.599
281	1.571
281	1.54
282	1.506
282	1.469
283	1.434
283	1.399
284	1.364
284	1.33
285	1.298
285	1.267
285	1.24
286	1.216
286	1.194
287	1.175
287	1.158
288	1.144
288	1.132
289	1.121
289	1.111
290	1.104
290	1.097
291	1.09
291	1.085
292	1.079
292	1.075
292	1.07
293	1.066
293	1.062
294	1.059
294	1.055
295	1.052
295	1.048
296	1.045
296	1.041
297	1.039
297	1.036
298	1.032
298	1.029
298	1.026
299	1.023
299	1.02
300	1.017
300	1.014
301	1.012
301	1.009
302	1.007
302	1.004
303	1.001
303	0.999
304	0.996
304	0.994
305	0.992
305	0.989
305	0.986
306	0.984
306	0.981
307	0.978
307	0.976
308	0.973
308	0.97
309	0.967
309	0.964
310	0.961
310	0.958
311	0.955
311	0.951
311	0.948
312	0.945
312	0.941
313	0.938
313	0.934
314	0.93
314	0.927
315	0.922
315	0.918
316	0.914
316	0.91
317	0.905
317	0.9
318	0.895
318	0.89
318	0.885
319	0.88
319	0.874
320	0.869
320	0.863
321	0.857
321	0.851
322	0.845
322	0.839
323	0.833
323	0.826
324	0.82
324	0.813
324	0.806
325	0.8
325	0.793
326	0.787
326	0.78
327	0.773
327	0.767
328	0.76
328	0.754
329	0.747
329	0.74
330	0.733
330	0.727
330	0.719
331	0.712
331	0.706
332	0.699
332	0.692
333	0.685
333	0.678
334	0.672
334	0.665
335	0.659
335	0.652
336	0.645
336	0.639
336	0.633
337	0.626
337	0.62
338	0.614
338	0.608
339	0.603
339	0.597
340	0.591
340	0.585
341	0.58
341	0.574
342	0.569
342	0.564
342	0.558
343	0.553
343	0.548
344	0.543
344	0.539
345	0.534
345	0.529
346	0.525
346	0.52
347	0.516
347	0.512
348	0.508
348	0.504
348	0.501
349	0.497
349	0.493
350	0.49
350	0.486
351	0.483
351	0.479
352	0.476
352	0.473
353	0.47
353	0.467
354	0.464
354	0.461
354	0.458
355	0.455
355	0.452
356	0.449
356	0.446
357	0.443
357	0.44
358	0.437
358	0.434
359	0.432
359	0.43
360	0.427
360	0.426
360	0.424
361	0.422
361	0.42
362	0.419
362	0.417
363	0.415
363	0.413
364	0.411
364	0.409
365	0.407
365	0.405
366	0.403
366	0.401
366	0.399
367	0.397
367	0.395
368	0.393
368	0.392
369	0.39
369	0.389
370	0.387
370	0.386
371	0.384
371	0.383
372	0.381
372	0.38
372	0.378
373	0.377
373	0.376
374	0.375
374	0.374
375	0.372
375	0.371
376	0.37
376	0.369
377	0.368
377	0.366
378	0.365
378	0.364
378	0.363
379	0.363
379	0.362
380	0.36
380	0.36
381	0.359
381	0.358
382	0.357
382	0.357
383	0.356
383	0.355
383	0.354
384	0.353
384	0.353
385	0.352
385	0.351
386	0.351
386	0.35
387	0.35
387	0.349
388	0.348
388	0.348
389	0.347
389	0.347
389	0.346
390	0.345
390	0.344
391	0.344
391	0.343
392	0.343
392	0.342
393	0.342
393	0.341
394	0.341
394	0.34
394	0.34
395	0.339
395	0.339
396	0.338
396	0.337
397	0.337
397	0.336
398	0.336
398	0.336
399	0.335
399	0.335
400	0.334
400	0.334
400	0.333
401	0.333
401	0.332
402	0.332
402	0.331
403	0.331
403	0.33
404	0.33
404	0.329
405	0.328
405	0.328
405	0.328
406	0.327
406	0.327
407	0.327
407	0.326
408	0.326
408	0.326
409	0.325
409	0.325
410	0.325
410	0.324
411	0.324
411	0.324
411	0.323
412	0.323
412	0.322
413	0.322
413	0.321
414	0.321
414	0.321
415	0.32
415	0.32
416	0.32
416	0.319
416	0.319
417	0.318
417	0.318
418	0.318
418	0.317
419	0.317
419	0.316
420	0.316
420	0.315
421	0.315
421	0.315
421	0.314
422	0.314
422	0.314
423	0.313
423	0.313
424	0.313
424	0.313
425	0.312
425	0.312
426	0.312
426	0.311
427	0.311
427	0.311
427	0.31
428	0.31
428	0.309
429	0.309
429	0.309
430	0.309
430	0.308
431	0.308
431	0.308
432	0.308
432	0.308
432	0.308
433	0.307
433	0.307
434	0.307
434	0.307
435	0.307
435	0.307
436	0.306
436	0.306
437	0.306
437	0.306
437	0.306
438	0.306
438	0.306
439	0.305
439	0.305
440	0.305
440	0.305
441	0.304
441	0.304
442	0.304
442	0.304
442	0.303
443	0.303
443	0.303
444	0.303
444	0.303
445	0.303
445	0.302
446	0.302
446	0.302
447	0.302
447	0.302
447	0.302
448	0.302
448	0.302
449	0.302
449	0.302
450	0.302
450	0.302
451	0.302
451	0.302
452	0.302
452	0.302
452	0.302
453	0.302
453	0.302
454	0.302
454	0.302
455	0.302
455	0.302
456	0.302
456	0.302
457	0.302
457	0.302
458	0.302
458	0.302
458	0.302
459	0.302
459	0.302
460	0.302
460	0.303
461	0.303
461	0.303
462	0.303
462	0.303
463	0.303
463	0.303
463	0.303
464	0.303
464	0.303
465	0.303
465	0.303
466	0.303
466	0.303
467	0.303
467	0.304
467	0.304
468	0.304
468	0.305
469	0.305
469	0.306
470	0.306
470	0.307
471	0.307
471	0.308
472	0.308
472	0.308
472	0.309
473	0.309
473	0.309
474	0.31
474	0.31
475	0.31
475	0.31
476	0.311
476	0.311
477	0.312
477	0.312
477	0.313
478	0.314
478	0.314
479	0.315
479	0.316
480	0.317
480	0.317
481	0.318
481	0.319
482	0.32
482	0.321
482	0.321
483	0.322
483	0.323
484	0.324
484	0.325
485	0.325
485	0.326
486	0.327
486	0.328
487	0.329
487	0.329
487	0.33
488	0.331
488	0.332
489	0.333
489	0.335
490	0.337
490	0.338
491	0.339
491	0.34
492	0.342
492	0.343
492	0.345
493	0.346
493	0.348
494	0.349
494	0.35
495	0.352
495	0.354
496	0.355
496	0.357
496	0.358
497	0.359
497	0.361
498	0.362
498	0.363
499	0.365
499	0.366
500	0.368
500	0.369
501	0.371
501	0.372
501	0.373
502	0.375
502	0.376
503	0.378
503	0.379
504	0.381
504	0.382
505	0.383
505	0.384
506	0.386
506	0.387
506	0.388
507	0.39
507	0.391
508	0.392
508	0.394
509	0.395
509	0.396
510	0.397
510	0.398
511	0.4
511	0.401
511	0.402
512	0.403
512	0.404
513	0.405
513	0.406
514	0.407
514	0.408
515	0.408
515	0.409
515	0.409
516	0.41
516	0.411
517	0.412
517	0.413
518	0.413
518	0.413
519	0.414
519	0.414
520	0.414
520	0.415
520	0.415
521	0.415
521	0.415
522	0.415
522	0.415
523	0.415
523	0.415
524	0.415
524	0.415
524	0.414
525	0.414
525	0.413
526	0.413
526	0.412
527	0.411
527	0.41
528	0.409
528	0.408
529	0.407
529	0.406
529	0.405
530	0.404
530	0.403
531	0.402
531	0.401
532	0.4
532	0.398
533	0.397
533	0.395
533	0.394
534	0.392
534	0.391
535	0.389
535	0.387
536	0.386
536	0.384
537	0.382
537	0.38
538	0.378
538	0.376
538	0.374
539	0.372
539	0.37
540	0.368
540	0.366
541	0.364
541	0.362
542	0.36
542	0.358
542	0.356
543	0.354
543	0.352
544	0.35
544	0.347
545	0.345
545	0.343
546	0.341
546	0.338
547	0.335
547	0.333
547	0.331
548	0.328
548	0.326
549	0.324
549	0.321
550	0.319
550	0.317
551	0.314
551	0.312
551	0.309
552	0.307
552	0.305
553	0.302
553	0.3
554	0.298
554	0.296
555	0.294
555	0.291
556	0.289
556	0.287
556	0.285
557	0.283
557	0.281
558	0.279
558	0.277
559	0.275
559	0.273
560	0.271
560	0.269
560	0.267
561	0.266
561	0.264
562	0.261
562	0.259
563	0.256
563	0.254
564	0.252
564	0.25
564	0.248
565	0.246
565	0.244
566	0.242
566	0.24
567	0.239
567	0.237
568	0.235
568	0.233
568	0.232
569	0.23
569	0.228
570	0.226
570	0.224
571	0.223
571	0.221
572	0.22
572	0.218
573	0.217
573	0.215
573	0.214
574	0.213
574	0.211
575	0.21
575	0.209
576	0.208
576	0.206
577	0.204
577	0.203
577	0.202
578	0.2
578	0.199
579	0.198
579	0.197
580	0.196
580	0.194
581	0.192
581	0.191
581	0.19
582	0.189
582	0.188
583	0.187
583	0.186
584	0.185
584	0.183
585	0.181
585	0.18
585	0.179
586	0.178
586	0.177
587	0.176
587	0.175
588	0.174
588	0.173
589	0.172
589	0.171
590	0.17
590	0.17
590	0.169
591	0.168
591	0.167
592	0.166
592	0.164
593	0.163
593	0.162
594	0.161
594	0.16
594	0.159
595	0.158
595	0.157
596	0.155
596	0.155
597	0.155
597	0.154
598	0.154
598	0.154
598	0.153
599	0.153
599	0.152
600	0.152
600	0.151
601	0.15
601	0.15
602	0.149
602	0.148
602	0.147
603	0.146
603	0.145
604	0.145
604	0.144
605	0.144
605	0.143
606	0.143
606	0.142
606	0.141
607	0.14
607	0.14
608	0.139
608	0.138
609	0.137
609	0.136
610	0.136
610	0.135
610	0.134
611	0.134
611	0.133
612	0.133
612	0.133
613	0.133
613	0.132
614	0.132
614	0.131
614	0.131
615	0.131
615	0.13
616	0.13
616	0.129
617	0.129
617	0.128
618	0.128
618	0.128
618	0.127
619	0.127
619	0.127
620	0.127
620	0.127
621	0.126
621	0.125
622	0.125
622	0.124
622	0.123
623	0.123
623	0.122
624	0.122
624	0.121
625	0.12
625	0.12
626	0.119
626	0.119
626	0.118
627	0.118
627	0.118
628	0.117
628	0.117
629	0.116
629	0.116
630	0.115
630	0.115
630	0.115
631	0.115
631	0.114
632	0.114
632	0.113
633	0.113
633	0.113
634	0.113
634	0.113
634	0.113
635	0.113
635	0.113
636	0.112
636	0.112
637	0.112
637	0.111
638	0.111
638	0.111
638	0.11
639	0.109
639	0.109
640	0.108
640	0.108
641	0.108
641	0.107
642	0.107
642	0.107
642	0.107
643	0.107
643	0.107
644	0.107
644	0.107
645	0.107
645	0.107
646	0.106
646	0.106
646	0.106
647	0.106
647	0.106
648	0.105
648	0.105
649	0.104
649	0.104
650	0.104
650	0.104
650	0.104
651	0.104
651	0.104
652	0.103
652	0.103
653	0.104
653	0.105
653	0.11
654	0.088
654	0.072
655	0.07
655	0.07
656	0.07
656	0.07
657	0.07
657	0.071
657	0.071
658	0.069
658	0.062
659	0.077
659	0.097
660	0.102
660	0.102
661	0.101
661	0.1
661	0.1
662	0.099
662	0.099
663	0.098
663	0.097
664	0.097
664	0.096
665	0.096
665	0.096
665	0.095
666	0.095
666	0.095
667	0.095
667	0.096
668	0.096
668	0.096
669	0.096
669	0.096
669	0.097
670	0.097
670	0.097
671	0.097
671	0.097
672	0.096
672	0.096
672	0.096
673	0.095
673	0.095
674	0.095
674	0.094
675	0.094
675	0.094
676	0.094
676	0.094
676	0.094
677	0.094
677	0.094
678	0.094
678	0.093
679	0.093
679	0.093
680	0.093
680	0.092
680	0.092
681	0.092
681	0.091
682	0.091
682	0.092
683	0.092
683	0.092
684	0.092
684	0.092
684	0.091
685	0.091
685	0.091
686	0.091
686	0.091
687	0.091
687	0.091
687	0.091
688	0.091
688	0.091
689	0.092
689	0.092
690	0.092
690	0.092
691	0.092
691	0.092
691	0.092
692	0.091
692	0.091
693	0.091
693	0.091
694	0.09
694	0.09
695	0.09
695	0.091
695	0.091
696	0.091
696	0.091
697	0.091
697	0.09
698	0.09
698	0.09
698	0.09
699	0.09
699	0.089
700	0.089
700	0.089
701	0.088
701	0.088
702	0.087
702	0.087
702	0.086
703	0.086
703	0.086
704	0.085
704	0.085
705	0.085
705	0.085
705	0.085
706	0.085
706	0.085
707	0.085
707	0.085
708	0.085
708	0.085
709	0.085
709	0.085
709	0.084
710	0.084
710	0.084
711	0.084
711	0.083
712	0.083
712	0.083
713	0.083
713	0.083
713	0.082
714	0.082
714	0.082
715	0.082
715	0.081
716	0.081
716	0.08
716	0.08
717	0.079
717	0.079
718	0.078
718	0.077
719	0.078
719	0.077
720	0.078
720	0.078
720	0.078
721	0.078
721	0.079
722	0.079
722	0.079
723	0.079
723	0.079
723	0.079
724	0.079
724	0.078
725	0.077
725	0.077
726	0.076
726	0.075
727	0.075
727	0.074
727	0.074
728	0.074
728	0.074
729	0.074
729	0.074
730	0.075
730	0.075
730	0.076
731	0.076
731	0.077
732	0.077
732	0.077
733	0.077
733	0.077
734	0.077
734	0.076
734	0.076
735	0.076
735	0.075
736	0.074
736	0.074
737	0.073
737	0.073
737	0.072
738	0.071
738	0.07
739	0.069
739	0.069
740	0.069
740	0.069
741	0.069
741	0.069
741	0.069
742	0.069
742	0.069
743	0.07
743	0.07
744	0.071
744	0.071
744	0.071
745	0.071
745	0.071
746	0.071
746	0.071
747	0.071
747	0.071
748	0.071
748	0.071
748	0.071
749	0.071
749	0.071
750	0.071
750	0.071
751	0.071
751	0.071
751	0.071
752	0.07
752	0.069
753	0.069
753	0.068
754	0.068
754	0.067
754	0.067
755	0.067
755	0.067
756	0.066
756	0.065
757	0.064
757	0.065
758	0.065
758	0.064
758	0.065
759	0.065
759	0.064
760	0.064
760	0.064
761	0.064
761	0.065
761	0.065
762	0.065
762	0.065
763	0.065
763	0.064
764	0.064
764	0.064
764	0.064
765	0.064
765	0.063
766	0.063
766	0.063
767	0.063
767	0.062
768	0.062
768	0.062
768	0.062
769	0.062
769	0.062
770	0.063
770	0.063
771	0.063
771	0.063
771	0.063
772	0.063
772	0.063
773	0.063
773	0.063
774	0.063
774	0.063
775	0.063
775	0.063
775	0.063
776	0.063
776	0.063
777	0.063
777	0.063
778	0.063
778	0.062
778	0.062
779	0.062
779	0.061
780	0.06
780	0.06
781	0.059
781	0.059
781	0.058
782	0.058
782	0.058
783	0.059
783	0.059
784	0.059
784	0.059
784	0.059
785	0.059
785	0.059
786	0.059
786	0.059
787	0.059
787	0.059
788	0.058
788	0.058
788	0.057
789	0.056
789	0.056
790	0.056
790	0.055
791	0.055
791	0.054
791	0.054
792	0.054
792	0.054
793	0.053
793	0.053
794	0.053
794	0.053
794	0.052
795	0.052
795	0.053
796	0.053
796	0.053
797	0.053
797	0.053
797	0.054
798	0.054
798	0.054
799	0.054
799	0.054
800	0.054
800	0.053
801	0.053
801	0.053
801	0.052
802	0.052
802	0.052
803	0.052
803	0.052
804	0.052
804	0.053
804	0.053
805	0.053
805	0.053
806	0.053
806	0.053
807	0.053
807	0.053
807	0.052
808	0.053
808	0.052
809	0.052
809	0.052
810	0.052
810	0.052
810	0.052
811	0.052
811	0.053
812	0.053
812	0.053
813	0.053
813	0.053
813	0.053
814	0.054
814	0.054
815	0.054
815	0.054
816	0.053
816	0.053
817	0.052
817	0.052
817	0.051
818	0.051
818	0.051
819	0.051
819	0.05
820	0.049
820	0.049
820	0.049
821	0.049
821	0.049
822	0.048
822	0.048
823	0.049
823	0.049
823	0.049
824	0.05
824	0.051
825	0.053
825	0.054
826	0.054
826	0.054
826	0.055
827	0.055
827	0.055
828	0.055
828	0.055
829	0.055
829	0.054
829	0.054
830	0.054
830	0.054
831	0.055
831	0.055
832	0.055
832	0.055
832	0.055
833	0.055
833	0.054
834	0.053
834	0.053
835	0.052
835	0.051
835	0.051
836	0.05
836	0.05
837	0.049
837	0.049
838	0.049
838	0.049
839	0.048
839	0.048
839	0.048
840	0.047
840	0.046
841	0.046
841	0.045
842	0.045
842	0.045
842	0.045
843	0.045
843	0.045
844	0.045
844	0.045
845	0.046
845	0.046
845	0.047
846	0.047
846	0.047
847	0.047
847	0.048
848	0.048
848	0.048
848	0.047
849	0.047
849	0.047
850	0.047
850	0.046
851	0.046
851	0.045
851	0.045
852	0.044
852	0.044
853	0.044
853	0.044
854	0.044
854	0.044
854	0.045
855	0.046
855	0.047
856	0.047
856	0.048
857	0.049
857	0.05
857	0.05
858	0.05
858	0.05
859	0.05
859	0.049
860	0.048
860	0.048
860	0.047
861	0.046
861	0.045
862	0.045
862	0.044
863	0.043
863	0.043
863	0.043
864	0.043
864	0.042
865	0.042
865	0.042
866	0.042
866	0.042
866	0.042
867	0.042
867	0.042
868	0.042
868	0.042
869	0.041
869	0.041
869	0.04
870	0.039
870	0.039
871	0.039
871	0.039
872	0.039
872	0.038
872	0.038
873	0.039
873	0.038
874	0.038
874	0.039
875	0.039
875	0.039
875	0.039
876	0.039
876	0.039
877	0.039
877	0.039
878	0.039
878	0.039
878	0.04
879	0.041
879	0.041
880	0.042
880	0.042
881	0.042
881	0.043
881	0.043
882	0.043
882	0.043
883	0.043
883	0.043
884	0.043
884	0.043
884	0.043
885	0.043
885	0.042
886	0.042
886	0.042
887	0.041
887	0.041
887	0.04
888	0.04
888	0.039
889	0.039
889	0.039
890	0.038
890	0.038
890	0.038
891	0.038
891	0.038
892	0.038
892	0.038
893	0.038
893	0.038
893	0.038
894	0.038
894	0.037
895	0.036
895	0.036
895	0.036
896	0.036
896	0.035
897	0.035
897	0.034
898	0.034
898	0.033
898	0.033
899	0.033
899	0.033
900	0.033
900	0.033
901	0.033
901	0.034
901	0.034
902	0.034
902	0.034
903	0.034
903	0.034
904	0.035
904	0.035
904	0.035
905	0.035
905	0.035
906	0.036
906	0.036
907	0.037
907	0.038
907	0.038
908	0.039
908	0.039
909	0.04
909	0.04
910	0.041
910	0.041
910	0.041
911	0.041
911	0.041
912	0.04
912	0.041
913	0.04
913	0.04
913	0.04
914	0.04
914	0.04
915	0.039
915	0.039
916	0.039
916	0.039
916	0.038
917	0.038
917	0.037
918	0.037
918	0.037
918	0.036
919	0.036
919	0.035
920	0.035
920	0.035
921	0.035
921	0.035
921	0.035
922	0.034
922	0.035
923	0.035
923	0.035
924	0.036
924	0.036
924	0.037
925	0.037
925	0.038
926	0.038
926	0.038
927	0.038
927	0.038
927	0.038
928	0.038
928	0.038
929	0.038
929	0.039
930	0.039
930	0.039
930	0.039
931	0.039
931	0.04
932	0.04
932	0.04
933	0.041
933	0.041
933	0.041
934	0.041
934	0.041
935	0.041
935	0.041
935	0.041
936	0.04
936	0.04
937	0.04
937	0.039
938	0.039
938	0.038
938	0.038
939	0.037
939	0.036
940	0.036
940	0.036
941	0.035
941	0.035
941	0.035
942	0.035
942	0.035
943	0.035
943	0.035
944	0.035
944	0.036
944	0.036
945	0.036
945	0.037
946	0.037
946	0.037
946	0.038
947	0.038
947	0.038
948	0.039
948	0.039
949	0.039
949	0.039
949	0.039
950	0.039
950	0.039
951	0.039
951	0.039
952	0.038
952	0.037
952	0.037
953	0.036
953	0.036
954	0.035
954	0.035
955	0.034
955	0.034
955	0.033
956	0.033
956	0.033
957	0.033
957	0.033
957	0.034
958	0.034
958	0.034
959	0.034
959	0.035
960	0.035
960	0.035
960	0.036
961	0.036
961	0.036
962	0.036
962	0.036
963	0.035
963	0.035
963	0.035
964	0.035
964	0.036
965	0.036
965	0.036
966	0.037
966	0.037
966	0.038
967	0.038
967	0.039
968	0.04
968	0.04
968	0.04
969	0.04
969	0.04
970	0.04
970	0.04
971	0.039
971	0.039
971	0.038
972	0.038
972	0.038
973	0.037
973	0.037
974	0.037
974	0.037
974	0.037
975	0.037
975	0.037
976	0.037
976	0.038
976	0.038
977	0.038
977	0.037
978	0.037
978	0.037
979	0.037
979	0.037
979	0.037
980	0.038
980	0.037
981	0.037
981	0.037
982	0.038
982	0.038
982	0.038
983	0.038
983	0.038
984	0.038
984	0.038
984	0.038
985	0.038
985	0.038
986	0.037
986	0.037
987	0.037
987	0.037
987	0.036
988	0.036
988	0.036
989	0.035
989	0.035
990	0.034
990	0.034
990	0.034
991	0.033
991	0.033
992	0.032
992	0.032
992	0.031
993	0.031
993	0.03
994	0.03
994	0.03
995	0.03
995	0.03
995	0.03
996	0.03
996	0.031
997	0.031
997	0.032
997	0.033
998	0.033
998	0.034
999	0.035
999	0.036
1000	0.036
1000	0.036
1000	0.036
1001	0.036
1001	0.036
1002	0.036
1002	0.035
1003	0.035
1003	0.034
1003	0.033
1004	0.032
1004	0.031
1005	0.03
1005	0.03
1005	0.029
1006	0.028
1006	0.028
1007	0.027
1007	0.027
1008	0.027
1008	0.028
1008	0.028
1009	0.028
1009	0.029
1010	0.029
1010	0.029
1010	0.03
1011	0.03
1011	0.03
1012	0.031
1012	0.031
1013	0.03
1013	0.03
1013	0.03
1014	0.03
1014	0.03
1015	0.03
1015	0.03
1016	0.029
1016	0.029
1016	0.029
1017	0.028
1017	0.028
1018	0.027
1018	0.027
1018	0.027
1019	0.026
1019	0.026
1020	0.026
1020	0.026
1021	0.026
1021	0.027
1021	0.027
1022	0.027
1022	0.027
1023	0.027
1023	0.027
1023	0.028
1024	0.028
1024	0.028
1025	0.027
1025	0.027
1026	0.027
1026	0.027
1026	0.027
1027	0.027
1027	0.027
1028	0.027
1028	0.027
1028	0.027
1029	0.027
1029	0.028
1030	0.028
1030	0.028
1031	0.029
1031	0.029
1031	0.029
1032	0.029
1032	0.029
1033	0.03
1033	0.03
1033	0.03
1034	0.03
1034	0.029
1035	0.029
1035	0.028
1036	0.028
1036	0.028
1036	0.028
1037	0.027
1037	0.027
1038	0.026
1038	0.026
1039	0.026
1039	0.026
1039	0.026
1040	0.027
1040	0.027
1041	0.028
1041	0.028
1041	0.028
1042	0.029
1042	0.029
1043	0.029
1043	0.03
1044	0.03
1044	0.031
1044	0.031
1045	0.032
1045	0.032
1046	0.033
1046	0.033
1046	0.033
1047	0.034
1047	0.035
1048	0.035
1048	0.036
1049	0.036
1049	0.037
1049	0.037
1050	0.037
1050	0.037
1051	0.038
1051	0.038
1051	0.038
1052	0.037
1052	0.037
1053	0.036
1053	0.036
1053	0.035
1054	0.034
1054	0.034
1055	0.034
1055	0.033
1056	0.032
1056	0.032
1056	0.031
1057	0.03
1057	0.03
1058	0.029
1058	0.028
1058	0.027
1059	0.027
1059	0.026
1060	0.026
1060	0.025
1061	0.025
1061	0.025
1061	0.025
1062	0.025
1062	0.025
1063	0.025
1063	0.025
1063	0.025
1064	0.024
1064	0.025
1065	0.025
1065	0.025
1066	0.025
1066	0.025
1066	0.025
1067	0.025
1067	0.025
1068	0.025
1068	0.025
1068	0.025
1069	0.025
1069	0.024
1070	0.024
1070	0.023
1071	0.023
1071	0.023
1071	0.022
1072	0.022
1072	0.021
1073	0.02
1073	0.02
1073	0.02
1074	0.02
1074	0.02
1075	0.02
1075	0.02
1076	0.021
1076	0.021
1076	0.022
1077	0.022
1077	0.022
1078	0.022
1078	0.022
1078	0.022
1079	0.022
1079	0.022
1080	0.022
1080	0.021
1080	0.021
1081	0.021
1081	0.021
1082	0.021
1082	0.022
1083	0.021
1083	0.021
1083	0.022
1084	0.022
1084	0.022
1085	0.023
1085	0.023
1085	0.023
1086	0.023
1086	0.022
1087	0.022
1087	0.022
1088	0.022
1088	0.021
1088	0.021
1089	0.02
1089	0.02
1090	0.019
1090	0.018
1090	0.017
1091	0.017
1091	0.016
1092	0.016
1092	0.016
1092	0.016
1093	0.015
1093	0.016
1094	0.016
1094	0.015
1095	0.016
1095	0.016
1095	0.015
1096	0.015
1096	0.014
1097	0.014
1097	0.014
1097	0.014
1098	0.014
1098	0.013
1099	0.013
1099	0.011
1100	0.011
1100	0.011
1100	0.01
1101	0.01
1101	0.009
1102	0.009
1102	0.008
1102	0.007
1103	0.006
1103	0.007
1104	0.007
1104	0.006
1104	0.006
1105	0.005
1105	0.003
1106	0.002
1106	0.001
1107	-0
1107	-0.001
1107	-0.001
1108	-0.003
1108	-0.004
1109	-0.005
1109	-0.006
1109	-0.006
1110	-0.004
1110	-0.007
1111	-0.008
1111	-0.007
