Data from reversibility-20sec_Absorbance__3106__000000000003106.txt Node

Date: Wed Dec 06 05:28:25 CET 2023
User: Marek
Spectrometer: MAYP115816
Trigger mode: 0
Integration Time (sec): 2.000000E-1
Scans to average: 10
Electric dark correction enabled: true
Nonlinearity correction enabled: true
Boxcar width: 5
XAxis mode: Wavelengths
Number of Pixels in Spectrum: 2068
>>>>>Begin Spectral Data<<<<<
199	-0.171
199	-0.147
200	-0.079
200	-0.024
201	0.009
201	0.022
202	0.035
202	0.047
203	0.054
203	0.057
204	0.071
204	0.084
205	0.099
205	0.106
205	0.104
206	0.101
206	0.103
207	0.105
207	0.104
208	0.104
208	0.103
209	0.104
209	0.103
210	0.102
210	0.101
211	0.104
211	0.106
212	0.104
212	0.105
213	0.106
213	0.11
213	0.111
214	0.115
214	0.117
215	0.12
215	0.121
216	0.122
216	0.122
217	0.126
217	0.128
218	0.127
218	0.132
219	0.138
219	0.139
220	0.142
220	0.142
221	0.145
221	0.149
221	0.155
222	0.16
222	0.165
223	0.175
223	0.176
224	0.183
224	0.19
225	0.198
225	0.208
226	0.216
226	0.226
227	0.235
227	0.247
228	0.265
228	0.275
229	0.292
229	0.314
229	0.337
230	0.365
230	0.394
231	0.427
231	0.466
232	0.504
232	0.547
233	0.589
233	0.639
234	0.686
234	0.739
235	0.792
235	0.845
236	0.901
236	0.955
236	1.009
237	1.06
237	1.109
238	1.157
238	1.207
239	1.26
239	1.303
240	1.346
240	1.385
241	1.423
241	1.46
242	1.491
242	1.528
243	1.562
243	1.591
243	1.617
244	1.639
244	1.665
245	1.686
245	1.708
246	1.725
246	1.744
247	1.762
247	1.779
248	1.794
248	1.811
249	1.824
249	1.834
250	1.843
250	1.853
250	1.86
251	1.869
251	1.875
252	1.88
252	1.881
253	1.886
253	1.886
254	1.887
254	1.888
255	1.889
255	1.89
256	1.891
256	1.891
257	1.889
257	1.889
258	1.891
258	1.891
258	1.891
259	1.893
259	1.893
260	1.893
260	1.895
261	1.896
261	1.898
262	1.901
262	1.904
263	1.907
263	1.908
264	1.91
264	1.912
265	1.915
265	1.917
265	1.919
266	1.921
266	1.924
267	1.921
267	1.922
268	1.922
268	1.922
269	1.925
269	1.924
270	1.922
270	1.92
271	1.915
271	1.914
272	1.911
272	1.91
272	1.907
273	1.901
273	1.896
274	1.889
274	1.884
275	1.879
275	1.874
276	1.867
276	1.86
277	1.852
277	1.842
278	1.832
278	1.82
278	1.806
279	1.79
279	1.769
280	1.745
280	1.716
281	1.681
281	1.643
282	1.602
282	1.559
283	1.518
283	1.477
284	1.437
284	1.399
285	1.363
285	1.329
285	1.299
286	1.272
286	1.248
287	1.227
287	1.21
288	1.194
288	1.181
289	1.169
289	1.159
290	1.151
290	1.143
291	1.136
291	1.13
292	1.125
292	1.12
292	1.115
293	1.11
293	1.106
294	1.102
294	1.098
295	1.095
295	1.091
296	1.087
296	1.083
297	1.08
297	1.077
298	1.074
298	1.07
298	1.067
299	1.064
299	1.061
300	1.058
300	1.055
301	1.052
301	1.049
302	1.046
302	1.043
303	1.04
303	1.037
304	1.034
304	1.032
305	1.029
305	1.026
305	1.023
306	1.02
306	1.017
307	1.015
307	1.012
308	1.009
308	1.006
309	1.003
309	1
310	0.997
310	0.994
311	0.99
311	0.987
311	0.983
312	0.979
312	0.975
313	0.971
313	0.968
314	0.964
314	0.959
315	0.954
315	0.95
316	0.946
316	0.941
317	0.936
317	0.931
318	0.926
318	0.921
318	0.915
319	0.91
319	0.904
320	0.899
320	0.893
321	0.887
321	0.881
322	0.874
322	0.868
323	0.861
323	0.855
324	0.848
324	0.841
324	0.835
325	0.828
325	0.821
326	0.814
326	0.807
327	0.8
327	0.793
328	0.786
328	0.779
329	0.772
329	0.765
330	0.758
330	0.751
330	0.744
331	0.737
331	0.73
332	0.723
332	0.716
333	0.709
333	0.702
334	0.695
334	0.689
335	0.682
335	0.675
336	0.668
336	0.662
336	0.655
337	0.648
337	0.642
338	0.636
338	0.63
339	0.624
339	0.618
340	0.612
340	0.606
341	0.6
341	0.595
342	0.589
342	0.584
342	0.579
343	0.573
343	0.568
344	0.563
344	0.558
345	0.553
345	0.549
346	0.544
346	0.54
347	0.535
347	0.531
348	0.527
348	0.523
348	0.519
349	0.515
349	0.512
350	0.508
350	0.504
351	0.501
351	0.497
352	0.494
352	0.491
353	0.488
353	0.485
354	0.482
354	0.479
354	0.476
355	0.473
355	0.47
356	0.467
356	0.465
357	0.462
357	0.459
358	0.456
358	0.453
359	0.451
359	0.448
360	0.446
360	0.444
360	0.442
361	0.44
361	0.437
362	0.435
362	0.433
363	0.431
363	0.43
364	0.427
364	0.425
365	0.423
365	0.421
366	0.419
366	0.417
366	0.415
367	0.414
367	0.412
368	0.41
368	0.408
369	0.407
369	0.406
370	0.404
370	0.402
371	0.401
371	0.399
372	0.398
372	0.396
372	0.395
373	0.394
373	0.392
374	0.391
374	0.39
375	0.389
375	0.387
376	0.386
376	0.385
377	0.384
377	0.383
378	0.381
378	0.38
378	0.379
379	0.379
379	0.377
380	0.376
380	0.375
381	0.374
381	0.373
382	0.373
382	0.372
383	0.371
383	0.37
383	0.369
384	0.368
384	0.368
385	0.367
385	0.367
386	0.366
386	0.365
387	0.364
387	0.364
388	0.363
388	0.362
389	0.362
389	0.361
389	0.361
390	0.36
390	0.359
391	0.359
391	0.358
392	0.357
392	0.357
393	0.356
393	0.356
394	0.355
394	0.354
394	0.354
395	0.353
395	0.353
396	0.353
396	0.352
397	0.351
397	0.351
398	0.35
398	0.35
399	0.349
399	0.349
400	0.348
400	0.348
400	0.347
401	0.347
401	0.346
402	0.346
402	0.345
403	0.345
403	0.344
404	0.344
404	0.343
405	0.343
405	0.342
405	0.342
406	0.341
406	0.341
407	0.34
407	0.34
408	0.34
408	0.339
409	0.339
409	0.339
410	0.338
410	0.338
411	0.337
411	0.337
411	0.337
412	0.336
412	0.336
413	0.335
413	0.335
414	0.335
414	0.334
415	0.334
415	0.333
416	0.333
416	0.332
416	0.332
417	0.331
417	0.331
418	0.331
418	0.331
419	0.33
419	0.33
420	0.33
420	0.329
421	0.329
421	0.328
421	0.328
422	0.328
422	0.327
423	0.327
423	0.326
424	0.326
424	0.325
425	0.325
425	0.325
426	0.325
426	0.324
427	0.324
427	0.324
427	0.324
428	0.323
428	0.323
429	0.323
429	0.322
430	0.322
430	0.322
431	0.321
431	0.321
432	0.321
432	0.321
432	0.321
433	0.321
433	0.32
434	0.32
434	0.321
435	0.321
435	0.32
436	0.32
436	0.32
437	0.32
437	0.32
437	0.319
438	0.319
438	0.319
439	0.319
439	0.319
440	0.318
440	0.318
441	0.318
441	0.318
442	0.318
442	0.317
442	0.317
443	0.317
443	0.317
444	0.317
444	0.316
445	0.316
445	0.316
446	0.316
446	0.316
447	0.316
447	0.316
447	0.316
448	0.316
448	0.316
449	0.316
449	0.316
450	0.316
450	0.316
451	0.316
451	0.316
452	0.316
452	0.316
452	0.316
453	0.316
453	0.316
454	0.316
454	0.316
455	0.316
455	0.315
456	0.315
456	0.315
457	0.315
457	0.315
458	0.315
458	0.315
458	0.315
459	0.316
459	0.316
460	0.316
460	0.316
461	0.316
461	0.317
462	0.317
462	0.317
463	0.317
463	0.317
463	0.317
464	0.317
464	0.317
465	0.317
465	0.317
466	0.317
466	0.317
467	0.317
467	0.318
467	0.318
468	0.318
468	0.319
469	0.319
469	0.32
470	0.321
470	0.321
471	0.321
471	0.322
472	0.322
472	0.322
472	0.323
473	0.323
473	0.324
474	0.324
474	0.325
475	0.325
475	0.325
476	0.326
476	0.327
477	0.328
477	0.329
477	0.329
478	0.33
478	0.33
479	0.331
479	0.332
480	0.332
480	0.333
481	0.334
481	0.335
482	0.335
482	0.336
482	0.337
483	0.338
483	0.339
484	0.34
484	0.341
485	0.342
485	0.342
486	0.343
486	0.344
487	0.345
487	0.346
487	0.347
488	0.347
488	0.348
489	0.35
489	0.351
490	0.353
490	0.354
491	0.356
491	0.358
492	0.359
492	0.36
492	0.362
493	0.363
493	0.365
494	0.366
494	0.368
495	0.369
495	0.37
496	0.372
496	0.373
496	0.375
497	0.376
497	0.378
498	0.38
498	0.381
499	0.382
499	0.384
500	0.386
500	0.388
501	0.389
501	0.391
501	0.392
502	0.393
502	0.394
503	0.396
503	0.397
504	0.398
504	0.4
505	0.401
505	0.403
506	0.404
506	0.405
506	0.407
507	0.408
507	0.41
508	0.411
508	0.412
509	0.414
509	0.415
510	0.416
510	0.418
511	0.419
511	0.42
511	0.421
512	0.422
512	0.424
513	0.425
513	0.426
514	0.426
514	0.427
515	0.428
515	0.429
515	0.429
516	0.43
516	0.431
517	0.432
517	0.432
518	0.433
518	0.433
519	0.434
519	0.434
520	0.434
520	0.435
520	0.435
521	0.435
521	0.435
522	0.435
522	0.436
523	0.435
523	0.435
524	0.435
524	0.435
524	0.435
525	0.434
525	0.434
526	0.433
526	0.432
527	0.431
527	0.43
528	0.429
528	0.428
529	0.427
529	0.426
529	0.425
530	0.424
530	0.422
531	0.421
531	0.42
532	0.418
532	0.417
533	0.415
533	0.414
533	0.412
534	0.41
534	0.408
535	0.407
535	0.405
536	0.403
536	0.4
537	0.399
537	0.397
538	0.395
538	0.393
538	0.391
539	0.389
539	0.387
540	0.385
540	0.383
541	0.381
541	0.379
542	0.377
542	0.374
542	0.372
543	0.369
543	0.367
544	0.365
544	0.362
545	0.36
545	0.358
546	0.355
546	0.352
547	0.349
547	0.347
547	0.344
548	0.342
548	0.339
549	0.337
549	0.334
550	0.332
550	0.33
551	0.327
551	0.324
551	0.322
552	0.319
552	0.317
553	0.315
553	0.312
554	0.31
554	0.308
555	0.305
555	0.303
556	0.3
556	0.298
556	0.296
557	0.294
557	0.292
558	0.29
558	0.288
559	0.286
559	0.283
560	0.281
560	0.279
560	0.277
561	0.275
561	0.273
562	0.27
562	0.268
563	0.266
563	0.263
564	0.261
564	0.259
564	0.257
565	0.255
565	0.252
566	0.25
566	0.248
567	0.246
567	0.244
568	0.242
568	0.24
568	0.239
569	0.237
569	0.235
570	0.233
570	0.231
571	0.229
571	0.228
572	0.226
572	0.224
573	0.223
573	0.221
573	0.219
574	0.218
574	0.216
575	0.215
575	0.214
576	0.212
576	0.21
577	0.209
577	0.207
577	0.206
578	0.205
578	0.203
579	0.202
579	0.201
580	0.199
580	0.198
581	0.196
581	0.195
581	0.194
582	0.193
582	0.192
583	0.191
583	0.189
584	0.188
584	0.185
585	0.184
585	0.183
585	0.182
586	0.181
586	0.18
587	0.178
587	0.177
588	0.176
588	0.175
589	0.174
589	0.173
590	0.173
590	0.172
590	0.172
591	0.171
591	0.169
592	0.168
592	0.166
593	0.165
593	0.164
594	0.163
594	0.161
594	0.16
595	0.159
595	0.158
596	0.156
596	0.156
597	0.156
597	0.156
598	0.155
598	0.155
598	0.154
599	0.154
599	0.153
600	0.152
600	0.152
601	0.151
601	0.15
602	0.149
602	0.148
602	0.147
603	0.146
603	0.146
604	0.146
604	0.145
605	0.144
605	0.144
606	0.143
606	0.142
606	0.141
607	0.14
607	0.14
608	0.139
608	0.138
609	0.137
609	0.136
610	0.135
610	0.134
610	0.134
611	0.134
611	0.133
612	0.133
612	0.133
613	0.133
613	0.132
614	0.132
614	0.131
614	0.131
615	0.13
615	0.13
616	0.129
616	0.129
617	0.129
617	0.128
618	0.127
618	0.127
618	0.127
619	0.126
619	0.126
620	0.126
620	0.126
621	0.125
621	0.124
622	0.124
622	0.123
622	0.122
623	0.121
623	0.121
624	0.12
624	0.119
625	0.119
625	0.118
626	0.118
626	0.117
626	0.117
627	0.117
627	0.117
628	0.116
628	0.116
629	0.116
629	0.115
630	0.115
630	0.114
630	0.114
631	0.114
631	0.113
632	0.113
632	0.112
633	0.112
633	0.112
634	0.112
634	0.112
634	0.112
635	0.112
635	0.111
636	0.111
636	0.111
637	0.11
637	0.11
638	0.109
638	0.109
638	0.108
639	0.107
639	0.107
640	0.106
640	0.106
641	0.106
641	0.105
642	0.105
642	0.105
642	0.105
643	0.105
643	0.105
644	0.105
644	0.105
645	0.105
645	0.105
646	0.105
646	0.105
646	0.105
647	0.104
647	0.104
648	0.103
648	0.102
649	0.102
649	0.102
650	0.102
650	0.101
650	0.101
651	0.101
651	0.101
652	0.101
652	0.101
653	0.101
653	0.102
653	0.108
654	0.087
654	0.07
655	0.068
655	0.068
656	0.068
656	0.069
657	0.069
657	0.069
657	0.068
658	0.067
658	0.06
659	0.074
659	0.093
660	0.098
660	0.098
661	0.097
661	0.097
661	0.096
662	0.095
662	0.095
663	0.094
663	0.094
664	0.093
664	0.093
665	0.093
665	0.092
665	0.092
666	0.092
666	0.093
667	0.093
667	0.093
668	0.093
668	0.093
669	0.093
669	0.093
669	0.094
670	0.094
670	0.094
671	0.094
671	0.093
672	0.093
672	0.092
672	0.092
673	0.091
673	0.091
674	0.09
674	0.09
675	0.089
675	0.089
676	0.09
676	0.09
676	0.09
677	0.09
677	0.09
678	0.09
678	0.089
679	0.089
679	0.089
680	0.089
680	0.088
680	0.088
681	0.088
681	0.087
682	0.088
682	0.088
683	0.088
683	0.089
684	0.089
684	0.088
684	0.088
685	0.088
685	0.088
686	0.088
686	0.088
687	0.087
687	0.087
687	0.087
688	0.087
688	0.087
689	0.088
689	0.088
690	0.088
690	0.087
691	0.087
691	0.087
691	0.087
692	0.086
692	0.086
693	0.086
693	0.086
694	0.085
694	0.085
695	0.085
695	0.086
695	0.086
696	0.086
696	0.086
697	0.086
697	0.086
698	0.085
698	0.085
698	0.085
699	0.086
699	0.085
700	0.084
700	0.084
701	0.084
701	0.083
702	0.082
702	0.082
702	0.081
703	0.081
703	0.08
704	0.08
704	0.08
705	0.08
705	0.079
705	0.079
706	0.079
706	0.08
707	0.08
707	0.08
708	0.08
708	0.08
709	0.08
709	0.079
709	0.079
710	0.078
710	0.078
711	0.078
711	0.078
712	0.078
712	0.078
713	0.078
713	0.077
713	0.077
714	0.077
714	0.077
715	0.077
715	0.076
716	0.076
716	0.076
716	0.075
717	0.074
717	0.074
718	0.073
718	0.072
719	0.072
719	0.072
720	0.072
720	0.072
720	0.072
721	0.072
721	0.073
722	0.073
722	0.073
723	0.073
723	0.073
723	0.073
724	0.073
724	0.073
725	0.072
725	0.071
726	0.071
726	0.07
727	0.07
727	0.069
727	0.069
728	0.069
728	0.069
729	0.07
729	0.07
730	0.07
730	0.07
730	0.071
731	0.071
731	0.072
732	0.072
732	0.072
733	0.072
733	0.072
734	0.072
734	0.071
734	0.071
735	0.071
735	0.07
736	0.069
736	0.069
737	0.068
737	0.068
737	0.067
738	0.066
738	0.065
739	0.065
739	0.065
740	0.064
740	0.064
741	0.065
741	0.065
741	0.065
742	0.065
742	0.065
743	0.066
743	0.066
744	0.067
744	0.067
744	0.067
745	0.067
745	0.067
746	0.067
746	0.067
747	0.067
747	0.067
748	0.068
748	0.068
748	0.068
749	0.068
749	0.068
750	0.068
750	0.068
751	0.068
751	0.068
751	0.068
752	0.067
752	0.067
753	0.066
753	0.065
754	0.065
754	0.064
754	0.064
755	0.063
755	0.063
756	0.062
756	0.061
757	0.061
757	0.061
758	0.061
758	0.061
758	0.062
759	0.062
759	0.062
760	0.062
760	0.062
761	0.062
761	0.062
761	0.063
762	0.062
762	0.062
763	0.062
763	0.061
764	0.061
764	0.061
764	0.061
765	0.06
765	0.06
766	0.06
766	0.06
767	0.059
767	0.059
768	0.059
768	0.059
768	0.059
769	0.06
769	0.06
770	0.06
770	0.061
771	0.061
771	0.061
771	0.061
772	0.061
772	0.062
773	0.061
773	0.061
774	0.061
774	0.061
775	0.061
775	0.061
775	0.061
776	0.061
776	0.061
777	0.061
777	0.061
778	0.061
778	0.06
778	0.06
779	0.06
779	0.059
780	0.058
780	0.058
781	0.058
781	0.058
781	0.057
782	0.057
782	0.057
783	0.058
783	0.058
784	0.058
784	0.058
784	0.058
785	0.058
785	0.058
786	0.058
786	0.058
787	0.058
787	0.058
788	0.057
788	0.057
788	0.056
789	0.055
789	0.055
790	0.055
790	0.055
791	0.054
791	0.054
791	0.053
792	0.054
792	0.054
793	0.053
793	0.053
794	0.053
794	0.053
794	0.052
795	0.052
795	0.052
796	0.052
796	0.052
797	0.052
797	0.052
797	0.053
798	0.053
798	0.053
799	0.053
799	0.053
800	0.053
800	0.053
801	0.052
801	0.052
801	0.052
802	0.052
802	0.052
803	0.052
803	0.052
804	0.052
804	0.053
804	0.053
805	0.053
805	0.053
806	0.053
806	0.053
807	0.053
807	0.053
807	0.053
808	0.053
808	0.053
809	0.053
809	0.053
810	0.053
810	0.054
810	0.053
811	0.053
811	0.054
812	0.054
812	0.054
813	0.054
813	0.054
813	0.054
814	0.055
814	0.055
815	0.055
815	0.055
816	0.055
816	0.054
817	0.054
817	0.054
817	0.053
818	0.053
818	0.052
819	0.052
819	0.051
820	0.05
820	0.05
820	0.049
821	0.049
821	0.049
822	0.049
822	0.05
823	0.05
823	0.05
823	0.051
824	0.052
824	0.053
825	0.055
825	0.056
826	0.056
826	0.056
826	0.056
827	0.057
827	0.057
828	0.057
828	0.056
829	0.056
829	0.056
829	0.056
830	0.056
830	0.056
831	0.057
831	0.057
832	0.057
832	0.057
832	0.056
833	0.056
833	0.056
834	0.055
834	0.055
835	0.054
835	0.053
835	0.053
836	0.053
836	0.053
837	0.052
837	0.053
838	0.052
838	0.052
839	0.052
839	0.052
839	0.051
840	0.051
840	0.05
841	0.049
841	0.049
842	0.048
842	0.048
842	0.048
843	0.048
843	0.048
844	0.048
844	0.048
845	0.048
845	0.049
845	0.049
846	0.05
846	0.05
847	0.05
847	0.051
848	0.051
848	0.051
848	0.051
849	0.05
849	0.05
850	0.05
850	0.05
851	0.049
851	0.049
851	0.048
852	0.047
852	0.047
853	0.047
853	0.047
854	0.047
854	0.047
854	0.048
855	0.049
855	0.049
856	0.05
856	0.051
857	0.052
857	0.052
857	0.053
858	0.053
858	0.053
859	0.053
859	0.052
860	0.052
860	0.051
860	0.05
861	0.05
861	0.049
862	0.048
862	0.047
863	0.047
863	0.046
863	0.046
864	0.046
864	0.046
865	0.046
865	0.046
866	0.046
866	0.047
866	0.047
867	0.047
867	0.047
868	0.047
868	0.046
869	0.046
869	0.045
869	0.045
870	0.044
870	0.044
871	0.044
871	0.044
872	0.044
872	0.043
872	0.043
873	0.044
873	0.043
874	0.043
874	0.043
875	0.043
875	0.043
875	0.043
876	0.043
876	0.042
877	0.042
877	0.042
878	0.042
878	0.043
878	0.044
879	0.044
879	0.045
880	0.045
880	0.046
881	0.046
881	0.047
881	0.047
882	0.047
882	0.047
883	0.047
883	0.047
884	0.047
884	0.047
884	0.047
885	0.047
885	0.047
886	0.046
886	0.046
887	0.045
887	0.045
887	0.044
888	0.044
888	0.044
889	0.044
889	0.044
890	0.044
890	0.044
890	0.044
891	0.044
891	0.044
892	0.044
892	0.044
893	0.044
893	0.044
893	0.044
894	0.043
894	0.043
895	0.042
895	0.042
895	0.041
896	0.041
896	0.041
897	0.04
897	0.039
898	0.039
898	0.038
898	0.038
899	0.038
899	0.038
900	0.038
900	0.038
901	0.038
901	0.038
901	0.039
902	0.039
902	0.039
903	0.039
903	0.039
904	0.039
904	0.04
904	0.04
905	0.04
905	0.04
906	0.041
906	0.041
907	0.042
907	0.043
907	0.044
908	0.044
908	0.045
909	0.045
909	0.046
910	0.046
910	0.046
910	0.046
911	0.046
911	0.046
912	0.046
912	0.046
913	0.046
913	0.046
913	0.046
914	0.045
914	0.045
915	0.045
915	0.045
916	0.044
916	0.044
916	0.044
917	0.043
917	0.043
918	0.042
918	0.042
918	0.041
919	0.041
919	0.04
920	0.04
920	0.04
921	0.039
921	0.039
921	0.039
922	0.039
922	0.039
923	0.039
923	0.04
924	0.04
924	0.041
924	0.042
925	0.042
925	0.043
926	0.043
926	0.043
927	0.043
927	0.043
927	0.043
928	0.043
928	0.043
929	0.043
929	0.044
930	0.044
930	0.044
930	0.044
931	0.045
931	0.045
932	0.046
932	0.046
933	0.046
933	0.047
933	0.047
934	0.047
934	0.047
935	0.047
935	0.047
935	0.047
936	0.047
936	0.046
937	0.046
937	0.046
938	0.045
938	0.044
938	0.044
939	0.043
939	0.042
940	0.041
940	0.04
941	0.04
941	0.039
941	0.039
942	0.039
942	0.039
943	0.039
943	0.039
944	0.039
944	0.039
944	0.04
945	0.04
945	0.041
946	0.041
946	0.041
946	0.042
947	0.042
947	0.042
948	0.043
948	0.043
949	0.044
949	0.044
949	0.044
950	0.044
950	0.044
951	0.044
951	0.044
952	0.043
952	0.043
952	0.042
953	0.042
953	0.041
954	0.041
954	0.04
955	0.04
955	0.039
955	0.038
956	0.038
956	0.038
957	0.038
957	0.038
957	0.038
958	0.039
958	0.039
959	0.039
959	0.039
960	0.04
960	0.04
960	0.04
961	0.04
961	0.04
962	0.041
962	0.04
963	0.04
963	0.04
963	0.041
964	0.041
964	0.041
965	0.042
965	0.042
966	0.043
966	0.044
966	0.045
967	0.045
967	0.046
968	0.046
968	0.047
968	0.047
969	0.047
969	0.046
970	0.046
970	0.045
971	0.045
971	0.044
971	0.044
972	0.043
972	0.043
973	0.042
973	0.042
974	0.042
974	0.042
974	0.042
975	0.043
975	0.043
976	0.044
976	0.044
976	0.044
977	0.044
977	0.044
978	0.044
978	0.044
979	0.044
979	0.044
979	0.044
980	0.044
980	0.044
981	0.044
981	0.044
982	0.044
982	0.044
982	0.044
983	0.044
983	0.044
984	0.044
984	0.043
984	0.043
985	0.043
985	0.043
986	0.043
986	0.043
987	0.042
987	0.042
987	0.042
988	0.042
988	0.041
989	0.041
989	0.041
990	0.04
990	0.04
990	0.039
991	0.039
991	0.039
992	0.038
992	0.038
992	0.037
993	0.036
993	0.036
994	0.036
994	0.035
995	0.035
995	0.035
995	0.036
996	0.036
996	0.036
997	0.037
997	0.037
997	0.038
998	0.039
998	0.039
999	0.04
999	0.041
1000	0.041
1000	0.042
1000	0.042
1001	0.042
1001	0.042
1002	0.041
1002	0.041
1003	0.041
1003	0.04
1003	0.039
1004	0.038
1004	0.037
1005	0.037
1005	0.036
1005	0.035
1006	0.035
1006	0.034
1007	0.034
1007	0.034
1008	0.034
1008	0.034
1008	0.034
1009	0.034
1009	0.034
1010	0.035
1010	0.035
1010	0.035
1011	0.035
1011	0.035
1012	0.035
1012	0.035
1013	0.035
1013	0.034
1013	0.034
1014	0.034
1014	0.034
1015	0.033
1015	0.033
1016	0.033
1016	0.032
1016	0.032
1017	0.032
1017	0.031
1018	0.031
1018	0.03
1018	0.03
1019	0.03
1019	0.03
1020	0.03
1020	0.03
1021	0.03
1021	0.03
1021	0.031
1022	0.031
1022	0.031
1023	0.032
1023	0.032
1023	0.032
1024	0.032
1024	0.032
1025	0.033
1025	0.033
1026	0.032
1026	0.032
1026	0.032
1027	0.032
1027	0.032
1028	0.032
1028	0.032
1028	0.033
1029	0.033
1029	0.033
1030	0.033
1030	0.034
1031	0.034
1031	0.034
1031	0.035
1032	0.035
1032	0.035
1033	0.035
1033	0.035
1033	0.035
1034	0.035
1034	0.034
1035	0.034
1035	0.033
1036	0.033
1036	0.032
1036	0.032
1037	0.032
1037	0.031
1038	0.031
1038	0.031
1039	0.03
1039	0.031
1039	0.031
1040	0.031
1040	0.031
1041	0.032
1041	0.032
1041	0.032
1042	0.033
1042	0.033
1043	0.033
1043	0.034
1044	0.034
1044	0.035
1044	0.035
1045	0.036
1045	0.036
1046	0.037
1046	0.037
1046	0.038
1047	0.038
1047	0.039
1048	0.039
1048	0.04
1049	0.04
1049	0.041
1049	0.041
1050	0.041
1050	0.041
1051	0.041
1051	0.042
1051	0.042
1052	0.041
1052	0.041
1053	0.041
1053	0.04
1053	0.04
1054	0.039
1054	0.039
1055	0.039
1055	0.038
1056	0.037
1056	0.037
1056	0.036
1057	0.036
1057	0.035
1058	0.035
1058	0.034
1058	0.033
1059	0.032
1059	0.032
1060	0.031
1060	0.031
1061	0.031
1061	0.03
1061	0.03
1062	0.03
1062	0.03
1063	0.03
1063	0.03
1063	0.03
1064	0.03
1064	0.03
1065	0.03
1065	0.03
1066	0.029
1066	0.029
1066	0.029
1067	0.029
1067	0.029
1068	0.029
1068	0.03
1068	0.03
1069	0.029
1069	0.029
1070	0.029
1070	0.029
1071	0.028
1071	0.028
1071	0.027
1072	0.027
1072	0.026
1073	0.026
1073	0.025
1073	0.025
1074	0.025
1074	0.025
1075	0.025
1075	0.025
1076	0.025
1076	0.026
1076	0.026
1077	0.027
1077	0.027
1078	0.027
1078	0.027
1078	0.027
1079	0.027
1079	0.027
1080	0.027
1080	0.027
1080	0.026
1081	0.026
1081	0.026
1082	0.026
1082	0.027
1083	0.027
1083	0.026
1083	0.027
1084	0.027
1084	0.027
1085	0.027
1085	0.027
1085	0.028
1086	0.028
1086	0.027
1087	0.028
1087	0.027
1088	0.028
1088	0.027
1088	0.027
1089	0.026
1089	0.026
1090	0.026
1090	0.025
1090	0.024
1091	0.024
1091	0.023
1092	0.023
1092	0.023
1092	0.023
1093	0.023
1093	0.024
1094	0.023
1094	0.023
1095	0.023
1095	0.023
1095	0.023
1096	0.022
1096	0.022
1097	0.022
1097	0.021
1097	0.022
1098	0.021
1098	0.021
1099	0.021
1099	0.02
1100	0.02
1100	0.02
1100	0.02
1101	0.019
1101	0.018
1102	0.017
1102	0.016
1102	0.014
1103	0.014
1103	0.014
1104	0.015
1104	0.015
1104	0.014
1105	0.013
1105	0.011
1106	0.011
1106	0.01
1107	0.01
1107	0.01
1107	0.01
1108	0.009
1108	0.006
1109	0.005
1109	0.005
1109	0.006
1110	0.009
1110	0.007
1111	0.009
1111	0.008
