Data from reversibility-20sec_Absorbance__7430__000000000007430.txt Node

Date: Thu Dec 07 05:29:46 CET 2023
User: Marek
Spectrometer: MAYP115816
Trigger mode: 0
Integration Time (sec): 2.000000E-1
Scans to average: 10
Electric dark correction enabled: true
Nonlinearity correction enabled: true
Boxcar width: 5
XAxis mode: Wavelengths
Number of Pixels in Spectrum: 2068
>>>>>Begin Spectral Data<<<<<
199	-0.168
199	-0.139
200	-0.074
200	-0.022
201	0.011
201	0.03
202	0.037
202	0.049
203	0.058
203	0.063
204	0.079
204	0.093
205	0.109
205	0.115
205	0.114
206	0.112
206	0.114
207	0.116
207	0.114
208	0.112
208	0.113
209	0.115
209	0.115
210	0.114
210	0.114
211	0.119
211	0.123
212	0.118
212	0.122
213	0.124
213	0.126
213	0.124
214	0.127
214	0.128
215	0.129
215	0.129
216	0.13
216	0.127
217	0.132
217	0.134
218	0.135
218	0.141
219	0.144
219	0.145
220	0.149
220	0.151
221	0.154
221	0.155
221	0.16
222	0.167
222	0.169
223	0.177
223	0.181
224	0.187
224	0.196
225	0.204
225	0.213
226	0.225
226	0.236
227	0.247
227	0.258
228	0.275
228	0.289
229	0.304
229	0.327
229	0.349
230	0.373
230	0.402
231	0.433
231	0.469
232	0.506
232	0.548
233	0.592
233	0.639
234	0.691
234	0.746
235	0.799
235	0.852
236	0.902
236	0.952
236	1.006
237	1.061
237	1.109
238	1.154
238	1.2
239	1.246
239	1.283
240	1.323
240	1.36
241	1.396
241	1.433
242	1.463
242	1.495
243	1.527
243	1.552
243	1.578
244	1.598
244	1.622
245	1.637
245	1.658
246	1.674
246	1.689
247	1.702
247	1.714
248	1.727
248	1.741
249	1.75
249	1.759
250	1.767
250	1.777
250	1.781
251	1.788
251	1.792
252	1.798
252	1.801
253	1.802
253	1.801
254	1.801
254	1.803
255	1.803
255	1.802
256	1.803
256	1.804
257	1.805
257	1.804
258	1.802
258	1.802
258	1.802
259	1.802
259	1.8
260	1.798
260	1.8
261	1.799
261	1.799
262	1.799
262	1.799
263	1.803
263	1.804
264	1.803
264	1.805
265	1.806
265	1.807
265	1.806
266	1.807
266	1.807
267	1.806
267	1.808
268	1.806
268	1.805
269	1.807
269	1.806
270	1.806
270	1.806
271	1.804
271	1.804
272	1.801
272	1.8
272	1.798
273	1.793
273	1.789
274	1.784
274	1.778
275	1.771
275	1.765
276	1.758
276	1.749
277	1.741
277	1.731
278	1.72
278	1.71
278	1.698
279	1.683
279	1.667
280	1.647
280	1.622
281	1.592
281	1.559
282	1.523
282	1.485
283	1.448
283	1.41
284	1.373
284	1.337
285	1.301
285	1.269
285	1.24
286	1.214
286	1.19
287	1.169
287	1.152
288	1.136
288	1.123
289	1.111
289	1.1
290	1.092
290	1.084
291	1.077
291	1.071
292	1.065
292	1.061
292	1.056
293	1.052
293	1.047
294	1.043
294	1.04
295	1.036
295	1.032
296	1.028
296	1.025
297	1.021
297	1.018
298	1.015
298	1.012
298	1.008
299	1.005
299	1.002
300	0.999
300	0.996
301	0.993
301	0.99
302	0.987
302	0.984
303	0.982
303	0.979
304	0.976
304	0.973
305	0.971
305	0.968
305	0.965
306	0.962
306	0.959
307	0.956
307	0.953
308	0.95
308	0.947
309	0.944
309	0.94
310	0.937
310	0.934
311	0.93
311	0.927
311	0.923
312	0.92
312	0.916
313	0.912
313	0.908
314	0.904
314	0.9
315	0.896
315	0.891
316	0.887
316	0.882
317	0.878
317	0.873
318	0.867
318	0.862
318	0.857
319	0.851
319	0.845
320	0.84
320	0.833
321	0.827
321	0.821
322	0.814
322	0.808
323	0.801
323	0.795
324	0.788
324	0.781
324	0.774
325	0.767
325	0.761
326	0.754
326	0.747
327	0.74
327	0.733
328	0.726
328	0.719
329	0.712
329	0.705
330	0.698
330	0.691
330	0.684
331	0.677
331	0.669
332	0.662
332	0.655
333	0.648
333	0.641
334	0.634
334	0.627
335	0.62
335	0.613
336	0.606
336	0.6
336	0.593
337	0.586
337	0.58
338	0.574
338	0.567
339	0.561
339	0.555
340	0.549
340	0.543
341	0.538
341	0.532
342	0.527
342	0.521
342	0.516
343	0.51
343	0.505
344	0.5
344	0.495
345	0.49
345	0.485
346	0.48
346	0.476
347	0.471
347	0.467
348	0.463
348	0.459
348	0.455
349	0.451
349	0.447
350	0.444
350	0.44
351	0.437
351	0.433
352	0.43
352	0.427
353	0.424
353	0.421
354	0.418
354	0.415
354	0.412
355	0.409
355	0.405
356	0.403
356	0.4
357	0.396
357	0.393
358	0.39
358	0.388
359	0.385
359	0.383
360	0.381
360	0.379
360	0.377
361	0.375
361	0.373
362	0.372
362	0.369
363	0.367
363	0.366
364	0.363
364	0.361
365	0.359
365	0.357
366	0.355
366	0.354
366	0.352
367	0.35
367	0.348
368	0.347
368	0.345
369	0.344
369	0.342
370	0.341
370	0.339
371	0.338
371	0.336
372	0.335
372	0.334
372	0.332
373	0.331
373	0.33
374	0.329
374	0.328
375	0.327
375	0.326
376	0.325
376	0.324
377	0.323
377	0.322
378	0.321
378	0.319
378	0.318
379	0.318
379	0.317
380	0.316
380	0.315
381	0.314
381	0.313
382	0.312
382	0.312
383	0.311
383	0.31
383	0.31
384	0.309
384	0.309
385	0.308
385	0.307
386	0.307
386	0.306
387	0.306
387	0.305
388	0.305
388	0.304
389	0.304
389	0.304
389	0.303
390	0.302
390	0.302
391	0.301
391	0.301
392	0.301
392	0.3
393	0.299
393	0.299
394	0.298
394	0.298
394	0.297
395	0.297
395	0.297
396	0.296
396	0.296
397	0.295
397	0.294
398	0.294
398	0.294
399	0.293
399	0.293
400	0.293
400	0.292
400	0.292
401	0.291
401	0.291
402	0.29
402	0.29
403	0.29
403	0.289
404	0.289
404	0.288
405	0.288
405	0.288
405	0.287
406	0.287
406	0.287
407	0.286
407	0.286
408	0.286
408	0.285
409	0.285
409	0.285
410	0.284
410	0.284
411	0.284
411	0.284
411	0.283
412	0.283
412	0.283
413	0.282
413	0.282
414	0.282
414	0.281
415	0.281
415	0.281
416	0.28
416	0.28
416	0.279
417	0.279
417	0.278
418	0.278
418	0.278
419	0.277
419	0.277
420	0.276
420	0.276
421	0.275
421	0.275
421	0.275
422	0.274
422	0.274
423	0.274
423	0.273
424	0.273
424	0.272
425	0.272
425	0.272
426	0.272
426	0.271
427	0.271
427	0.271
427	0.27
428	0.27
428	0.27
429	0.27
429	0.269
430	0.269
430	0.268
431	0.268
431	0.268
432	0.268
432	0.268
432	0.268
433	0.267
433	0.267
434	0.267
434	0.267
435	0.267
435	0.267
436	0.267
436	0.266
437	0.266
437	0.266
437	0.265
438	0.265
438	0.265
439	0.265
439	0.265
440	0.264
440	0.264
441	0.264
441	0.264
442	0.263
442	0.263
442	0.263
443	0.263
443	0.263
444	0.263
444	0.262
445	0.262
445	0.262
446	0.262
446	0.262
447	0.262
447	0.262
447	0.262
448	0.262
448	0.262
449	0.262
449	0.262
450	0.262
450	0.262
451	0.262
451	0.262
452	0.261
452	0.261
452	0.261
453	0.261
453	0.261
454	0.261
454	0.261
455	0.261
455	0.26
456	0.26
456	0.26
457	0.26
457	0.26
458	0.26
458	0.26
458	0.26
459	0.26
459	0.26
460	0.26
460	0.26
461	0.26
461	0.261
462	0.261
462	0.261
463	0.261
463	0.261
463	0.261
464	0.261
464	0.261
465	0.26
465	0.26
466	0.26
466	0.261
467	0.261
467	0.261
467	0.261
468	0.261
468	0.261
469	0.261
469	0.262
470	0.262
470	0.262
471	0.263
471	0.263
472	0.263
472	0.263
472	0.264
473	0.264
473	0.264
474	0.264
474	0.265
475	0.265
475	0.265
476	0.266
476	0.266
477	0.266
477	0.267
477	0.267
478	0.268
478	0.268
479	0.269
479	0.269
480	0.27
480	0.27
481	0.27
481	0.271
482	0.271
482	0.272
482	0.272
483	0.273
483	0.274
484	0.274
484	0.274
485	0.275
485	0.275
486	0.275
486	0.276
487	0.277
487	0.277
487	0.278
488	0.278
488	0.279
489	0.28
489	0.281
490	0.283
490	0.284
491	0.285
491	0.286
492	0.287
492	0.288
492	0.289
493	0.29
493	0.291
494	0.292
494	0.293
495	0.294
495	0.295
496	0.296
496	0.297
496	0.298
497	0.299
497	0.3
498	0.301
498	0.302
499	0.303
499	0.305
500	0.306
500	0.307
501	0.309
501	0.309
501	0.31
502	0.311
502	0.312
503	0.314
503	0.314
504	0.315
504	0.317
505	0.318
505	0.319
506	0.32
506	0.321
506	0.322
507	0.322
507	0.324
508	0.324
508	0.325
509	0.326
509	0.327
510	0.328
510	0.329
511	0.33
511	0.331
511	0.332
512	0.333
512	0.334
513	0.334
513	0.335
514	0.336
514	0.337
515	0.337
515	0.338
515	0.338
516	0.339
516	0.34
517	0.34
517	0.34
518	0.341
518	0.341
519	0.341
519	0.341
520	0.342
520	0.342
520	0.342
521	0.342
521	0.342
522	0.342
522	0.342
523	0.342
523	0.342
524	0.341
524	0.341
524	0.341
525	0.341
525	0.341
526	0.34
526	0.34
527	0.339
527	0.339
528	0.338
528	0.338
529	0.338
529	0.337
529	0.336
530	0.335
530	0.334
531	0.333
531	0.332
532	0.331
532	0.329
533	0.328
533	0.327
533	0.326
534	0.325
534	0.324
535	0.323
535	0.322
536	0.321
536	0.319
537	0.318
537	0.317
538	0.315
538	0.314
538	0.312
539	0.311
539	0.31
540	0.308
540	0.307
541	0.305
541	0.304
542	0.302
542	0.301
542	0.299
543	0.297
543	0.295
544	0.294
544	0.292
545	0.29
545	0.288
546	0.287
546	0.285
547	0.282
547	0.28
547	0.278
548	0.277
548	0.275
549	0.273
549	0.272
550	0.27
550	0.269
551	0.267
551	0.265
551	0.263
552	0.261
552	0.26
553	0.258
553	0.257
554	0.255
554	0.253
555	0.251
555	0.249
556	0.247
556	0.246
556	0.245
557	0.243
557	0.242
558	0.241
558	0.239
559	0.238
559	0.236
560	0.235
560	0.234
560	0.232
561	0.231
561	0.229
562	0.228
562	0.226
563	0.224
563	0.222
564	0.221
564	0.219
564	0.217
565	0.216
565	0.214
566	0.213
566	0.211
567	0.21
567	0.209
568	0.207
568	0.206
568	0.205
569	0.204
569	0.202
570	0.2
570	0.199
571	0.198
571	0.196
572	0.195
572	0.193
573	0.192
573	0.191
573	0.19
574	0.189
574	0.188
575	0.187
575	0.186
576	0.185
576	0.184
577	0.182
577	0.181
577	0.18
578	0.179
578	0.178
579	0.177
579	0.177
580	0.175
580	0.174
581	0.173
581	0.172
581	0.172
582	0.171
582	0.17
583	0.17
583	0.169
584	0.167
584	0.166
585	0.165
585	0.164
585	0.163
586	0.163
586	0.162
587	0.161
587	0.16
588	0.159
588	0.158
589	0.158
589	0.157
590	0.157
590	0.156
590	0.155
591	0.155
591	0.154
592	0.153
592	0.152
593	0.151
593	0.15
594	0.149
594	0.148
594	0.147
595	0.147
595	0.146
596	0.145
596	0.145
597	0.145
597	0.145
598	0.144
598	0.144
598	0.143
599	0.143
599	0.142
600	0.142
600	0.141
601	0.14
601	0.14
602	0.139
602	0.138
602	0.137
603	0.137
603	0.137
604	0.136
604	0.136
605	0.136
605	0.135
606	0.134
606	0.134
606	0.133
607	0.132
607	0.132
608	0.131
608	0.13
609	0.129
609	0.129
610	0.128
610	0.128
610	0.127
611	0.127
611	0.127
612	0.127
612	0.127
613	0.127
613	0.127
614	0.126
614	0.126
614	0.126
615	0.126
615	0.126
616	0.126
616	0.126
617	0.125
617	0.125
618	0.124
618	0.124
618	0.124
619	0.123
619	0.123
620	0.123
620	0.122
621	0.121
621	0.121
622	0.12
622	0.119
622	0.119
623	0.118
623	0.118
624	0.118
624	0.117
625	0.117
625	0.116
626	0.116
626	0.116
626	0.116
627	0.116
627	0.116
628	0.116
628	0.116
629	0.116
629	0.115
630	0.115
630	0.114
630	0.114
631	0.114
631	0.113
632	0.113
632	0.112
633	0.112
633	0.112
634	0.112
634	0.112
634	0.111
635	0.111
635	0.11
636	0.11
636	0.11
637	0.109
637	0.109
638	0.109
638	0.108
638	0.107
639	0.107
639	0.106
640	0.106
640	0.106
641	0.106
641	0.105
642	0.105
642	0.105
642	0.105
643	0.105
643	0.106
644	0.106
644	0.106
645	0.106
645	0.106
646	0.106
646	0.106
646	0.106
647	0.106
647	0.106
648	0.105
648	0.104
649	0.104
649	0.104
650	0.103
650	0.103
650	0.103
651	0.103
651	0.102
652	0.102
652	0.102
653	0.103
653	0.105
653	0.11
654	0.088
654	0.072
655	0.07
655	0.07
656	0.07
656	0.07
657	0.071
657	0.071
657	0.071
658	0.069
658	0.062
659	0.077
659	0.097
660	0.103
660	0.103
661	0.102
661	0.102
661	0.101
662	0.1
662	0.1
663	0.1
663	0.099
664	0.099
664	0.099
665	0.098
665	0.098
665	0.098
666	0.098
666	0.099
667	0.099
667	0.099
668	0.099
668	0.099
669	0.099
669	0.1
669	0.1
670	0.1
670	0.1
671	0.1
671	0.099
672	0.099
672	0.098
672	0.098
673	0.097
673	0.097
674	0.096
674	0.096
675	0.095
675	0.095
676	0.095
676	0.096
676	0.096
677	0.096
677	0.096
678	0.096
678	0.096
679	0.096
679	0.096
680	0.096
680	0.095
680	0.095
681	0.095
681	0.095
682	0.095
682	0.095
683	0.095
683	0.096
684	0.096
684	0.095
684	0.095
685	0.095
685	0.095
686	0.096
686	0.095
687	0.095
687	0.095
687	0.096
688	0.096
688	0.096
689	0.096
689	0.097
690	0.097
690	0.096
691	0.096
691	0.096
691	0.096
692	0.096
692	0.096
693	0.096
693	0.097
694	0.096
694	0.096
695	0.097
695	0.097
695	0.097
696	0.097
696	0.097
697	0.097
697	0.097
698	0.097
698	0.096
698	0.096
699	0.096
699	0.095
700	0.094
700	0.094
701	0.094
701	0.093
702	0.093
702	0.092
702	0.092
703	0.091
703	0.091
704	0.09
704	0.09
705	0.09
705	0.089
705	0.089
706	0.089
706	0.089
707	0.089
707	0.089
708	0.089
708	0.089
709	0.089
709	0.089
709	0.089
710	0.089
710	0.089
711	0.09
711	0.09
712	0.09
712	0.091
713	0.091
713	0.091
713	0.091
714	0.091
714	0.091
715	0.091
715	0.09
716	0.09
716	0.089
716	0.088
717	0.088
717	0.087
718	0.087
718	0.087
719	0.087
719	0.088
720	0.088
720	0.089
720	0.089
721	0.09
721	0.091
722	0.091
722	0.092
723	0.092
723	0.092
723	0.092
724	0.091
724	0.091
725	0.09
725	0.089
726	0.088
726	0.087
727	0.086
727	0.086
727	0.085
728	0.085
728	0.084
729	0.085
729	0.084
730	0.085
730	0.085
730	0.085
731	0.086
731	0.086
732	0.087
732	0.087
733	0.087
733	0.087
734	0.088
734	0.088
734	0.088
735	0.088
735	0.088
736	0.088
736	0.088
737	0.088
737	0.088
737	0.087
738	0.087
738	0.086
739	0.085
739	0.085
740	0.085
740	0.085
741	0.085
741	0.085
741	0.086
742	0.086
742	0.087
743	0.088
743	0.088
744	0.089
744	0.089
744	0.089
745	0.089
745	0.088
746	0.088
746	0.087
747	0.087
747	0.086
748	0.086
748	0.086
748	0.086
749	0.086
749	0.086
750	0.087
750	0.087
751	0.087
751	0.088
751	0.088
752	0.088
752	0.087
753	0.087
753	0.086
754	0.086
754	0.085
754	0.084
755	0.084
755	0.083
756	0.082
756	0.081
757	0.08
757	0.08
758	0.08
758	0.08
758	0.08
759	0.081
759	0.08
760	0.08
760	0.08
761	0.081
761	0.082
761	0.082
762	0.082
762	0.082
763	0.082
763	0.081
764	0.081
764	0.081
764	0.08
765	0.08
765	0.079
766	0.079
766	0.078
767	0.078
767	0.077
768	0.076
768	0.076
768	0.076
769	0.076
769	0.076
770	0.076
770	0.076
771	0.076
771	0.076
771	0.077
772	0.077
772	0.078
773	0.078
773	0.078
774	0.078
774	0.079
775	0.079
775	0.079
775	0.079
776	0.079
776	0.08
777	0.08
777	0.08
778	0.08
778	0.079
778	0.079
779	0.079
779	0.078
780	0.077
780	0.076
781	0.075
781	0.074
781	0.073
782	0.073
782	0.072
783	0.073
783	0.073
784	0.072
784	0.072
784	0.073
785	0.073
785	0.074
786	0.074
786	0.074
787	0.075
787	0.074
788	0.074
788	0.074
788	0.073
789	0.073
789	0.073
790	0.073
790	0.073
791	0.072
791	0.072
791	0.071
792	0.072
792	0.072
793	0.071
793	0.071
794	0.07
794	0.07
794	0.07
795	0.07
795	0.07
796	0.071
796	0.07
797	0.07
797	0.07
797	0.07
798	0.07
798	0.07
799	0.07
799	0.07
800	0.069
800	0.069
801	0.069
801	0.069
801	0.069
802	0.069
802	0.07
803	0.07
803	0.07
804	0.07
804	0.071
804	0.07
805	0.07
805	0.07
806	0.069
806	0.069
807	0.069
807	0.069
807	0.069
808	0.069
808	0.069
809	0.068
809	0.069
810	0.069
810	0.069
810	0.069
811	0.069
811	0.07
812	0.07
812	0.07
813	0.07
813	0.071
813	0.071
814	0.071
814	0.072
815	0.072
815	0.072
816	0.072
816	0.071
817	0.071
817	0.071
817	0.07
818	0.07
818	0.069
819	0.068
819	0.068
820	0.067
820	0.066
820	0.066
821	0.066
821	0.066
822	0.065
822	0.065
823	0.065
823	0.065
823	0.066
824	0.066
824	0.068
825	0.069
825	0.07
826	0.071
826	0.072
826	0.073
827	0.073
827	0.074
828	0.074
828	0.074
829	0.074
829	0.074
829	0.074
830	0.074
830	0.074
831	0.074
831	0.074
832	0.073
832	0.073
832	0.073
833	0.073
833	0.072
834	0.072
834	0.071
835	0.071
835	0.07
835	0.07
836	0.069
836	0.069
837	0.068
837	0.068
838	0.067
838	0.066
839	0.066
839	0.065
839	0.065
840	0.064
840	0.063
841	0.062
841	0.062
842	0.061
842	0.06
842	0.06
843	0.059
843	0.058
844	0.058
844	0.057
845	0.057
845	0.057
845	0.057
846	0.057
846	0.057
847	0.056
847	0.057
848	0.057
848	0.057
848	0.057
849	0.057
849	0.057
850	0.057
850	0.056
851	0.056
851	0.056
851	0.056
852	0.055
852	0.055
853	0.055
853	0.055
854	0.056
854	0.057
854	0.058
855	0.059
855	0.06
856	0.061
856	0.062
857	0.063
857	0.064
857	0.065
858	0.066
858	0.066
859	0.066
859	0.066
860	0.066
860	0.065
860	0.065
861	0.064
861	0.063
862	0.062
862	0.061
863	0.061
863	0.06
863	0.06
864	0.06
864	0.059
865	0.06
865	0.06
866	0.06
866	0.06
866	0.06
867	0.06
867	0.061
868	0.061
868	0.061
869	0.061
869	0.061
869	0.061
870	0.06
870	0.06
871	0.06
871	0.06
872	0.06
872	0.06
872	0.059
873	0.059
873	0.058
874	0.058
874	0.057
875	0.057
875	0.057
875	0.057
876	0.057
876	0.057
877	0.057
877	0.057
878	0.057
878	0.058
878	0.058
879	0.058
879	0.058
880	0.058
880	0.058
881	0.058
881	0.058
881	0.058
882	0.058
882	0.058
883	0.058
883	0.058
884	0.058
884	0.058
884	0.058
885	0.058
885	0.057
886	0.057
886	0.057
887	0.057
887	0.057
887	0.056
888	0.056
888	0.056
889	0.056
889	0.056
890	0.057
890	0.057
890	0.057
891	0.058
891	0.058
892	0.058
892	0.058
893	0.058
893	0.058
893	0.057
894	0.056
894	0.056
895	0.055
895	0.054
895	0.054
896	0.053
896	0.053
897	0.053
897	0.053
898	0.052
898	0.052
898	0.052
899	0.052
899	0.052
900	0.052
900	0.052
901	0.053
901	0.053
901	0.053
902	0.053
902	0.053
903	0.053
903	0.053
904	0.053
904	0.053
904	0.053
905	0.052
905	0.052
906	0.052
906	0.052
907	0.052
907	0.051
907	0.051
908	0.051
908	0.051
909	0.05
909	0.05
910	0.05
910	0.05
910	0.05
911	0.049
911	0.049
912	0.048
912	0.048
913	0.048
913	0.047
913	0.047
914	0.047
914	0.047
915	0.047
915	0.047
916	0.047
916	0.047
916	0.047
917	0.047
917	0.047
918	0.047
918	0.047
918	0.047
919	0.047
919	0.047
920	0.047
920	0.047
921	0.047
921	0.047
921	0.047
922	0.047
922	0.048
923	0.048
923	0.048
924	0.048
924	0.048
924	0.048
925	0.048
925	0.048
926	0.048
926	0.048
927	0.048
927	0.048
927	0.049
928	0.049
928	0.049
929	0.05
929	0.051
930	0.051
930	0.051
930	0.052
931	0.052
931	0.052
932	0.052
932	0.052
933	0.052
933	0.052
933	0.052
934	0.051
934	0.05
935	0.05
935	0.049
935	0.049
936	0.048
936	0.047
937	0.046
937	0.046
938	0.045
938	0.044
938	0.044
939	0.043
939	0.043
940	0.043
940	0.043
941	0.043
941	0.044
941	0.045
942	0.045
942	0.045
943	0.046
943	0.047
944	0.047
944	0.048
944	0.048
945	0.048
945	0.048
946	0.049
946	0.048
946	0.048
947	0.048
947	0.048
948	0.048
948	0.048
949	0.048
949	0.047
949	0.047
950	0.047
950	0.046
951	0.046
951	0.046
952	0.045
952	0.045
952	0.044
953	0.044
953	0.044
954	0.044
954	0.044
955	0.044
955	0.044
955	0.044
956	0.045
956	0.046
957	0.047
957	0.047
957	0.048
958	0.049
958	0.05
959	0.05
959	0.051
960	0.052
960	0.052
960	0.052
961	0.052
961	0.052
962	0.052
962	0.052
963	0.051
963	0.051
963	0.05
964	0.05
964	0.05
965	0.05
965	0.05
966	0.05
966	0.049
966	0.05
967	0.05
967	0.05
968	0.05
968	0.05
968	0.05
969	0.049
969	0.049
970	0.048
970	0.047
971	0.046
971	0.045
971	0.044
972	0.043
972	0.043
973	0.042
973	0.042
974	0.042
974	0.042
974	0.043
975	0.043
975	0.044
976	0.044
976	0.045
976	0.045
977	0.045
977	0.045
978	0.045
978	0.045
979	0.045
979	0.045
979	0.045
980	0.045
980	0.045
981	0.046
981	0.046
982	0.046
982	0.046
982	0.047
983	0.047
983	0.047
984	0.048
984	0.048
984	0.048
985	0.048
985	0.048
986	0.047
986	0.047
987	0.046
987	0.046
987	0.046
988	0.045
988	0.045
989	0.045
989	0.045
990	0.045
990	0.045
990	0.045
991	0.045
991	0.045
992	0.044
992	0.044
992	0.043
993	0.042
993	0.041
994	0.04
994	0.04
995	0.039
995	0.039
995	0.038
996	0.038
996	0.038
997	0.038
997	0.038
997	0.038
998	0.038
998	0.039
999	0.039
999	0.04
1000	0.041
1000	0.042
1000	0.042
1001	0.042
1001	0.043
1002	0.043
1002	0.043
1003	0.043
1003	0.043
1003	0.043
1004	0.042
1004	0.042
1005	0.041
1005	0.041
1005	0.04
1006	0.04
1006	0.039
1007	0.039
1007	0.039
1008	0.039
1008	0.038
1008	0.038
1009	0.038
1009	0.038
1010	0.038
1010	0.038
1010	0.038
1011	0.038
1011	0.037
1012	0.037
1012	0.037
1013	0.037
1013	0.036
1013	0.036
1014	0.036
1014	0.035
1015	0.035
1015	0.035
1016	0.035
1016	0.035
1016	0.035
1017	0.035
1017	0.035
1018	0.035
1018	0.035
1018	0.035
1019	0.035
1019	0.036
1020	0.036
1020	0.036
1021	0.036
1021	0.037
1021	0.037
1022	0.038
1022	0.038
1023	0.038
1023	0.038
1023	0.039
1024	0.039
1024	0.039
1025	0.039
1025	0.039
1026	0.039
1026	0.039
1026	0.039
1027	0.039
1027	0.039
1028	0.039
1028	0.039
1028	0.039
1029	0.04
1029	0.039
1030	0.039
1030	0.039
1031	0.04
1031	0.04
1031	0.04
1032	0.04
1032	0.04
1033	0.041
1033	0.041
1033	0.041
1034	0.041
1034	0.041
1035	0.041
1035	0.041
1036	0.041
1036	0.041
1036	0.041
1037	0.041
1037	0.041
1038	0.041
1038	0.041
1039	0.04
1039	0.04
1039	0.04
1040	0.04
1040	0.04
1041	0.039
1041	0.039
1041	0.038
1042	0.038
1042	0.038
1043	0.038
1043	0.037
1044	0.037
1044	0.036
1044	0.036
1045	0.036
1045	0.035
1046	0.035
1046	0.035
1046	0.035
1047	0.035
1047	0.035
1048	0.034
1048	0.034
1049	0.034
1049	0.034
1049	0.034
1050	0.034
1050	0.034
1051	0.033
1051	0.033
1051	0.033
1052	0.033
1052	0.032
1053	0.032
1053	0.031
1053	0.031
1054	0.031
1054	0.03
1055	0.03
1055	0.03
1056	0.029
1056	0.029
1056	0.028
1057	0.028
1057	0.028
1058	0.028
1058	0.027
1058	0.027
1059	0.027
1059	0.027
1060	0.027
1060	0.027
1061	0.027
1061	0.027
1061	0.027
1062	0.027
1062	0.027
1063	0.028
1063	0.027
1063	0.027
1064	0.027
1064	0.027
1065	0.027
1065	0.027
1066	0.027
1066	0.028
1066	0.027
1067	0.027
1067	0.027
1068	0.027
1068	0.028
1068	0.028
1069	0.028
1069	0.028
1070	0.028
1070	0.028
1071	0.027
1071	0.027
1071	0.027
1072	0.027
1072	0.026
1073	0.026
1073	0.026
1073	0.026
1074	0.026
1074	0.027
1075	0.026
1075	0.027
1076	0.027
1076	0.028
1076	0.028
1077	0.028
1077	0.029
1078	0.028
1078	0.029
1078	0.028
1079	0.028
1079	0.028
1080	0.027
1080	0.027
1080	0.026
1081	0.026
1081	0.025
1082	0.026
1082	0.026
1083	0.026
1083	0.026
1083	0.026
1084	0.026
1084	0.027
1085	0.027
1085	0.027
1085	0.028
1086	0.028
1086	0.028
1087	0.027
1087	0.027
1088	0.027
1088	0.028
1088	0.028
1089	0.027
1089	0.027
1090	0.026
1090	0.026
1090	0.024
1091	0.024
1091	0.024
1092	0.024
1092	0.024
1092	0.024
1093	0.024
1093	0.024
1094	0.025
1094	0.024
1095	0.024
1095	0.024
1095	0.024
1096	0.024
1096	0.023
1097	0.021
1097	0.021
1097	0.02
1098	0.019
1098	0.018
1099	0.018
1099	0.017
1100	0.016
1100	0.015
1100	0.015
1101	0.014
1101	0.014
1102	0.013
1102	0.013
1102	0.012
1103	0.012
1103	0.012
1104	0.012
1104	0.011
1104	0.011
1105	0.01
1105	0.01
1106	0.009
1106	0.009
1107	0.008
1107	0.007
1107	0.007
1108	0.006
1108	0.005
1109	0.004
1109	0.004
1109	0.004
1110	0.005
1110	0.005
1111	0.005
1111	0
