Data from reversibility-20sec_Absorbance__6986__000000000006986.txt Node

Date: Thu Dec 07 03:01:45 CET 2023
User: Marek
Spectrometer: MAYP115816
Trigger mode: 0
Integration Time (sec): 2.000000E-1
Scans to average: 10
Electric dark correction enabled: true
Nonlinearity correction enabled: true
Boxcar width: 5
XAxis mode: Wavelengths
Number of Pixels in Spectrum: 2068
>>>>>Begin Spectral Data<<<<<
199	-0.107
199	-0.093
200	-0.03
200	0.019
201	0.046
201	0.063
202	0.071
202	0.079
203	0.084
203	0.088
204	0.101
204	0.116
205	0.128
205	0.133
205	0.132
206	0.131
206	0.132
207	0.134
207	0.135
208	0.135
208	0.134
209	0.134
209	0.13
210	0.131
210	0.132
211	0.135
211	0.136
212	0.134
212	0.135
213	0.136
213	0.138
213	0.139
214	0.144
214	0.147
215	0.146
215	0.147
216	0.146
216	0.146
217	0.148
217	0.15
218	0.15
218	0.153
219	0.157
219	0.156
220	0.159
220	0.159
221	0.159
221	0.162
221	0.167
222	0.173
222	0.176
223	0.181
223	0.186
224	0.191
224	0.2
225	0.21
225	0.224
226	0.233
226	0.243
227	0.253
227	0.261
228	0.276
228	0.293
229	0.306
229	0.33
229	0.35
230	0.373
230	0.401
231	0.434
231	0.471
232	0.509
232	0.556
233	0.6
233	0.648
234	0.702
234	0.752
235	0.806
235	0.86
236	0.911
236	0.961
236	1.012
237	1.063
237	1.111
238	1.159
238	1.205
239	1.25
239	1.291
240	1.332
240	1.369
241	1.402
241	1.439
242	1.47
242	1.503
243	1.529
243	1.553
243	1.578
244	1.598
244	1.621
245	1.64
245	1.662
246	1.681
246	1.697
247	1.708
247	1.721
248	1.737
248	1.75
249	1.758
249	1.765
250	1.771
250	1.777
250	1.778
251	1.782
251	1.785
252	1.793
252	1.794
253	1.794
253	1.792
254	1.792
254	1.794
255	1.795
255	1.795
256	1.796
256	1.796
257	1.795
257	1.793
258	1.793
258	1.794
258	1.793
259	1.795
259	1.795
260	1.793
260	1.794
261	1.793
261	1.795
262	1.798
262	1.799
263	1.8
263	1.8
264	1.803
264	1.802
265	1.803
265	1.803
265	1.802
266	1.802
266	1.802
267	1.799
267	1.801
268	1.802
268	1.801
269	1.801
269	1.8
270	1.799
270	1.798
271	1.796
271	1.796
272	1.793
272	1.793
272	1.788
273	1.782
273	1.776
274	1.772
274	1.765
275	1.758
275	1.753
276	1.746
276	1.738
277	1.729
277	1.719
278	1.709
278	1.697
278	1.683
279	1.667
279	1.648
280	1.625
280	1.594
281	1.558
281	1.519
282	1.477
282	1.435
283	1.393
283	1.352
284	1.312
284	1.272
285	1.235
285	1.202
285	1.172
286	1.146
286	1.123
287	1.103
287	1.086
288	1.07
288	1.058
289	1.047
289	1.039
290	1.03
290	1.023
291	1.016
291	1.011
292	1.006
292	1.002
292	0.997
293	0.994
293	0.99
294	0.986
294	0.983
295	0.98
295	0.977
296	0.974
296	0.971
297	0.968
297	0.965
298	0.962
298	0.958
298	0.955
299	0.952
299	0.95
300	0.946
300	0.944
301	0.941
301	0.938
302	0.936
302	0.933
303	0.931
303	0.928
304	0.926
304	0.924
305	0.921
305	0.919
305	0.916
306	0.914
306	0.911
307	0.909
307	0.906
308	0.903
308	0.901
309	0.898
309	0.895
310	0.892
310	0.889
311	0.886
311	0.882
311	0.879
312	0.876
312	0.872
313	0.869
313	0.865
314	0.861
314	0.857
315	0.853
315	0.848
316	0.844
316	0.839
317	0.835
317	0.83
318	0.825
318	0.82
318	0.814
319	0.809
319	0.804
320	0.798
320	0.792
321	0.786
321	0.78
322	0.774
322	0.768
323	0.761
323	0.755
324	0.748
324	0.742
324	0.735
325	0.728
325	0.721
326	0.714
326	0.707
327	0.7
327	0.693
328	0.686
328	0.68
329	0.672
329	0.665
330	0.658
330	0.651
330	0.643
331	0.636
331	0.629
332	0.622
332	0.615
333	0.608
333	0.601
334	0.594
334	0.587
335	0.581
335	0.574
336	0.567
336	0.561
336	0.554
337	0.548
337	0.541
338	0.535
338	0.529
339	0.523
339	0.517
340	0.511
340	0.505
341	0.499
341	0.494
342	0.489
342	0.483
342	0.478
343	0.472
343	0.467
344	0.462
344	0.457
345	0.452
345	0.447
346	0.443
346	0.438
347	0.434
347	0.429
348	0.425
348	0.421
348	0.417
349	0.413
349	0.41
350	0.406
350	0.403
351	0.399
351	0.396
352	0.393
352	0.39
353	0.387
353	0.384
354	0.381
354	0.378
354	0.375
355	0.372
355	0.369
356	0.367
356	0.364
357	0.361
357	0.359
358	0.356
358	0.353
359	0.351
359	0.349
360	0.346
360	0.344
360	0.343
361	0.341
361	0.339
362	0.337
362	0.335
363	0.333
363	0.332
364	0.33
364	0.328
365	0.326
365	0.324
366	0.322
366	0.32
366	0.319
367	0.317
367	0.315
368	0.314
368	0.312
369	0.311
369	0.31
370	0.308
370	0.307
371	0.305
371	0.304
372	0.303
372	0.302
372	0.301
373	0.3
373	0.298
374	0.298
374	0.296
375	0.295
375	0.295
376	0.294
376	0.293
377	0.292
377	0.291
378	0.29
378	0.289
378	0.288
379	0.288
379	0.287
380	0.286
380	0.285
381	0.284
381	0.284
382	0.283
382	0.283
383	0.282
383	0.282
383	0.281
384	0.28
384	0.28
385	0.279
385	0.279
386	0.278
386	0.278
387	0.278
387	0.277
388	0.277
388	0.276
389	0.276
389	0.275
389	0.275
390	0.275
390	0.274
391	0.274
391	0.274
392	0.273
392	0.273
393	0.273
393	0.272
394	0.272
394	0.272
394	0.271
395	0.271
395	0.271
396	0.27
396	0.27
397	0.269
397	0.269
398	0.269
398	0.269
399	0.268
399	0.268
400	0.267
400	0.267
400	0.267
401	0.266
401	0.266
402	0.266
402	0.265
403	0.265
403	0.265
404	0.264
404	0.264
405	0.264
405	0.264
405	0.263
406	0.263
406	0.263
407	0.262
407	0.262
408	0.262
408	0.261
409	0.261
409	0.261
410	0.261
410	0.26
411	0.26
411	0.26
411	0.26
412	0.259
412	0.259
413	0.259
413	0.258
414	0.258
414	0.258
415	0.257
415	0.257
416	0.257
416	0.257
416	0.256
417	0.256
417	0.255
418	0.255
418	0.255
419	0.254
419	0.254
420	0.253
420	0.253
421	0.253
421	0.252
421	0.252
422	0.252
422	0.251
423	0.251
423	0.251
424	0.25
424	0.25
425	0.25
425	0.25
426	0.249
426	0.249
427	0.249
427	0.248
427	0.248
428	0.248
428	0.247
429	0.247
429	0.246
430	0.246
430	0.246
431	0.246
431	0.245
432	0.245
432	0.245
432	0.245
433	0.245
433	0.244
434	0.244
434	0.244
435	0.244
435	0.244
436	0.244
436	0.244
437	0.243
437	0.243
437	0.243
438	0.243
438	0.242
439	0.242
439	0.242
440	0.241
440	0.241
441	0.241
441	0.24
442	0.24
442	0.24
442	0.24
443	0.239
443	0.239
444	0.239
444	0.239
445	0.239
445	0.239
446	0.239
446	0.238
447	0.238
447	0.238
447	0.238
448	0.238
448	0.238
449	0.238
449	0.237
450	0.237
450	0.237
451	0.237
451	0.237
452	0.237
452	0.237
452	0.236
453	0.236
453	0.236
454	0.236
454	0.236
455	0.235
455	0.235
456	0.235
456	0.235
457	0.234
457	0.234
458	0.234
458	0.234
458	0.233
459	0.233
459	0.233
460	0.233
460	0.233
461	0.233
461	0.233
462	0.233
462	0.233
463	0.233
463	0.232
463	0.232
464	0.232
464	0.232
465	0.231
465	0.231
466	0.231
466	0.231
467	0.232
467	0.232
467	0.232
468	0.232
468	0.232
469	0.232
469	0.232
470	0.233
470	0.233
471	0.233
471	0.233
472	0.233
472	0.233
472	0.233
473	0.233
473	0.233
474	0.233
474	0.233
475	0.233
475	0.233
476	0.233
476	0.233
477	0.233
477	0.233
477	0.233
478	0.233
478	0.233
479	0.233
479	0.234
480	0.234
480	0.234
481	0.234
481	0.234
482	0.234
482	0.234
482	0.234
483	0.235
483	0.235
484	0.236
484	0.236
485	0.236
485	0.236
486	0.236
486	0.236
487	0.236
487	0.237
487	0.237
488	0.237
488	0.238
489	0.238
489	0.239
490	0.239
490	0.24
491	0.241
491	0.241
492	0.242
492	0.243
492	0.243
493	0.244
493	0.245
494	0.245
494	0.246
495	0.246
495	0.247
496	0.247
496	0.248
496	0.248
497	0.248
497	0.249
498	0.249
498	0.25
499	0.25
499	0.251
500	0.252
500	0.253
501	0.253
501	0.254
501	0.254
502	0.255
502	0.255
503	0.256
503	0.257
504	0.257
504	0.258
505	0.259
505	0.259
506	0.26
506	0.26
506	0.261
507	0.261
507	0.262
508	0.262
508	0.263
509	0.263
509	0.264
510	0.264
510	0.265
511	0.265
511	0.266
511	0.267
512	0.267
512	0.268
513	0.268
513	0.269
514	0.269
514	0.27
515	0.27
515	0.271
515	0.271
516	0.272
516	0.272
517	0.273
517	0.273
518	0.274
518	0.274
519	0.274
519	0.274
520	0.275
520	0.275
520	0.275
521	0.275
521	0.275
522	0.275
522	0.275
523	0.275
523	0.275
524	0.275
524	0.275
524	0.275
525	0.275
525	0.275
526	0.275
526	0.275
527	0.275
527	0.275
528	0.275
528	0.275
529	0.275
529	0.274
529	0.274
530	0.273
530	0.273
531	0.273
531	0.273
532	0.272
532	0.272
533	0.271
533	0.271
533	0.27
534	0.269
534	0.269
535	0.269
535	0.268
536	0.268
536	0.267
537	0.267
537	0.266
538	0.266
538	0.265
538	0.265
539	0.264
539	0.264
540	0.263
540	0.262
541	0.262
541	0.261
542	0.261
542	0.26
542	0.26
543	0.259
543	0.258
544	0.258
544	0.257
545	0.257
545	0.256
546	0.255
546	0.254
547	0.253
547	0.252
547	0.251
548	0.251
548	0.25
549	0.249
549	0.248
550	0.248
550	0.247
551	0.246
551	0.245
551	0.244
552	0.244
552	0.243
553	0.242
553	0.241
554	0.24
554	0.24
555	0.238
555	0.237
556	0.236
556	0.235
556	0.235
557	0.235
557	0.234
558	0.234
558	0.233
559	0.233
559	0.233
560	0.232
560	0.232
560	0.231
561	0.231
561	0.23
562	0.229
562	0.227
563	0.226
563	0.225
564	0.224
564	0.223
564	0.222
565	0.222
565	0.221
566	0.22
566	0.219
567	0.219
567	0.218
568	0.217
568	0.217
568	0.216
569	0.216
569	0.215
570	0.214
570	0.213
571	0.212
571	0.211
572	0.21
572	0.21
573	0.209
573	0.209
573	0.208
574	0.207
574	0.207
575	0.207
575	0.207
576	0.206
576	0.205
577	0.204
577	0.204
577	0.203
578	0.202
578	0.202
579	0.202
579	0.201
580	0.201
580	0.2
581	0.199
581	0.198
581	0.199
582	0.199
582	0.198
583	0.198
583	0.198
584	0.197
584	0.195
585	0.195
585	0.195
585	0.194
586	0.194
586	0.193
587	0.192
587	0.192
588	0.191
588	0.191
589	0.19
589	0.19
590	0.19
590	0.19
590	0.19
591	0.19
591	0.189
592	0.188
592	0.188
593	0.187
593	0.186
594	0.186
594	0.185
594	0.184
595	0.184
595	0.183
596	0.182
596	0.183
597	0.183
597	0.184
598	0.184
598	0.184
598	0.184
599	0.183
599	0.183
600	0.182
600	0.182
601	0.181
601	0.181
602	0.18
602	0.18
602	0.179
603	0.179
603	0.179
604	0.178
604	0.178
605	0.178
605	0.178
606	0.177
606	0.177
606	0.176
607	0.176
607	0.175
608	0.175
608	0.174
609	0.174
609	0.174
610	0.173
610	0.173
610	0.172
611	0.172
611	0.172
612	0.172
612	0.173
613	0.173
613	0.172
614	0.172
614	0.172
614	0.172
615	0.172
615	0.172
616	0.172
616	0.172
617	0.171
617	0.171
618	0.171
618	0.171
618	0.171
619	0.171
619	0.171
620	0.171
620	0.17
621	0.17
621	0.169
622	0.169
622	0.168
622	0.168
623	0.167
623	0.167
624	0.166
624	0.166
625	0.166
625	0.166
626	0.166
626	0.166
626	0.166
627	0.166
627	0.166
628	0.166
628	0.166
629	0.166
629	0.165
630	0.165
630	0.165
630	0.165
631	0.165
631	0.164
632	0.164
632	0.163
633	0.163
633	0.163
634	0.163
634	0.163
634	0.163
635	0.162
635	0.162
636	0.162
636	0.161
637	0.161
637	0.161
638	0.161
638	0.16
638	0.16
639	0.16
639	0.159
640	0.159
640	0.159
641	0.159
641	0.159
642	0.159
642	0.159
642	0.159
643	0.159
643	0.159
644	0.159
644	0.159
645	0.16
645	0.16
646	0.16
646	0.16
646	0.16
647	0.16
647	0.159
648	0.159
648	0.158
649	0.158
649	0.158
650	0.158
650	0.158
650	0.158
651	0.158
651	0.158
652	0.158
652	0.158
653	0.159
653	0.161
653	0.166
654	0.131
654	0.105
655	0.105
655	0.105
656	0.105
656	0.105
657	0.106
657	0.106
657	0.106
658	0.105
658	0.096
659	0.121
659	0.154
660	0.159
660	0.159
661	0.158
661	0.158
661	0.158
662	0.157
662	0.157
663	0.156
663	0.156
664	0.156
664	0.156
665	0.156
665	0.156
665	0.156
666	0.156
666	0.156
667	0.156
667	0.157
668	0.157
668	0.157
669	0.157
669	0.157
669	0.157
670	0.157
670	0.157
671	0.157
671	0.156
672	0.156
672	0.155
672	0.155
673	0.155
673	0.155
674	0.154
674	0.154
675	0.153
675	0.153
676	0.154
676	0.154
676	0.154
677	0.154
677	0.154
678	0.154
678	0.154
679	0.154
679	0.154
680	0.154
680	0.154
680	0.153
681	0.153
681	0.153
682	0.153
682	0.153
683	0.154
683	0.154
684	0.154
684	0.154
684	0.154
685	0.154
685	0.155
686	0.155
686	0.155
687	0.155
687	0.155
687	0.156
688	0.156
688	0.156
689	0.157
689	0.157
690	0.157
690	0.156
691	0.156
691	0.156
691	0.156
692	0.156
692	0.156
693	0.157
693	0.157
694	0.157
694	0.157
695	0.157
695	0.158
695	0.159
696	0.159
696	0.159
697	0.159
697	0.159
698	0.159
698	0.158
698	0.158
699	0.158
699	0.158
700	0.157
700	0.157
701	0.157
701	0.156
702	0.156
702	0.155
702	0.155
703	0.155
703	0.154
704	0.154
704	0.153
705	0.153
705	0.153
705	0.153
706	0.152
706	0.152
707	0.153
707	0.152
708	0.153
708	0.153
709	0.153
709	0.154
709	0.154
710	0.154
710	0.154
711	0.155
711	0.156
712	0.156
712	0.156
713	0.157
713	0.157
713	0.157
714	0.157
714	0.158
715	0.157
715	0.157
716	0.156
716	0.156
716	0.155
717	0.154
717	0.154
718	0.153
718	0.153
719	0.154
719	0.154
720	0.154
720	0.155
720	0.156
721	0.157
721	0.158
722	0.159
722	0.159
723	0.159
723	0.159
723	0.159
724	0.159
724	0.158
725	0.158
725	0.157
726	0.156
726	0.156
727	0.155
727	0.155
727	0.154
728	0.154
728	0.154
729	0.154
729	0.154
730	0.154
730	0.155
730	0.155
731	0.156
731	0.156
732	0.157
732	0.157
733	0.158
733	0.158
734	0.159
734	0.159
734	0.16
735	0.161
735	0.161
736	0.161
736	0.161
737	0.161
737	0.161
737	0.161
738	0.16
738	0.159
739	0.159
739	0.158
740	0.158
740	0.158
741	0.158
741	0.158
741	0.158
742	0.158
742	0.159
743	0.16
743	0.161
744	0.162
744	0.162
744	0.162
745	0.162
745	0.162
746	0.163
746	0.163
747	0.162
747	0.162
748	0.162
748	0.162
748	0.162
749	0.162
749	0.163
750	0.163
750	0.163
751	0.163
751	0.164
751	0.164
752	0.164
752	0.164
753	0.164
753	0.163
754	0.163
754	0.162
754	0.162
755	0.162
755	0.162
756	0.161
756	0.16
757	0.16
757	0.16
758	0.16
758	0.16
758	0.16
759	0.16
759	0.16
760	0.16
760	0.16
761	0.16
761	0.161
761	0.161
762	0.161
762	0.162
763	0.162
763	0.161
764	0.161
764	0.161
764	0.161
765	0.161
765	0.16
766	0.16
766	0.16
767	0.16
767	0.159
768	0.159
768	0.159
768	0.159
769	0.159
769	0.159
770	0.159
770	0.16
771	0.16
771	0.161
771	0.161
772	0.162
772	0.163
773	0.163
773	0.163
774	0.163
774	0.164
775	0.164
775	0.164
775	0.164
776	0.164
776	0.164
777	0.165
777	0.165
778	0.165
778	0.165
778	0.164
779	0.164
779	0.164
780	0.163
780	0.162
781	0.162
781	0.161
781	0.16
782	0.16
782	0.16
783	0.16
783	0.161
784	0.161
784	0.161
784	0.161
785	0.162
785	0.162
786	0.162
786	0.163
787	0.163
787	0.163
788	0.162
788	0.162
788	0.161
789	0.161
789	0.161
790	0.161
790	0.161
791	0.161
791	0.161
791	0.161
792	0.162
792	0.162
793	0.162
793	0.162
794	0.161
794	0.161
794	0.161
795	0.161
795	0.162
796	0.162
796	0.161
797	0.161
797	0.161
797	0.161
798	0.161
798	0.162
799	0.162
799	0.161
800	0.161
800	0.16
801	0.16
801	0.161
801	0.161
802	0.161
802	0.161
803	0.161
803	0.161
804	0.162
804	0.162
804	0.162
805	0.162
805	0.162
806	0.162
806	0.162
807	0.162
807	0.162
807	0.161
808	0.161
808	0.161
809	0.161
809	0.161
810	0.161
810	0.161
810	0.161
811	0.161
811	0.161
812	0.162
812	0.162
813	0.162
813	0.163
813	0.163
814	0.164
814	0.164
815	0.165
815	0.165
816	0.165
816	0.164
817	0.164
817	0.163
817	0.163
818	0.162
818	0.162
819	0.161
819	0.16
820	0.159
820	0.159
820	0.158
821	0.158
821	0.158
822	0.158
822	0.158
823	0.158
823	0.158
823	0.158
824	0.159
824	0.16
825	0.162
825	0.163
826	0.163
826	0.163
826	0.164
827	0.165
827	0.165
828	0.165
828	0.166
829	0.166
829	0.166
829	0.166
830	0.166
830	0.166
831	0.167
831	0.167
832	0.167
832	0.167
832	0.167
833	0.167
833	0.166
834	0.166
834	0.165
835	0.165
835	0.164
835	0.164
836	0.163
836	0.163
837	0.163
837	0.162
838	0.162
838	0.161
839	0.16
839	0.16
839	0.159
840	0.158
840	0.157
841	0.156
841	0.155
842	0.154
842	0.153
842	0.153
843	0.152
843	0.152
844	0.151
844	0.151
845	0.151
845	0.151
845	0.151
846	0.151
846	0.151
847	0.151
847	0.152
848	0.152
848	0.152
848	0.152
849	0.152
849	0.152
850	0.151
850	0.151
851	0.15
851	0.15
851	0.149
852	0.148
852	0.148
853	0.147
853	0.147
854	0.147
854	0.147
854	0.147
855	0.148
855	0.149
856	0.15
856	0.151
857	0.152
857	0.153
857	0.154
858	0.155
858	0.155
859	0.156
859	0.156
860	0.156
860	0.155
860	0.155
861	0.154
861	0.154
862	0.153
862	0.151
863	0.15
863	0.15
863	0.149
864	0.148
864	0.148
865	0.148
865	0.147
866	0.147
866	0.147
866	0.147
867	0.147
867	0.147
868	0.147
868	0.147
869	0.147
869	0.147
869	0.146
870	0.146
870	0.146
871	0.146
871	0.146
872	0.146
872	0.146
872	0.146
873	0.146
873	0.145
874	0.145
874	0.144
875	0.144
875	0.144
875	0.143
876	0.143
876	0.143
877	0.142
877	0.142
878	0.142
878	0.142
878	0.143
879	0.143
879	0.143
880	0.143
880	0.144
881	0.144
881	0.144
881	0.144
882	0.144
882	0.144
883	0.144
883	0.144
884	0.144
884	0.144
884	0.144
885	0.144
885	0.143
886	0.143
886	0.143
887	0.142
887	0.142
887	0.141
888	0.141
888	0.14
889	0.14
889	0.14
890	0.139
890	0.139
890	0.139
891	0.139
891	0.139
892	0.139
892	0.139
893	0.139
893	0.138
893	0.138
894	0.137
894	0.137
895	0.136
895	0.136
895	0.136
896	0.136
896	0.136
897	0.136
897	0.136
898	0.135
898	0.135
898	0.135
899	0.134
899	0.134
900	0.134
900	0.133
901	0.133
901	0.132
901	0.132
902	0.132
902	0.132
903	0.132
903	0.132
904	0.132
904	0.131
904	0.131
905	0.131
905	0.13
906	0.13
906	0.13
907	0.13
907	0.13
907	0.13
908	0.13
908	0.129
909	0.129
909	0.129
910	0.129
910	0.129
910	0.128
911	0.128
911	0.127
912	0.127
912	0.126
913	0.125
913	0.125
913	0.124
914	0.124
914	0.124
915	0.124
915	0.124
916	0.124
916	0.124
916	0.124
917	0.124
917	0.124
918	0.123
918	0.123
918	0.123
919	0.123
919	0.122
920	0.122
920	0.122
921	0.122
921	0.122
921	0.121
922	0.121
922	0.121
923	0.121
923	0.121
924	0.122
924	0.122
924	0.122
925	0.122
925	0.122
926	0.122
926	0.123
927	0.123
927	0.123
927	0.123
928	0.123
928	0.124
929	0.124
929	0.124
930	0.124
930	0.124
930	0.124
931	0.124
931	0.124
932	0.124
932	0.123
933	0.123
933	0.123
933	0.123
934	0.122
934	0.122
935	0.121
935	0.121
935	0.12
936	0.119
936	0.119
937	0.118
937	0.118
938	0.117
938	0.116
938	0.116
939	0.115
939	0.114
940	0.114
940	0.114
941	0.114
941	0.114
941	0.115
942	0.115
942	0.115
943	0.115
943	0.116
944	0.116
944	0.116
944	0.117
945	0.117
945	0.116
946	0.116
946	0.116
946	0.115
947	0.115
947	0.115
948	0.115
948	0.115
949	0.114
949	0.113
949	0.113
950	0.112
950	0.112
951	0.111
951	0.111
952	0.11
952	0.109
952	0.109
953	0.108
953	0.108
954	0.108
954	0.108
955	0.108
955	0.108
955	0.108
956	0.108
956	0.109
957	0.11
957	0.11
957	0.111
958	0.111
958	0.111
959	0.112
959	0.112
960	0.112
960	0.112
960	0.112
961	0.112
961	0.112
962	0.112
962	0.111
963	0.111
963	0.111
963	0.11
964	0.11
964	0.11
965	0.11
965	0.11
966	0.109
966	0.109
966	0.109
967	0.109
967	0.108
968	0.108
968	0.108
968	0.107
969	0.106
969	0.105
970	0.104
970	0.103
971	0.102
971	0.102
971	0.101
972	0.101
972	0.1
973	0.1
973	0.1
974	0.101
974	0.101
974	0.102
975	0.102
975	0.103
976	0.104
976	0.104
976	0.105
977	0.105
977	0.106
978	0.106
978	0.106
979	0.105
979	0.105
979	0.106
980	0.106
980	0.106
981	0.106
981	0.106
982	0.106
982	0.106
982	0.106
983	0.106
983	0.106
984	0.106
984	0.105
984	0.105
985	0.105
985	0.105
986	0.104
986	0.104
987	0.104
987	0.103
987	0.103
988	0.103
988	0.103
989	0.103
989	0.103
990	0.103
990	0.102
990	0.102
991	0.102
991	0.102
992	0.102
992	0.101
992	0.1
993	0.099
993	0.098
994	0.097
994	0.097
995	0.096
995	0.095
995	0.095
996	0.094
996	0.094
997	0.094
997	0.094
997	0.094
998	0.095
998	0.096
999	0.096
999	0.097
1000	0.098
1000	0.098
1000	0.098
1001	0.099
1001	0.099
1002	0.099
1002	0.099
1003	0.099
1003	0.098
1003	0.098
1004	0.097
1004	0.096
1005	0.096
1005	0.095
1005	0.095
1006	0.094
1006	0.094
1007	0.093
1007	0.093
1008	0.092
1008	0.092
1008	0.092
1009	0.091
1009	0.091
1010	0.091
1010	0.091
1010	0.091
1011	0.09
1011	0.09
1012	0.089
1012	0.089
1013	0.089
1013	0.088
1013	0.087
1014	0.087
1014	0.086
1015	0.086
1015	0.086
1016	0.085
1016	0.085
1016	0.085
1017	0.084
1017	0.084
1018	0.084
1018	0.084
1018	0.084
1019	0.084
1019	0.084
1020	0.084
1020	0.084
1021	0.084
1021	0.085
1021	0.085
1022	0.086
1022	0.086
1023	0.086
1023	0.087
1023	0.087
1024	0.088
1024	0.088
1025	0.088
1025	0.088
1026	0.088
1026	0.088
1026	0.088
1027	0.088
1027	0.088
1028	0.088
1028	0.088
1028	0.088
1029	0.088
1029	0.088
1030	0.088
1030	0.089
1031	0.089
1031	0.089
1031	0.089
1032	0.089
1032	0.089
1033	0.09
1033	0.09
1033	0.09
1034	0.09
1034	0.09
1035	0.09
1035	0.09
1036	0.089
1036	0.089
1036	0.089
1037	0.089
1037	0.089
1038	0.088
1038	0.088
1039	0.088
1039	0.088
1039	0.087
1040	0.087
1040	0.087
1041	0.087
1041	0.086
1041	0.086
1042	0.086
1042	0.086
1043	0.086
1043	0.085
1044	0.085
1044	0.085
1044	0.084
1045	0.084
1045	0.084
1046	0.083
1046	0.083
1046	0.083
1047	0.083
1047	0.083
1048	0.082
1048	0.082
1049	0.082
1049	0.082
1049	0.082
1050	0.082
1050	0.081
1051	0.081
1051	0.081
1051	0.08
1052	0.08
1052	0.08
1053	0.079
1053	0.078
1053	0.077
1054	0.077
1054	0.076
1055	0.076
1055	0.076
1056	0.075
1056	0.074
1056	0.074
1057	0.073
1057	0.073
1058	0.072
1058	0.072
1058	0.071
1059	0.071
1059	0.071
1060	0.07
1060	0.07
1061	0.07
1061	0.07
1061	0.07
1062	0.07
1062	0.07
1063	0.069
1063	0.069
1063	0.069
1064	0.068
1064	0.068
1065	0.068
1065	0.068
1066	0.068
1066	0.068
1066	0.068
1067	0.068
1067	0.068
1068	0.068
1068	0.068
1068	0.068
1069	0.068
1069	0.068
1070	0.068
1070	0.067
1071	0.067
1071	0.067
1071	0.067
1072	0.066
1072	0.066
1073	0.066
1073	0.065
1073	0.065
1074	0.066
1074	0.066
1075	0.066
1075	0.067
1076	0.067
1076	0.067
1076	0.067
1077	0.067
1077	0.068
1078	0.068
1078	0.068
1078	0.068
1079	0.067
1079	0.067
1080	0.066
1080	0.065
1080	0.065
1081	0.065
1081	0.065
1082	0.064
1082	0.065
1083	0.064
1083	0.064
1083	0.064
1084	0.064
1084	0.065
1085	0.065
1085	0.066
1085	0.066
1086	0.066
1086	0.066
1087	0.066
1087	0.065
1088	0.065
1088	0.065
1088	0.065
1089	0.064
1089	0.064
1090	0.063
1090	0.062
1090	0.062
1091	0.061
1091	0.061
1092	0.061
1092	0.061
1092	0.061
1093	0.06
1093	0.061
1094	0.061
1094	0.06
1095	0.06
1095	0.06
1095	0.059
1096	0.059
1096	0.058
1097	0.057
1097	0.056
1097	0.055
1098	0.055
1098	0.053
1099	0.053
1099	0.051
1100	0.051
1100	0.049
1100	0.049
1101	0.048
1101	0.047
1102	0.047
1102	0.046
1102	0.044
1103	0.044
1103	0.044
1104	0.044
1104	0.043
1104	0.043
1105	0.042
1105	0.041
1106	0.039
1106	0.039
1107	0.038
1107	0.039
1107	0.039
1108	0.039
1108	0.037
1109	0.036
1109	0.036
1109	0.038
1110	0.039
1110	0.038
1111	0.041
1111	0.043
