Data from reversibility-20sec_Absorbance__3639__000000000003639.txt Node

Date: Wed Dec 06 08:26:06 CET 2023
User: Marek
Spectrometer: MAYP115816
Trigger mode: 0
Integration Time (sec): 2.000000E-1
Scans to average: 10
Electric dark correction enabled: true
Nonlinearity correction enabled: true
Boxcar width: 5
XAxis mode: Wavelengths
Number of Pixels in Spectrum: 2068
>>>>>Begin Spectral Data<<<<<
199	-0.15
199	-0.124
200	-0.057
200	-0.007
201	0.02
201	0.037
202	0.047
202	0.057
203	0.06
203	0.065
204	0.077
204	0.09
205	0.101
205	0.105
205	0.102
206	0.101
206	0.103
207	0.105
207	0.103
208	0.105
208	0.105
209	0.108
209	0.107
210	0.11
210	0.114
211	0.117
211	0.12
212	0.117
212	0.121
213	0.127
213	0.129
213	0.13
214	0.134
214	0.134
215	0.134
215	0.131
216	0.134
216	0.134
217	0.136
217	0.134
218	0.131
218	0.135
219	0.138
219	0.138
220	0.142
220	0.143
221	0.147
221	0.149
221	0.154
222	0.161
222	0.167
223	0.175
223	0.179
224	0.185
224	0.192
225	0.202
225	0.214
226	0.224
226	0.233
227	0.242
227	0.25
228	0.264
228	0.279
229	0.295
229	0.318
229	0.34
230	0.365
230	0.394
231	0.425
231	0.464
232	0.501
232	0.547
233	0.593
233	0.641
234	0.692
234	0.745
235	0.797
235	0.849
236	0.898
236	0.952
236	1.007
237	1.058
237	1.106
238	1.151
238	1.198
239	1.244
239	1.285
240	1.325
240	1.36
241	1.398
241	1.429
242	1.458
242	1.492
243	1.52
243	1.547
243	1.571
244	1.592
244	1.614
245	1.633
245	1.658
246	1.675
246	1.693
247	1.705
247	1.719
248	1.734
248	1.746
249	1.757
249	1.765
250	1.774
250	1.781
250	1.783
251	1.788
251	1.792
252	1.798
252	1.801
253	1.803
253	1.803
254	1.803
254	1.803
255	1.803
255	1.804
256	1.803
256	1.802
257	1.8
257	1.799
258	1.797
258	1.795
258	1.794
259	1.793
259	1.792
260	1.789
260	1.789
261	1.789
261	1.791
262	1.793
262	1.795
263	1.796
263	1.797
264	1.796
264	1.797
265	1.797
265	1.797
265	1.797
266	1.797
266	1.796
267	1.795
267	1.794
268	1.793
268	1.793
269	1.796
269	1.793
270	1.793
270	1.792
271	1.79
271	1.79
272	1.787
272	1.785
272	1.782
273	1.779
273	1.776
274	1.771
274	1.767
275	1.761
275	1.755
276	1.748
276	1.74
277	1.732
277	1.722
278	1.711
278	1.7
278	1.686
279	1.672
279	1.656
280	1.636
280	1.613
281	1.585
281	1.553
282	1.52
282	1.485
283	1.45
283	1.415
284	1.38
284	1.345
285	1.313
285	1.282
285	1.254
286	1.23
286	1.208
287	1.188
287	1.172
288	1.156
288	1.143
289	1.133
289	1.122
290	1.114
290	1.106
291	1.099
291	1.093
292	1.088
292	1.083
292	1.078
293	1.073
293	1.069
294	1.065
294	1.062
295	1.058
295	1.055
296	1.051
296	1.048
297	1.045
297	1.041
298	1.038
298	1.035
298	1.032
299	1.029
299	1.026
300	1.023
300	1.02
301	1.018
301	1.015
302	1.011
302	1.009
303	1.006
303	1.003
304	1
304	0.998
305	0.995
305	0.992
305	0.99
306	0.987
306	0.984
307	0.982
307	0.979
308	0.976
308	0.973
309	0.97
309	0.967
310	0.964
310	0.961
311	0.958
311	0.954
311	0.95
312	0.947
312	0.943
313	0.939
313	0.936
314	0.932
314	0.928
315	0.924
315	0.919
316	0.915
316	0.911
317	0.906
317	0.901
318	0.896
318	0.891
318	0.886
319	0.88
319	0.875
320	0.869
320	0.863
321	0.857
321	0.851
322	0.845
322	0.839
323	0.833
323	0.827
324	0.82
324	0.814
324	0.807
325	0.801
325	0.794
326	0.788
326	0.781
327	0.775
327	0.768
328	0.761
328	0.755
329	0.748
329	0.741
330	0.734
330	0.727
330	0.72
331	0.713
331	0.706
332	0.7
332	0.693
333	0.686
333	0.679
334	0.673
334	0.667
335	0.66
335	0.653
336	0.647
336	0.641
336	0.634
337	0.628
337	0.622
338	0.616
338	0.61
339	0.604
339	0.598
340	0.592
340	0.586
341	0.581
341	0.575
342	0.57
342	0.565
342	0.559
343	0.554
343	0.549
344	0.544
344	0.54
345	0.535
345	0.53
346	0.526
346	0.522
347	0.518
347	0.513
348	0.509
348	0.505
348	0.501
349	0.498
349	0.494
350	0.49
350	0.487
351	0.483
351	0.48
352	0.477
352	0.474
353	0.471
353	0.468
354	0.465
354	0.462
354	0.459
355	0.456
355	0.453
356	0.45
356	0.447
357	0.443
357	0.44
358	0.437
358	0.435
359	0.432
359	0.43
360	0.428
360	0.426
360	0.424
361	0.422
361	0.42
362	0.419
362	0.418
363	0.416
363	0.414
364	0.412
364	0.41
365	0.408
365	0.406
366	0.404
366	0.402
366	0.4
367	0.398
367	0.396
368	0.395
368	0.393
369	0.391
369	0.39
370	0.388
370	0.387
371	0.386
371	0.384
372	0.382
372	0.381
372	0.38
373	0.379
373	0.377
374	0.376
374	0.375
375	0.374
375	0.373
376	0.372
376	0.37
377	0.369
377	0.368
378	0.367
378	0.366
378	0.364
379	0.363
379	0.363
380	0.362
380	0.361
381	0.36
381	0.359
382	0.358
382	0.357
383	0.357
383	0.356
383	0.355
384	0.354
384	0.354
385	0.353
385	0.352
386	0.352
386	0.351
387	0.35
387	0.35
388	0.349
388	0.349
389	0.348
389	0.347
389	0.346
390	0.346
390	0.345
391	0.344
391	0.344
392	0.343
392	0.343
393	0.342
393	0.342
394	0.341
394	0.341
394	0.34
395	0.34
395	0.339
396	0.339
396	0.338
397	0.338
397	0.337
398	0.337
398	0.337
399	0.336
399	0.336
400	0.335
400	0.334
400	0.334
401	0.333
401	0.333
402	0.332
402	0.332
403	0.331
403	0.331
404	0.33
404	0.33
405	0.329
405	0.329
405	0.329
406	0.328
406	0.328
407	0.327
407	0.327
408	0.327
408	0.326
409	0.326
409	0.325
410	0.325
410	0.325
411	0.324
411	0.324
411	0.324
412	0.323
412	0.323
413	0.323
413	0.322
414	0.322
414	0.322
415	0.321
415	0.321
416	0.32
416	0.32
416	0.32
417	0.319
417	0.319
418	0.319
418	0.318
419	0.318
419	0.317
420	0.317
420	0.316
421	0.316
421	0.316
421	0.315
422	0.315
422	0.315
423	0.314
423	0.314
424	0.314
424	0.313
425	0.313
425	0.313
426	0.313
426	0.312
427	0.312
427	0.311
427	0.311
428	0.311
428	0.31
429	0.31
429	0.309
430	0.309
430	0.309
431	0.308
431	0.308
432	0.308
432	0.308
432	0.308
433	0.308
433	0.308
434	0.308
434	0.308
435	0.308
435	0.308
436	0.308
436	0.308
437	0.307
437	0.307
437	0.307
438	0.307
438	0.307
439	0.306
439	0.306
440	0.306
440	0.305
441	0.305
441	0.305
442	0.305
442	0.305
442	0.304
443	0.304
443	0.304
444	0.304
444	0.304
445	0.304
445	0.304
446	0.304
446	0.304
447	0.304
447	0.304
447	0.303
448	0.304
448	0.304
449	0.304
449	0.304
450	0.304
450	0.304
451	0.303
451	0.303
452	0.304
452	0.303
452	0.304
453	0.303
453	0.303
454	0.304
454	0.303
455	0.303
455	0.303
456	0.303
456	0.303
457	0.303
457	0.303
458	0.303
458	0.303
458	0.303
459	0.303
459	0.303
460	0.304
460	0.304
461	0.304
461	0.304
462	0.304
462	0.305
463	0.305
463	0.305
463	0.305
464	0.305
464	0.305
465	0.305
465	0.305
466	0.305
466	0.305
467	0.306
467	0.306
467	0.306
468	0.307
468	0.307
469	0.308
469	0.308
470	0.309
470	0.309
471	0.309
471	0.31
472	0.31
472	0.311
472	0.311
473	0.311
473	0.312
474	0.312
474	0.313
475	0.313
475	0.313
476	0.314
476	0.314
477	0.315
477	0.315
477	0.316
478	0.317
478	0.317
479	0.318
479	0.319
480	0.319
480	0.32
481	0.321
481	0.322
482	0.323
482	0.324
482	0.324
483	0.325
483	0.326
484	0.328
484	0.328
485	0.329
485	0.33
486	0.331
486	0.331
487	0.332
487	0.333
487	0.334
488	0.335
488	0.336
489	0.337
489	0.339
490	0.34
490	0.341
491	0.343
491	0.344
492	0.346
492	0.347
492	0.349
493	0.35
493	0.352
494	0.353
494	0.355
495	0.356
495	0.357
496	0.359
496	0.36
496	0.362
497	0.363
497	0.364
498	0.365
498	0.367
499	0.368
499	0.37
500	0.371
500	0.373
501	0.374
501	0.376
501	0.377
502	0.378
502	0.38
503	0.382
503	0.383
504	0.385
504	0.386
505	0.387
505	0.389
506	0.391
506	0.392
506	0.393
507	0.395
507	0.396
508	0.397
508	0.398
509	0.399
509	0.401
510	0.402
510	0.403
511	0.404
511	0.405
511	0.406
512	0.407
512	0.408
513	0.409
513	0.41
514	0.411
514	0.412
515	0.413
515	0.414
515	0.414
516	0.415
516	0.416
517	0.416
517	0.417
518	0.417
518	0.418
519	0.418
519	0.418
520	0.419
520	0.419
520	0.419
521	0.42
521	0.42
522	0.42
522	0.42
523	0.42
523	0.42
524	0.42
524	0.419
524	0.419
525	0.419
525	0.418
526	0.417
526	0.417
527	0.416
527	0.415
528	0.414
528	0.413
529	0.412
529	0.411
529	0.41
530	0.408
530	0.407
531	0.406
531	0.405
532	0.403
532	0.402
533	0.4
533	0.399
533	0.397
534	0.396
534	0.394
535	0.392
535	0.39
536	0.388
536	0.386
537	0.384
537	0.382
538	0.38
538	0.378
538	0.376
539	0.374
539	0.372
540	0.37
540	0.368
541	0.366
541	0.364
542	0.361
542	0.359
542	0.357
543	0.355
543	0.353
544	0.35
544	0.348
545	0.346
545	0.343
546	0.341
546	0.339
547	0.337
547	0.334
547	0.332
548	0.33
548	0.327
549	0.325
549	0.323
550	0.32
550	0.318
551	0.315
551	0.312
551	0.309
552	0.307
552	0.305
553	0.302
553	0.3
554	0.298
554	0.296
555	0.293
555	0.29
556	0.288
556	0.286
556	0.284
557	0.282
557	0.28
558	0.278
558	0.276
559	0.273
559	0.271
560	0.269
560	0.268
560	0.266
561	0.264
561	0.262
562	0.259
562	0.257
563	0.255
563	0.252
564	0.25
564	0.248
564	0.246
565	0.244
565	0.242
566	0.239
566	0.237
567	0.235
567	0.233
568	0.231
568	0.229
568	0.227
569	0.226
569	0.224
570	0.222
570	0.22
571	0.218
571	0.217
572	0.215
572	0.213
573	0.212
573	0.21
573	0.208
574	0.207
574	0.206
575	0.205
575	0.203
576	0.202
576	0.2
577	0.198
577	0.197
577	0.196
578	0.194
578	0.193
579	0.192
579	0.191
580	0.189
580	0.188
581	0.186
581	0.185
581	0.184
582	0.183
582	0.182
583	0.181
583	0.18
584	0.178
584	0.176
585	0.174
585	0.173
585	0.172
586	0.171
586	0.17
587	0.169
587	0.168
588	0.167
588	0.166
589	0.165
589	0.164
590	0.163
590	0.162
590	0.162
591	0.161
591	0.159
592	0.158
592	0.157
593	0.156
593	0.155
594	0.153
594	0.152
594	0.151
595	0.15
595	0.149
596	0.147
596	0.147
597	0.147
597	0.146
598	0.146
598	0.145
598	0.145
599	0.144
599	0.144
600	0.143
600	0.142
601	0.141
601	0.141
602	0.14
602	0.139
602	0.138
603	0.137
603	0.136
604	0.136
604	0.135
605	0.135
605	0.135
606	0.134
606	0.133
606	0.132
607	0.131
607	0.131
608	0.13
608	0.129
609	0.128
609	0.127
610	0.126
610	0.126
610	0.125
611	0.125
611	0.124
612	0.124
612	0.124
613	0.124
613	0.123
614	0.123
614	0.122
614	0.122
615	0.122
615	0.121
616	0.121
616	0.121
617	0.12
617	0.12
618	0.119
618	0.119
618	0.119
619	0.118
619	0.118
620	0.118
620	0.117
621	0.117
621	0.116
622	0.115
622	0.114
622	0.113
623	0.112
623	0.112
624	0.112
624	0.111
625	0.11
625	0.11
626	0.109
626	0.109
626	0.109
627	0.109
627	0.108
628	0.108
628	0.108
629	0.107
629	0.107
630	0.106
630	0.106
630	0.105
631	0.105
631	0.104
632	0.104
632	0.103
633	0.103
633	0.103
634	0.103
634	0.103
634	0.103
635	0.103
635	0.102
636	0.102
636	0.102
637	0.102
637	0.101
638	0.101
638	0.101
638	0.1
639	0.099
639	0.099
640	0.099
640	0.098
641	0.098
641	0.097
642	0.097
642	0.096
642	0.096
643	0.096
643	0.096
644	0.096
644	0.096
645	0.095
645	0.095
646	0.095
646	0.095
646	0.095
647	0.095
647	0.095
648	0.094
648	0.094
649	0.093
649	0.093
650	0.093
650	0.093
650	0.093
651	0.092
651	0.092
652	0.092
652	0.092
653	0.092
653	0.094
653	0.099
654	0.079
654	0.065
655	0.063
655	0.063
656	0.063
656	0.063
657	0.063
657	0.063
657	0.063
658	0.061
658	0.054
659	0.068
659	0.085
660	0.089
660	0.089
661	0.088
661	0.088
661	0.087
662	0.086
662	0.086
663	0.085
663	0.085
664	0.084
664	0.084
665	0.083
665	0.083
665	0.083
666	0.083
666	0.083
667	0.083
667	0.084
668	0.084
668	0.084
669	0.084
669	0.085
669	0.085
670	0.085
670	0.085
671	0.085
671	0.085
672	0.084
672	0.083
672	0.082
673	0.082
673	0.081
674	0.081
674	0.08
675	0.08
675	0.08
676	0.08
676	0.08
676	0.081
677	0.081
677	0.081
678	0.081
678	0.081
679	0.081
679	0.081
680	0.081
680	0.08
680	0.08
681	0.08
681	0.08
682	0.08
682	0.08
683	0.08
683	0.08
684	0.08
684	0.08
684	0.079
685	0.079
685	0.08
686	0.079
686	0.079
687	0.079
687	0.079
687	0.079
688	0.079
688	0.079
689	0.08
689	0.08
690	0.079
690	0.079
691	0.079
691	0.079
691	0.079
692	0.078
692	0.078
693	0.078
693	0.078
694	0.078
694	0.077
695	0.078
695	0.079
695	0.079
696	0.079
696	0.079
697	0.079
697	0.079
698	0.078
698	0.078
698	0.078
699	0.078
699	0.077
700	0.076
700	0.076
701	0.075
701	0.075
702	0.074
702	0.073
702	0.073
703	0.072
703	0.072
704	0.071
704	0.071
705	0.072
705	0.072
705	0.072
706	0.072
706	0.072
707	0.072
707	0.072
708	0.073
708	0.073
709	0.073
709	0.072
709	0.072
710	0.071
710	0.071
711	0.071
711	0.071
712	0.071
712	0.07
713	0.07
713	0.07
713	0.07
714	0.069
714	0.069
715	0.069
715	0.068
716	0.068
716	0.067
716	0.067
717	0.066
717	0.065
718	0.065
718	0.064
719	0.064
719	0.064
720	0.064
720	0.065
720	0.065
721	0.065
721	0.066
722	0.067
722	0.067
723	0.067
723	0.067
723	0.067
724	0.066
724	0.066
725	0.065
725	0.064
726	0.063
726	0.063
727	0.062
727	0.062
727	0.062
728	0.062
728	0.062
729	0.062
729	0.063
730	0.063
730	0.064
730	0.064
731	0.065
731	0.065
732	0.065
732	0.065
733	0.065
733	0.065
734	0.064
734	0.064
734	0.064
735	0.064
735	0.063
736	0.062
736	0.062
737	0.061
737	0.061
737	0.06
738	0.059
738	0.058
739	0.058
739	0.057
740	0.057
740	0.057
741	0.057
741	0.058
741	0.058
742	0.058
742	0.058
743	0.059
743	0.06
744	0.06
744	0.06
744	0.061
745	0.06
745	0.06
746	0.061
746	0.061
747	0.061
747	0.061
748	0.061
748	0.061
748	0.061
749	0.061
749	0.061
750	0.061
750	0.061
751	0.061
751	0.061
751	0.061
752	0.061
752	0.06
753	0.06
753	0.059
754	0.059
754	0.058
754	0.058
755	0.058
755	0.057
756	0.057
756	0.056
757	0.055
757	0.055
758	0.055
758	0.055
758	0.055
759	0.055
759	0.055
760	0.055
760	0.055
761	0.055
761	0.056
761	0.056
762	0.055
762	0.055
763	0.055
763	0.055
764	0.054
764	0.054
764	0.053
765	0.053
765	0.052
766	0.052
766	0.052
767	0.052
767	0.052
768	0.052
768	0.052
768	0.053
769	0.054
769	0.054
770	0.054
770	0.055
771	0.055
771	0.055
771	0.055
772	0.055
772	0.055
773	0.054
773	0.054
774	0.054
774	0.054
775	0.054
775	0.054
775	0.054
776	0.054
776	0.055
777	0.055
777	0.055
778	0.055
778	0.055
778	0.055
779	0.055
779	0.054
780	0.053
780	0.052
781	0.052
781	0.051
781	0.051
782	0.05
782	0.05
783	0.051
783	0.051
784	0.051
784	0.051
784	0.052
785	0.052
785	0.052
786	0.053
786	0.053
787	0.053
787	0.053
788	0.052
788	0.052
788	0.052
789	0.051
789	0.051
790	0.051
790	0.05
791	0.05
791	0.049
791	0.049
792	0.049
792	0.049
793	0.048
793	0.048
794	0.048
794	0.048
794	0.047
795	0.048
795	0.048
796	0.048
796	0.048
797	0.048
797	0.048
797	0.049
798	0.049
798	0.049
799	0.049
799	0.049
800	0.048
800	0.047
801	0.047
801	0.047
801	0.046
802	0.046
802	0.046
803	0.046
803	0.046
804	0.046
804	0.047
804	0.047
805	0.047
805	0.047
806	0.047
806	0.047
807	0.047
807	0.047
807	0.047
808	0.047
808	0.047
809	0.047
809	0.047
810	0.047
810	0.047
810	0.048
811	0.048
811	0.049
812	0.049
812	0.049
813	0.05
813	0.05
813	0.05
814	0.051
814	0.051
815	0.051
815	0.051
816	0.051
816	0.051
817	0.05
817	0.05
817	0.049
818	0.049
818	0.049
819	0.048
819	0.047
820	0.047
820	0.046
820	0.046
821	0.045
821	0.045
822	0.045
822	0.045
823	0.045
823	0.045
823	0.046
824	0.047
824	0.048
825	0.049
825	0.05
826	0.05
826	0.05
826	0.051
827	0.051
827	0.051
828	0.051
828	0.051
829	0.051
829	0.051
829	0.051
830	0.051
830	0.051
831	0.051
831	0.052
832	0.051
832	0.051
832	0.051
833	0.051
833	0.05
834	0.05
834	0.049
835	0.048
835	0.048
835	0.047
836	0.047
836	0.046
837	0.046
837	0.046
838	0.046
838	0.046
839	0.045
839	0.045
839	0.045
840	0.044
840	0.044
841	0.043
841	0.043
842	0.042
842	0.042
842	0.042
843	0.042
843	0.042
844	0.042
844	0.042
845	0.043
845	0.043
845	0.044
846	0.044
846	0.044
847	0.044
847	0.045
848	0.045
848	0.044
848	0.044
849	0.044
849	0.044
850	0.043
850	0.043
851	0.043
851	0.042
851	0.042
852	0.041
852	0.041
853	0.04
853	0.04
854	0.04
854	0.041
854	0.041
855	0.041
855	0.042
856	0.042
856	0.043
857	0.044
857	0.045
857	0.045
858	0.046
858	0.046
859	0.046
859	0.046
860	0.046
860	0.045
860	0.045
861	0.044
861	0.043
862	0.042
862	0.041
863	0.041
863	0.041
863	0.04
864	0.04
864	0.04
865	0.04
865	0.041
866	0.041
866	0.041
866	0.041
867	0.041
867	0.041
868	0.041
868	0.041
869	0.04
869	0.04
869	0.039
870	0.039
870	0.039
871	0.039
871	0.039
872	0.039
872	0.039
872	0.039
873	0.039
873	0.039
874	0.039
874	0.039
875	0.039
875	0.038
875	0.038
876	0.038
876	0.038
877	0.037
877	0.038
878	0.038
878	0.038
878	0.039
879	0.039
879	0.039
880	0.039
880	0.04
881	0.04
881	0.04
881	0.04
882	0.039
882	0.039
883	0.039
883	0.039
884	0.038
884	0.038
884	0.038
885	0.038
885	0.038
886	0.038
886	0.038
887	0.038
887	0.038
887	0.038
888	0.038
888	0.038
889	0.038
889	0.038
890	0.038
890	0.039
890	0.039
891	0.038
891	0.038
892	0.038
892	0.038
893	0.038
893	0.038
893	0.038
894	0.037
894	0.036
895	0.036
895	0.035
895	0.035
896	0.034
896	0.034
897	0.033
897	0.033
898	0.032
898	0.032
898	0.031
899	0.031
899	0.031
900	0.031
900	0.032
901	0.032
901	0.032
901	0.033
902	0.033
902	0.033
903	0.034
903	0.034
904	0.034
904	0.034
904	0.034
905	0.034
905	0.034
906	0.035
906	0.036
907	0.036
907	0.037
907	0.038
908	0.039
908	0.039
909	0.04
909	0.041
910	0.041
910	0.041
910	0.041
911	0.041
911	0.041
912	0.041
912	0.041
913	0.041
913	0.041
913	0.041
914	0.041
914	0.041
915	0.041
915	0.04
916	0.04
916	0.04
916	0.039
917	0.038
917	0.038
918	0.037
918	0.037
918	0.036
919	0.036
919	0.036
920	0.035
920	0.035
921	0.035
921	0.035
921	0.035
922	0.035
922	0.036
923	0.036
923	0.037
924	0.037
924	0.038
924	0.038
925	0.039
925	0.039
926	0.039
926	0.039
927	0.039
927	0.039
927	0.039
928	0.038
928	0.038
929	0.038
929	0.038
930	0.038
930	0.038
930	0.039
931	0.039
931	0.039
932	0.039
932	0.039
933	0.039
933	0.039
933	0.039
934	0.039
934	0.039
935	0.039
935	0.039
935	0.039
936	0.039
936	0.039
937	0.038
937	0.038
938	0.038
938	0.037
938	0.037
939	0.036
939	0.035
940	0.034
940	0.034
941	0.033
941	0.033
941	0.033
942	0.032
942	0.032
943	0.032
943	0.032
944	0.032
944	0.033
944	0.033
945	0.033
945	0.034
946	0.034
946	0.034
946	0.035
947	0.035
947	0.036
948	0.037
948	0.037
949	0.038
949	0.038
949	0.039
950	0.039
950	0.04
951	0.04
951	0.04
952	0.039
952	0.039
952	0.038
953	0.038
953	0.037
954	0.036
954	0.036
955	0.035
955	0.034
955	0.034
956	0.033
956	0.033
957	0.033
957	0.033
957	0.033
958	0.033
958	0.033
959	0.033
959	0.034
960	0.034
960	0.035
960	0.035
961	0.035
961	0.035
962	0.036
962	0.036
963	0.036
963	0.037
963	0.037
964	0.037
964	0.038
965	0.038
965	0.038
966	0.039
966	0.039
966	0.04
967	0.04
967	0.041
968	0.041
968	0.041
968	0.041
969	0.041
969	0.041
970	0.04
970	0.04
971	0.039
971	0.038
971	0.038
972	0.037
972	0.036
973	0.035
973	0.035
974	0.034
974	0.034
974	0.034
975	0.034
975	0.034
976	0.034
976	0.035
976	0.035
977	0.035
977	0.035
978	0.035
978	0.035
979	0.035
979	0.035
979	0.035
980	0.035
980	0.035
981	0.035
981	0.035
982	0.035
982	0.035
982	0.035
983	0.035
983	0.035
984	0.035
984	0.035
984	0.035
985	0.035
985	0.035
986	0.035
986	0.035
987	0.035
987	0.035
987	0.034
988	0.034
988	0.034
989	0.033
989	0.033
990	0.032
990	0.032
990	0.032
991	0.031
991	0.031
992	0.031
992	0.03
992	0.03
993	0.029
993	0.029
994	0.029
994	0.029
995	0.028
995	0.029
995	0.029
996	0.029
996	0.029
997	0.03
997	0.03
997	0.031
998	0.032
998	0.032
999	0.033
999	0.034
1000	0.034
1000	0.035
1000	0.035
1001	0.035
1001	0.035
1002	0.035
1002	0.034
1003	0.034
1003	0.034
1003	0.033
1004	0.032
1004	0.031
1005	0.03
1005	0.029
1005	0.028
1006	0.027
1006	0.027
1007	0.027
1007	0.026
1008	0.026
1008	0.026
1008	0.027
1009	0.027
1009	0.027
1010	0.028
1010	0.028
1010	0.029
1011	0.029
1011	0.029
1012	0.029
1012	0.029
1013	0.029
1013	0.029
1013	0.029
1014	0.029
1014	0.029
1015	0.028
1015	0.028
1016	0.028
1016	0.027
1016	0.027
1017	0.026
1017	0.026
1018	0.026
1018	0.025
1018	0.025
1019	0.025
1019	0.025
1020	0.025
1020	0.025
1021	0.025
1021	0.025
1021	0.026
1022	0.026
1022	0.026
1023	0.027
1023	0.027
1023	0.027
1024	0.027
1024	0.027
1025	0.027
1025	0.027
1026	0.027
1026	0.027
1026	0.027
1027	0.027
1027	0.028
1028	0.028
1028	0.028
1028	0.028
1029	0.028
1029	0.028
1030	0.028
1030	0.028
1031	0.029
1031	0.029
1031	0.029
1032	0.029
1032	0.029
1033	0.029
1033	0.029
1033	0.029
1034	0.029
1034	0.029
1035	0.028
1035	0.028
1036	0.028
1036	0.027
1036	0.027
1037	0.026
1037	0.026
1038	0.025
1038	0.025
1039	0.025
1039	0.025
1039	0.025
1040	0.025
1040	0.025
1041	0.025
1041	0.025
1041	0.025
1042	0.026
1042	0.026
1043	0.027
1043	0.027
1044	0.028
1044	0.028
1044	0.029
1045	0.029
1045	0.03
1046	0.03
1046	0.031
1046	0.031
1047	0.032
1047	0.032
1048	0.032
1048	0.033
1049	0.033
1049	0.033
1049	0.033
1050	0.033
1050	0.033
1051	0.033
1051	0.033
1051	0.033
1052	0.033
1052	0.032
1053	0.032
1053	0.031
1053	0.031
1054	0.031
1054	0.03
1055	0.03
1055	0.03
1056	0.029
1056	0.029
1056	0.028
1057	0.028
1057	0.027
1058	0.027
1058	0.026
1058	0.025
1059	0.024
1059	0.024
1060	0.023
1060	0.023
1061	0.023
1061	0.023
1061	0.023
1062	0.023
1062	0.023
1063	0.023
1063	0.023
1063	0.023
1064	0.023
1064	0.024
1065	0.024
1065	0.024
1066	0.024
1066	0.024
1066	0.024
1067	0.024
1067	0.024
1068	0.024
1068	0.025
1068	0.025
1069	0.025
1069	0.024
1070	0.024
1070	0.024
1071	0.024
1071	0.024
1071	0.023
1072	0.023
1072	0.023
1073	0.022
1073	0.021
1073	0.021
1074	0.021
1074	0.021
1075	0.021
1075	0.021
1076	0.021
1076	0.021
1076	0.021
1077	0.022
1077	0.022
1078	0.022
1078	0.022
1078	0.022
1079	0.022
1079	0.022
1080	0.021
1080	0.021
1080	0.021
1081	0.021
1081	0.021
1082	0.021
1082	0.021
1083	0.021
1083	0.021
1083	0.021
1084	0.021
1084	0.022
1085	0.022
1085	0.022
1085	0.022
1086	0.023
1086	0.022
1087	0.022
1087	0.021
1088	0.021
1088	0.021
1088	0.021
1089	0.02
1089	0.019
1090	0.018
1090	0.018
1090	0.016
1091	0.016
1091	0.016
1092	0.017
1092	0.017
1092	0.016
1093	0.016
1093	0.017
1094	0.017
1094	0.017
1095	0.017
1095	0.017
1095	0.016
1096	0.016
1096	0.016
1097	0.015
1097	0.015
1097	0.015
1098	0.015
1098	0.014
1099	0.014
1099	0.013
1100	0.013
1100	0.012
1100	0.012
1101	0.011
1101	0.011
1102	0.011
1102	0.01
1102	0.009
1103	0.01
1103	0.01
1104	0.01
1104	0.01
1104	0.009
1105	0.009
1105	0.007
1106	0.006
1106	0.004
1107	0.004
1107	0.003
1107	0.002
1108	0
1108	-0
1109	-0.001
1109	-0.001
1109	-0
1110	0.002
1110	0.003
1111	0.003
1111	0.001
