Data from reversibility-20sec_Absorbance__5140__000000000005140.txt Node

Date: Wed Dec 06 16:46:26 CET 2023
User: Marek
Spectrometer: MAYP115816
Trigger mode: 0
Integration Time (sec): 2.000000E-1
Scans to average: 10
Electric dark correction enabled: true
Nonlinearity correction enabled: true
Boxcar width: 5
XAxis mode: Wavelengths
Number of Pixels in Spectrum: 2068
>>>>>Begin Spectral Data<<<<<
199	-0.226
199	-0.183
200	-0.108
200	-0.052
201	-0.027
201	-0.01
202	-0.001
202	0.005
203	0.013
203	0.016
204	0.031
204	0.047
205	0.058
205	0.06
205	0.056
206	0.056
206	0.057
207	0.06
207	0.06
208	0.059
208	0.06
209	0.062
209	0.058
210	0.059
210	0.059
211	0.061
211	0.062
212	0.058
212	0.06
213	0.065
213	0.066
213	0.067
214	0.07
214	0.074
215	0.073
215	0.073
216	0.076
216	0.075
217	0.079
217	0.08
218	0.074
218	0.079
219	0.082
219	0.083
220	0.085
220	0.085
221	0.088
221	0.088
221	0.094
222	0.098
222	0.104
223	0.115
223	0.118
224	0.124
224	0.133
225	0.143
225	0.153
226	0.16
226	0.175
227	0.185
227	0.198
228	0.213
228	0.226
229	0.24
229	0.262
229	0.285
230	0.31
230	0.34
231	0.375
231	0.412
232	0.448
232	0.492
233	0.535
233	0.587
234	0.636
234	0.69
235	0.741
235	0.794
236	0.843
236	0.895
236	0.944
237	0.996
237	1.042
238	1.09
238	1.135
239	1.183
239	1.226
240	1.263
240	1.298
241	1.334
241	1.369
242	1.401
242	1.436
243	1.466
243	1.493
243	1.518
244	1.542
244	1.562
245	1.582
245	1.604
246	1.624
246	1.64
247	1.653
247	1.667
248	1.683
248	1.697
249	1.707
249	1.716
250	1.726
250	1.736
250	1.74
251	1.745
251	1.751
252	1.758
252	1.76
253	1.761
253	1.761
254	1.761
254	1.762
255	1.761
255	1.762
256	1.764
256	1.763
257	1.763
257	1.761
258	1.76
258	1.761
258	1.761
259	1.761
259	1.76
260	1.759
260	1.76
261	1.76
261	1.761
262	1.763
262	1.765
263	1.768
263	1.768
264	1.768
264	1.769
265	1.769
265	1.771
265	1.77
266	1.771
266	1.771
267	1.769
267	1.77
268	1.767
268	1.768
269	1.77
269	1.768
270	1.768
270	1.765
271	1.762
271	1.762
272	1.759
272	1.759
272	1.756
273	1.753
273	1.748
274	1.744
274	1.741
275	1.735
275	1.732
276	1.725
276	1.717
277	1.711
277	1.7
278	1.69
278	1.678
278	1.666
279	1.652
279	1.636
280	1.617
280	1.592
281	1.564
281	1.533
282	1.499
282	1.464
283	1.429
283	1.393
284	1.358
284	1.323
285	1.29
285	1.259
285	1.231
286	1.207
286	1.185
287	1.165
287	1.148
288	1.133
288	1.121
289	1.11
289	1.1
290	1.092
290	1.084
291	1.077
291	1.071
292	1.066
292	1.06
292	1.056
293	1.051
293	1.047
294	1.043
294	1.039
295	1.036
295	1.033
296	1.03
296	1.026
297	1.023
297	1.02
298	1.017
298	1.014
298	1.011
299	1.008
299	1.005
300	1.001
300	0.999
301	0.995
301	0.993
302	0.989
302	0.987
303	0.984
303	0.981
304	0.978
304	0.976
305	0.973
305	0.971
305	0.968
306	0.965
306	0.962
307	0.96
307	0.957
308	0.954
308	0.951
309	0.948
309	0.945
310	0.942
310	0.939
311	0.936
311	0.933
311	0.93
312	0.926
312	0.923
313	0.919
313	0.915
314	0.911
314	0.907
315	0.902
315	0.898
316	0.894
316	0.889
317	0.884
317	0.879
318	0.874
318	0.869
318	0.864
319	0.859
319	0.853
320	0.848
320	0.842
321	0.836
321	0.83
322	0.824
322	0.818
323	0.812
323	0.806
324	0.799
324	0.793
324	0.786
325	0.779
325	0.773
326	0.766
326	0.759
327	0.752
327	0.745
328	0.738
328	0.732
329	0.725
329	0.718
330	0.711
330	0.704
330	0.697
331	0.69
331	0.683
332	0.676
332	0.67
333	0.663
333	0.656
334	0.649
334	0.642
335	0.636
335	0.629
336	0.622
336	0.616
336	0.61
337	0.604
337	0.597
338	0.591
338	0.585
339	0.58
339	0.574
340	0.568
340	0.563
341	0.557
341	0.551
342	0.546
342	0.541
342	0.535
343	0.53
343	0.525
344	0.52
344	0.516
345	0.511
345	0.506
346	0.501
346	0.497
347	0.493
347	0.489
348	0.484
348	0.48
348	0.477
349	0.473
349	0.469
350	0.466
350	0.462
351	0.459
351	0.456
352	0.452
352	0.449
353	0.446
353	0.443
354	0.44
354	0.437
354	0.434
355	0.431
355	0.428
356	0.425
356	0.422
357	0.419
357	0.416
358	0.414
358	0.411
359	0.409
359	0.407
360	0.404
360	0.403
360	0.401
361	0.399
361	0.397
362	0.395
362	0.393
363	0.391
363	0.39
364	0.387
364	0.386
365	0.384
365	0.382
366	0.38
366	0.378
366	0.376
367	0.374
367	0.372
368	0.371
368	0.369
369	0.368
369	0.366
370	0.365
370	0.363
371	0.362
371	0.36
372	0.359
372	0.358
372	0.357
373	0.355
373	0.354
374	0.353
374	0.352
375	0.351
375	0.35
376	0.349
376	0.348
377	0.347
377	0.346
378	0.345
378	0.344
378	0.343
379	0.342
379	0.341
380	0.34
380	0.339
381	0.338
381	0.337
382	0.337
382	0.336
383	0.335
383	0.334
383	0.333
384	0.333
384	0.332
385	0.331
385	0.331
386	0.33
386	0.329
387	0.329
387	0.328
388	0.328
388	0.327
389	0.327
389	0.326
389	0.325
390	0.325
390	0.324
391	0.324
391	0.324
392	0.323
392	0.323
393	0.322
393	0.322
394	0.321
394	0.321
394	0.32
395	0.319
395	0.319
396	0.319
396	0.318
397	0.317
397	0.317
398	0.316
398	0.316
399	0.315
399	0.315
400	0.315
400	0.314
400	0.314
401	0.314
401	0.313
402	0.313
402	0.313
403	0.312
403	0.312
404	0.312
404	0.311
405	0.311
405	0.31
405	0.31
406	0.31
406	0.309
407	0.309
407	0.308
408	0.308
408	0.307
409	0.307
409	0.307
410	0.306
410	0.306
411	0.306
411	0.305
411	0.305
412	0.305
412	0.304
413	0.304
413	0.304
414	0.303
414	0.303
415	0.303
415	0.302
416	0.302
416	0.302
416	0.301
417	0.301
417	0.3
418	0.3
418	0.3
419	0.299
419	0.299
420	0.299
420	0.298
421	0.298
421	0.297
421	0.297
422	0.297
422	0.297
423	0.296
423	0.296
424	0.296
424	0.295
425	0.295
425	0.295
426	0.294
426	0.294
427	0.293
427	0.293
427	0.293
428	0.292
428	0.292
429	0.291
429	0.291
430	0.291
430	0.291
431	0.291
431	0.291
432	0.291
432	0.29
432	0.29
433	0.29
433	0.29
434	0.29
434	0.29
435	0.29
435	0.29
436	0.29
436	0.289
437	0.289
437	0.289
437	0.289
438	0.288
438	0.288
439	0.288
439	0.288
440	0.287
440	0.287
441	0.287
441	0.287
442	0.287
442	0.287
442	0.286
443	0.286
443	0.286
444	0.286
444	0.286
445	0.286
445	0.286
446	0.286
446	0.286
447	0.285
447	0.285
447	0.285
448	0.285
448	0.285
449	0.285
449	0.285
450	0.285
450	0.285
451	0.285
451	0.285
452	0.285
452	0.285
452	0.285
453	0.285
453	0.285
454	0.285
454	0.285
455	0.285
455	0.285
456	0.285
456	0.285
457	0.285
457	0.285
458	0.284
458	0.284
458	0.284
459	0.284
459	0.284
460	0.284
460	0.284
461	0.284
461	0.284
462	0.284
462	0.284
463	0.284
463	0.285
463	0.285
464	0.285
464	0.285
465	0.285
465	0.285
466	0.285
466	0.285
467	0.285
467	0.285
467	0.285
468	0.286
468	0.286
469	0.286
469	0.287
470	0.287
470	0.287
471	0.288
471	0.288
472	0.289
472	0.289
472	0.29
473	0.29
473	0.29
474	0.291
474	0.291
475	0.291
475	0.292
476	0.292
476	0.293
477	0.293
477	0.294
477	0.294
478	0.295
478	0.295
479	0.296
479	0.296
480	0.296
480	0.297
481	0.298
481	0.298
482	0.299
482	0.299
482	0.3
483	0.301
483	0.302
484	0.302
484	0.303
485	0.304
485	0.304
486	0.305
486	0.306
487	0.306
487	0.307
487	0.308
488	0.309
488	0.31
489	0.311
489	0.312
490	0.314
490	0.315
491	0.316
491	0.317
492	0.318
492	0.319
492	0.321
493	0.322
493	0.323
494	0.324
494	0.325
495	0.326
495	0.328
496	0.329
496	0.331
496	0.332
497	0.333
497	0.334
498	0.336
498	0.337
499	0.338
499	0.34
500	0.341
500	0.343
501	0.344
501	0.345
501	0.346
502	0.347
502	0.348
503	0.349
503	0.35
504	0.351
504	0.352
505	0.354
505	0.355
506	0.356
506	0.357
506	0.358
507	0.359
507	0.361
508	0.362
508	0.363
509	0.364
509	0.365
510	0.366
510	0.368
511	0.369
511	0.37
511	0.371
512	0.372
512	0.374
513	0.374
513	0.375
514	0.377
514	0.378
515	0.378
515	0.379
515	0.38
516	0.38
516	0.381
517	0.382
517	0.382
518	0.383
518	0.383
519	0.383
519	0.384
520	0.384
520	0.384
520	0.384
521	0.384
521	0.384
522	0.383
522	0.383
523	0.383
523	0.382
524	0.382
524	0.382
524	0.381
525	0.381
525	0.38
526	0.38
526	0.379
527	0.379
527	0.378
528	0.378
528	0.377
529	0.376
529	0.375
529	0.374
530	0.373
530	0.372
531	0.371
531	0.37
532	0.369
532	0.368
533	0.366
533	0.365
533	0.364
534	0.363
534	0.361
535	0.36
535	0.358
536	0.357
536	0.355
537	0.354
537	0.352
538	0.351
538	0.349
538	0.347
539	0.346
539	0.344
540	0.343
540	0.341
541	0.339
541	0.337
542	0.335
542	0.333
542	0.331
543	0.329
543	0.327
544	0.325
544	0.323
545	0.321
545	0.319
546	0.318
546	0.316
547	0.313
547	0.311
547	0.309
548	0.307
548	0.305
549	0.303
549	0.301
550	0.299
550	0.297
551	0.295
551	0.293
551	0.291
552	0.289
552	0.287
553	0.285
553	0.283
554	0.281
554	0.278
555	0.276
555	0.274
556	0.272
556	0.271
556	0.269
557	0.267
557	0.266
558	0.265
558	0.263
559	0.262
559	0.26
560	0.258
560	0.257
560	0.255
561	0.253
561	0.252
562	0.249
562	0.247
563	0.245
563	0.242
564	0.24
564	0.239
564	0.237
565	0.235
565	0.233
566	0.232
566	0.23
567	0.229
567	0.227
568	0.226
568	0.224
568	0.223
569	0.222
569	0.22
570	0.218
570	0.216
571	0.215
571	0.213
572	0.212
572	0.21
573	0.209
573	0.208
573	0.207
574	0.205
574	0.204
575	0.203
575	0.202
576	0.201
576	0.2
577	0.198
577	0.197
577	0.195
578	0.194
578	0.193
579	0.192
579	0.192
580	0.19
580	0.189
581	0.187
581	0.186
581	0.186
582	0.185
582	0.185
583	0.184
583	0.183
584	0.181
584	0.179
585	0.178
585	0.177
585	0.176
586	0.175
586	0.174
587	0.172
587	0.171
588	0.17
588	0.169
589	0.168
589	0.168
590	0.167
590	0.167
590	0.166
591	0.166
591	0.165
592	0.164
592	0.163
593	0.162
593	0.162
594	0.161
594	0.16
594	0.159
595	0.158
595	0.157
596	0.156
596	0.155
597	0.156
597	0.155
598	0.155
598	0.154
598	0.154
599	0.153
599	0.153
600	0.152
600	0.151
601	0.15
601	0.15
602	0.149
602	0.148
602	0.148
603	0.147
603	0.147
604	0.146
604	0.146
605	0.146
605	0.145
606	0.144
606	0.143
606	0.142
607	0.142
607	0.141
608	0.14
608	0.139
609	0.139
609	0.138
610	0.138
610	0.137
610	0.137
611	0.137
611	0.136
612	0.136
612	0.136
613	0.136
613	0.135
614	0.135
614	0.134
614	0.134
615	0.133
615	0.133
616	0.132
616	0.132
617	0.132
617	0.131
618	0.131
618	0.13
618	0.13
619	0.13
619	0.13
620	0.13
620	0.13
621	0.129
621	0.128
622	0.128
622	0.127
622	0.126
623	0.125
623	0.125
624	0.124
624	0.123
625	0.122
625	0.122
626	0.121
626	0.121
626	0.121
627	0.12
627	0.12
628	0.12
628	0.119
629	0.119
629	0.119
630	0.119
630	0.119
630	0.119
631	0.119
631	0.118
632	0.118
632	0.118
633	0.118
633	0.117
634	0.118
634	0.118
634	0.117
635	0.117
635	0.117
636	0.116
636	0.116
637	0.115
637	0.115
638	0.114
638	0.114
638	0.113
639	0.113
639	0.113
640	0.113
640	0.112
641	0.112
641	0.112
642	0.113
642	0.113
642	0.113
643	0.113
643	0.113
644	0.113
644	0.113
645	0.113
645	0.112
646	0.112
646	0.112
646	0.111
647	0.111
647	0.11
648	0.11
648	0.109
649	0.109
649	0.109
650	0.108
650	0.108
650	0.109
651	0.108
651	0.108
652	0.107
652	0.107
653	0.107
653	0.109
653	0.115
654	0.092
654	0.075
655	0.073
655	0.073
656	0.073
656	0.073
657	0.074
657	0.074
657	0.074
658	0.073
658	0.065
659	0.081
659	0.102
660	0.108
660	0.108
661	0.108
661	0.107
661	0.107
662	0.107
662	0.106
663	0.106
663	0.106
664	0.105
664	0.105
665	0.105
665	0.105
665	0.105
666	0.105
666	0.105
667	0.105
667	0.105
668	0.106
668	0.106
669	0.106
669	0.106
669	0.106
670	0.106
670	0.106
671	0.105
671	0.105
672	0.104
672	0.103
672	0.103
673	0.102
673	0.101
674	0.101
674	0.1
675	0.1
675	0.1
676	0.1
676	0.1
676	0.1
677	0.1
677	0.1
678	0.099
678	0.099
679	0.098
679	0.098
680	0.098
680	0.097
680	0.097
681	0.097
681	0.097
682	0.097
682	0.097
683	0.098
683	0.098
684	0.099
684	0.098
684	0.098
685	0.098
685	0.099
686	0.099
686	0.098
687	0.098
687	0.099
687	0.099
688	0.099
688	0.099
689	0.099
689	0.1
690	0.099
690	0.099
691	0.098
691	0.098
691	0.098
692	0.097
692	0.097
693	0.097
693	0.097
694	0.096
694	0.096
695	0.097
695	0.098
695	0.098
696	0.098
696	0.098
697	0.099
697	0.099
698	0.099
698	0.099
698	0.099
699	0.099
699	0.099
700	0.098
700	0.098
701	0.097
701	0.097
702	0.096
702	0.096
702	0.096
703	0.095
703	0.095
704	0.094
704	0.094
705	0.094
705	0.094
705	0.095
706	0.095
706	0.095
707	0.095
707	0.096
708	0.096
708	0.096
709	0.097
709	0.096
709	0.096
710	0.096
710	0.096
711	0.096
711	0.096
712	0.096
712	0.095
713	0.095
713	0.094
713	0.094
714	0.093
714	0.093
715	0.092
715	0.091
716	0.091
716	0.091
716	0.09
717	0.089
717	0.089
718	0.088
718	0.088
719	0.088
719	0.089
720	0.089
720	0.089
720	0.089
721	0.089
721	0.09
722	0.09
722	0.09
723	0.091
723	0.091
723	0.091
724	0.091
724	0.091
725	0.09
725	0.09
726	0.09
726	0.089
727	0.089
727	0.089
727	0.088
728	0.088
728	0.088
729	0.088
729	0.088
730	0.087
730	0.088
730	0.088
731	0.088
731	0.089
732	0.089
732	0.09
733	0.09
733	0.09
734	0.09
734	0.091
734	0.091
735	0.092
735	0.092
736	0.091
736	0.091
737	0.091
737	0.091
737	0.091
738	0.09
738	0.089
739	0.089
739	0.088
740	0.087
740	0.087
741	0.087
741	0.087
741	0.086
742	0.086
742	0.086
743	0.087
743	0.087
744	0.088
744	0.088
744	0.088
745	0.088
745	0.088
746	0.088
746	0.088
747	0.088
747	0.087
748	0.087
748	0.086
748	0.086
749	0.085
749	0.084
750	0.084
750	0.083
751	0.083
751	0.082
751	0.082
752	0.081
752	0.081
753	0.08
753	0.08
754	0.08
754	0.079
754	0.08
755	0.08
755	0.08
756	0.08
756	0.079
757	0.079
757	0.079
758	0.079
758	0.079
758	0.08
759	0.08
759	0.08
760	0.08
760	0.08
761	0.08
761	0.081
761	0.081
762	0.081
762	0.082
763	0.082
763	0.081
764	0.08
764	0.08
764	0.08
765	0.079
765	0.078
766	0.078
766	0.077
767	0.077
767	0.076
768	0.075
768	0.075
768	0.075
769	0.075
769	0.076
770	0.076
770	0.077
771	0.077
771	0.077
771	0.078
772	0.079
772	0.08
773	0.08
773	0.08
774	0.079
774	0.079
775	0.079
775	0.078
775	0.078
776	0.077
776	0.077
777	0.076
777	0.076
778	0.075
778	0.075
778	0.075
779	0.075
779	0.074
780	0.074
780	0.074
781	0.074
781	0.073
781	0.073
782	0.073
782	0.073
783	0.073
783	0.074
784	0.074
784	0.074
784	0.075
785	0.075
785	0.075
786	0.076
786	0.076
787	0.076
787	0.076
788	0.076
788	0.075
788	0.074
789	0.073
789	0.073
790	0.072
790	0.071
791	0.07
791	0.069
791	0.068
792	0.068
792	0.067
793	0.066
793	0.066
794	0.065
794	0.065
794	0.065
795	0.065
795	0.065
796	0.066
796	0.066
797	0.066
797	0.067
797	0.067
798	0.068
798	0.068
799	0.068
799	0.068
800	0.068
800	0.068
801	0.067
801	0.067
801	0.066
802	0.066
802	0.066
803	0.066
803	0.065
804	0.066
804	0.066
804	0.066
805	0.066
805	0.065
806	0.065
806	0.065
807	0.065
807	0.065
807	0.065
808	0.065
808	0.065
809	0.065
809	0.065
810	0.066
810	0.066
810	0.066
811	0.066
811	0.067
812	0.067
812	0.066
813	0.066
813	0.066
813	0.066
814	0.066
814	0.066
815	0.066
815	0.066
816	0.066
816	0.066
817	0.065
817	0.065
817	0.065
818	0.065
818	0.065
819	0.065
819	0.065
820	0.064
820	0.064
820	0.064
821	0.064
821	0.064
822	0.064
822	0.064
823	0.064
823	0.064
823	0.064
824	0.065
824	0.065
825	0.066
825	0.066
826	0.066
826	0.066
826	0.066
827	0.067
827	0.067
828	0.067
828	0.067
829	0.067
829	0.067
829	0.067
830	0.067
830	0.067
831	0.068
831	0.067
832	0.067
832	0.067
832	0.066
833	0.066
833	0.065
834	0.065
834	0.064
835	0.064
835	0.063
835	0.063
836	0.062
836	0.062
837	0.061
837	0.061
838	0.06
838	0.06
839	0.059
839	0.059
839	0.058
840	0.057
840	0.057
841	0.056
841	0.055
842	0.055
842	0.054
842	0.054
843	0.053
843	0.052
844	0.052
844	0.051
845	0.05
845	0.049
845	0.049
846	0.048
846	0.048
847	0.048
847	0.048
848	0.048
848	0.048
848	0.049
849	0.05
849	0.051
850	0.051
850	0.052
851	0.052
851	0.053
851	0.053
852	0.053
852	0.053
853	0.053
853	0.053
854	0.054
854	0.054
854	0.055
855	0.055
855	0.056
856	0.056
856	0.057
857	0.057
857	0.058
857	0.058
858	0.058
858	0.057
859	0.056
859	0.055
860	0.054
860	0.053
860	0.053
861	0.052
861	0.052
862	0.051
862	0.05
863	0.05
863	0.049
863	0.049
864	0.05
864	0.05
865	0.05
865	0.051
866	0.051
866	0.051
866	0.051
867	0.052
867	0.052
868	0.053
868	0.053
869	0.053
869	0.053
869	0.053
870	0.052
870	0.052
871	0.052
871	0.052
872	0.051
872	0.051
872	0.051
873	0.051
873	0.05
874	0.05
874	0.05
875	0.05
875	0.051
875	0.051
876	0.051
876	0.051
877	0.051
877	0.052
878	0.052
878	0.052
878	0.052
879	0.052
879	0.052
880	0.052
880	0.052
881	0.051
881	0.051
881	0.051
882	0.05
882	0.05
883	0.05
883	0.05
884	0.05
884	0.05
884	0.05
885	0.05
885	0.049
886	0.049
886	0.049
887	0.048
887	0.048
887	0.047
888	0.046
888	0.045
889	0.045
889	0.044
890	0.044
890	0.044
890	0.043
891	0.043
891	0.043
892	0.043
892	0.043
893	0.042
893	0.042
893	0.042
894	0.042
894	0.042
895	0.041
895	0.042
895	0.042
896	0.042
896	0.043
897	0.044
897	0.044
898	0.045
898	0.046
898	0.046
899	0.047
899	0.047
900	0.048
900	0.048
901	0.048
901	0.048
901	0.048
902	0.048
902	0.048
903	0.047
903	0.047
904	0.047
904	0.046
904	0.046
905	0.045
905	0.045
906	0.045
906	0.045
907	0.045
907	0.045
907	0.045
908	0.045
908	0.045
909	0.045
909	0.045
910	0.045
910	0.044
910	0.044
911	0.044
911	0.043
912	0.043
912	0.043
913	0.043
913	0.043
913	0.043
914	0.044
914	0.044
915	0.044
915	0.044
916	0.044
916	0.044
916	0.044
917	0.044
917	0.044
918	0.044
918	0.044
918	0.044
919	0.044
919	0.044
920	0.045
920	0.045
921	0.045
921	0.045
921	0.045
922	0.046
922	0.046
923	0.046
923	0.047
924	0.047
924	0.048
924	0.048
925	0.049
925	0.049
926	0.05
926	0.05
927	0.05
927	0.05
927	0.05
928	0.049
928	0.049
929	0.048
929	0.048
930	0.047
930	0.047
930	0.046
931	0.045
931	0.045
932	0.045
932	0.044
933	0.044
933	0.044
933	0.044
934	0.043
934	0.043
935	0.042
935	0.042
935	0.042
936	0.041
936	0.041
937	0.041
937	0.041
938	0.041
938	0.041
938	0.041
939	0.041
939	0.041
940	0.041
940	0.042
941	0.042
941	0.042
941	0.043
942	0.043
942	0.043
943	0.043
943	0.043
944	0.043
944	0.044
944	0.044
945	0.044
945	0.044
946	0.044
946	0.044
946	0.044
947	0.044
947	0.044
948	0.044
948	0.044
949	0.043
949	0.043
949	0.043
950	0.044
950	0.044
951	0.044
951	0.044
952	0.044
952	0.044
952	0.044
953	0.044
953	0.043
954	0.043
954	0.042
955	0.042
955	0.041
955	0.041
956	0.041
956	0.041
957	0.041
957	0.041
957	0.04
958	0.04
958	0.04
959	0.04
959	0.04
960	0.04
960	0.04
960	0.04
961	0.04
961	0.04
962	0.04
962	0.04
963	0.04
963	0.04
963	0.04
964	0.04
964	0.041
965	0.041
965	0.042
966	0.042
966	0.042
966	0.042
967	0.043
967	0.043
968	0.043
968	0.043
968	0.043
969	0.042
969	0.042
970	0.041
970	0.041
971	0.04
971	0.039
971	0.039
972	0.038
972	0.038
973	0.038
973	0.037
974	0.037
974	0.037
974	0.037
975	0.037
975	0.038
976	0.038
976	0.038
976	0.038
977	0.038
977	0.038
978	0.037
978	0.037
979	0.037
979	0.036
979	0.036
980	0.036
980	0.035
981	0.034
981	0.034
982	0.034
982	0.034
982	0.034
983	0.034
983	0.033
984	0.034
984	0.033
984	0.034
985	0.034
985	0.034
986	0.034
986	0.034
987	0.034
987	0.034
987	0.035
988	0.035
988	0.035
989	0.035
989	0.035
990	0.035
990	0.035
990	0.035
991	0.035
991	0.035
992	0.035
992	0.034
992	0.034
993	0.033
993	0.032
994	0.031
994	0.031
995	0.03
995	0.029
995	0.029
996	0.029
996	0.029
997	0.029
997	0.029
997	0.03
998	0.03
998	0.031
999	0.032
999	0.033
1000	0.034
1000	0.034
1000	0.035
1001	0.035
1001	0.035
1002	0.035
1002	0.035
1003	0.035
1003	0.034
1003	0.033
1004	0.033
1004	0.032
1005	0.031
1005	0.031
1005	0.03
1006	0.029
1006	0.029
1007	0.029
1007	0.029
1008	0.029
1008	0.029
1008	0.029
1009	0.03
1009	0.03
1010	0.03
1010	0.03
1010	0.03
1011	0.03
1011	0.029
1012	0.029
1012	0.029
1013	0.029
1013	0.028
1013	0.028
1014	0.027
1014	0.027
1015	0.027
1015	0.027
1016	0.027
1016	0.027
1016	0.027
1017	0.027
1017	0.027
1018	0.028
1018	0.028
1018	0.029
1019	0.029
1019	0.029
1020	0.03
1020	0.03
1021	0.03
1021	0.031
1021	0.031
1022	0.031
1022	0.031
1023	0.031
1023	0.032
1023	0.032
1024	0.032
1024	0.032
1025	0.032
1025	0.032
1026	0.032
1026	0.032
1026	0.032
1027	0.032
1027	0.032
1028	0.033
1028	0.033
1028	0.033
1029	0.033
1029	0.033
1030	0.034
1030	0.034
1031	0.034
1031	0.035
1031	0.035
1032	0.035
1032	0.035
1033	0.035
1033	0.035
1033	0.035
1034	0.035
1034	0.034
1035	0.034
1035	0.034
1036	0.033
1036	0.033
1036	0.033
1037	0.033
1037	0.033
1038	0.033
1038	0.033
1039	0.032
1039	0.033
1039	0.033
1040	0.033
1040	0.033
1041	0.033
1041	0.033
1041	0.033
1042	0.033
1042	0.032
1043	0.032
1043	0.032
1044	0.032
1044	0.032
1044	0.032
1045	0.032
1045	0.033
1046	0.033
1046	0.033
1046	0.034
1047	0.034
1047	0.034
1048	0.035
1048	0.035
1049	0.035
1049	0.035
1049	0.035
1050	0.035
1050	0.034
1051	0.034
1051	0.033
1051	0.033
1052	0.032
1052	0.031
1053	0.031
1053	0.03
1053	0.03
1054	0.029
1054	0.029
1055	0.029
1055	0.028
1056	0.028
1056	0.028
1056	0.027
1057	0.027
1057	0.026
1058	0.026
1058	0.025
1058	0.025
1059	0.024
1059	0.024
1060	0.023
1060	0.023
1061	0.022
1061	0.022
1061	0.023
1062	0.022
1062	0.022
1063	0.022
1063	0.022
1063	0.021
1064	0.021
1064	0.022
1065	0.022
1065	0.021
1066	0.021
1066	0.021
1066	0.021
1067	0.021
1067	0.021
1068	0.021
1068	0.021
1068	0.02
1069	0.02
1069	0.019
1070	0.019
1070	0.019
1071	0.018
1071	0.018
1071	0.018
1072	0.017
1072	0.018
1073	0.017
1073	0.017
1073	0.017
1074	0.018
1074	0.018
1075	0.018
1075	0.018
1076	0.019
1076	0.019
1076	0.019
1077	0.019
1077	0.02
1078	0.019
1078	0.019
1078	0.019
1079	0.018
1079	0.018
1080	0.018
1080	0.018
1080	0.018
1081	0.018
1081	0.018
1082	0.018
1082	0.019
1083	0.019
1083	0.019
1083	0.019
1084	0.019
1084	0.019
1085	0.019
1085	0.019
1085	0.019
1086	0.02
1086	0.019
1087	0.02
1087	0.019
1088	0.019
1088	0.02
1088	0.02
1089	0.019
1089	0.019
1090	0.018
1090	0.018
1090	0.017
1091	0.017
1091	0.016
1092	0.016
1092	0.016
1092	0.016
1093	0.015
1093	0.015
1094	0.016
1094	0.015
1095	0.015
1095	0.015
1095	0.015
1096	0.015
1096	0.014
1097	0.013
1097	0.012
1097	0.012
1098	0.012
1098	0.01
1099	0.01
1099	0.008
1100	0.007
1100	0.005
1100	0.005
1101	0.003
1101	0.002
1102	0.001
1102	0
1102	-0.001
1103	-0.002
1103	-0.003
1104	-0.003
1104	-0.003
1104	-0.004
1105	-0.006
1105	-0.007
1106	-0.009
1106	-0.01
1107	-0.011
1107	-0.012
1107	-0.013
1108	-0.014
1108	-0.015
1109	-0.017
1109	-0.018
1109	-0.016
1110	-0.016
1110	-0.017
1111	-0.019
1111	-0.02
