Data from reversibility-20sec_Absorbance__7407__000000000007407.txt Node

Date: Thu Dec 07 05:22:07 CET 2023
User: Marek
Spectrometer: MAYP115816
Trigger mode: 0
Integration Time (sec): 2.000000E-1
Scans to average: 10
Electric dark correction enabled: true
Nonlinearity correction enabled: true
Boxcar width: 5
XAxis mode: Wavelengths
Number of Pixels in Spectrum: 2068
>>>>>Begin Spectral Data<<<<<
199	-0.13
199	-0.106
200	-0.041
200	0.006
201	0.03
201	0.046
202	0.057
202	0.063
203	0.071
203	0.073
204	0.087
204	0.1
205	0.111
205	0.112
205	0.112
206	0.113
206	0.115
207	0.117
207	0.118
208	0.115
208	0.117
209	0.119
209	0.115
210	0.117
210	0.119
211	0.121
211	0.124
212	0.12
212	0.122
213	0.125
213	0.13
213	0.13
214	0.135
214	0.136
215	0.138
215	0.139
216	0.139
216	0.136
217	0.141
217	0.141
218	0.139
218	0.139
219	0.143
219	0.142
220	0.147
220	0.147
221	0.147
221	0.15
221	0.158
222	0.162
222	0.168
223	0.177
223	0.183
224	0.189
224	0.197
225	0.206
225	0.215
226	0.229
226	0.24
227	0.247
227	0.257
228	0.269
228	0.282
229	0.299
229	0.322
229	0.344
230	0.368
230	0.398
231	0.431
231	0.47
232	0.509
232	0.554
233	0.599
233	0.647
234	0.698
234	0.752
235	0.806
235	0.861
236	0.912
236	0.962
236	1.01
237	1.062
237	1.11
238	1.157
238	1.203
239	1.246
239	1.286
240	1.324
240	1.359
241	1.395
241	1.427
242	1.46
242	1.49
243	1.52
243	1.545
243	1.571
244	1.594
244	1.617
245	1.634
245	1.658
246	1.676
246	1.69
247	1.703
247	1.715
248	1.728
248	1.741
249	1.751
249	1.758
250	1.765
250	1.774
250	1.776
251	1.782
251	1.788
252	1.793
252	1.796
253	1.795
253	1.793
254	1.794
254	1.795
255	1.793
255	1.793
256	1.792
256	1.79
257	1.79
257	1.788
258	1.787
258	1.789
258	1.789
259	1.787
259	1.787
260	1.787
260	1.786
261	1.785
261	1.787
262	1.788
262	1.789
263	1.792
263	1.792
264	1.792
264	1.793
265	1.793
265	1.794
265	1.795
266	1.796
266	1.796
267	1.793
267	1.793
268	1.792
268	1.792
269	1.793
269	1.792
270	1.791
270	1.79
271	1.788
271	1.787
272	1.784
272	1.784
272	1.782
273	1.778
273	1.773
274	1.768
274	1.763
275	1.757
275	1.752
276	1.746
276	1.738
277	1.731
277	1.721
278	1.71
278	1.699
278	1.686
279	1.672
279	1.655
280	1.635
280	1.611
281	1.582
281	1.549
282	1.513
282	1.475
283	1.438
283	1.401
284	1.363
284	1.326
285	1.292
285	1.26
285	1.23
286	1.203
286	1.18
287	1.16
287	1.142
288	1.126
288	1.113
289	1.101
289	1.092
290	1.083
290	1.075
291	1.068
291	1.061
292	1.056
292	1.051
292	1.046
293	1.041
293	1.037
294	1.033
294	1.029
295	1.025
295	1.022
296	1.018
296	1.015
297	1.011
297	1.008
298	1.004
298	1.001
298	0.998
299	0.994
299	0.991
300	0.988
300	0.985
301	0.981
301	0.979
302	0.976
302	0.974
303	0.971
303	0.968
304	0.966
304	0.963
305	0.96
305	0.958
305	0.955
306	0.952
306	0.949
307	0.946
307	0.943
308	0.94
308	0.937
309	0.934
309	0.931
310	0.927
310	0.924
311	0.921
311	0.918
311	0.914
312	0.911
312	0.907
313	0.903
313	0.899
314	0.895
314	0.891
315	0.887
315	0.882
316	0.878
316	0.873
317	0.869
317	0.864
318	0.858
318	0.853
318	0.848
319	0.842
319	0.837
320	0.831
320	0.825
321	0.819
321	0.813
322	0.806
322	0.8
323	0.793
323	0.786
324	0.78
324	0.773
324	0.766
325	0.759
325	0.752
326	0.745
326	0.738
327	0.731
327	0.725
328	0.718
328	0.711
329	0.704
329	0.697
330	0.69
330	0.682
330	0.675
331	0.668
331	0.661
332	0.654
332	0.647
333	0.64
333	0.633
334	0.626
334	0.619
335	0.612
335	0.605
336	0.599
336	0.592
336	0.585
337	0.579
337	0.572
338	0.566
338	0.56
339	0.554
339	0.547
340	0.541
340	0.536
341	0.53
341	0.524
342	0.518
342	0.513
342	0.508
343	0.502
343	0.497
344	0.492
344	0.487
345	0.482
345	0.478
346	0.473
346	0.469
347	0.465
347	0.46
348	0.456
348	0.452
348	0.448
349	0.444
349	0.44
350	0.436
350	0.433
351	0.429
351	0.426
352	0.423
352	0.419
353	0.416
353	0.413
354	0.41
354	0.408
354	0.404
355	0.401
355	0.398
356	0.395
356	0.393
357	0.389
357	0.386
358	0.384
358	0.381
359	0.378
359	0.376
360	0.374
360	0.372
360	0.37
361	0.368
361	0.366
362	0.364
362	0.363
363	0.361
363	0.359
364	0.357
364	0.355
365	0.353
365	0.351
366	0.349
366	0.348
366	0.346
367	0.344
367	0.342
368	0.34
368	0.339
369	0.337
369	0.336
370	0.334
370	0.333
371	0.331
371	0.33
372	0.328
372	0.327
372	0.326
373	0.325
373	0.324
374	0.323
374	0.322
375	0.321
375	0.32
376	0.319
376	0.318
377	0.317
377	0.316
378	0.315
378	0.314
378	0.313
379	0.312
379	0.311
380	0.31
380	0.309
381	0.308
381	0.308
382	0.307
382	0.306
383	0.306
383	0.305
383	0.304
384	0.303
384	0.303
385	0.302
385	0.302
386	0.301
386	0.301
387	0.3
387	0.3
388	0.299
388	0.298
389	0.298
389	0.298
389	0.297
390	0.297
390	0.296
391	0.296
391	0.295
392	0.295
392	0.294
393	0.294
393	0.294
394	0.293
394	0.293
394	0.292
395	0.292
395	0.292
396	0.291
396	0.291
397	0.29
397	0.29
398	0.289
398	0.289
399	0.289
399	0.288
400	0.288
400	0.288
400	0.287
401	0.287
401	0.286
402	0.286
402	0.286
403	0.285
403	0.285
404	0.284
404	0.284
405	0.283
405	0.283
405	0.283
406	0.282
406	0.282
407	0.281
407	0.281
408	0.281
408	0.281
409	0.28
409	0.28
410	0.28
410	0.279
411	0.279
411	0.279
411	0.279
412	0.278
412	0.278
413	0.277
413	0.277
414	0.277
414	0.276
415	0.276
415	0.275
416	0.275
416	0.275
416	0.274
417	0.274
417	0.274
418	0.273
418	0.273
419	0.273
419	0.272
420	0.272
420	0.271
421	0.271
421	0.27
421	0.27
422	0.27
422	0.269
423	0.269
423	0.269
424	0.268
424	0.268
425	0.268
425	0.268
426	0.267
426	0.267
427	0.267
427	0.266
427	0.266
428	0.266
428	0.265
429	0.265
429	0.265
430	0.264
430	0.264
431	0.264
431	0.264
432	0.264
432	0.263
432	0.263
433	0.263
433	0.263
434	0.263
434	0.263
435	0.263
435	0.263
436	0.262
436	0.262
437	0.262
437	0.262
437	0.261
438	0.261
438	0.261
439	0.261
439	0.26
440	0.26
440	0.26
441	0.26
441	0.259
442	0.259
442	0.259
442	0.259
443	0.259
443	0.259
444	0.259
444	0.258
445	0.258
445	0.258
446	0.258
446	0.258
447	0.258
447	0.258
447	0.258
448	0.258
448	0.257
449	0.257
449	0.257
450	0.257
450	0.257
451	0.257
451	0.257
452	0.257
452	0.257
452	0.257
453	0.257
453	0.257
454	0.257
454	0.257
455	0.256
455	0.256
456	0.256
456	0.256
457	0.256
457	0.256
458	0.256
458	0.256
458	0.255
459	0.255
459	0.255
460	0.255
460	0.255
461	0.255
461	0.255
462	0.255
462	0.255
463	0.255
463	0.255
463	0.256
464	0.255
464	0.255
465	0.255
465	0.255
466	0.255
466	0.255
467	0.256
467	0.256
467	0.256
468	0.256
468	0.256
469	0.256
469	0.257
470	0.257
470	0.258
471	0.258
471	0.258
472	0.259
472	0.259
472	0.259
473	0.259
473	0.259
474	0.259
474	0.259
475	0.259
475	0.26
476	0.26
476	0.26
477	0.261
477	0.261
477	0.261
478	0.262
478	0.262
479	0.263
479	0.263
480	0.263
480	0.264
481	0.264
481	0.265
482	0.265
482	0.266
482	0.266
483	0.267
483	0.267
484	0.268
484	0.268
485	0.268
485	0.269
486	0.269
486	0.27
487	0.27
487	0.27
487	0.271
488	0.272
488	0.272
489	0.273
489	0.275
490	0.276
490	0.277
491	0.278
491	0.279
492	0.28
492	0.281
492	0.282
493	0.283
493	0.284
494	0.285
494	0.286
495	0.287
495	0.287
496	0.288
496	0.289
496	0.29
497	0.291
497	0.292
498	0.293
498	0.294
499	0.295
499	0.296
500	0.298
500	0.299
501	0.3
501	0.301
501	0.301
502	0.302
502	0.303
503	0.304
503	0.305
504	0.306
504	0.307
505	0.308
505	0.309
506	0.31
506	0.311
506	0.312
507	0.313
507	0.314
508	0.315
508	0.316
509	0.316
509	0.317
510	0.318
510	0.319
511	0.32
511	0.321
511	0.321
512	0.322
512	0.323
513	0.324
513	0.325
514	0.325
514	0.326
515	0.327
515	0.327
515	0.327
516	0.328
516	0.328
517	0.329
517	0.329
518	0.329
518	0.33
519	0.33
519	0.33
520	0.331
520	0.331
520	0.332
521	0.332
521	0.332
522	0.331
522	0.331
523	0.331
523	0.331
524	0.331
524	0.331
524	0.331
525	0.331
525	0.33
526	0.33
526	0.33
527	0.329
527	0.329
528	0.328
528	0.328
529	0.327
529	0.326
529	0.325
530	0.324
530	0.323
531	0.323
531	0.321
532	0.321
532	0.319
533	0.318
533	0.317
533	0.317
534	0.316
534	0.315
535	0.314
535	0.313
536	0.312
536	0.311
537	0.31
537	0.308
538	0.307
538	0.306
538	0.305
539	0.303
539	0.302
540	0.301
540	0.299
541	0.298
541	0.296
542	0.295
542	0.293
542	0.291
543	0.29
543	0.288
544	0.287
544	0.285
545	0.284
545	0.282
546	0.281
546	0.279
547	0.277
547	0.275
547	0.274
548	0.273
548	0.271
549	0.27
549	0.268
550	0.267
550	0.265
551	0.263
551	0.261
551	0.26
552	0.258
552	0.256
553	0.255
553	0.253
554	0.252
554	0.25
555	0.248
555	0.247
556	0.245
556	0.244
556	0.243
557	0.242
557	0.241
558	0.24
558	0.238
559	0.237
559	0.236
560	0.235
560	0.233
560	0.232
561	0.231
561	0.229
562	0.227
562	0.225
563	0.224
563	0.222
564	0.22
564	0.219
564	0.218
565	0.217
565	0.215
566	0.214
566	0.212
567	0.211
567	0.21
568	0.209
568	0.207
568	0.206
569	0.205
569	0.203
570	0.202
570	0.2
571	0.199
571	0.198
572	0.196
572	0.195
573	0.194
573	0.193
573	0.192
574	0.191
574	0.19
575	0.189
575	0.189
576	0.188
576	0.187
577	0.185
577	0.184
577	0.184
578	0.183
578	0.182
579	0.181
579	0.181
580	0.18
580	0.178
581	0.177
581	0.176
581	0.176
582	0.175
582	0.174
583	0.174
583	0.173
584	0.172
584	0.17
585	0.169
585	0.169
585	0.168
586	0.167
586	0.167
587	0.166
587	0.165
588	0.164
588	0.163
589	0.163
589	0.162
590	0.162
590	0.161
590	0.161
591	0.16
591	0.159
592	0.158
592	0.157
593	0.157
593	0.156
594	0.155
594	0.154
594	0.153
595	0.152
595	0.152
596	0.151
596	0.15
597	0.151
597	0.151
598	0.15
598	0.15
598	0.149
599	0.149
599	0.148
600	0.148
600	0.147
601	0.146
601	0.146
602	0.145
602	0.144
602	0.144
603	0.143
603	0.143
604	0.143
604	0.143
605	0.143
605	0.142
606	0.142
606	0.141
606	0.14
607	0.14
607	0.139
608	0.139
608	0.138
609	0.137
609	0.136
610	0.136
610	0.135
610	0.135
611	0.135
611	0.134
612	0.134
612	0.134
613	0.134
613	0.134
614	0.134
614	0.133
614	0.133
615	0.133
615	0.133
616	0.133
616	0.133
617	0.132
617	0.132
618	0.131
618	0.131
618	0.131
619	0.131
619	0.131
620	0.13
620	0.13
621	0.13
621	0.129
622	0.128
622	0.128
622	0.127
623	0.127
623	0.127
624	0.126
624	0.126
625	0.125
625	0.125
626	0.125
626	0.124
626	0.125
627	0.124
627	0.124
628	0.124
628	0.124
629	0.124
629	0.123
630	0.123
630	0.122
630	0.122
631	0.122
631	0.122
632	0.121
632	0.12
633	0.12
633	0.12
634	0.12
634	0.12
634	0.12
635	0.119
635	0.119
636	0.119
636	0.119
637	0.119
637	0.118
638	0.118
638	0.118
638	0.117
639	0.117
639	0.117
640	0.117
640	0.116
641	0.116
641	0.116
642	0.116
642	0.116
642	0.116
643	0.115
643	0.115
644	0.115
644	0.116
645	0.115
645	0.115
646	0.115
646	0.115
646	0.115
647	0.115
647	0.115
648	0.114
648	0.113
649	0.112
649	0.112
650	0.112
650	0.112
650	0.112
651	0.112
651	0.112
652	0.112
652	0.112
653	0.113
653	0.114
653	0.12
654	0.096
654	0.078
655	0.076
655	0.076
656	0.076
656	0.077
657	0.077
657	0.077
657	0.077
658	0.076
658	0.069
659	0.086
659	0.108
660	0.113
660	0.113
661	0.112
661	0.112
661	0.111
662	0.111
662	0.11
663	0.109
663	0.109
664	0.109
664	0.108
665	0.108
665	0.108
665	0.108
666	0.108
666	0.108
667	0.109
667	0.109
668	0.109
668	0.109
669	0.11
669	0.11
669	0.11
670	0.111
670	0.11
671	0.11
671	0.11
672	0.109
672	0.109
672	0.108
673	0.108
673	0.107
674	0.107
674	0.107
675	0.106
675	0.106
676	0.106
676	0.106
676	0.107
677	0.107
677	0.107
678	0.107
678	0.107
679	0.106
679	0.106
680	0.106
680	0.106
680	0.106
681	0.106
681	0.106
682	0.106
682	0.107
683	0.107
683	0.107
684	0.108
684	0.108
684	0.107
685	0.107
685	0.108
686	0.108
686	0.107
687	0.107
687	0.107
687	0.106
688	0.106
688	0.106
689	0.106
689	0.107
690	0.107
690	0.106
691	0.106
691	0.107
691	0.107
692	0.107
692	0.107
693	0.107
693	0.108
694	0.108
694	0.107
695	0.108
695	0.109
695	0.109
696	0.109
696	0.109
697	0.109
697	0.109
698	0.109
698	0.108
698	0.109
699	0.109
699	0.108
700	0.108
700	0.108
701	0.108
701	0.107
702	0.106
702	0.106
702	0.106
703	0.105
703	0.104
704	0.104
704	0.103
705	0.103
705	0.103
705	0.103
706	0.103
706	0.103
707	0.102
707	0.103
708	0.103
708	0.103
709	0.103
709	0.103
709	0.103
710	0.103
710	0.103
711	0.103
711	0.104
712	0.104
712	0.103
713	0.103
713	0.103
713	0.103
714	0.103
714	0.103
715	0.102
715	0.102
716	0.101
716	0.101
716	0.1
717	0.1
717	0.1
718	0.1
718	0.1
719	0.1
719	0.101
720	0.101
720	0.102
720	0.103
721	0.103
721	0.104
722	0.105
722	0.105
723	0.105
723	0.105
723	0.105
724	0.105
724	0.104
725	0.103
725	0.102
726	0.101
726	0.101
727	0.1
727	0.099
727	0.099
728	0.099
728	0.099
729	0.1
729	0.1
730	0.1
730	0.1
730	0.101
731	0.101
731	0.101
732	0.102
732	0.102
733	0.102
733	0.102
734	0.102
734	0.102
734	0.102
735	0.102
735	0.102
736	0.102
736	0.102
737	0.101
737	0.101
737	0.101
738	0.101
738	0.1
739	0.1
739	0.1
740	0.1
740	0.1
741	0.1
741	0.101
741	0.101
742	0.101
742	0.102
743	0.103
743	0.103
744	0.103
744	0.103
744	0.103
745	0.102
745	0.102
746	0.102
746	0.101
747	0.1
747	0.1
748	0.1
748	0.1
748	0.1
749	0.1
749	0.1
750	0.1
750	0.1
751	0.101
751	0.101
751	0.101
752	0.101
752	0.101
753	0.1
753	0.1
754	0.099
754	0.099
754	0.098
755	0.098
755	0.097
756	0.097
756	0.095
757	0.094
757	0.094
758	0.094
758	0.094
758	0.094
759	0.094
759	0.094
760	0.094
760	0.094
761	0.094
761	0.095
761	0.095
762	0.095
762	0.096
763	0.096
763	0.095
764	0.095
764	0.095
764	0.095
765	0.094
765	0.094
766	0.094
766	0.093
767	0.093
767	0.092
768	0.092
768	0.092
768	0.092
769	0.092
769	0.092
770	0.092
770	0.093
771	0.093
771	0.093
771	0.093
772	0.094
772	0.094
773	0.095
773	0.095
774	0.095
774	0.095
775	0.095
775	0.096
775	0.096
776	0.097
776	0.097
777	0.098
777	0.098
778	0.098
778	0.098
778	0.098
779	0.097
779	0.096
780	0.095
780	0.094
781	0.093
781	0.092
781	0.091
782	0.09
782	0.089
783	0.089
783	0.09
784	0.09
784	0.09
784	0.09
785	0.091
785	0.091
786	0.091
786	0.091
787	0.092
787	0.091
788	0.091
788	0.09
788	0.09
789	0.089
789	0.089
790	0.089
790	0.089
791	0.088
791	0.088
791	0.087
792	0.087
792	0.087
793	0.086
793	0.086
794	0.085
794	0.085
794	0.085
795	0.084
795	0.084
796	0.084
796	0.084
797	0.084
797	0.084
797	0.084
798	0.085
798	0.085
799	0.085
799	0.085
800	0.085
800	0.084
801	0.085
801	0.085
801	0.085
802	0.086
802	0.086
803	0.086
803	0.087
804	0.087
804	0.088
804	0.088
805	0.088
805	0.087
806	0.087
806	0.087
807	0.087
807	0.086
807	0.086
808	0.086
808	0.086
809	0.085
809	0.085
810	0.085
810	0.085
810	0.085
811	0.085
811	0.085
812	0.086
812	0.085
813	0.085
813	0.085
813	0.085
814	0.086
814	0.086
815	0.086
815	0.086
816	0.085
816	0.085
817	0.084
817	0.084
817	0.083
818	0.083
818	0.083
819	0.083
819	0.082
820	0.081
820	0.081
820	0.081
821	0.081
821	0.081
822	0.081
822	0.081
823	0.081
823	0.081
823	0.081
824	0.082
824	0.083
825	0.084
825	0.085
826	0.085
826	0.086
826	0.086
827	0.087
827	0.087
828	0.088
828	0.088
829	0.088
829	0.088
829	0.088
830	0.089
830	0.089
831	0.09
831	0.09
832	0.089
832	0.089
832	0.089
833	0.089
833	0.088
834	0.088
834	0.087
835	0.086
835	0.086
835	0.085
836	0.084
836	0.084
837	0.083
837	0.083
838	0.082
838	0.081
839	0.08
839	0.079
839	0.079
840	0.078
840	0.077
841	0.076
841	0.075
842	0.074
842	0.073
842	0.072
843	0.072
843	0.071
844	0.071
844	0.07
845	0.07
845	0.069
845	0.069
846	0.069
846	0.069
847	0.07
847	0.07
848	0.071
848	0.071
848	0.071
849	0.071
849	0.071
850	0.071
850	0.071
851	0.071
851	0.071
851	0.07
852	0.07
852	0.07
853	0.07
853	0.07
854	0.07
854	0.071
854	0.072
855	0.073
855	0.074
856	0.075
856	0.076
857	0.077
857	0.078
857	0.078
858	0.078
858	0.078
859	0.078
859	0.077
860	0.077
860	0.076
860	0.076
861	0.075
861	0.074
862	0.074
862	0.073
863	0.073
863	0.073
863	0.073
864	0.073
864	0.073
865	0.074
865	0.074
866	0.074
866	0.074
866	0.074
867	0.075
867	0.075
868	0.075
868	0.075
869	0.075
869	0.075
869	0.074
870	0.074
870	0.074
871	0.073
871	0.073
872	0.073
872	0.072
872	0.072
873	0.072
873	0.071
874	0.07
874	0.07
875	0.07
875	0.07
875	0.07
876	0.069
876	0.069
877	0.069
877	0.069
878	0.069
878	0.069
878	0.069
879	0.069
879	0.07
880	0.07
880	0.07
881	0.07
881	0.07
881	0.07
882	0.07
882	0.07
883	0.069
883	0.069
884	0.069
884	0.069
884	0.069
885	0.069
885	0.069
886	0.068
886	0.068
887	0.068
887	0.068
887	0.067
888	0.067
888	0.067
889	0.067
889	0.067
890	0.067
890	0.068
890	0.068
891	0.068
891	0.068
892	0.068
892	0.068
893	0.067
893	0.067
893	0.066
894	0.066
894	0.065
895	0.065
895	0.064
895	0.064
896	0.064
896	0.065
897	0.065
897	0.065
898	0.066
898	0.066
898	0.066
899	0.067
899	0.067
900	0.067
900	0.067
901	0.067
901	0.066
901	0.066
902	0.066
902	0.066
903	0.065
903	0.065
904	0.065
904	0.065
904	0.064
905	0.064
905	0.063
906	0.063
906	0.063
907	0.063
907	0.063
907	0.063
908	0.063
908	0.062
909	0.062
909	0.062
910	0.062
910	0.062
910	0.061
911	0.061
911	0.06
912	0.06
912	0.06
913	0.059
913	0.059
913	0.059
914	0.059
914	0.058
915	0.058
915	0.058
916	0.057
916	0.057
916	0.057
917	0.056
917	0.056
918	0.056
918	0.055
918	0.055
919	0.054
919	0.054
920	0.054
920	0.054
921	0.054
921	0.053
921	0.053
922	0.053
922	0.053
923	0.054
923	0.054
924	0.055
924	0.055
924	0.056
925	0.056
925	0.057
926	0.057
926	0.058
927	0.058
927	0.058
927	0.059
928	0.059
928	0.059
929	0.06
929	0.06
930	0.06
930	0.061
930	0.061
931	0.061
931	0.061
932	0.061
932	0.061
933	0.061
933	0.061
933	0.061
934	0.06
934	0.06
935	0.06
935	0.059
935	0.058
936	0.058
936	0.057
937	0.056
937	0.056
938	0.055
938	0.054
938	0.053
939	0.052
939	0.052
940	0.051
940	0.051
941	0.051
941	0.051
941	0.052
942	0.052
942	0.052
943	0.053
943	0.054
944	0.054
944	0.055
944	0.056
945	0.056
945	0.057
946	0.057
946	0.057
946	0.058
947	0.058
947	0.058
948	0.058
948	0.057
949	0.057
949	0.056
949	0.056
950	0.055
950	0.054
951	0.054
951	0.053
952	0.052
952	0.052
952	0.051
953	0.051
953	0.051
954	0.051
954	0.051
955	0.051
955	0.051
955	0.051
956	0.052
956	0.053
957	0.053
957	0.054
957	0.055
958	0.055
958	0.055
959	0.056
959	0.056
960	0.056
960	0.057
960	0.057
961	0.056
961	0.056
962	0.056
962	0.055
963	0.055
963	0.054
963	0.054
964	0.054
964	0.054
965	0.054
965	0.053
966	0.054
966	0.054
966	0.054
967	0.054
967	0.055
968	0.055
968	0.055
968	0.055
969	0.055
969	0.054
970	0.053
970	0.053
971	0.052
971	0.051
971	0.05
972	0.05
972	0.049
973	0.048
973	0.048
974	0.048
974	0.048
974	0.049
975	0.049
975	0.05
976	0.05
976	0.051
976	0.051
977	0.052
977	0.052
978	0.052
978	0.053
979	0.053
979	0.053
979	0.053
980	0.054
980	0.054
981	0.053
981	0.053
982	0.053
982	0.053
982	0.053
983	0.053
983	0.052
984	0.052
984	0.052
984	0.052
985	0.051
985	0.051
986	0.051
986	0.05
987	0.05
987	0.05
987	0.05
988	0.05
988	0.049
989	0.049
989	0.049
990	0.048
990	0.048
990	0.048
991	0.048
991	0.048
992	0.047
992	0.046
992	0.046
993	0.045
993	0.044
994	0.044
994	0.043
995	0.042
995	0.042
995	0.042
996	0.042
996	0.041
997	0.042
997	0.042
997	0.042
998	0.043
998	0.043
999	0.043
999	0.044
1000	0.044
1000	0.045
1000	0.045
1001	0.045
1001	0.045
1002	0.045
1002	0.045
1003	0.045
1003	0.044
1003	0.044
1004	0.043
1004	0.043
1005	0.042
1005	0.042
1005	0.041
1006	0.041
1006	0.04
1007	0.04
1007	0.039
1008	0.039
1008	0.039
1008	0.039
1009	0.039
1009	0.039
1010	0.038
1010	0.038
1010	0.038
1011	0.038
1011	0.038
1012	0.038
1012	0.038
1013	0.038
1013	0.037
1013	0.037
1014	0.037
1014	0.037
1015	0.037
1015	0.037
1016	0.037
1016	0.037
1016	0.037
1017	0.037
1017	0.037
1018	0.038
1018	0.038
1018	0.038
1019	0.038
1019	0.039
1020	0.039
1020	0.039
1021	0.04
1021	0.04
1021	0.041
1022	0.041
1022	0.041
1023	0.042
1023	0.042
1023	0.042
1024	0.042
1024	0.042
1025	0.042
1025	0.042
1026	0.042
1026	0.042
1026	0.042
1027	0.042
1027	0.042
1028	0.042
1028	0.042
1028	0.042
1029	0.042
1029	0.042
1030	0.042
1030	0.043
1031	0.043
1031	0.043
1031	0.043
1032	0.043
1032	0.044
1033	0.044
1033	0.044
1033	0.044
1034	0.044
1034	0.044
1035	0.044
1035	0.044
1036	0.044
1036	0.044
1036	0.045
1037	0.045
1037	0.044
1038	0.044
1038	0.044
1039	0.044
1039	0.044
1039	0.044
1040	0.044
1040	0.044
1041	0.044
1041	0.044
1041	0.044
1042	0.044
1042	0.043
1043	0.043
1043	0.043
1044	0.042
1044	0.042
1044	0.042
1045	0.041
1045	0.041
1046	0.04
1046	0.04
1046	0.04
1047	0.04
1047	0.04
1048	0.04
1048	0.04
1049	0.04
1049	0.041
1049	0.04
1050	0.041
1050	0.04
1051	0.04
1051	0.04
1051	0.039
1052	0.039
1052	0.038
1053	0.037
1053	0.036
1053	0.036
1054	0.035
1054	0.035
1055	0.034
1055	0.034
1056	0.034
1056	0.033
1056	0.033
1057	0.033
1057	0.033
1058	0.032
1058	0.032
1058	0.031
1059	0.031
1059	0.031
1060	0.031
1060	0.03
1061	0.03
1061	0.03
1061	0.03
1062	0.03
1062	0.03
1063	0.03
1063	0.03
1063	0.03
1064	0.03
1064	0.03
1065	0.03
1065	0.03
1066	0.03
1066	0.03
1066	0.03
1067	0.029
1067	0.03
1068	0.03
1068	0.03
1068	0.029
1069	0.029
1069	0.029
1070	0.029
1070	0.029
1071	0.029
1071	0.029
1071	0.029
1072	0.029
1072	0.029
1073	0.028
1073	0.028
1073	0.029
1074	0.029
1074	0.029
1075	0.029
1075	0.029
1076	0.03
1076	0.03
1076	0.03
1077	0.031
1077	0.031
1078	0.031
1078	0.031
1078	0.032
1079	0.032
1079	0.031
1080	0.031
1080	0.031
1080	0.031
1081	0.031
1081	0.031
1082	0.032
1082	0.032
1083	0.032
1083	0.032
1083	0.032
1084	0.032
1084	0.032
1085	0.032
1085	0.032
1085	0.032
1086	0.032
1086	0.031
1087	0.031
1087	0.03
1088	0.031
1088	0.031
1088	0.031
1089	0.03
1089	0.03
1090	0.029
1090	0.029
1090	0.028
1091	0.028
1091	0.028
1092	0.028
1092	0.028
1092	0.028
1093	0.027
1093	0.028
1094	0.028
1094	0.027
1095	0.027
1095	0.027
1095	0.026
1096	0.026
1096	0.024
1097	0.024
1097	0.023
1097	0.023
1098	0.023
1098	0.022
1099	0.021
1099	0.02
1100	0.019
1100	0.018
1100	0.017
1101	0.017
1101	0.016
1102	0.016
1102	0.015
1102	0.013
1103	0.013
1103	0.013
1104	0.013
1104	0.013
1104	0.012
1105	0.012
1105	0.01
1106	0.009
1106	0.008
1107	0.007
1107	0.007
1107	0.006
1108	0.006
1108	0.006
1109	0.004
1109	0.004
1109	0.003
1110	0.005
1110	0.004
1111	0.004
1111	0.005
