Data from reversibility-20sec_Absorbance__2856__000000000002856.txt Node

Date: Wed Dec 06 04:05:05 CET 2023
User: Marek
Spectrometer: MAYP115816
Trigger mode: 0
Integration Time (sec): 2.000000E-1
Scans to average: 10
Electric dark correction enabled: true
Nonlinearity correction enabled: true
Boxcar width: 5
XAxis mode: Wavelengths
Number of Pixels in Spectrum: 2068
>>>>>Begin Spectral Data<<<<<
199	-0.118
199	-0.082
200	-0.015
200	0.033
201	0.062
201	0.082
202	0.096
202	0.103
203	0.112
203	0.117
204	0.131
204	0.147
205	0.16
205	0.166
205	0.165
206	0.164
206	0.162
207	0.162
207	0.163
208	0.16
208	0.156
209	0.159
209	0.154
210	0.153
210	0.152
211	0.152
211	0.157
212	0.155
212	0.156
213	0.159
213	0.162
213	0.166
214	0.168
214	0.171
215	0.174
215	0.175
216	0.179
216	0.178
217	0.182
217	0.182
218	0.179
218	0.182
219	0.186
219	0.188
220	0.19
220	0.189
221	0.19
221	0.191
221	0.195
222	0.201
222	0.205
223	0.213
223	0.216
224	0.221
224	0.229
225	0.24
225	0.248
226	0.257
226	0.265
227	0.274
227	0.284
228	0.301
228	0.311
229	0.327
229	0.35
229	0.369
230	0.393
230	0.427
231	0.46
231	0.503
232	0.541
232	0.587
233	0.631
233	0.68
234	0.735
234	0.787
235	0.841
235	0.896
236	0.943
236	0.996
236	1.048
237	1.103
237	1.15
238	1.199
238	1.253
239	1.301
239	1.346
240	1.391
240	1.428
241	1.469
241	1.506
242	1.541
242	1.578
243	1.612
243	1.642
243	1.668
244	1.693
244	1.715
245	1.734
245	1.76
246	1.78
246	1.803
247	1.817
247	1.833
248	1.85
248	1.866
249	1.877
249	1.884
250	1.894
250	1.902
250	1.906
251	1.911
251	1.909
252	1.914
252	1.913
253	1.913
253	1.911
254	1.908
254	1.912
255	1.914
255	1.914
256	1.913
256	1.913
257	1.914
257	1.914
258	1.916
258	1.916
258	1.917
259	1.92
259	1.922
260	1.921
260	1.924
261	1.925
261	1.932
262	1.936
262	1.939
263	1.944
263	1.947
264	1.951
264	1.955
265	1.958
265	1.961
265	1.964
266	1.966
266	1.965
267	1.967
267	1.97
268	1.97
268	1.97
269	1.974
269	1.977
270	1.975
270	1.975
271	1.972
271	1.973
272	1.97
272	1.968
272	1.962
273	1.954
273	1.946
274	1.936
274	1.925
275	1.918
275	1.91
276	1.903
276	1.893
277	1.884
277	1.872
278	1.859
278	1.844
278	1.826
279	1.804
279	1.775
280	1.741
280	1.701
281	1.653
281	1.601
282	1.549
282	1.497
283	1.447
283	1.4
284	1.355
284	1.312
285	1.273
285	1.237
285	1.205
286	1.178
286	1.154
287	1.134
287	1.117
288	1.103
288	1.09
289	1.08
289	1.071
290	1.064
290	1.057
291	1.052
291	1.047
292	1.042
292	1.038
292	1.035
293	1.031
293	1.028
294	1.025
294	1.022
295	1.02
295	1.017
296	1.014
296	1.012
297	1.009
297	1.007
298	1.004
298	1.001
298	0.998
299	0.996
299	0.993
300	0.99
300	0.988
301	0.985
301	0.983
302	0.981
302	0.978
303	0.976
303	0.974
304	0.972
304	0.97
305	0.968
305	0.966
305	0.964
306	0.962
306	0.959
307	0.957
307	0.955
308	0.952
308	0.95
309	0.947
309	0.945
310	0.942
310	0.939
311	0.936
311	0.933
311	0.93
312	0.927
312	0.923
313	0.919
313	0.915
314	0.912
314	0.908
315	0.903
315	0.899
316	0.895
316	0.891
317	0.886
317	0.881
318	0.876
318	0.871
318	0.866
319	0.86
319	0.855
320	0.849
320	0.843
321	0.837
321	0.831
322	0.825
322	0.818
323	0.812
323	0.806
324	0.799
324	0.793
324	0.786
325	0.779
325	0.772
326	0.765
326	0.758
327	0.752
327	0.745
328	0.737
328	0.731
329	0.723
329	0.716
330	0.709
330	0.702
330	0.695
331	0.688
331	0.681
332	0.674
332	0.667
333	0.66
333	0.652
334	0.645
334	0.639
335	0.632
335	0.625
336	0.618
336	0.611
336	0.604
337	0.598
337	0.592
338	0.585
338	0.579
339	0.573
339	0.567
340	0.561
340	0.556
341	0.55
341	0.544
342	0.539
342	0.533
342	0.528
343	0.523
343	0.518
344	0.513
344	0.508
345	0.503
345	0.498
346	0.493
346	0.489
347	0.484
347	0.48
348	0.476
348	0.472
348	0.468
349	0.464
349	0.461
350	0.457
350	0.454
351	0.45
351	0.447
352	0.443
352	0.44
353	0.437
353	0.434
354	0.431
354	0.429
354	0.426
355	0.423
355	0.42
356	0.417
356	0.414
357	0.411
357	0.408
358	0.406
358	0.403
359	0.401
359	0.398
360	0.396
360	0.394
360	0.392
361	0.39
361	0.388
362	0.387
362	0.385
363	0.383
363	0.381
364	0.379
364	0.377
365	0.375
365	0.374
366	0.372
366	0.37
366	0.369
367	0.367
367	0.365
368	0.364
368	0.362
369	0.361
369	0.359
370	0.358
370	0.356
371	0.355
371	0.354
372	0.353
372	0.351
372	0.35
373	0.349
373	0.348
374	0.347
374	0.346
375	0.345
375	0.344
376	0.343
376	0.342
377	0.341
377	0.34
378	0.339
378	0.338
378	0.337
379	0.336
379	0.335
380	0.334
380	0.333
381	0.333
381	0.332
382	0.332
382	0.331
383	0.331
383	0.33
383	0.329
384	0.329
384	0.328
385	0.328
385	0.327
386	0.327
386	0.326
387	0.326
387	0.325
388	0.325
388	0.324
389	0.324
389	0.323
389	0.323
390	0.322
390	0.322
391	0.321
391	0.321
392	0.321
392	0.32
393	0.32
393	0.319
394	0.319
394	0.318
394	0.318
395	0.318
395	0.317
396	0.317
396	0.317
397	0.316
397	0.316
398	0.315
398	0.315
399	0.315
399	0.315
400	0.314
400	0.314
400	0.314
401	0.313
401	0.313
402	0.312
402	0.312
403	0.312
403	0.311
404	0.311
404	0.31
405	0.31
405	0.31
405	0.309
406	0.309
406	0.309
407	0.308
407	0.308
408	0.307
408	0.307
409	0.307
409	0.307
410	0.306
410	0.306
411	0.306
411	0.306
411	0.305
412	0.305
412	0.305
413	0.304
413	0.304
414	0.304
414	0.303
415	0.303
415	0.303
416	0.302
416	0.302
416	0.302
417	0.301
417	0.301
418	0.301
418	0.3
419	0.3
419	0.299
420	0.299
420	0.298
421	0.298
421	0.297
421	0.297
422	0.297
422	0.297
423	0.296
423	0.296
424	0.295
424	0.295
425	0.295
425	0.295
426	0.295
426	0.294
427	0.294
427	0.293
427	0.293
428	0.293
428	0.292
429	0.292
429	0.291
430	0.291
430	0.291
431	0.291
431	0.291
432	0.29
432	0.29
432	0.29
433	0.29
433	0.289
434	0.289
434	0.289
435	0.289
435	0.289
436	0.289
436	0.289
437	0.288
437	0.288
437	0.288
438	0.288
438	0.287
439	0.287
439	0.287
440	0.286
440	0.286
441	0.286
441	0.285
442	0.285
442	0.285
442	0.284
443	0.284
443	0.284
444	0.284
444	0.283
445	0.283
445	0.283
446	0.283
446	0.282
447	0.282
447	0.282
447	0.282
448	0.282
448	0.281
449	0.281
449	0.281
450	0.281
450	0.281
451	0.28
451	0.28
452	0.28
452	0.28
452	0.28
453	0.279
453	0.279
454	0.279
454	0.279
455	0.278
455	0.278
456	0.278
456	0.278
457	0.278
457	0.278
458	0.277
458	0.277
458	0.277
459	0.277
459	0.277
460	0.277
460	0.277
461	0.276
461	0.276
462	0.276
462	0.276
463	0.276
463	0.275
463	0.275
464	0.275
464	0.274
465	0.274
465	0.274
466	0.274
466	0.274
467	0.274
467	0.274
467	0.273
468	0.273
468	0.273
469	0.273
469	0.273
470	0.273
470	0.273
471	0.273
471	0.273
472	0.273
472	0.273
472	0.273
473	0.273
473	0.273
474	0.273
474	0.273
475	0.273
475	0.273
476	0.273
476	0.273
477	0.273
477	0.273
477	0.273
478	0.273
478	0.272
479	0.273
479	0.273
480	0.273
480	0.273
481	0.273
481	0.273
482	0.273
482	0.273
482	0.273
483	0.274
483	0.274
484	0.274
484	0.274
485	0.274
485	0.274
486	0.274
486	0.274
487	0.274
487	0.274
487	0.275
488	0.275
488	0.274
489	0.275
489	0.276
490	0.276
490	0.276
491	0.277
491	0.278
492	0.278
492	0.279
492	0.279
493	0.28
493	0.281
494	0.281
494	0.282
495	0.282
495	0.282
496	0.282
496	0.283
496	0.284
497	0.284
497	0.284
498	0.285
498	0.285
499	0.285
499	0.286
500	0.287
500	0.287
501	0.288
501	0.288
501	0.288
502	0.289
502	0.289
503	0.29
503	0.29
504	0.291
504	0.291
505	0.292
505	0.292
506	0.293
506	0.293
506	0.293
507	0.294
507	0.294
508	0.295
508	0.295
509	0.296
509	0.297
510	0.297
510	0.298
511	0.298
511	0.299
511	0.3
512	0.3
512	0.301
513	0.301
513	0.302
514	0.302
514	0.303
515	0.304
515	0.304
515	0.304
516	0.305
516	0.305
517	0.306
517	0.306
518	0.306
518	0.306
519	0.306
519	0.307
520	0.307
520	0.307
520	0.307
521	0.308
521	0.308
522	0.308
522	0.308
523	0.309
523	0.309
524	0.309
524	0.31
524	0.31
525	0.31
525	0.31
526	0.31
526	0.31
527	0.31
527	0.31
528	0.31
528	0.31
529	0.31
529	0.31
529	0.31
530	0.31
530	0.31
531	0.31
531	0.31
532	0.31
532	0.309
533	0.309
533	0.309
533	0.308
534	0.308
534	0.308
535	0.307
535	0.307
536	0.307
536	0.307
537	0.306
537	0.306
538	0.306
538	0.305
538	0.305
539	0.305
539	0.305
540	0.304
540	0.304
541	0.304
541	0.303
542	0.303
542	0.303
542	0.303
543	0.302
543	0.302
544	0.302
544	0.302
545	0.301
545	0.301
546	0.301
546	0.3
547	0.299
547	0.299
547	0.298
548	0.297
548	0.297
549	0.296
549	0.295
550	0.295
550	0.295
551	0.294
551	0.294
551	0.293
552	0.293
552	0.293
553	0.292
553	0.292
554	0.292
554	0.291
555	0.29
555	0.289
556	0.289
556	0.288
556	0.288
557	0.288
557	0.287
558	0.287
558	0.287
559	0.287
559	0.286
560	0.286
560	0.286
560	0.286
561	0.286
561	0.285
562	0.285
562	0.284
563	0.283
563	0.282
564	0.281
564	0.28
564	0.28
565	0.279
565	0.279
566	0.278
566	0.278
567	0.278
567	0.278
568	0.277
568	0.277
568	0.276
569	0.276
569	0.275
570	0.274
570	0.273
571	0.273
571	0.273
572	0.272
572	0.272
573	0.271
573	0.271
573	0.271
574	0.27
574	0.27
575	0.27
575	0.27
576	0.27
576	0.269
577	0.268
577	0.268
577	0.267
578	0.267
578	0.266
579	0.266
579	0.266
580	0.265
580	0.265
581	0.264
581	0.264
581	0.264
582	0.264
582	0.264
583	0.263
583	0.263
584	0.262
584	0.261
585	0.261
585	0.26
585	0.26
586	0.26
586	0.259
587	0.258
587	0.258
588	0.257
588	0.256
589	0.256
589	0.256
590	0.256
590	0.256
590	0.256
591	0.256
591	0.255
592	0.254
592	0.254
593	0.253
593	0.253
594	0.252
594	0.251
594	0.251
595	0.25
595	0.25
596	0.249
596	0.249
597	0.25
597	0.251
598	0.251
598	0.251
598	0.251
599	0.251
599	0.25
600	0.25
600	0.25
601	0.249
601	0.249
602	0.248
602	0.247
602	0.247
603	0.246
603	0.246
604	0.246
604	0.246
605	0.246
605	0.246
606	0.245
606	0.244
606	0.244
607	0.244
607	0.243
608	0.243
608	0.242
609	0.242
609	0.242
610	0.241
610	0.24
610	0.24
611	0.24
611	0.24
612	0.24
612	0.241
613	0.241
613	0.241
614	0.241
614	0.24
614	0.24
615	0.24
615	0.24
616	0.24
616	0.24
617	0.24
617	0.24
618	0.239
618	0.239
618	0.24
619	0.24
619	0.24
620	0.24
620	0.24
621	0.239
621	0.239
622	0.238
622	0.238
622	0.237
623	0.237
623	0.237
624	0.236
624	0.236
625	0.235
625	0.235
626	0.235
626	0.234
626	0.234
627	0.234
627	0.234
628	0.234
628	0.234
629	0.233
629	0.233
630	0.233
630	0.233
630	0.233
631	0.233
631	0.233
632	0.232
632	0.232
633	0.232
633	0.232
634	0.233
634	0.233
634	0.233
635	0.233
635	0.232
636	0.232
636	0.232
637	0.231
637	0.231
638	0.231
638	0.23
638	0.229
639	0.229
639	0.229
640	0.228
640	0.228
641	0.228
641	0.228
642	0.228
642	0.228
642	0.229
643	0.229
643	0.229
644	0.229
644	0.23
645	0.23
645	0.23
646	0.23
646	0.23
646	0.23
647	0.229
647	0.229
648	0.228
648	0.228
649	0.228
649	0.227
650	0.227
650	0.227
650	0.227
651	0.227
651	0.227
652	0.227
652	0.227
653	0.228
653	0.229
653	0.235
654	0.183
654	0.145
655	0.147
655	0.148
656	0.148
656	0.148
657	0.149
657	0.149
657	0.149
658	0.148
658	0.137
659	0.174
659	0.225
660	0.229
660	0.229
661	0.228
661	0.228
661	0.227
662	0.226
662	0.226
663	0.226
663	0.226
664	0.225
664	0.225
665	0.225
665	0.225
665	0.225
666	0.226
666	0.226
667	0.226
667	0.227
668	0.227
668	0.227
669	0.227
669	0.228
669	0.228
670	0.228
670	0.228
671	0.228
671	0.228
672	0.228
672	0.227
672	0.227
673	0.227
673	0.227
674	0.227
674	0.226
675	0.226
675	0.226
676	0.226
676	0.226
676	0.226
677	0.226
677	0.226
678	0.226
678	0.226
679	0.226
679	0.226
680	0.226
680	0.226
680	0.226
681	0.226
681	0.226
682	0.227
682	0.227
683	0.227
683	0.228
684	0.228
684	0.228
684	0.228
685	0.228
685	0.228
686	0.228
686	0.228
687	0.228
687	0.228
687	0.228
688	0.228
688	0.228
689	0.229
689	0.229
690	0.229
690	0.229
691	0.229
691	0.23
691	0.23
692	0.23
692	0.23
693	0.231
693	0.231
694	0.231
694	0.23
695	0.231
695	0.232
695	0.232
696	0.232
696	0.232
697	0.232
697	0.232
698	0.232
698	0.231
698	0.231
699	0.232
699	0.231
700	0.231
700	0.231
701	0.231
701	0.231
702	0.231
702	0.231
702	0.231
703	0.231
703	0.231
704	0.231
704	0.231
705	0.231
705	0.231
705	0.231
706	0.231
706	0.231
707	0.231
707	0.231
708	0.231
708	0.231
709	0.231
709	0.231
709	0.231
710	0.231
710	0.231
711	0.231
711	0.232
712	0.232
712	0.232
713	0.232
713	0.233
713	0.233
714	0.233
714	0.233
715	0.233
715	0.233
716	0.232
716	0.232
716	0.231
717	0.231
717	0.23
718	0.23
718	0.229
719	0.23
719	0.23
720	0.23
720	0.23
720	0.231
721	0.231
721	0.232
722	0.232
722	0.232
723	0.233
723	0.233
723	0.233
724	0.233
724	0.233
725	0.233
725	0.232
726	0.232
726	0.231
727	0.231
727	0.231
727	0.23
728	0.23
728	0.23
729	0.23
729	0.23
730	0.231
730	0.231
730	0.232
731	0.233
731	0.233
732	0.234
732	0.234
733	0.234
733	0.235
734	0.235
734	0.235
734	0.234
735	0.234
735	0.234
736	0.233
736	0.233
737	0.232
737	0.232
737	0.232
738	0.231
738	0.231
739	0.23
739	0.231
740	0.231
740	0.231
741	0.232
741	0.232
741	0.232
742	0.233
742	0.234
743	0.235
743	0.235
744	0.236
744	0.236
744	0.235
745	0.235
745	0.235
746	0.234
746	0.234
747	0.234
747	0.234
748	0.235
748	0.235
748	0.235
749	0.235
749	0.236
750	0.237
750	0.237
751	0.238
751	0.238
751	0.238
752	0.237
752	0.237
753	0.236
753	0.236
754	0.235
754	0.235
754	0.234
755	0.234
755	0.233
756	0.233
756	0.232
757	0.232
757	0.232
758	0.232
758	0.232
758	0.232
759	0.232
759	0.232
760	0.232
760	0.232
761	0.233
761	0.233
761	0.234
762	0.234
762	0.235
763	0.235
763	0.236
764	0.236
764	0.236
764	0.236
765	0.236
765	0.236
766	0.237
766	0.237
767	0.236
767	0.235
768	0.235
768	0.235
768	0.235
769	0.235
769	0.235
770	0.235
770	0.235
771	0.235
771	0.235
771	0.235
772	0.236
772	0.236
773	0.236
773	0.237
774	0.237
774	0.238
775	0.238
775	0.238
775	0.238
776	0.238
776	0.239
777	0.239
777	0.239
778	0.238
778	0.238
778	0.238
779	0.237
779	0.237
780	0.236
780	0.236
781	0.236
781	0.235
781	0.235
782	0.235
782	0.235
783	0.235
783	0.236
784	0.235
784	0.236
784	0.236
785	0.236
785	0.236
786	0.236
786	0.236
787	0.237
787	0.236
788	0.236
788	0.236
788	0.236
789	0.235
789	0.235
790	0.236
790	0.235
791	0.236
791	0.236
791	0.236
792	0.237
792	0.237
793	0.238
793	0.238
794	0.238
794	0.238
794	0.238
795	0.238
795	0.238
796	0.238
796	0.238
797	0.238
797	0.238
797	0.237
798	0.237
798	0.238
799	0.237
799	0.237
800	0.237
800	0.236
801	0.236
801	0.236
801	0.236
802	0.236
802	0.236
803	0.237
803	0.237
804	0.237
804	0.238
804	0.238
805	0.239
805	0.239
806	0.239
806	0.239
807	0.239
807	0.239
807	0.239
808	0.239
808	0.239
809	0.238
809	0.238
810	0.238
810	0.238
810	0.238
811	0.238
811	0.239
812	0.239
812	0.24
813	0.24
813	0.24
813	0.241
814	0.241
814	0.242
815	0.242
815	0.242
816	0.242
816	0.242
817	0.241
817	0.241
817	0.241
818	0.241
818	0.241
819	0.24
819	0.239
820	0.239
820	0.238
820	0.238
821	0.239
821	0.239
822	0.239
822	0.24
823	0.24
823	0.24
823	0.241
824	0.242
824	0.244
825	0.244
825	0.245
826	0.245
826	0.245
826	0.245
827	0.246
827	0.245
828	0.245
828	0.245
829	0.245
829	0.245
829	0.245
830	0.245
830	0.245
831	0.246
831	0.246
832	0.246
832	0.247
832	0.247
833	0.247
833	0.247
834	0.247
834	0.247
835	0.247
835	0.247
835	0.247
836	0.247
836	0.247
837	0.247
837	0.247
838	0.246
838	0.246
839	0.245
839	0.245
839	0.244
840	0.244
840	0.243
841	0.242
841	0.241
842	0.241
842	0.24
842	0.24
843	0.24
843	0.239
844	0.239
844	0.239
845	0.239
845	0.239
845	0.239
846	0.239
846	0.24
847	0.24
847	0.24
848	0.24
848	0.24
848	0.24
849	0.24
849	0.24
850	0.24
850	0.24
851	0.239
851	0.239
851	0.239
852	0.238
852	0.238
853	0.237
853	0.237
854	0.237
854	0.238
854	0.239
855	0.239
855	0.24
856	0.241
856	0.242
857	0.242
857	0.243
857	0.244
858	0.244
858	0.244
859	0.243
859	0.243
860	0.242
860	0.241
860	0.24
861	0.239
861	0.238
862	0.236
862	0.235
863	0.234
863	0.233
863	0.233
864	0.232
864	0.232
865	0.232
865	0.232
866	0.232
866	0.232
866	0.232
867	0.232
867	0.232
868	0.232
868	0.232
869	0.232
869	0.232
869	0.231
870	0.23
870	0.23
871	0.23
871	0.23
872	0.229
872	0.229
872	0.229
873	0.229
873	0.228
874	0.228
874	0.228
875	0.228
875	0.227
875	0.227
876	0.227
876	0.226
877	0.226
877	0.226
878	0.226
878	0.227
878	0.227
879	0.228
879	0.228
880	0.229
880	0.229
881	0.229
881	0.23
881	0.23
882	0.229
882	0.229
883	0.229
883	0.228
884	0.228
884	0.228
884	0.227
885	0.227
885	0.227
886	0.226
886	0.226
887	0.226
887	0.225
887	0.224
888	0.224
888	0.224
889	0.223
889	0.223
890	0.223
890	0.222
890	0.222
891	0.222
891	0.221
892	0.221
892	0.221
893	0.221
893	0.22
893	0.22
894	0.219
894	0.219
895	0.218
895	0.218
895	0.217
896	0.216
896	0.216
897	0.215
897	0.214
898	0.213
898	0.212
898	0.212
899	0.211
899	0.211
900	0.211
900	0.211
901	0.211
901	0.211
901	0.211
902	0.211
902	0.211
903	0.21
903	0.21
904	0.21
904	0.209
904	0.209
905	0.209
905	0.208
906	0.209
906	0.209
907	0.21
907	0.21
907	0.211
908	0.211
908	0.212
909	0.212
909	0.213
910	0.213
910	0.213
910	0.212
911	0.212
911	0.211
912	0.21
912	0.21
913	0.209
913	0.208
913	0.208
914	0.207
914	0.207
915	0.206
915	0.206
916	0.206
916	0.206
916	0.205
917	0.205
917	0.204
918	0.204
918	0.203
918	0.202
919	0.202
919	0.201
920	0.2
920	0.199
921	0.199
921	0.198
921	0.197
922	0.197
922	0.196
923	0.196
923	0.196
924	0.196
924	0.196
924	0.196
925	0.197
925	0.197
926	0.197
926	0.197
927	0.197
927	0.196
927	0.196
928	0.196
928	0.196
929	0.195
929	0.195
930	0.195
930	0.195
930	0.195
931	0.195
931	0.195
932	0.195
932	0.195
933	0.196
933	0.196
933	0.196
934	0.196
934	0.195
935	0.195
935	0.195
935	0.195
936	0.194
936	0.194
937	0.194
937	0.193
938	0.193
938	0.192
938	0.191
939	0.19
939	0.19
940	0.189
940	0.189
941	0.188
941	0.187
941	0.187
942	0.186
942	0.186
943	0.185
943	0.185
944	0.184
944	0.184
944	0.184
945	0.183
945	0.183
946	0.183
946	0.183
946	0.183
947	0.183
947	0.183
948	0.183
948	0.183
949	0.183
949	0.183
949	0.182
950	0.182
950	0.181
951	0.18
951	0.179
952	0.178
952	0.177
952	0.176
953	0.175
953	0.174
954	0.173
954	0.172
955	0.171
955	0.17
955	0.169
956	0.169
956	0.169
957	0.168
957	0.168
957	0.168
958	0.168
958	0.168
959	0.168
959	0.168
960	0.168
960	0.167
960	0.167
961	0.167
961	0.166
962	0.166
962	0.165
963	0.165
963	0.165
963	0.165
964	0.165
964	0.165
965	0.165
965	0.165
966	0.166
966	0.166
966	0.167
967	0.167
967	0.168
968	0.168
968	0.168
968	0.168
969	0.168
969	0.168
970	0.167
970	0.167
971	0.167
971	0.167
971	0.167
972	0.167
972	0.167
973	0.167
973	0.167
974	0.167
974	0.167
974	0.167
975	0.167
975	0.167
976	0.167
976	0.167
976	0.166
977	0.166
977	0.166
978	0.165
978	0.165
979	0.165
979	0.164
979	0.164
980	0.164
980	0.163
981	0.163
981	0.162
982	0.162
982	0.161
982	0.161
983	0.16
983	0.16
984	0.159
984	0.158
984	0.157
985	0.157
985	0.156
986	0.155
986	0.155
987	0.154
987	0.153
987	0.153
988	0.152
988	0.152
989	0.151
989	0.15
990	0.149
990	0.149
990	0.148
991	0.147
991	0.147
992	0.146
992	0.145
992	0.144
993	0.143
993	0.142
994	0.142
994	0.141
995	0.14
995	0.14
995	0.14
996	0.14
996	0.14
997	0.14
997	0.14
997	0.141
998	0.141
998	0.142
999	0.143
999	0.143
1000	0.144
1000	0.145
1000	0.145
1001	0.145
1001	0.145
1002	0.145
1002	0.145
1003	0.145
1003	0.144
1003	0.144
1004	0.143
1004	0.142
1005	0.142
1005	0.141
1005	0.14
1006	0.14
1006	0.139
1007	0.139
1007	0.139
1008	0.139
1008	0.139
1008	0.139
1009	0.139
1009	0.139
1010	0.138
1010	0.138
1010	0.138
1011	0.138
1011	0.138
1012	0.138
1012	0.137
1013	0.137
1013	0.137
1013	0.136
1014	0.136
1014	0.136
1015	0.135
1015	0.135
1016	0.135
1016	0.134
1016	0.134
1017	0.133
1017	0.133
1018	0.132
1018	0.132
1018	0.131
1019	0.131
1019	0.131
1020	0.13
1020	0.13
1021	0.13
1021	0.131
1021	0.13
1022	0.13
1022	0.13
1023	0.13
1023	0.13
1023	0.13
1024	0.13
1024	0.13
1025	0.13
1025	0.129
1026	0.129
1026	0.128
1026	0.128
1027	0.127
1027	0.127
1028	0.127
1028	0.126
1028	0.126
1029	0.126
1029	0.126
1030	0.125
1030	0.126
1031	0.126
1031	0.126
1031	0.126
1032	0.126
1032	0.126
1033	0.126
1033	0.126
1033	0.126
1034	0.125
1034	0.125
1035	0.125
1035	0.124
1036	0.124
1036	0.124
1036	0.124
1037	0.124
1037	0.123
1038	0.123
1038	0.124
1039	0.124
1039	0.124
1039	0.124
1040	0.124
1040	0.124
1041	0.125
1041	0.125
1041	0.125
1042	0.125
1042	0.125
1043	0.125
1043	0.125
1044	0.125
1044	0.125
1044	0.125
1045	0.125
1045	0.125
1046	0.125
1046	0.126
1046	0.126
1047	0.127
1047	0.127
1048	0.127
1048	0.128
1049	0.128
1049	0.129
1049	0.13
1050	0.13
1050	0.13
1051	0.13
1051	0.13
1051	0.13
1052	0.13
1052	0.13
1053	0.129
1053	0.128
1053	0.127
1054	0.127
1054	0.126
1055	0.125
1055	0.124
1056	0.124
1056	0.123
1056	0.122
1057	0.121
1057	0.12
1058	0.119
1058	0.117
1058	0.116
1059	0.115
1059	0.115
1060	0.114
1060	0.113
1061	0.112
1061	0.112
1061	0.111
1062	0.111
1062	0.11
1063	0.11
1063	0.11
1063	0.109
1064	0.109
1064	0.109
1065	0.108
1065	0.107
1066	0.107
1066	0.107
1066	0.107
1067	0.106
1067	0.106
1068	0.105
1068	0.105
1068	0.105
1069	0.104
1069	0.104
1070	0.103
1070	0.103
1071	0.102
1071	0.101
1071	0.101
1072	0.1
1072	0.099
1073	0.099
1073	0.098
1073	0.097
1074	0.097
1074	0.097
1075	0.097
1075	0.098
1076	0.098
1076	0.098
1076	0.099
1077	0.099
1077	0.1
1078	0.099
1078	0.1
1078	0.1
1079	0.1
1079	0.1
1080	0.1
1080	0.1
1080	0.099
1081	0.099
1081	0.099
1082	0.099
1082	0.1
1083	0.1
1083	0.099
1083	0.099
1084	0.099
1084	0.099
1085	0.098
1085	0.098
1085	0.098
1086	0.098
1086	0.097
1087	0.097
1087	0.096
1088	0.095
1088	0.095
1088	0.095
1089	0.094
1089	0.093
1090	0.092
1090	0.091
1090	0.09
1091	0.09
1091	0.089
1092	0.089
1092	0.089
1092	0.089
1093	0.088
1093	0.089
1094	0.088
1094	0.088
1095	0.088
1095	0.088
1095	0.088
1096	0.087
1096	0.086
1097	0.086
1097	0.085
1097	0.085
1098	0.085
1098	0.084
1099	0.084
1099	0.083
1100	0.082
1100	0.081
1100	0.081
1101	0.08
1101	0.079
1102	0.079
1102	0.078
1102	0.076
1103	0.076
1103	0.076
1104	0.076
1104	0.075
1104	0.075
1105	0.074
1105	0.074
1106	0.073
1106	0.072
1107	0.071
1107	0.071
1107	0.07
1108	0.068
1108	0.067
1109	0.067
1109	0.066
1109	0.066
1110	0.066
1110	0.063
1111	0.066
1111	0.067
