Data from reversibility-20sec_Absorbance__7289__000000000007289.txt Node

Date: Thu Dec 07 04:42:47 CET 2023
User: Marek
Spectrometer: MAYP115816
Trigger mode: 0
Integration Time (sec): 2.000000E-1
Scans to average: 10
Electric dark correction enabled: true
Nonlinearity correction enabled: true
Boxcar width: 5
XAxis mode: Wavelengths
Number of Pixels in Spectrum: 2068
>>>>>Begin Spectral Data<<<<<
199	-0.121
199	-0.087
200	-0.018
200	0.028
201	0.054
201	0.068
202	0.08
202	0.094
203	0.101
203	0.103
204	0.116
204	0.129
205	0.142
205	0.145
205	0.145
206	0.146
206	0.145
207	0.148
207	0.144
208	0.142
208	0.143
209	0.144
209	0.143
210	0.142
210	0.145
211	0.146
211	0.148
212	0.147
212	0.148
213	0.152
213	0.153
213	0.153
214	0.158
214	0.158
215	0.158
215	0.155
216	0.154
216	0.151
217	0.156
217	0.158
218	0.156
218	0.162
219	0.168
219	0.167
220	0.17
220	0.171
221	0.174
221	0.178
221	0.185
222	0.189
222	0.192
223	0.199
223	0.201
224	0.205
224	0.214
225	0.224
225	0.235
226	0.247
226	0.258
227	0.265
227	0.276
228	0.288
228	0.304
229	0.321
229	0.343
229	0.365
230	0.389
230	0.419
231	0.448
231	0.488
232	0.527
232	0.57
233	0.614
233	0.662
234	0.715
234	0.767
235	0.821
235	0.871
236	0.922
236	0.971
236	1.02
237	1.072
237	1.122
238	1.169
238	1.212
239	1.257
239	1.298
240	1.336
240	1.375
241	1.412
241	1.45
242	1.481
242	1.513
243	1.54
243	1.565
243	1.593
244	1.612
244	1.635
245	1.653
245	1.674
246	1.691
246	1.707
247	1.718
247	1.729
248	1.743
248	1.759
249	1.767
249	1.775
250	1.782
250	1.79
250	1.796
251	1.8
251	1.802
252	1.809
252	1.81
253	1.81
253	1.807
254	1.806
254	1.806
255	1.803
255	1.803
256	1.801
256	1.8
257	1.799
257	1.797
258	1.797
258	1.795
258	1.794
259	1.792
259	1.792
260	1.793
260	1.795
261	1.794
261	1.795
262	1.798
262	1.799
263	1.801
263	1.804
264	1.806
264	1.81
265	1.81
265	1.81
265	1.811
266	1.812
266	1.812
267	1.809
267	1.81
268	1.81
268	1.809
269	1.808
269	1.807
270	1.807
270	1.805
271	1.802
271	1.801
272	1.798
272	1.797
272	1.794
273	1.788
273	1.782
274	1.777
274	1.771
275	1.764
275	1.758
276	1.751
276	1.743
277	1.735
277	1.725
278	1.713
278	1.701
278	1.686
279	1.67
279	1.65
280	1.624
280	1.593
281	1.557
281	1.517
282	1.476
282	1.432
283	1.389
283	1.347
284	1.307
284	1.267
285	1.23
285	1.196
285	1.167
286	1.14
286	1.117
287	1.097
287	1.08
288	1.065
288	1.052
289	1.041
289	1.032
290	1.024
290	1.017
291	1.01
291	1.005
292	1
292	0.995
292	0.991
293	0.987
293	0.983
294	0.979
294	0.976
295	0.973
295	0.97
296	0.966
296	0.963
297	0.96
297	0.957
298	0.954
298	0.951
298	0.948
299	0.945
299	0.942
300	0.939
300	0.936
301	0.934
301	0.931
302	0.928
302	0.926
303	0.923
303	0.92
304	0.918
304	0.916
305	0.914
305	0.911
305	0.909
306	0.906
306	0.904
307	0.902
307	0.899
308	0.897
308	0.894
309	0.891
309	0.888
310	0.885
310	0.882
311	0.879
311	0.876
311	0.873
312	0.869
312	0.866
313	0.862
313	0.858
314	0.854
314	0.85
315	0.846
315	0.842
316	0.838
316	0.833
317	0.828
317	0.823
318	0.819
318	0.814
318	0.808
319	0.803
319	0.797
320	0.792
320	0.786
321	0.78
321	0.774
322	0.767
322	0.761
323	0.754
323	0.748
324	0.741
324	0.734
324	0.728
325	0.72
325	0.713
326	0.707
326	0.7
327	0.693
327	0.686
328	0.679
328	0.672
329	0.665
329	0.658
330	0.65
330	0.643
330	0.636
331	0.629
331	0.622
332	0.615
332	0.608
333	0.601
333	0.594
334	0.587
334	0.58
335	0.573
335	0.566
336	0.559
336	0.552
336	0.546
337	0.54
337	0.533
338	0.527
338	0.52
339	0.514
339	0.508
340	0.502
340	0.497
341	0.491
341	0.485
342	0.48
342	0.474
342	0.469
343	0.463
343	0.458
344	0.453
344	0.448
345	0.443
345	0.438
346	0.434
346	0.43
347	0.425
347	0.421
348	0.416
348	0.413
348	0.409
349	0.405
349	0.401
350	0.398
350	0.394
351	0.39
351	0.387
352	0.384
352	0.381
353	0.378
353	0.375
354	0.372
354	0.369
354	0.366
355	0.364
355	0.361
356	0.358
356	0.355
357	0.352
357	0.349
358	0.346
358	0.344
359	0.341
359	0.339
360	0.337
360	0.335
360	0.333
361	0.331
361	0.329
362	0.328
362	0.326
363	0.325
363	0.323
364	0.321
364	0.319
365	0.317
365	0.315
366	0.314
366	0.312
366	0.31
367	0.308
367	0.307
368	0.305
368	0.304
369	0.302
369	0.301
370	0.299
370	0.298
371	0.297
371	0.295
372	0.294
372	0.293
372	0.292
373	0.291
373	0.29
374	0.289
374	0.288
375	0.287
375	0.286
376	0.286
376	0.285
377	0.284
377	0.283
378	0.282
378	0.281
378	0.28
379	0.279
379	0.278
380	0.277
380	0.277
381	0.276
381	0.275
382	0.275
382	0.274
383	0.274
383	0.273
383	0.273
384	0.272
384	0.272
385	0.271
385	0.271
386	0.27
386	0.27
387	0.27
387	0.269
388	0.269
388	0.268
389	0.268
389	0.268
389	0.267
390	0.267
390	0.266
391	0.266
391	0.266
392	0.265
392	0.265
393	0.265
393	0.264
394	0.264
394	0.264
394	0.263
395	0.263
395	0.263
396	0.262
396	0.262
397	0.262
397	0.261
398	0.261
398	0.261
399	0.26
399	0.26
400	0.26
400	0.259
400	0.259
401	0.259
401	0.258
402	0.258
402	0.258
403	0.258
403	0.258
404	0.257
404	0.257
405	0.257
405	0.257
405	0.256
406	0.256
406	0.256
407	0.255
407	0.255
408	0.255
408	0.255
409	0.254
409	0.254
410	0.254
410	0.253
411	0.253
411	0.253
411	0.253
412	0.252
412	0.252
413	0.252
413	0.251
414	0.251
414	0.251
415	0.25
415	0.25
416	0.25
416	0.249
416	0.249
417	0.249
417	0.248
418	0.248
418	0.248
419	0.247
419	0.247
420	0.246
420	0.246
421	0.245
421	0.245
421	0.245
422	0.244
422	0.244
423	0.244
423	0.243
424	0.243
424	0.243
425	0.243
425	0.242
426	0.242
426	0.242
427	0.242
427	0.241
427	0.241
428	0.24
428	0.24
429	0.24
429	0.239
430	0.239
430	0.239
431	0.239
431	0.238
432	0.238
432	0.238
432	0.238
433	0.237
433	0.237
434	0.237
434	0.237
435	0.237
435	0.237
436	0.237
436	0.236
437	0.236
437	0.236
437	0.236
438	0.236
438	0.235
439	0.235
439	0.235
440	0.234
440	0.234
441	0.233
441	0.233
442	0.233
442	0.233
442	0.232
443	0.232
443	0.232
444	0.232
444	0.232
445	0.232
445	0.232
446	0.231
446	0.231
447	0.231
447	0.231
447	0.231
448	0.231
448	0.23
449	0.23
449	0.23
450	0.23
450	0.23
451	0.229
451	0.229
452	0.229
452	0.229
452	0.229
453	0.229
453	0.228
454	0.228
454	0.228
455	0.228
455	0.228
456	0.227
456	0.227
457	0.227
457	0.227
458	0.227
458	0.226
458	0.226
459	0.226
459	0.226
460	0.226
460	0.226
461	0.226
461	0.226
462	0.226
462	0.226
463	0.226
463	0.225
463	0.225
464	0.225
464	0.224
465	0.224
465	0.224
466	0.224
466	0.224
467	0.224
467	0.224
467	0.224
468	0.224
468	0.224
469	0.224
469	0.224
470	0.225
470	0.225
471	0.225
471	0.225
472	0.224
472	0.224
472	0.224
473	0.224
473	0.224
474	0.224
474	0.224
475	0.224
475	0.224
476	0.224
476	0.224
477	0.224
477	0.224
477	0.224
478	0.224
478	0.224
479	0.225
479	0.225
480	0.225
480	0.225
481	0.225
481	0.225
482	0.225
482	0.225
482	0.225
483	0.225
483	0.226
484	0.226
484	0.226
485	0.226
485	0.226
486	0.226
486	0.226
487	0.226
487	0.226
487	0.227
488	0.227
488	0.227
489	0.227
489	0.228
490	0.229
490	0.229
491	0.23
491	0.231
492	0.231
492	0.232
492	0.232
493	0.233
493	0.233
494	0.234
494	0.234
495	0.235
495	0.235
496	0.235
496	0.236
496	0.236
497	0.237
497	0.237
498	0.237
498	0.238
499	0.238
499	0.239
500	0.24
500	0.241
501	0.241
501	0.242
501	0.242
502	0.242
502	0.243
503	0.243
503	0.243
504	0.244
504	0.245
505	0.245
505	0.245
506	0.246
506	0.246
506	0.247
507	0.248
507	0.248
508	0.249
508	0.249
509	0.249
509	0.25
510	0.25
510	0.251
511	0.251
511	0.252
511	0.252
512	0.253
512	0.253
513	0.254
513	0.254
514	0.255
514	0.255
515	0.256
515	0.256
515	0.256
516	0.257
516	0.258
517	0.258
517	0.259
518	0.259
518	0.259
519	0.259
519	0.259
520	0.259
520	0.26
520	0.26
521	0.26
521	0.26
522	0.26
522	0.26
523	0.261
523	0.261
524	0.261
524	0.261
524	0.261
525	0.261
525	0.261
526	0.261
526	0.261
527	0.261
527	0.261
528	0.261
528	0.261
529	0.261
529	0.261
529	0.26
530	0.26
530	0.26
531	0.26
531	0.259
532	0.259
532	0.258
533	0.257
533	0.257
533	0.257
534	0.256
534	0.256
535	0.256
535	0.256
536	0.256
536	0.255
537	0.255
537	0.254
538	0.254
538	0.253
538	0.253
539	0.252
539	0.252
540	0.251
540	0.251
541	0.25
541	0.25
542	0.25
542	0.249
542	0.249
543	0.249
543	0.248
544	0.248
544	0.247
545	0.247
545	0.246
546	0.245
546	0.245
547	0.244
547	0.243
547	0.242
548	0.242
548	0.241
549	0.24
549	0.24
550	0.239
550	0.238
551	0.237
551	0.237
551	0.236
552	0.236
552	0.235
553	0.234
553	0.234
554	0.233
554	0.232
555	0.231
555	0.23
556	0.23
556	0.229
556	0.228
557	0.228
557	0.228
558	0.228
558	0.227
559	0.227
559	0.227
560	0.226
560	0.226
560	0.226
561	0.226
561	0.225
562	0.224
562	0.223
563	0.222
563	0.221
564	0.219
564	0.219
564	0.218
565	0.218
565	0.217
566	0.216
566	0.216
567	0.215
567	0.215
568	0.214
568	0.214
568	0.213
569	0.213
569	0.212
570	0.211
570	0.21
571	0.209
571	0.209
572	0.208
572	0.207
573	0.207
573	0.206
573	0.206
574	0.205
574	0.205
575	0.205
575	0.205
576	0.204
576	0.203
577	0.202
577	0.202
577	0.201
578	0.201
578	0.2
579	0.2
579	0.2
580	0.199
580	0.199
581	0.198
581	0.198
581	0.198
582	0.198
582	0.197
583	0.197
583	0.197
584	0.196
584	0.195
585	0.194
585	0.194
585	0.193
586	0.193
586	0.192
587	0.192
587	0.191
588	0.191
588	0.19
589	0.19
589	0.19
590	0.19
590	0.19
590	0.19
591	0.19
591	0.189
592	0.188
592	0.188
593	0.187
593	0.187
594	0.186
594	0.185
594	0.185
595	0.184
595	0.184
596	0.183
596	0.183
597	0.184
597	0.184
598	0.184
598	0.184
598	0.184
599	0.184
599	0.183
600	0.183
600	0.182
601	0.182
601	0.182
602	0.181
602	0.181
602	0.18
603	0.18
603	0.18
604	0.18
604	0.18
605	0.18
605	0.18
606	0.179
606	0.178
606	0.178
607	0.177
607	0.177
608	0.177
608	0.176
609	0.175
609	0.175
610	0.175
610	0.174
610	0.174
611	0.174
611	0.174
612	0.174
612	0.174
613	0.174
613	0.174
614	0.174
614	0.174
614	0.174
615	0.174
615	0.174
616	0.174
616	0.174
617	0.173
617	0.173
618	0.173
618	0.173
618	0.173
619	0.173
619	0.173
620	0.173
620	0.173
621	0.172
621	0.171
622	0.171
622	0.17
622	0.17
623	0.169
623	0.169
624	0.169
624	0.168
625	0.168
625	0.169
626	0.169
626	0.169
626	0.169
627	0.169
627	0.169
628	0.169
628	0.169
629	0.169
629	0.168
630	0.168
630	0.168
630	0.168
631	0.168
631	0.167
632	0.166
632	0.166
633	0.166
633	0.166
634	0.166
634	0.166
634	0.166
635	0.165
635	0.165
636	0.165
636	0.165
637	0.164
637	0.164
638	0.164
638	0.164
638	0.163
639	0.163
639	0.162
640	0.162
640	0.162
641	0.162
641	0.161
642	0.161
642	0.161
642	0.162
643	0.162
643	0.162
644	0.162
644	0.162
645	0.163
645	0.163
646	0.163
646	0.163
646	0.163
647	0.163
647	0.163
648	0.162
648	0.162
649	0.161
649	0.161
650	0.161
650	0.161
650	0.161
651	0.161
651	0.161
652	0.161
652	0.161
653	0.162
653	0.163
653	0.168
654	0.133
654	0.107
655	0.107
655	0.107
656	0.107
656	0.107
657	0.108
657	0.108
657	0.108
658	0.107
658	0.098
659	0.124
659	0.157
660	0.162
660	0.162
661	0.162
661	0.161
661	0.16
662	0.16
662	0.159
663	0.159
663	0.159
664	0.159
664	0.159
665	0.159
665	0.159
665	0.159
666	0.159
666	0.16
667	0.16
667	0.16
668	0.16
668	0.16
669	0.16
669	0.161
669	0.161
670	0.161
670	0.161
671	0.161
671	0.16
672	0.16
672	0.159
672	0.159
673	0.159
673	0.158
674	0.158
674	0.158
675	0.157
675	0.157
676	0.158
676	0.158
676	0.158
677	0.158
677	0.159
678	0.159
678	0.158
679	0.158
679	0.158
680	0.158
680	0.158
680	0.157
681	0.157
681	0.158
682	0.158
682	0.158
683	0.158
683	0.158
684	0.158
684	0.158
684	0.157
685	0.158
685	0.158
686	0.158
686	0.158
687	0.159
687	0.159
687	0.159
688	0.159
688	0.159
689	0.16
689	0.161
690	0.16
690	0.16
691	0.16
691	0.16
691	0.16
692	0.16
692	0.16
693	0.161
693	0.161
694	0.161
694	0.161
695	0.162
695	0.163
695	0.163
696	0.163
696	0.163
697	0.163
697	0.163
698	0.163
698	0.162
698	0.162
699	0.162
699	0.162
700	0.161
700	0.161
701	0.161
701	0.16
702	0.16
702	0.159
702	0.159
703	0.158
703	0.157
704	0.157
704	0.157
705	0.156
705	0.156
705	0.156
706	0.156
706	0.156
707	0.156
707	0.156
708	0.157
708	0.157
709	0.157
709	0.158
709	0.158
710	0.158
710	0.159
711	0.159
711	0.16
712	0.16
712	0.161
713	0.161
713	0.161
713	0.161
714	0.161
714	0.161
715	0.161
715	0.16
716	0.16
716	0.16
716	0.159
717	0.158
717	0.158
718	0.157
718	0.157
719	0.158
719	0.158
720	0.158
720	0.159
720	0.16
721	0.16
721	0.161
722	0.162
722	0.163
723	0.163
723	0.163
723	0.163
724	0.163
724	0.162
725	0.161
725	0.161
726	0.16
726	0.159
727	0.159
727	0.158
727	0.158
728	0.158
728	0.158
729	0.158
729	0.158
730	0.158
730	0.158
730	0.159
731	0.159
731	0.16
732	0.16
732	0.161
733	0.161
733	0.162
734	0.162
734	0.163
734	0.163
735	0.164
735	0.164
736	0.164
736	0.164
737	0.164
737	0.164
737	0.164
738	0.164
738	0.163
739	0.163
739	0.163
740	0.162
740	0.162
741	0.163
741	0.163
741	0.163
742	0.163
742	0.164
743	0.165
743	0.166
744	0.166
744	0.167
744	0.167
745	0.167
745	0.167
746	0.167
746	0.167
747	0.167
747	0.166
748	0.166
748	0.166
748	0.166
749	0.166
749	0.166
750	0.167
750	0.167
751	0.167
751	0.167
751	0.168
752	0.168
752	0.168
753	0.167
753	0.167
754	0.167
754	0.166
754	0.166
755	0.166
755	0.166
756	0.165
756	0.164
757	0.164
757	0.164
758	0.164
758	0.164
758	0.164
759	0.164
759	0.164
760	0.164
760	0.164
761	0.164
761	0.165
761	0.165
762	0.165
762	0.165
763	0.166
763	0.165
764	0.165
764	0.166
764	0.166
765	0.165
765	0.165
766	0.165
766	0.165
767	0.164
767	0.164
768	0.163
768	0.163
768	0.163
769	0.163
769	0.163
770	0.164
770	0.164
771	0.165
771	0.165
771	0.165
772	0.166
772	0.167
773	0.167
773	0.167
774	0.167
774	0.168
775	0.168
775	0.168
775	0.168
776	0.168
776	0.169
777	0.169
777	0.17
778	0.17
778	0.17
778	0.17
779	0.17
779	0.169
780	0.168
780	0.168
781	0.167
781	0.166
781	0.166
782	0.165
782	0.165
783	0.165
783	0.165
784	0.165
784	0.166
784	0.166
785	0.166
785	0.167
786	0.167
786	0.168
787	0.168
787	0.168
788	0.168
788	0.167
788	0.167
789	0.166
789	0.167
790	0.167
790	0.167
791	0.166
791	0.166
791	0.166
792	0.167
792	0.167
793	0.167
793	0.167
794	0.167
794	0.167
794	0.167
795	0.167
795	0.167
796	0.167
796	0.167
797	0.166
797	0.166
797	0.167
798	0.167
798	0.167
799	0.167
799	0.166
800	0.166
800	0.165
801	0.165
801	0.166
801	0.166
802	0.166
802	0.166
803	0.166
803	0.166
804	0.167
804	0.167
804	0.167
805	0.168
805	0.168
806	0.167
806	0.167
807	0.167
807	0.167
807	0.167
808	0.167
808	0.167
809	0.167
809	0.167
810	0.167
810	0.167
810	0.167
811	0.168
811	0.168
812	0.169
812	0.169
813	0.169
813	0.17
813	0.17
814	0.171
814	0.171
815	0.172
815	0.172
816	0.172
816	0.171
817	0.171
817	0.171
817	0.17
818	0.17
818	0.169
819	0.168
819	0.167
820	0.166
820	0.166
820	0.165
821	0.165
821	0.165
822	0.165
822	0.165
823	0.165
823	0.165
823	0.166
824	0.167
824	0.168
825	0.169
825	0.17
826	0.171
826	0.171
826	0.172
827	0.173
827	0.173
828	0.174
828	0.174
829	0.174
829	0.174
829	0.174
830	0.175
830	0.175
831	0.175
831	0.175
832	0.175
832	0.175
832	0.175
833	0.174
833	0.174
834	0.173
834	0.173
835	0.172
835	0.172
835	0.171
836	0.171
836	0.171
837	0.17
837	0.17
838	0.169
838	0.168
839	0.167
839	0.167
839	0.166
840	0.165
840	0.164
841	0.163
841	0.163
842	0.162
842	0.161
842	0.16
843	0.16
843	0.159
844	0.159
844	0.159
845	0.159
845	0.159
845	0.159
846	0.159
846	0.159
847	0.159
847	0.159
848	0.159
848	0.159
848	0.159
849	0.159
849	0.158
850	0.158
850	0.158
851	0.157
851	0.157
851	0.156
852	0.156
852	0.155
853	0.155
853	0.155
854	0.155
854	0.156
854	0.156
855	0.157
855	0.158
856	0.159
856	0.16
857	0.161
857	0.162
857	0.163
858	0.163
858	0.164
859	0.164
859	0.164
860	0.164
860	0.163
860	0.163
861	0.162
861	0.162
862	0.161
862	0.16
863	0.159
863	0.158
863	0.158
864	0.157
864	0.157
865	0.157
865	0.157
866	0.157
866	0.157
866	0.157
867	0.157
867	0.157
868	0.158
868	0.158
869	0.158
869	0.157
869	0.157
870	0.156
870	0.156
871	0.156
871	0.156
872	0.156
872	0.156
872	0.156
873	0.155
873	0.155
874	0.154
874	0.154
875	0.154
875	0.153
875	0.153
876	0.153
876	0.152
877	0.152
877	0.152
878	0.152
878	0.152
878	0.152
879	0.152
879	0.153
880	0.153
880	0.153
881	0.153
881	0.153
881	0.154
882	0.154
882	0.154
883	0.154
883	0.153
884	0.153
884	0.153
884	0.153
885	0.152
885	0.152
886	0.152
886	0.151
887	0.151
887	0.15
887	0.15
888	0.15
888	0.149
889	0.149
889	0.149
890	0.149
890	0.149
890	0.149
891	0.149
891	0.149
892	0.149
892	0.149
893	0.148
893	0.148
893	0.147
894	0.147
894	0.146
895	0.146
895	0.145
895	0.145
896	0.145
896	0.145
897	0.144
897	0.144
898	0.144
898	0.143
898	0.143
899	0.143
899	0.143
900	0.143
900	0.142
901	0.142
901	0.142
901	0.142
902	0.142
902	0.142
903	0.142
903	0.142
904	0.142
904	0.142
904	0.141
905	0.141
905	0.141
906	0.14
906	0.14
907	0.14
907	0.14
907	0.14
908	0.14
908	0.14
909	0.139
909	0.139
910	0.139
910	0.139
910	0.138
911	0.138
911	0.137
912	0.137
912	0.136
913	0.136
913	0.135
913	0.135
914	0.134
914	0.134
915	0.134
915	0.134
916	0.134
916	0.133
916	0.133
917	0.133
917	0.133
918	0.133
918	0.133
918	0.132
919	0.132
919	0.132
920	0.132
920	0.132
921	0.132
921	0.132
921	0.132
922	0.132
922	0.132
923	0.132
923	0.132
924	0.132
924	0.132
924	0.132
925	0.133
925	0.133
926	0.132
926	0.133
927	0.133
927	0.133
927	0.133
928	0.133
928	0.134
929	0.134
929	0.134
930	0.134
930	0.134
930	0.134
931	0.134
931	0.133
932	0.133
932	0.133
933	0.133
933	0.132
933	0.132
934	0.132
934	0.131
935	0.131
935	0.131
935	0.13
936	0.13
936	0.129
937	0.129
937	0.128
938	0.127
938	0.126
938	0.126
939	0.125
939	0.124
940	0.124
940	0.123
941	0.123
941	0.123
941	0.124
942	0.124
942	0.124
943	0.124
943	0.125
944	0.125
944	0.125
944	0.126
945	0.126
945	0.126
946	0.126
946	0.125
946	0.125
947	0.125
947	0.125
948	0.124
948	0.124
949	0.123
949	0.123
949	0.122
950	0.122
950	0.121
951	0.121
951	0.12
952	0.12
952	0.119
952	0.118
953	0.118
953	0.117
954	0.117
954	0.117
955	0.117
955	0.116
955	0.117
956	0.117
956	0.118
957	0.119
957	0.12
957	0.12
958	0.121
958	0.121
959	0.122
959	0.123
960	0.123
960	0.123
960	0.123
961	0.123
961	0.123
962	0.123
962	0.123
963	0.122
963	0.122
963	0.121
964	0.121
964	0.121
965	0.12
965	0.12
966	0.12
966	0.119
966	0.119
967	0.119
967	0.119
968	0.118
968	0.118
968	0.118
969	0.117
969	0.116
970	0.115
970	0.115
971	0.114
971	0.113
971	0.113
972	0.112
972	0.111
973	0.111
973	0.111
974	0.111
974	0.111
974	0.112
975	0.112
975	0.112
976	0.113
976	0.113
976	0.114
977	0.114
977	0.114
978	0.114
978	0.114
979	0.114
979	0.113
979	0.114
980	0.114
980	0.114
981	0.114
981	0.114
982	0.114
982	0.114
982	0.115
983	0.115
983	0.115
984	0.115
984	0.115
984	0.115
985	0.114
985	0.114
986	0.113
986	0.113
987	0.113
987	0.112
987	0.112
988	0.112
988	0.111
989	0.111
989	0.111
990	0.111
990	0.111
990	0.111
991	0.111
991	0.111
992	0.11
992	0.11
992	0.109
993	0.108
993	0.107
994	0.106
994	0.106
995	0.105
995	0.104
995	0.104
996	0.104
996	0.104
997	0.104
997	0.104
997	0.104
998	0.105
998	0.105
999	0.106
999	0.107
1000	0.107
1000	0.108
1000	0.108
1001	0.109
1001	0.109
1002	0.109
1002	0.109
1003	0.109
1003	0.109
1003	0.108
1004	0.108
1004	0.107
1005	0.107
1005	0.106
1005	0.105
1006	0.105
1006	0.104
1007	0.104
1007	0.104
1008	0.103
1008	0.103
1008	0.103
1009	0.102
1009	0.102
1010	0.102
1010	0.102
1010	0.101
1011	0.101
1011	0.1
1012	0.1
1012	0.099
1013	0.099
1013	0.098
1013	0.097
1014	0.097
1014	0.096
1015	0.096
1015	0.096
1016	0.095
1016	0.095
1016	0.095
1017	0.094
1017	0.094
1018	0.094
1018	0.094
1018	0.094
1019	0.094
1019	0.094
1020	0.094
1020	0.094
1021	0.094
1021	0.095
1021	0.095
1022	0.095
1022	0.095
1023	0.096
1023	0.096
1023	0.096
1024	0.097
1024	0.097
1025	0.097
1025	0.097
1026	0.097
1026	0.097
1026	0.097
1027	0.097
1027	0.097
1028	0.097
1028	0.097
1028	0.098
1029	0.097
1029	0.098
1030	0.098
1030	0.098
1031	0.098
1031	0.098
1031	0.098
1032	0.098
1032	0.098
1033	0.098
1033	0.098
1033	0.098
1034	0.098
1034	0.098
1035	0.097
1035	0.097
1036	0.097
1036	0.097
1036	0.097
1037	0.097
1037	0.097
1038	0.096
1038	0.096
1039	0.096
1039	0.096
1039	0.096
1040	0.095
1040	0.095
1041	0.095
1041	0.094
1041	0.094
1042	0.094
1042	0.094
1043	0.093
1043	0.093
1044	0.093
1044	0.092
1044	0.092
1045	0.092
1045	0.092
1046	0.091
1046	0.091
1046	0.091
1047	0.091
1047	0.09
1048	0.09
1048	0.09
1049	0.09
1049	0.09
1049	0.089
1050	0.089
1050	0.089
1051	0.088
1051	0.088
1051	0.088
1052	0.088
1052	0.087
1053	0.087
1053	0.086
1053	0.086
1054	0.085
1054	0.085
1055	0.085
1055	0.084
1056	0.084
1056	0.083
1056	0.082
1057	0.082
1057	0.081
1058	0.081
1058	0.08
1058	0.08
1059	0.079
1059	0.079
1060	0.078
1060	0.078
1061	0.078
1061	0.078
1061	0.078
1062	0.077
1062	0.077
1063	0.078
1063	0.078
1063	0.077
1064	0.077
1064	0.077
1065	0.077
1065	0.077
1066	0.077
1066	0.077
1066	0.077
1067	0.077
1067	0.077
1068	0.077
1068	0.077
1068	0.077
1069	0.077
1069	0.077
1070	0.077
1070	0.076
1071	0.076
1071	0.076
1071	0.075
1072	0.075
1072	0.075
1073	0.074
1073	0.074
1073	0.074
1074	0.074
1074	0.074
1075	0.074
1075	0.074
1076	0.074
1076	0.075
1076	0.076
1077	0.076
1077	0.076
1078	0.076
1078	0.076
1078	0.077
1079	0.077
1079	0.076
1080	0.076
1080	0.075
1080	0.075
1081	0.074
1081	0.074
1082	0.074
1082	0.073
1083	0.073
1083	0.072
1083	0.072
1084	0.072
1084	0.072
1085	0.072
1085	0.073
1085	0.073
1086	0.073
1086	0.073
1087	0.073
1087	0.073
1088	0.073
1088	0.073
1088	0.073
1089	0.073
1089	0.073
1090	0.072
1090	0.071
1090	0.07
1091	0.07
1091	0.07
1092	0.07
1092	0.071
1092	0.071
1093	0.07
1093	0.07
1094	0.07
1094	0.07
1095	0.07
1095	0.069
1095	0.069
1096	0.068
1096	0.067
1097	0.065
1097	0.064
1097	0.064
1098	0.064
1098	0.062
1099	0.061
1099	0.06
1100	0.06
1100	0.059
1100	0.057
1101	0.058
1101	0.057
1102	0.056
1102	0.055
1102	0.054
1103	0.054
1103	0.054
1104	0.055
1104	0.055
1104	0.054
1105	0.054
1105	0.052
1106	0.052
1106	0.052
1107	0.052
1107	0.051
1107	0.051
1108	0.051
1108	0.049
1109	0.049
1109	0.049
1109	0.049
1110	0.049
1110	0.047
1111	0.048
1111	0.047
