Data from reversibility-20sec_Absorbance__4827__000000000004827.txt Node

Date: Wed Dec 06 15:02:07 CET 2023
User: Marek
Spectrometer: MAYP115816
Trigger mode: 0
Integration Time (sec): 2.000000E-1
Scans to average: 10
Electric dark correction enabled: true
Nonlinearity correction enabled: true
Boxcar width: 5
XAxis mode: Wavelengths
Number of Pixels in Spectrum: 2068
>>>>>Begin Spectral Data<<<<<
199	-0.114
199	-0.093
200	-0.026
200	0.033
201	0.056
201	0.073
202	0.085
202	0.097
203	0.106
203	0.111
204	0.126
204	0.141
205	0.154
205	0.159
205	0.155
206	0.158
206	0.159
207	0.162
207	0.159
208	0.159
208	0.155
209	0.156
209	0.153
210	0.154
210	0.154
211	0.157
211	0.158
212	0.157
212	0.157
213	0.162
213	0.163
213	0.164
214	0.168
214	0.168
215	0.171
215	0.172
216	0.174
216	0.172
217	0.175
217	0.175
218	0.173
218	0.177
219	0.184
219	0.185
220	0.189
220	0.189
221	0.189
221	0.189
221	0.196
222	0.201
222	0.204
223	0.214
223	0.217
224	0.219
224	0.226
225	0.236
225	0.248
226	0.26
226	0.273
227	0.283
227	0.294
228	0.312
228	0.326
229	0.342
229	0.369
229	0.392
230	0.413
230	0.44
231	0.471
231	0.508
232	0.549
232	0.592
233	0.632
233	0.677
234	0.727
234	0.777
235	0.83
235	0.887
236	0.942
236	0.992
236	1.041
237	1.089
237	1.138
238	1.185
238	1.234
239	1.279
239	1.321
240	1.36
240	1.392
241	1.425
241	1.459
242	1.491
242	1.524
243	1.554
243	1.581
243	1.604
244	1.623
244	1.642
245	1.66
245	1.684
246	1.702
246	1.72
247	1.732
247	1.745
248	1.756
248	1.77
249	1.779
249	1.788
250	1.795
250	1.803
250	1.803
251	1.806
251	1.806
252	1.809
252	1.808
253	1.808
253	1.805
254	1.803
254	1.805
255	1.803
255	1.801
256	1.8
256	1.8
257	1.799
257	1.797
258	1.796
258	1.797
258	1.797
259	1.797
259	1.795
260	1.795
260	1.797
261	1.797
261	1.798
262	1.801
262	1.803
263	1.805
263	1.805
264	1.805
264	1.804
265	1.805
265	1.805
265	1.805
266	1.804
266	1.805
267	1.802
267	1.803
268	1.801
268	1.803
269	1.803
269	1.803
270	1.802
270	1.801
271	1.799
271	1.798
272	1.794
272	1.793
272	1.789
273	1.783
273	1.777
274	1.771
274	1.764
275	1.757
275	1.752
276	1.743
276	1.736
277	1.728
277	1.717
278	1.706
278	1.693
278	1.678
279	1.662
279	1.641
280	1.616
280	1.584
281	1.549
281	1.51
282	1.47
282	1.428
283	1.386
283	1.346
284	1.307
284	1.269
285	1.234
285	1.202
285	1.173
286	1.148
286	1.125
287	1.105
287	1.089
288	1.075
288	1.062
289	1.052
289	1.043
290	1.035
290	1.028
291	1.022
291	1.017
292	1.012
292	1.007
292	1.003
293	0.999
293	0.995
294	0.992
294	0.989
295	0.986
295	0.983
296	0.98
296	0.977
297	0.974
297	0.971
298	0.969
298	0.966
298	0.963
299	0.96
299	0.958
300	0.954
300	0.952
301	0.949
301	0.947
302	0.944
302	0.942
303	0.939
303	0.937
304	0.935
304	0.932
305	0.93
305	0.928
305	0.925
306	0.923
306	0.92
307	0.918
307	0.916
308	0.913
308	0.91
309	0.908
309	0.905
310	0.902
310	0.899
311	0.895
311	0.892
311	0.889
312	0.886
312	0.882
313	0.879
313	0.875
314	0.871
314	0.867
315	0.863
315	0.859
316	0.855
316	0.851
317	0.846
317	0.841
318	0.837
318	0.831
318	0.827
319	0.822
319	0.816
320	0.811
320	0.805
321	0.799
321	0.793
322	0.787
322	0.781
323	0.774
323	0.768
324	0.762
324	0.755
324	0.749
325	0.742
325	0.736
326	0.729
326	0.722
327	0.716
327	0.709
328	0.702
328	0.695
329	0.688
329	0.681
330	0.674
330	0.667
330	0.66
331	0.653
331	0.647
332	0.64
332	0.633
333	0.626
333	0.62
334	0.613
334	0.607
335	0.6
335	0.593
336	0.587
336	0.581
336	0.574
337	0.568
337	0.562
338	0.556
338	0.55
339	0.544
339	0.538
340	0.532
340	0.526
341	0.521
341	0.515
342	0.51
342	0.504
342	0.499
343	0.494
343	0.489
344	0.484
344	0.479
345	0.474
345	0.47
346	0.465
346	0.461
347	0.457
347	0.452
348	0.449
348	0.445
348	0.441
349	0.437
349	0.434
350	0.43
350	0.427
351	0.423
351	0.42
352	0.417
352	0.414
353	0.411
353	0.409
354	0.406
354	0.403
354	0.4
355	0.397
355	0.394
356	0.391
356	0.388
357	0.385
357	0.382
358	0.379
358	0.377
359	0.374
359	0.372
360	0.37
360	0.368
360	0.366
361	0.365
361	0.363
362	0.362
362	0.36
363	0.358
363	0.357
364	0.355
364	0.353
365	0.351
365	0.349
366	0.347
366	0.346
366	0.344
367	0.342
367	0.341
368	0.339
368	0.337
369	0.336
369	0.334
370	0.333
370	0.332
371	0.33
371	0.329
372	0.328
372	0.327
372	0.325
373	0.325
373	0.324
374	0.323
374	0.322
375	0.321
375	0.32
376	0.319
376	0.318
377	0.317
377	0.316
378	0.315
378	0.314
378	0.313
379	0.313
379	0.312
380	0.311
380	0.31
381	0.31
381	0.309
382	0.308
382	0.308
383	0.307
383	0.306
383	0.306
384	0.305
384	0.305
385	0.304
385	0.303
386	0.303
386	0.302
387	0.302
387	0.301
388	0.301
388	0.301
389	0.3
389	0.3
389	0.299
390	0.299
390	0.299
391	0.298
391	0.298
392	0.297
392	0.297
393	0.297
393	0.296
394	0.296
394	0.296
394	0.295
395	0.295
395	0.294
396	0.294
396	0.293
397	0.293
397	0.293
398	0.292
398	0.292
399	0.292
399	0.291
400	0.291
400	0.291
400	0.29
401	0.29
401	0.29
402	0.289
402	0.289
403	0.289
403	0.288
404	0.288
404	0.288
405	0.288
405	0.287
405	0.287
406	0.287
406	0.286
407	0.286
407	0.286
408	0.285
408	0.285
409	0.285
409	0.284
410	0.284
410	0.284
411	0.284
411	0.283
411	0.283
412	0.283
412	0.283
413	0.282
413	0.282
414	0.282
414	0.282
415	0.281
415	0.281
416	0.281
416	0.281
416	0.28
417	0.28
417	0.28
418	0.28
418	0.279
419	0.279
419	0.278
420	0.278
420	0.277
421	0.277
421	0.277
421	0.276
422	0.276
422	0.275
423	0.275
423	0.275
424	0.274
424	0.274
425	0.274
425	0.273
426	0.273
426	0.273
427	0.272
427	0.272
427	0.272
428	0.271
428	0.271
429	0.271
429	0.271
430	0.27
430	0.27
431	0.27
431	0.27
432	0.27
432	0.27
432	0.269
433	0.269
433	0.269
434	0.269
434	0.269
435	0.269
435	0.269
436	0.269
436	0.268
437	0.268
437	0.268
437	0.268
438	0.267
438	0.267
439	0.267
439	0.267
440	0.266
440	0.266
441	0.266
441	0.265
442	0.265
442	0.265
442	0.265
443	0.265
443	0.265
444	0.265
444	0.264
445	0.264
445	0.264
446	0.264
446	0.263
447	0.263
447	0.263
447	0.263
448	0.263
448	0.262
449	0.262
449	0.262
450	0.262
450	0.262
451	0.262
451	0.262
452	0.261
452	0.261
452	0.261
453	0.261
453	0.261
454	0.261
454	0.261
455	0.261
455	0.261
456	0.26
456	0.26
457	0.26
457	0.26
458	0.26
458	0.26
458	0.26
459	0.259
459	0.259
460	0.259
460	0.259
461	0.259
461	0.259
462	0.259
462	0.259
463	0.259
463	0.258
463	0.258
464	0.258
464	0.258
465	0.258
465	0.258
466	0.258
466	0.258
467	0.258
467	0.258
467	0.258
468	0.258
468	0.258
469	0.258
469	0.258
470	0.259
470	0.259
471	0.259
471	0.259
472	0.259
472	0.259
472	0.259
473	0.259
473	0.259
474	0.259
474	0.259
475	0.259
475	0.259
476	0.259
476	0.259
477	0.26
477	0.26
477	0.26
478	0.26
478	0.26
479	0.261
479	0.261
480	0.261
480	0.262
481	0.262
481	0.262
482	0.262
482	0.262
482	0.263
483	0.263
483	0.264
484	0.264
484	0.264
485	0.265
485	0.265
486	0.265
486	0.265
487	0.266
487	0.266
487	0.267
488	0.267
488	0.268
489	0.268
489	0.269
490	0.27
490	0.271
491	0.272
491	0.273
492	0.273
492	0.274
492	0.275
493	0.276
493	0.276
494	0.277
494	0.278
495	0.278
495	0.279
496	0.28
496	0.28
496	0.281
497	0.281
497	0.282
498	0.282
498	0.283
499	0.284
499	0.284
500	0.285
500	0.286
501	0.287
501	0.287
501	0.288
502	0.289
502	0.289
503	0.29
503	0.291
504	0.292
504	0.292
505	0.293
505	0.294
506	0.295
506	0.296
506	0.296
507	0.297
507	0.298
508	0.298
508	0.299
509	0.3
509	0.301
510	0.301
510	0.302
511	0.302
511	0.303
511	0.304
512	0.304
512	0.305
513	0.306
513	0.306
514	0.307
514	0.307
515	0.308
515	0.308
515	0.309
516	0.309
516	0.31
517	0.31
517	0.311
518	0.311
518	0.311
519	0.312
519	0.312
520	0.312
520	0.312
520	0.313
521	0.313
521	0.313
522	0.313
522	0.313
523	0.314
523	0.314
524	0.314
524	0.314
524	0.314
525	0.314
525	0.313
526	0.313
526	0.313
527	0.313
527	0.313
528	0.312
528	0.312
529	0.312
529	0.312
529	0.311
530	0.311
530	0.311
531	0.31
531	0.31
532	0.309
532	0.308
533	0.308
533	0.307
533	0.307
534	0.306
534	0.306
535	0.305
535	0.304
536	0.304
536	0.303
537	0.302
537	0.302
538	0.301
538	0.3
538	0.299
539	0.298
539	0.297
540	0.296
540	0.296
541	0.295
541	0.294
542	0.293
542	0.292
542	0.291
543	0.29
543	0.289
544	0.288
544	0.287
545	0.287
545	0.286
546	0.285
546	0.285
547	0.284
547	0.282
547	0.282
548	0.281
548	0.28
549	0.279
549	0.279
550	0.277
550	0.277
551	0.276
551	0.274
551	0.273
552	0.272
552	0.272
553	0.271
553	0.27
554	0.269
554	0.267
555	0.266
555	0.265
556	0.264
556	0.263
556	0.262
557	0.261
557	0.261
558	0.26
558	0.259
559	0.258
559	0.258
560	0.257
560	0.256
560	0.256
561	0.255
561	0.254
562	0.253
562	0.252
563	0.25
563	0.249
564	0.248
564	0.247
564	0.247
565	0.246
565	0.245
566	0.244
566	0.244
567	0.243
567	0.243
568	0.242
568	0.241
568	0.241
569	0.24
569	0.239
570	0.238
570	0.237
571	0.236
571	0.236
572	0.235
572	0.234
573	0.233
573	0.233
573	0.232
574	0.231
574	0.23
575	0.23
575	0.229
576	0.229
576	0.228
577	0.227
577	0.226
577	0.225
578	0.224
578	0.224
579	0.224
579	0.224
580	0.223
580	0.222
581	0.221
581	0.221
581	0.221
582	0.221
582	0.22
583	0.22
583	0.22
584	0.219
584	0.217
585	0.217
585	0.216
585	0.216
586	0.215
586	0.215
587	0.214
587	0.213
588	0.213
588	0.212
589	0.211
589	0.211
590	0.211
590	0.21
590	0.21
591	0.21
591	0.209
592	0.208
592	0.207
593	0.207
593	0.207
594	0.206
594	0.205
594	0.204
595	0.204
595	0.203
596	0.202
596	0.202
597	0.202
597	0.202
598	0.202
598	0.202
598	0.201
599	0.201
599	0.201
600	0.2
600	0.199
601	0.199
601	0.199
602	0.198
602	0.197
602	0.196
603	0.196
603	0.196
604	0.196
604	0.196
605	0.196
605	0.196
606	0.195
606	0.194
606	0.194
607	0.193
607	0.193
608	0.193
608	0.192
609	0.191
609	0.19
610	0.19
610	0.189
610	0.189
611	0.189
611	0.189
612	0.188
612	0.188
613	0.189
613	0.189
614	0.189
614	0.189
614	0.189
615	0.189
615	0.189
616	0.189
616	0.189
617	0.189
617	0.188
618	0.188
618	0.188
618	0.187
619	0.187
619	0.187
620	0.187
620	0.186
621	0.186
621	0.185
622	0.185
622	0.184
622	0.184
623	0.183
623	0.183
624	0.182
624	0.181
625	0.181
625	0.181
626	0.18
626	0.18
626	0.18
627	0.18
627	0.18
628	0.18
628	0.18
629	0.18
629	0.179
630	0.179
630	0.179
630	0.179
631	0.178
631	0.178
632	0.177
632	0.177
633	0.176
633	0.176
634	0.176
634	0.176
634	0.176
635	0.175
635	0.175
636	0.175
636	0.176
637	0.176
637	0.176
638	0.176
638	0.176
638	0.175
639	0.175
639	0.175
640	0.175
640	0.174
641	0.174
641	0.174
642	0.173
642	0.173
642	0.173
643	0.172
643	0.172
644	0.172
644	0.172
645	0.172
645	0.172
646	0.173
646	0.173
646	0.174
647	0.174
647	0.173
648	0.173
648	0.172
649	0.172
649	0.172
650	0.171
650	0.171
650	0.171
651	0.171
651	0.17
652	0.17
652	0.17
653	0.171
653	0.172
653	0.178
654	0.141
654	0.113
655	0.113
655	0.113
656	0.114
656	0.114
657	0.114
657	0.115
657	0.115
658	0.113
658	0.104
659	0.131
659	0.167
660	0.172
660	0.172
661	0.171
661	0.17
661	0.17
662	0.169
662	0.169
663	0.168
663	0.168
664	0.168
664	0.167
665	0.167
665	0.167
665	0.168
666	0.168
666	0.168
667	0.168
667	0.169
668	0.169
668	0.169
669	0.169
669	0.169
669	0.169
670	0.169
670	0.169
671	0.168
671	0.168
672	0.168
672	0.167
672	0.167
673	0.167
673	0.167
674	0.167
674	0.166
675	0.166
675	0.166
676	0.167
676	0.167
676	0.167
677	0.167
677	0.167
678	0.167
678	0.167
679	0.167
679	0.167
680	0.168
680	0.167
680	0.167
681	0.167
681	0.168
682	0.168
682	0.168
683	0.168
683	0.169
684	0.169
684	0.169
684	0.168
685	0.168
685	0.168
686	0.168
686	0.168
687	0.168
687	0.168
687	0.168
688	0.168
688	0.168
689	0.168
689	0.169
690	0.169
690	0.169
691	0.169
691	0.169
691	0.169
692	0.169
692	0.169
693	0.169
693	0.17
694	0.169
694	0.169
695	0.17
695	0.171
695	0.17
696	0.17
696	0.17
697	0.17
697	0.17
698	0.17
698	0.169
698	0.169
699	0.169
699	0.168
700	0.167
700	0.167
701	0.167
701	0.167
702	0.166
702	0.166
702	0.166
703	0.166
703	0.166
704	0.166
704	0.166
705	0.167
705	0.167
705	0.168
706	0.169
706	0.169
707	0.17
707	0.171
708	0.172
708	0.172
709	0.172
709	0.172
709	0.172
710	0.171
710	0.171
711	0.171
711	0.171
712	0.171
712	0.17
713	0.17
713	0.17
713	0.17
714	0.17
714	0.17
715	0.169
715	0.169
716	0.169
716	0.169
716	0.168
717	0.168
717	0.168
718	0.168
718	0.168
719	0.169
719	0.169
720	0.17
720	0.171
720	0.172
721	0.172
721	0.173
722	0.173
722	0.173
723	0.173
723	0.174
723	0.174
724	0.173
724	0.173
725	0.172
725	0.171
726	0.17
726	0.17
727	0.17
727	0.169
727	0.169
728	0.169
728	0.169
729	0.169
729	0.169
730	0.169
730	0.17
730	0.17
731	0.171
731	0.171
732	0.172
732	0.172
733	0.173
733	0.173
734	0.173
734	0.174
734	0.174
735	0.174
735	0.174
736	0.173
736	0.173
737	0.173
737	0.173
737	0.173
738	0.172
738	0.171
739	0.171
739	0.171
740	0.171
740	0.172
741	0.172
741	0.173
741	0.173
742	0.174
742	0.175
743	0.176
743	0.176
744	0.177
744	0.178
744	0.179
745	0.179
745	0.179
746	0.18
746	0.18
747	0.18
747	0.18
748	0.18
748	0.18
748	0.18
749	0.18
749	0.179
750	0.179
750	0.179
751	0.178
751	0.178
751	0.177
752	0.177
752	0.176
753	0.175
753	0.175
754	0.175
754	0.174
754	0.174
755	0.174
755	0.174
756	0.174
756	0.174
757	0.173
757	0.174
758	0.174
758	0.174
758	0.175
759	0.176
759	0.175
760	0.175
760	0.175
761	0.176
761	0.176
761	0.176
762	0.176
762	0.176
763	0.176
763	0.175
764	0.175
764	0.175
764	0.174
765	0.174
765	0.173
766	0.173
766	0.173
767	0.174
767	0.173
768	0.173
768	0.173
768	0.174
769	0.174
769	0.175
770	0.176
770	0.176
771	0.177
771	0.177
771	0.177
772	0.178
772	0.178
773	0.178
773	0.179
774	0.179
774	0.179
775	0.179
775	0.179
775	0.18
776	0.18
776	0.181
777	0.181
777	0.181
778	0.181
778	0.181
778	0.18
779	0.18
779	0.179
780	0.178
780	0.177
781	0.176
781	0.176
781	0.175
782	0.174
782	0.174
783	0.174
783	0.174
784	0.174
784	0.174
784	0.174
785	0.174
785	0.175
786	0.175
786	0.175
787	0.175
787	0.175
788	0.175
788	0.175
788	0.175
789	0.175
789	0.175
790	0.176
790	0.176
791	0.176
791	0.176
791	0.176
792	0.176
792	0.176
793	0.176
793	0.176
794	0.176
794	0.175
794	0.175
795	0.175
795	0.175
796	0.175
796	0.175
797	0.174
797	0.175
797	0.175
798	0.175
798	0.175
799	0.175
799	0.175
800	0.175
800	0.175
801	0.174
801	0.174
801	0.174
802	0.174
802	0.174
803	0.173
803	0.173
804	0.174
804	0.174
804	0.174
805	0.174
805	0.174
806	0.174
806	0.174
807	0.174
807	0.174
807	0.174
808	0.174
808	0.174
809	0.173
809	0.173
810	0.173
810	0.173
810	0.173
811	0.173
811	0.174
812	0.174
812	0.175
813	0.175
813	0.176
813	0.176
814	0.177
814	0.178
815	0.178
815	0.178
816	0.178
816	0.178
817	0.177
817	0.176
817	0.175
818	0.174
818	0.174
819	0.173
819	0.172
820	0.17
820	0.17
820	0.169
821	0.168
821	0.168
822	0.168
822	0.167
823	0.167
823	0.166
823	0.166
824	0.167
824	0.167
825	0.168
825	0.169
826	0.169
826	0.17
826	0.17
827	0.171
827	0.171
828	0.171
828	0.171
829	0.171
829	0.171
829	0.171
830	0.171
830	0.171
831	0.172
831	0.172
832	0.171
832	0.172
832	0.172
833	0.171
833	0.171
834	0.171
834	0.171
835	0.17
835	0.17
835	0.17
836	0.17
836	0.17
837	0.17
837	0.17
838	0.17
838	0.17
839	0.169
839	0.168
839	0.167
840	0.166
840	0.165
841	0.163
841	0.162
842	0.161
842	0.159
842	0.158
843	0.157
843	0.156
844	0.155
844	0.154
845	0.154
845	0.153
845	0.153
846	0.153
846	0.153
847	0.153
847	0.153
848	0.153
848	0.153
848	0.153
849	0.153
849	0.153
850	0.153
850	0.153
851	0.153
851	0.154
851	0.154
852	0.154
852	0.154
853	0.154
853	0.154
854	0.155
854	0.156
854	0.157
855	0.157
855	0.158
856	0.158
856	0.159
857	0.16
857	0.16
857	0.161
858	0.161
858	0.161
859	0.161
859	0.16
860	0.16
860	0.16
860	0.16
861	0.159
861	0.159
862	0.158
862	0.157
863	0.157
863	0.156
863	0.156
864	0.156
864	0.156
865	0.156
865	0.156
866	0.155
866	0.155
866	0.154
867	0.154
867	0.154
868	0.154
868	0.153
869	0.153
869	0.152
869	0.152
870	0.151
870	0.151
871	0.151
871	0.151
872	0.15
872	0.15
872	0.149
873	0.149
873	0.148
874	0.147
874	0.146
875	0.146
875	0.145
875	0.145
876	0.145
876	0.144
877	0.144
877	0.145
878	0.145
878	0.146
878	0.146
879	0.147
879	0.147
880	0.147
880	0.147
881	0.147
881	0.147
881	0.147
882	0.146
882	0.146
883	0.145
883	0.145
884	0.145
884	0.144
884	0.144
885	0.144
885	0.143
886	0.143
886	0.143
887	0.143
887	0.142
887	0.142
888	0.142
888	0.142
889	0.142
889	0.142
890	0.143
890	0.143
890	0.144
891	0.144
891	0.144
892	0.144
892	0.144
893	0.144
893	0.143
893	0.142
894	0.141
894	0.14
895	0.139
895	0.138
895	0.137
896	0.136
896	0.136
897	0.135
897	0.134
898	0.134
898	0.133
898	0.133
899	0.132
899	0.132
900	0.132
900	0.132
901	0.131
901	0.131
901	0.131
902	0.131
902	0.131
903	0.131
903	0.131
904	0.13
904	0.13
904	0.129
905	0.128
905	0.128
906	0.127
906	0.127
907	0.126
907	0.126
907	0.126
908	0.125
908	0.125
909	0.125
909	0.125
910	0.124
910	0.124
910	0.124
911	0.124
911	0.124
912	0.123
912	0.123
913	0.123
913	0.124
913	0.124
914	0.124
914	0.124
915	0.124
915	0.124
916	0.123
916	0.123
916	0.123
917	0.122
917	0.121
918	0.121
918	0.12
918	0.12
919	0.119
919	0.119
920	0.118
920	0.118
921	0.117
921	0.117
921	0.117
922	0.117
922	0.117
923	0.117
923	0.117
924	0.118
924	0.118
924	0.118
925	0.119
925	0.119
926	0.119
926	0.12
927	0.12
927	0.12
927	0.119
928	0.119
928	0.118
929	0.118
929	0.118
930	0.117
930	0.117
930	0.116
931	0.115
931	0.115
932	0.115
932	0.114
933	0.114
933	0.113
933	0.112
934	0.112
934	0.111
935	0.11
935	0.11
935	0.109
936	0.109
936	0.108
937	0.107
937	0.106
938	0.106
938	0.105
938	0.104
939	0.103
939	0.102
940	0.102
940	0.101
941	0.101
941	0.101
941	0.101
942	0.101
942	0.101
943	0.102
943	0.102
944	0.103
944	0.103
944	0.104
945	0.104
945	0.105
946	0.105
946	0.105
946	0.105
947	0.106
947	0.106
948	0.106
948	0.105
949	0.105
949	0.105
949	0.104
950	0.103
950	0.103
951	0.102
951	0.101
952	0.1
952	0.099
952	0.099
953	0.098
953	0.098
954	0.097
954	0.097
955	0.097
955	0.096
955	0.096
956	0.096
956	0.096
957	0.097
957	0.097
957	0.098
958	0.098
958	0.099
959	0.099
959	0.099
960	0.1
960	0.1
960	0.101
961	0.1
961	0.1
962	0.1
962	0.1
963	0.099
963	0.099
963	0.098
964	0.098
964	0.097
965	0.096
965	0.096
966	0.095
966	0.095
966	0.095
967	0.095
967	0.094
968	0.094
968	0.094
968	0.094
969	0.094
969	0.094
970	0.093
970	0.093
971	0.092
971	0.092
971	0.091
972	0.091
972	0.09
973	0.09
973	0.09
974	0.09
974	0.089
974	0.089
975	0.09
975	0.09
976	0.09
976	0.09
976	0.091
977	0.091
977	0.091
978	0.092
978	0.092
979	0.092
979	0.093
979	0.093
980	0.093
980	0.093
981	0.093
981	0.093
982	0.093
982	0.093
982	0.093
983	0.093
983	0.092
984	0.092
984	0.092
984	0.092
985	0.092
985	0.091
986	0.091
986	0.09
987	0.09
987	0.089
987	0.088
988	0.088
988	0.087
989	0.087
989	0.086
990	0.086
990	0.085
990	0.085
991	0.084
991	0.084
992	0.084
992	0.083
992	0.083
993	0.082
993	0.082
994	0.081
994	0.081
995	0.081
995	0.081
995	0.081
996	0.081
996	0.081
997	0.081
997	0.081
997	0.082
998	0.082
998	0.083
999	0.083
999	0.084
1000	0.085
1000	0.085
1000	0.086
1001	0.086
1001	0.086
1002	0.086
1002	0.086
1003	0.087
1003	0.087
1003	0.086
1004	0.086
1004	0.086
1005	0.086
1005	0.086
1005	0.086
1006	0.086
1006	0.086
1007	0.086
1007	0.086
1008	0.086
1008	0.086
1008	0.086
1009	0.086
1009	0.086
1010	0.085
1010	0.085
1010	0.085
1011	0.085
1011	0.084
1012	0.083
1012	0.083
1013	0.082
1013	0.081
1013	0.08
1014	0.08
1014	0.079
1015	0.078
1015	0.078
1016	0.078
1016	0.077
1016	0.077
1017	0.077
1017	0.076
1018	0.076
1018	0.076
1018	0.076
1019	0.076
1019	0.075
1020	0.075
1020	0.075
1021	0.076
1021	0.076
1021	0.076
1022	0.076
1022	0.076
1023	0.076
1023	0.076
1023	0.076
1024	0.076
1024	0.076
1025	0.075
1025	0.075
1026	0.074
1026	0.074
1026	0.074
1027	0.074
1027	0.074
1028	0.074
1028	0.074
1028	0.074
1029	0.074
1029	0.075
1030	0.075
1030	0.076
1031	0.076
1031	0.076
1031	0.077
1032	0.077
1032	0.077
1033	0.077
1033	0.077
1033	0.077
1034	0.077
1034	0.077
1035	0.076
1035	0.076
1036	0.075
1036	0.075
1036	0.074
1037	0.074
1037	0.073
1038	0.073
1038	0.072
1039	0.072
1039	0.072
1039	0.072
1040	0.071
1040	0.071
1041	0.071
1041	0.071
1041	0.071
1042	0.071
1042	0.071
1043	0.071
1043	0.071
1044	0.071
1044	0.071
1044	0.071
1045	0.071
1045	0.072
1046	0.072
1046	0.072
1046	0.073
1047	0.073
1047	0.073
1048	0.074
1048	0.074
1049	0.074
1049	0.074
1049	0.074
1050	0.073
1050	0.072
1051	0.072
1051	0.071
1051	0.07
1052	0.07
1052	0.069
1053	0.068
1053	0.066
1053	0.066
1054	0.065
1054	0.065
1055	0.065
1055	0.064
1056	0.064
1056	0.064
1056	0.063
1057	0.063
1057	0.063
1058	0.063
1058	0.062
1058	0.062
1059	0.061
1059	0.061
1060	0.06
1060	0.06
1061	0.06
1061	0.06
1061	0.06
1062	0.06
1062	0.06
1063	0.06
1063	0.06
1063	0.06
1064	0.06
1064	0.061
1065	0.06
1065	0.06
1066	0.06
1066	0.06
1066	0.06
1067	0.06
1067	0.059
1068	0.059
1068	0.058
1068	0.058
1069	0.057
1069	0.057
1070	0.056
1070	0.056
1071	0.055
1071	0.055
1071	0.054
1072	0.054
1072	0.054
1073	0.053
1073	0.053
1073	0.052
1074	0.052
1074	0.052
1075	0.052
1075	0.052
1076	0.052
1076	0.052
1076	0.053
1077	0.053
1077	0.053
1078	0.054
1078	0.054
1078	0.055
1079	0.055
1079	0.056
1080	0.056
1080	0.057
1080	0.057
1081	0.058
1081	0.058
1082	0.059
1082	0.059
1083	0.06
1083	0.059
1083	0.059
1084	0.059
1084	0.059
1085	0.059
1085	0.058
1085	0.058
1086	0.057
1086	0.057
1087	0.056
1087	0.055
1088	0.054
1088	0.054
1088	0.054
1089	0.053
1089	0.053
1090	0.053
1090	0.052
1090	0.052
1091	0.052
1091	0.052
1092	0.053
1092	0.053
1092	0.053
1093	0.053
1093	0.053
1094	0.053
1094	0.053
1095	0.053
1095	0.053
1095	0.053
1096	0.053
1096	0.052
1097	0.051
1097	0.051
1097	0.051
1098	0.051
1098	0.05
1099	0.05
1099	0.049
1100	0.048
1100	0.047
1100	0.046
1101	0.045
1101	0.045
1102	0.044
1102	0.043
1102	0.042
1103	0.041
1103	0.041
1104	0.041
1104	0.041
1104	0.041
1105	0.04
1105	0.038
1106	0.037
1106	0.036
1107	0.035
1107	0.034
1107	0.034
1108	0.033
1108	0.032
1109	0.03
1109	0.029
1109	0.029
1110	0.032
1110	0.03
1111	0.031
1111	0.034
