Data from reversibility-20sec_Absorbance__3545__000000000003545.txt Node

Date: Wed Dec 06 07:54:47 CET 2023
User: Marek
Spectrometer: MAYP115816
Trigger mode: 0
Integration Time (sec): 2.000000E-1
Scans to average: 10
Electric dark correction enabled: true
Nonlinearity correction enabled: true
Boxcar width: 5
XAxis mode: Wavelengths
Number of Pixels in Spectrum: 2068
>>>>>Begin Spectral Data<<<<<
199	-0.181
199	-0.15
200	-0.073
200	-0.021
201	0.01
201	0.029
202	0.042
202	0.051
203	0.059
203	0.065
204	0.079
204	0.097
205	0.112
205	0.117
205	0.118
206	0.119
206	0.119
207	0.122
207	0.122
208	0.12
208	0.118
209	0.12
209	0.119
210	0.119
210	0.118
211	0.118
211	0.119
212	0.116
212	0.118
213	0.123
213	0.126
213	0.128
214	0.133
214	0.135
215	0.139
215	0.14
216	0.146
216	0.146
217	0.15
217	0.151
218	0.15
218	0.155
219	0.161
219	0.16
220	0.158
220	0.157
221	0.158
221	0.158
221	0.162
222	0.167
222	0.173
223	0.179
223	0.183
224	0.186
224	0.194
225	0.204
225	0.215
226	0.227
226	0.239
227	0.25
227	0.263
228	0.275
228	0.29
229	0.305
229	0.329
229	0.352
230	0.378
230	0.408
231	0.44
231	0.478
232	0.516
232	0.559
233	0.6
233	0.649
234	0.703
234	0.754
235	0.804
235	0.857
236	0.904
236	0.955
236	1.007
237	1.058
237	1.108
238	1.155
238	1.202
239	1.248
239	1.287
240	1.326
240	1.366
241	1.406
241	1.44
242	1.471
242	1.505
243	1.534
243	1.561
243	1.584
244	1.605
244	1.628
245	1.648
245	1.669
246	1.683
246	1.698
247	1.709
247	1.721
248	1.733
248	1.746
249	1.755
249	1.765
250	1.775
250	1.78
250	1.782
251	1.787
251	1.791
252	1.797
252	1.797
253	1.799
253	1.797
254	1.799
254	1.797
255	1.795
255	1.795
256	1.795
256	1.793
257	1.794
257	1.792
258	1.793
258	1.791
258	1.79
259	1.791
259	1.79
260	1.789
260	1.79
261	1.791
261	1.794
262	1.795
262	1.796
263	1.799
263	1.801
264	1.803
264	1.803
265	1.804
265	1.805
265	1.805
266	1.803
266	1.803
267	1.8
267	1.802
268	1.801
268	1.799
269	1.8
269	1.797
270	1.796
270	1.795
271	1.792
271	1.793
272	1.79
272	1.789
272	1.784
273	1.778
273	1.773
274	1.768
274	1.762
275	1.756
275	1.75
276	1.743
276	1.734
277	1.727
277	1.718
278	1.707
278	1.696
278	1.683
279	1.667
279	1.648
280	1.626
280	1.599
281	1.567
281	1.531
282	1.493
282	1.454
283	1.416
283	1.378
284	1.341
284	1.305
285	1.271
285	1.239
285	1.211
286	1.187
286	1.165
287	1.146
287	1.13
288	1.116
288	1.104
289	1.094
289	1.084
290	1.077
290	1.07
291	1.064
291	1.059
292	1.054
292	1.049
292	1.045
293	1.041
293	1.037
294	1.033
294	1.031
295	1.027
295	1.024
296	1.021
296	1.018
297	1.015
297	1.012
298	1.009
298	1.006
298	1.003
299	1
299	0.997
300	0.995
300	0.992
301	0.989
301	0.987
302	0.984
302	0.981
303	0.978
303	0.976
304	0.974
304	0.972
305	0.969
305	0.966
305	0.964
306	0.962
306	0.959
307	0.957
307	0.955
308	0.952
308	0.949
309	0.947
309	0.944
310	0.941
310	0.938
311	0.935
311	0.932
311	0.928
312	0.925
312	0.922
313	0.918
313	0.914
314	0.91
314	0.906
315	0.902
315	0.898
316	0.894
316	0.889
317	0.884
317	0.879
318	0.874
318	0.87
318	0.864
319	0.859
319	0.854
320	0.849
320	0.842
321	0.837
321	0.831
322	0.825
322	0.819
323	0.812
323	0.806
324	0.8
324	0.793
324	0.786
325	0.78
325	0.773
326	0.767
326	0.76
327	0.754
327	0.747
328	0.74
328	0.733
329	0.726
329	0.72
330	0.713
330	0.706
330	0.699
331	0.692
331	0.686
332	0.679
332	0.672
333	0.665
333	0.658
334	0.651
334	0.645
335	0.638
335	0.631
336	0.625
336	0.618
336	0.612
337	0.606
337	0.6
338	0.593
338	0.588
339	0.582
339	0.576
340	0.57
340	0.565
341	0.559
341	0.554
342	0.548
342	0.543
342	0.538
343	0.533
343	0.528
344	0.523
344	0.518
345	0.513
345	0.509
346	0.504
346	0.5
347	0.496
347	0.492
348	0.487
348	0.484
348	0.48
349	0.476
349	0.472
350	0.469
350	0.465
351	0.462
351	0.459
352	0.456
352	0.453
353	0.45
353	0.447
354	0.444
354	0.441
354	0.438
355	0.435
355	0.432
356	0.43
356	0.427
357	0.423
357	0.421
358	0.418
358	0.415
359	0.413
359	0.41
360	0.408
360	0.406
360	0.405
361	0.403
361	0.401
362	0.4
362	0.398
363	0.396
363	0.394
364	0.392
364	0.39
365	0.388
365	0.387
366	0.385
366	0.383
366	0.381
367	0.379
367	0.378
368	0.376
368	0.374
369	0.373
369	0.371
370	0.37
370	0.368
371	0.367
371	0.366
372	0.364
372	0.363
372	0.362
373	0.361
373	0.36
374	0.358
374	0.357
375	0.356
375	0.355
376	0.354
376	0.353
377	0.352
377	0.351
378	0.35
378	0.349
378	0.347
379	0.347
379	0.346
380	0.345
380	0.344
381	0.343
381	0.342
382	0.342
382	0.341
383	0.341
383	0.34
383	0.339
384	0.339
384	0.338
385	0.337
385	0.337
386	0.336
386	0.336
387	0.335
387	0.335
388	0.334
388	0.334
389	0.333
389	0.333
389	0.332
390	0.331
390	0.331
391	0.33
391	0.33
392	0.329
392	0.329
393	0.328
393	0.328
394	0.327
394	0.327
394	0.327
395	0.326
395	0.326
396	0.325
396	0.325
397	0.324
397	0.324
398	0.323
398	0.323
399	0.322
399	0.322
400	0.322
400	0.321
400	0.321
401	0.321
401	0.32
402	0.32
402	0.319
403	0.319
403	0.318
404	0.318
404	0.317
405	0.317
405	0.317
405	0.316
406	0.316
406	0.316
407	0.315
407	0.315
408	0.315
408	0.315
409	0.314
409	0.314
410	0.313
410	0.313
411	0.313
411	0.313
411	0.313
412	0.312
412	0.312
413	0.311
413	0.311
414	0.311
414	0.31
415	0.31
415	0.31
416	0.309
416	0.309
416	0.308
417	0.308
417	0.308
418	0.307
418	0.307
419	0.306
419	0.306
420	0.306
420	0.305
421	0.305
421	0.305
421	0.304
422	0.304
422	0.304
423	0.303
423	0.303
424	0.302
424	0.302
425	0.302
425	0.302
426	0.301
426	0.301
427	0.301
427	0.3
427	0.3
428	0.3
428	0.299
429	0.299
429	0.299
430	0.298
430	0.298
431	0.298
431	0.298
432	0.298
432	0.298
432	0.297
433	0.297
433	0.297
434	0.297
434	0.297
435	0.297
435	0.297
436	0.296
436	0.296
437	0.296
437	0.296
437	0.296
438	0.296
438	0.295
439	0.295
439	0.295
440	0.294
440	0.294
441	0.294
441	0.294
442	0.293
442	0.293
442	0.293
443	0.292
443	0.292
444	0.292
444	0.292
445	0.292
445	0.292
446	0.292
446	0.291
447	0.291
447	0.291
447	0.291
448	0.291
448	0.291
449	0.291
449	0.291
450	0.291
450	0.291
451	0.291
451	0.291
452	0.291
452	0.291
452	0.291
453	0.291
453	0.291
454	0.291
454	0.29
455	0.29
455	0.29
456	0.29
456	0.29
457	0.29
457	0.29
458	0.29
458	0.29
458	0.29
459	0.29
459	0.29
460	0.29
460	0.29
461	0.29
461	0.29
462	0.29
462	0.29
463	0.29
463	0.29
463	0.29
464	0.29
464	0.289
465	0.289
465	0.289
466	0.289
466	0.289
467	0.29
467	0.29
467	0.29
468	0.29
468	0.29
469	0.291
469	0.291
470	0.292
470	0.292
471	0.292
471	0.292
472	0.292
472	0.293
472	0.293
473	0.293
473	0.294
474	0.294
474	0.294
475	0.294
475	0.294
476	0.295
476	0.295
477	0.295
477	0.296
477	0.296
478	0.297
478	0.297
479	0.298
479	0.298
480	0.299
480	0.299
481	0.3
481	0.301
482	0.301
482	0.302
482	0.303
483	0.303
483	0.304
484	0.305
484	0.305
485	0.306
485	0.306
486	0.307
486	0.307
487	0.308
487	0.308
487	0.309
488	0.31
488	0.31
489	0.311
489	0.313
490	0.314
490	0.315
491	0.316
491	0.317
492	0.318
492	0.32
492	0.321
493	0.322
493	0.323
494	0.324
494	0.326
495	0.327
495	0.328
496	0.329
496	0.33
496	0.331
497	0.332
497	0.333
498	0.334
498	0.335
499	0.336
499	0.337
500	0.338
500	0.339
501	0.341
501	0.342
501	0.343
502	0.344
502	0.345
503	0.346
503	0.347
504	0.348
504	0.349
505	0.351
505	0.352
506	0.353
506	0.354
506	0.355
507	0.356
507	0.357
508	0.358
508	0.359
509	0.36
509	0.361
510	0.362
510	0.363
511	0.364
511	0.365
511	0.366
512	0.367
512	0.368
513	0.369
513	0.369
514	0.37
514	0.371
515	0.372
515	0.372
515	0.373
516	0.373
516	0.374
517	0.374
517	0.375
518	0.375
518	0.376
519	0.376
519	0.376
520	0.377
520	0.377
520	0.378
521	0.378
521	0.378
522	0.378
522	0.378
523	0.378
523	0.378
524	0.378
524	0.378
524	0.378
525	0.377
525	0.377
526	0.377
526	0.376
527	0.376
527	0.375
528	0.374
528	0.374
529	0.373
529	0.373
529	0.372
530	0.371
530	0.37
531	0.37
531	0.369
532	0.368
532	0.367
533	0.365
533	0.364
533	0.363
534	0.362
534	0.361
535	0.359
535	0.358
536	0.357
536	0.356
537	0.354
537	0.353
538	0.352
538	0.35
538	0.349
539	0.348
539	0.347
540	0.345
540	0.344
541	0.342
541	0.341
542	0.34
542	0.338
542	0.337
543	0.335
543	0.334
544	0.332
544	0.33
545	0.329
545	0.327
546	0.326
546	0.324
547	0.322
547	0.32
547	0.319
548	0.317
548	0.315
549	0.314
549	0.312
550	0.311
550	0.309
551	0.307
551	0.306
551	0.304
552	0.303
552	0.301
553	0.299
553	0.298
554	0.296
554	0.294
555	0.293
555	0.291
556	0.289
556	0.287
556	0.286
557	0.284
557	0.283
558	0.282
558	0.28
559	0.279
559	0.277
560	0.276
560	0.275
560	0.273
561	0.272
561	0.271
562	0.269
562	0.267
563	0.265
563	0.264
564	0.262
564	0.26
564	0.259
565	0.258
565	0.256
566	0.254
566	0.253
567	0.252
567	0.251
568	0.249
568	0.248
568	0.247
569	0.246
569	0.244
570	0.243
570	0.241
571	0.24
571	0.239
572	0.238
572	0.237
573	0.236
573	0.235
573	0.234
574	0.232
574	0.232
575	0.231
575	0.23
576	0.229
576	0.228
577	0.226
577	0.225
577	0.225
578	0.223
578	0.222
579	0.222
579	0.221
580	0.22
580	0.219
581	0.217
581	0.217
581	0.216
582	0.216
582	0.215
583	0.214
583	0.213
584	0.212
584	0.21
585	0.209
585	0.208
585	0.208
586	0.207
586	0.206
587	0.205
587	0.204
588	0.203
588	0.202
589	0.202
589	0.201
590	0.201
590	0.2
590	0.2
591	0.199
591	0.198
592	0.197
592	0.196
593	0.195
593	0.194
594	0.193
594	0.192
594	0.191
595	0.191
595	0.189
596	0.188
596	0.188
597	0.188
597	0.188
598	0.188
598	0.188
598	0.187
599	0.187
599	0.187
600	0.186
600	0.186
601	0.185
601	0.185
602	0.184
602	0.183
602	0.182
603	0.182
603	0.182
604	0.181
604	0.181
605	0.18
605	0.18
606	0.179
606	0.178
606	0.178
607	0.177
607	0.177
608	0.176
608	0.175
609	0.175
609	0.174
610	0.173
610	0.173
610	0.173
611	0.172
611	0.172
612	0.172
612	0.172
613	0.172
613	0.172
614	0.171
614	0.171
614	0.171
615	0.17
615	0.17
616	0.17
616	0.169
617	0.169
617	0.168
618	0.168
618	0.168
618	0.167
619	0.167
619	0.167
620	0.167
620	0.167
621	0.166
621	0.166
622	0.166
622	0.165
622	0.164
623	0.164
623	0.163
624	0.163
624	0.162
625	0.162
625	0.161
626	0.161
626	0.161
626	0.16
627	0.16
627	0.16
628	0.16
628	0.159
629	0.159
629	0.158
630	0.158
630	0.158
630	0.158
631	0.158
631	0.157
632	0.157
632	0.157
633	0.156
633	0.156
634	0.157
634	0.157
634	0.157
635	0.157
635	0.157
636	0.157
636	0.157
637	0.156
637	0.156
638	0.155
638	0.155
638	0.154
639	0.154
639	0.153
640	0.153
640	0.153
641	0.153
641	0.152
642	0.152
642	0.152
642	0.152
643	0.152
643	0.152
644	0.152
644	0.152
645	0.152
645	0.152
646	0.152
646	0.152
646	0.152
647	0.152
647	0.152
648	0.151
648	0.151
649	0.151
649	0.151
650	0.151
650	0.15
650	0.15
651	0.15
651	0.15
652	0.15
652	0.15
653	0.15
653	0.152
653	0.157
654	0.124
654	0.1
655	0.1
655	0.1
656	0.1
656	0.101
657	0.101
657	0.101
657	0.101
658	0.1
658	0.091
659	0.115
659	0.146
660	0.15
660	0.15
661	0.15
661	0.149
661	0.148
662	0.147
662	0.147
663	0.146
663	0.146
664	0.145
664	0.145
665	0.144
665	0.144
665	0.144
666	0.144
666	0.144
667	0.144
667	0.145
668	0.145
668	0.145
669	0.145
669	0.145
669	0.146
670	0.146
670	0.146
671	0.146
671	0.146
672	0.146
672	0.145
672	0.145
673	0.144
673	0.144
674	0.144
674	0.143
675	0.143
675	0.143
676	0.143
676	0.143
676	0.144
677	0.144
677	0.144
678	0.144
678	0.144
679	0.144
679	0.144
680	0.144
680	0.143
680	0.143
681	0.143
681	0.143
682	0.143
682	0.143
683	0.143
683	0.143
684	0.144
684	0.143
684	0.143
685	0.143
685	0.144
686	0.144
686	0.144
687	0.144
687	0.144
687	0.144
688	0.144
688	0.145
689	0.145
689	0.146
690	0.146
690	0.146
691	0.146
691	0.146
691	0.146
692	0.146
692	0.146
693	0.146
693	0.147
694	0.146
694	0.146
695	0.147
695	0.147
695	0.147
696	0.147
696	0.147
697	0.147
697	0.147
698	0.146
698	0.146
698	0.146
699	0.146
699	0.146
700	0.145
700	0.145
701	0.145
701	0.144
702	0.144
702	0.144
702	0.144
703	0.143
703	0.143
704	0.143
704	0.143
705	0.143
705	0.143
705	0.143
706	0.143
706	0.143
707	0.143
707	0.143
708	0.143
708	0.143
709	0.143
709	0.143
709	0.142
710	0.141
710	0.141
711	0.141
711	0.141
712	0.141
712	0.141
713	0.141
713	0.141
713	0.141
714	0.141
714	0.141
715	0.142
715	0.141
716	0.141
716	0.141
716	0.14
717	0.14
717	0.14
718	0.14
718	0.14
719	0.14
719	0.14
720	0.141
720	0.141
720	0.142
721	0.142
721	0.143
722	0.143
722	0.143
723	0.143
723	0.143
723	0.143
724	0.143
724	0.142
725	0.141
725	0.14
726	0.139
726	0.138
727	0.138
727	0.138
727	0.138
728	0.138
728	0.138
729	0.139
729	0.14
730	0.14
730	0.141
730	0.142
731	0.143
731	0.143
732	0.143
732	0.144
733	0.143
733	0.143
734	0.143
734	0.143
734	0.143
735	0.143
735	0.142
736	0.142
736	0.142
737	0.141
737	0.141
737	0.141
738	0.14
738	0.14
739	0.139
739	0.139
740	0.139
740	0.139
741	0.14
741	0.14
741	0.14
742	0.14
742	0.14
743	0.141
743	0.141
744	0.141
744	0.141
744	0.141
745	0.141
745	0.141
746	0.141
746	0.141
747	0.141
747	0.141
748	0.141
748	0.141
748	0.141
749	0.141
749	0.141
750	0.141
750	0.141
751	0.141
751	0.142
751	0.142
752	0.141
752	0.141
753	0.14
753	0.14
754	0.14
754	0.14
754	0.139
755	0.139
755	0.139
756	0.138
756	0.137
757	0.137
757	0.136
758	0.136
758	0.136
758	0.136
759	0.136
759	0.135
760	0.135
760	0.135
761	0.135
761	0.135
761	0.136
762	0.136
762	0.136
763	0.136
763	0.136
764	0.135
764	0.135
764	0.135
765	0.135
765	0.134
766	0.134
766	0.134
767	0.134
767	0.133
768	0.133
768	0.133
768	0.133
769	0.133
769	0.134
770	0.134
770	0.134
771	0.134
771	0.134
771	0.134
772	0.134
772	0.134
773	0.134
773	0.134
774	0.134
774	0.134
775	0.134
775	0.134
775	0.133
776	0.133
776	0.134
777	0.134
777	0.134
778	0.134
778	0.133
778	0.133
779	0.133
779	0.132
780	0.131
780	0.13
781	0.13
781	0.129
781	0.129
782	0.129
782	0.128
783	0.128
783	0.129
784	0.128
784	0.129
784	0.129
785	0.129
785	0.13
786	0.13
786	0.13
787	0.13
787	0.13
788	0.13
788	0.129
788	0.129
789	0.128
789	0.128
790	0.127
790	0.127
791	0.126
791	0.125
791	0.124
792	0.125
792	0.124
793	0.123
793	0.123
794	0.122
794	0.122
794	0.121
795	0.121
795	0.122
796	0.122
796	0.122
797	0.121
797	0.121
797	0.122
798	0.122
798	0.122
799	0.122
799	0.122
800	0.121
800	0.121
801	0.12
801	0.12
801	0.12
802	0.119
802	0.119
803	0.119
803	0.119
804	0.119
804	0.12
804	0.12
805	0.12
805	0.12
806	0.12
806	0.12
807	0.12
807	0.12
807	0.12
808	0.12
808	0.12
809	0.12
809	0.12
810	0.119
810	0.119
810	0.119
811	0.118
811	0.118
812	0.118
812	0.118
813	0.118
813	0.118
813	0.118
814	0.118
814	0.118
815	0.118
815	0.118
816	0.118
816	0.117
817	0.116
817	0.116
817	0.115
818	0.115
818	0.115
819	0.114
819	0.114
820	0.113
820	0.112
820	0.112
821	0.112
821	0.112
822	0.112
822	0.112
823	0.112
823	0.112
823	0.113
824	0.114
824	0.115
825	0.116
825	0.116
826	0.117
826	0.116
826	0.116
827	0.117
827	0.116
828	0.116
828	0.115
829	0.115
829	0.114
829	0.114
830	0.114
830	0.114
831	0.115
831	0.115
832	0.115
832	0.116
832	0.116
833	0.115
833	0.115
834	0.115
834	0.114
835	0.113
835	0.112
835	0.11
836	0.109
836	0.108
837	0.107
837	0.107
838	0.106
838	0.105
839	0.105
839	0.104
839	0.104
840	0.103
840	0.102
841	0.101
841	0.1
842	0.1
842	0.099
842	0.099
843	0.099
843	0.098
844	0.098
844	0.099
845	0.099
845	0.099
845	0.1
846	0.1
846	0.101
847	0.101
847	0.101
848	0.101
848	0.101
848	0.101
849	0.1
849	0.099
850	0.099
850	0.098
851	0.098
851	0.097
851	0.096
852	0.096
852	0.095
853	0.095
853	0.095
854	0.095
854	0.096
854	0.096
855	0.097
855	0.097
856	0.098
856	0.099
857	0.099
857	0.1
857	0.1
858	0.1
858	0.099
859	0.099
859	0.098
860	0.097
860	0.096
860	0.095
861	0.094
861	0.093
862	0.092
862	0.091
863	0.091
863	0.09
863	0.09
864	0.09
864	0.09
865	0.09
865	0.09
866	0.09
866	0.09
866	0.09
867	0.09
867	0.09
868	0.09
868	0.089
869	0.089
869	0.088
869	0.087
870	0.086
870	0.085
871	0.085
871	0.084
872	0.084
872	0.084
872	0.083
873	0.083
873	0.083
874	0.083
874	0.083
875	0.083
875	0.083
875	0.083
876	0.083
876	0.083
877	0.083
877	0.083
878	0.083
878	0.083
878	0.083
879	0.083
879	0.083
880	0.083
880	0.083
881	0.083
881	0.083
881	0.083
882	0.083
882	0.082
883	0.082
883	0.082
884	0.082
884	0.082
884	0.082
885	0.082
885	0.082
886	0.082
886	0.082
887	0.081
887	0.081
887	0.08
888	0.08
888	0.079
889	0.079
889	0.078
890	0.078
890	0.078
890	0.078
891	0.077
891	0.077
892	0.077
892	0.077
893	0.077
893	0.077
893	0.077
894	0.077
894	0.076
895	0.076
895	0.076
895	0.076
896	0.076
896	0.075
897	0.075
897	0.075
898	0.074
898	0.074
898	0.073
899	0.073
899	0.073
900	0.072
900	0.072
901	0.072
901	0.072
901	0.071
902	0.071
902	0.071
903	0.071
903	0.07
904	0.07
904	0.07
904	0.07
905	0.07
905	0.07
906	0.071
906	0.071
907	0.072
907	0.072
907	0.073
908	0.073
908	0.074
909	0.075
909	0.075
910	0.076
910	0.076
910	0.076
911	0.077
911	0.077
912	0.076
912	0.077
913	0.076
913	0.076
913	0.076
914	0.076
914	0.075
915	0.075
915	0.075
916	0.075
916	0.074
916	0.074
917	0.073
917	0.073
918	0.072
918	0.072
918	0.071
919	0.071
919	0.07
920	0.069
920	0.069
921	0.069
921	0.069
921	0.069
922	0.069
922	0.069
923	0.069
923	0.069
924	0.069
924	0.07
924	0.07
925	0.07
925	0.07
926	0.07
926	0.07
927	0.07
927	0.069
927	0.069
928	0.069
928	0.069
929	0.069
929	0.069
930	0.069
930	0.069
930	0.069
931	0.069
931	0.069
932	0.07
932	0.07
933	0.07
933	0.07
933	0.07
934	0.07
934	0.069
935	0.069
935	0.069
935	0.069
936	0.069
936	0.068
937	0.068
937	0.067
938	0.067
938	0.066
938	0.066
939	0.066
939	0.065
940	0.065
940	0.065
941	0.064
941	0.064
941	0.064
942	0.064
942	0.063
943	0.063
943	0.063
944	0.064
944	0.064
944	0.064
945	0.064
945	0.065
946	0.065
946	0.065
946	0.066
947	0.066
947	0.066
948	0.066
948	0.066
949	0.066
949	0.066
949	0.066
950	0.066
950	0.066
951	0.066
951	0.065
952	0.065
952	0.064
952	0.063
953	0.063
953	0.062
954	0.061
954	0.06
955	0.06
955	0.059
955	0.059
956	0.059
956	0.059
957	0.059
957	0.059
957	0.059
958	0.06
958	0.06
959	0.06
959	0.06
960	0.06
960	0.06
960	0.06
961	0.06
961	0.059
962	0.059
962	0.059
963	0.058
963	0.058
963	0.058
964	0.058
964	0.058
965	0.058
965	0.058
966	0.058
966	0.059
966	0.059
967	0.06
967	0.06
968	0.061
968	0.062
968	0.062
969	0.062
969	0.062
970	0.061
970	0.061
971	0.061
971	0.06
971	0.06
972	0.06
972	0.059
973	0.059
973	0.058
974	0.058
974	0.058
974	0.058
975	0.058
975	0.058
976	0.058
976	0.058
976	0.058
977	0.058
977	0.058
978	0.058
978	0.058
979	0.058
979	0.058
979	0.058
980	0.058
980	0.058
981	0.058
981	0.058
982	0.058
982	0.058
982	0.058
983	0.058
983	0.059
984	0.059
984	0.059
984	0.059
985	0.059
985	0.059
986	0.059
986	0.059
987	0.059
987	0.058
987	0.058
988	0.057
988	0.057
989	0.056
989	0.055
990	0.055
990	0.054
990	0.054
991	0.053
991	0.053
992	0.052
992	0.052
992	0.051
993	0.051
993	0.05
994	0.05
994	0.05
995	0.05
995	0.05
995	0.05
996	0.05
996	0.051
997	0.051
997	0.052
997	0.053
998	0.054
998	0.054
999	0.055
999	0.056
1000	0.057
1000	0.057
1000	0.057
1001	0.057
1001	0.057
1002	0.057
1002	0.056
1003	0.055
1003	0.055
1003	0.054
1004	0.053
1004	0.051
1005	0.05
1005	0.049
1005	0.048
1006	0.048
1006	0.047
1007	0.047
1007	0.047
1008	0.047
1008	0.047
1008	0.047
1009	0.047
1009	0.048
1010	0.048
1010	0.048
1010	0.049
1011	0.049
1011	0.049
1012	0.049
1012	0.049
1013	0.049
1013	0.049
1013	0.048
1014	0.048
1014	0.048
1015	0.048
1015	0.048
1016	0.047
1016	0.047
1016	0.047
1017	0.046
1017	0.046
1018	0.045
1018	0.045
1018	0.045
1019	0.044
1019	0.044
1020	0.044
1020	0.044
1021	0.044
1021	0.044
1021	0.044
1022	0.045
1022	0.045
1023	0.045
1023	0.045
1023	0.045
1024	0.045
1024	0.045
1025	0.045
1025	0.045
1026	0.045
1026	0.045
1026	0.045
1027	0.045
1027	0.045
1028	0.045
1028	0.045
1028	0.044
1029	0.045
1029	0.045
1030	0.045
1030	0.045
1031	0.046
1031	0.046
1031	0.046
1032	0.047
1032	0.047
1033	0.047
1033	0.048
1033	0.048
1034	0.048
1034	0.048
1035	0.047
1035	0.047
1036	0.047
1036	0.046
1036	0.046
1037	0.046
1037	0.045
1038	0.045
1038	0.045
1039	0.045
1039	0.045
1039	0.045
1040	0.045
1040	0.044
1041	0.045
1041	0.045
1041	0.045
1042	0.045
1042	0.045
1043	0.045
1043	0.046
1044	0.046
1044	0.047
1044	0.047
1045	0.048
1045	0.048
1046	0.048
1046	0.049
1046	0.049
1047	0.049
1047	0.049
1048	0.05
1048	0.05
1049	0.05
1049	0.05
1049	0.05
1050	0.05
1050	0.05
1051	0.05
1051	0.05
1051	0.049
1052	0.049
1052	0.049
1053	0.048
1053	0.047
1053	0.047
1054	0.046
1054	0.046
1055	0.045
1055	0.045
1056	0.044
1056	0.044
1056	0.043
1057	0.042
1057	0.042
1058	0.042
1058	0.041
1058	0.04
1059	0.04
1059	0.04
1060	0.04
1060	0.039
1061	0.039
1061	0.039
1061	0.039
1062	0.039
1062	0.039
1063	0.039
1063	0.039
1063	0.039
1064	0.039
1064	0.038
1065	0.038
1065	0.038
1066	0.038
1066	0.038
1066	0.037
1067	0.037
1067	0.037
1068	0.037
1068	0.036
1068	0.036
1069	0.036
1069	0.035
1070	0.035
1070	0.035
1071	0.035
1071	0.035
1071	0.034
1072	0.034
1072	0.034
1073	0.034
1073	0.033
1073	0.033
1074	0.034
1074	0.034
1075	0.034
1075	0.034
1076	0.034
1076	0.035
1076	0.035
1077	0.035
1077	0.036
1078	0.036
1078	0.037
1078	0.037
1079	0.037
1079	0.036
1080	0.036
1080	0.036
1080	0.036
1081	0.036
1081	0.036
1082	0.036
1082	0.036
1083	0.036
1083	0.036
1083	0.036
1084	0.036
1084	0.037
1085	0.036
1085	0.036
1085	0.036
1086	0.037
1086	0.036
1087	0.035
1087	0.035
1088	0.034
1088	0.034
1088	0.034
1089	0.033
1089	0.032
1090	0.032
1090	0.031
1090	0.03
1091	0.03
1091	0.03
1092	0.03
1092	0.03
1092	0.03
1093	0.029
1093	0.029
1094	0.029
1094	0.029
1095	0.029
1095	0.029
1095	0.029
1096	0.029
1096	0.029
1097	0.029
1097	0.028
1097	0.029
1098	0.028
1098	0.027
1099	0.028
1099	0.026
1100	0.025
1100	0.024
1100	0.024
1101	0.024
1101	0.023
1102	0.023
1102	0.022
1102	0.021
1103	0.021
1103	0.021
1104	0.021
1104	0.022
1104	0.023
1105	0.022
1105	0.02
1106	0.018
1106	0.017
1107	0.017
1107	0.016
1107	0.015
1108	0.014
1108	0.013
1109	0.011
1109	0.01
1109	0.009
1110	0.011
1110	0.011
1111	0.01
1111	0.006
