Data from reversibility-20sec_Absorbance__7260__000000000007260.txt Node

Date: Thu Dec 07 04:33:05 CET 2023
User: Marek
Spectrometer: MAYP115816
Trigger mode: 0
Integration Time (sec): 2.000000E-1
Scans to average: 10
Electric dark correction enabled: true
Nonlinearity correction enabled: true
Boxcar width: 5
XAxis mode: Wavelengths
Number of Pixels in Spectrum: 2068
>>>>>Begin Spectral Data<<<<<
199	-0.154
199	-0.139
200	-0.072
200	-0.026
201	0.005
201	0.025
202	0.034
202	0.046
203	0.054
203	0.057
204	0.072
204	0.085
205	0.1
205	0.106
205	0.106
206	0.106
206	0.104
207	0.106
207	0.105
208	0.103
208	0.104
209	0.107
209	0.105
210	0.107
210	0.107
211	0.109
211	0.108
212	0.109
212	0.109
213	0.113
213	0.113
213	0.113
214	0.114
214	0.113
215	0.115
215	0.116
216	0.117
216	0.115
217	0.119
217	0.124
218	0.123
218	0.128
219	0.133
219	0.136
220	0.142
220	0.141
221	0.143
221	0.149
221	0.16
222	0.166
222	0.168
223	0.176
223	0.18
224	0.187
224	0.194
225	0.201
225	0.212
226	0.22
226	0.23
227	0.236
227	0.245
228	0.262
228	0.278
229	0.293
229	0.314
229	0.335
230	0.36
230	0.392
231	0.426
231	0.462
232	0.501
232	0.545
233	0.586
233	0.631
234	0.685
234	0.737
235	0.792
235	0.844
236	0.894
236	0.944
236	0.995
237	1.047
237	1.097
238	1.147
238	1.194
239	1.238
239	1.279
240	1.319
240	1.354
241	1.39
241	1.422
242	1.454
242	1.483
243	1.51
243	1.535
243	1.559
244	1.583
244	1.607
245	1.623
245	1.644
246	1.661
246	1.681
247	1.693
247	1.706
248	1.719
248	1.732
249	1.743
249	1.75
250	1.756
250	1.766
250	1.769
251	1.775
251	1.779
252	1.783
252	1.786
253	1.789
253	1.787
254	1.786
254	1.786
255	1.785
255	1.785
256	1.785
256	1.785
257	1.783
257	1.782
258	1.782
258	1.782
258	1.782
259	1.783
259	1.782
260	1.782
260	1.783
261	1.783
261	1.784
262	1.787
262	1.787
263	1.789
263	1.789
264	1.791
264	1.79
265	1.791
265	1.791
265	1.791
266	1.792
266	1.792
267	1.79
267	1.792
268	1.789
268	1.789
269	1.789
269	1.788
270	1.788
270	1.788
271	1.785
271	1.783
272	1.781
272	1.78
272	1.777
273	1.774
273	1.77
274	1.765
274	1.762
275	1.755
275	1.749
276	1.743
276	1.736
277	1.728
277	1.719
278	1.708
278	1.696
278	1.684
279	1.671
279	1.654
280	1.635
280	1.609
281	1.58
281	1.548
282	1.514
282	1.477
283	1.441
283	1.404
284	1.368
284	1.332
285	1.297
285	1.265
285	1.237
286	1.211
286	1.188
287	1.167
287	1.149
288	1.134
288	1.12
289	1.109
289	1.098
290	1.09
290	1.082
291	1.075
291	1.069
292	1.063
292	1.058
292	1.053
293	1.048
293	1.044
294	1.04
294	1.036
295	1.032
295	1.028
296	1.024
296	1.02
297	1.017
297	1.013
298	1.01
298	1.006
298	1.003
299	1
299	0.997
300	0.994
300	0.991
301	0.988
301	0.985
302	0.982
302	0.979
303	0.976
303	0.973
304	0.971
304	0.968
305	0.965
305	0.962
305	0.96
306	0.957
306	0.954
307	0.951
307	0.948
308	0.945
308	0.942
309	0.939
309	0.936
310	0.933
310	0.93
311	0.927
311	0.923
311	0.92
312	0.916
312	0.913
313	0.909
313	0.905
314	0.901
314	0.896
315	0.892
315	0.887
316	0.883
316	0.878
317	0.873
317	0.868
318	0.863
318	0.858
318	0.853
319	0.847
319	0.842
320	0.836
320	0.83
321	0.824
321	0.817
322	0.811
322	0.805
323	0.798
323	0.792
324	0.785
324	0.779
324	0.772
325	0.765
325	0.758
326	0.751
326	0.744
327	0.737
327	0.73
328	0.724
328	0.716
329	0.709
329	0.702
330	0.695
330	0.688
330	0.68
331	0.673
331	0.666
332	0.659
332	0.652
333	0.645
333	0.638
334	0.631
334	0.624
335	0.618
335	0.611
336	0.604
336	0.597
336	0.591
337	0.584
337	0.578
338	0.572
338	0.566
339	0.559
339	0.554
340	0.548
340	0.542
341	0.536
341	0.531
342	0.525
342	0.519
342	0.514
343	0.508
343	0.503
344	0.498
344	0.493
345	0.489
345	0.484
346	0.479
346	0.475
347	0.471
347	0.466
348	0.462
348	0.458
348	0.454
349	0.45
349	0.447
350	0.443
350	0.439
351	0.436
351	0.433
352	0.429
352	0.426
353	0.423
353	0.42
354	0.417
354	0.414
354	0.411
355	0.408
355	0.405
356	0.402
356	0.399
357	0.395
357	0.393
358	0.39
358	0.387
359	0.385
359	0.382
360	0.38
360	0.378
360	0.376
361	0.374
361	0.372
362	0.371
362	0.369
363	0.367
363	0.365
364	0.363
364	0.361
365	0.359
365	0.357
366	0.355
366	0.353
366	0.352
367	0.35
367	0.348
368	0.346
368	0.345
369	0.343
369	0.342
370	0.34
370	0.339
371	0.337
371	0.336
372	0.334
372	0.333
372	0.332
373	0.331
373	0.33
374	0.329
374	0.327
375	0.326
375	0.325
376	0.324
376	0.323
377	0.322
377	0.321
378	0.32
378	0.319
378	0.318
379	0.317
379	0.316
380	0.315
380	0.314
381	0.314
381	0.313
382	0.312
382	0.312
383	0.311
383	0.31
383	0.31
384	0.309
384	0.308
385	0.308
385	0.307
386	0.306
386	0.306
387	0.305
387	0.305
388	0.304
388	0.304
389	0.303
389	0.303
389	0.302
390	0.302
390	0.301
391	0.301
391	0.3
392	0.3
392	0.299
393	0.299
393	0.298
394	0.298
394	0.297
394	0.297
395	0.297
395	0.296
396	0.296
396	0.295
397	0.295
397	0.294
398	0.294
398	0.293
399	0.293
399	0.293
400	0.292
400	0.292
400	0.291
401	0.291
401	0.291
402	0.29
402	0.29
403	0.289
403	0.289
404	0.288
404	0.288
405	0.288
405	0.288
405	0.287
406	0.287
406	0.287
407	0.286
407	0.286
408	0.286
408	0.285
409	0.285
409	0.284
410	0.284
410	0.284
411	0.283
411	0.283
411	0.283
412	0.283
412	0.282
413	0.282
413	0.282
414	0.281
414	0.281
415	0.281
415	0.28
416	0.28
416	0.279
416	0.279
417	0.278
417	0.278
418	0.278
418	0.277
419	0.277
419	0.276
420	0.276
420	0.275
421	0.275
421	0.275
421	0.274
422	0.274
422	0.274
423	0.273
423	0.273
424	0.273
424	0.272
425	0.272
425	0.272
426	0.272
426	0.272
427	0.271
427	0.271
427	0.27
428	0.27
428	0.27
429	0.269
429	0.269
430	0.268
430	0.268
431	0.268
431	0.267
432	0.267
432	0.267
432	0.267
433	0.267
433	0.266
434	0.266
434	0.266
435	0.266
435	0.266
436	0.266
436	0.266
437	0.266
437	0.265
437	0.265
438	0.265
438	0.265
439	0.265
439	0.265
440	0.265
440	0.264
441	0.264
441	0.264
442	0.264
442	0.263
442	0.263
443	0.263
443	0.263
444	0.262
444	0.262
445	0.262
445	0.262
446	0.262
446	0.262
447	0.262
447	0.262
447	0.262
448	0.262
448	0.262
449	0.262
449	0.262
450	0.262
450	0.262
451	0.261
451	0.261
452	0.261
452	0.261
452	0.261
453	0.261
453	0.261
454	0.261
454	0.261
455	0.261
455	0.261
456	0.261
456	0.261
457	0.261
457	0.26
458	0.26
458	0.26
458	0.26
459	0.26
459	0.261
460	0.261
460	0.261
461	0.261
461	0.26
462	0.261
462	0.261
463	0.261
463	0.261
463	0.261
464	0.261
464	0.26
465	0.26
465	0.26
466	0.26
466	0.261
467	0.261
467	0.261
467	0.261
468	0.261
468	0.262
469	0.262
469	0.262
470	0.263
470	0.263
471	0.264
471	0.264
472	0.264
472	0.264
472	0.264
473	0.265
473	0.265
474	0.265
474	0.265
475	0.265
475	0.266
476	0.266
476	0.267
477	0.267
477	0.268
477	0.268
478	0.269
478	0.269
479	0.27
479	0.27
480	0.271
480	0.271
481	0.271
481	0.272
482	0.272
482	0.273
482	0.273
483	0.274
483	0.275
484	0.275
484	0.275
485	0.276
485	0.276
486	0.276
486	0.277
487	0.278
487	0.278
487	0.279
488	0.279
488	0.28
489	0.281
489	0.282
490	0.284
490	0.285
491	0.286
491	0.287
492	0.288
492	0.289
492	0.29
493	0.291
493	0.292
494	0.294
494	0.295
495	0.296
495	0.297
496	0.298
496	0.299
496	0.3
497	0.301
497	0.302
498	0.303
498	0.304
499	0.305
499	0.306
500	0.307
500	0.309
501	0.31
501	0.31
501	0.311
502	0.312
502	0.313
503	0.314
503	0.315
504	0.316
504	0.317
505	0.318
505	0.319
506	0.321
506	0.322
506	0.323
507	0.324
507	0.325
508	0.326
508	0.327
509	0.328
509	0.329
510	0.33
510	0.33
511	0.331
511	0.332
511	0.333
512	0.334
512	0.335
513	0.336
513	0.336
514	0.337
514	0.338
515	0.339
515	0.339
515	0.34
516	0.34
516	0.341
517	0.342
517	0.342
518	0.343
518	0.343
519	0.343
519	0.343
520	0.344
520	0.344
520	0.344
521	0.344
521	0.344
522	0.344
522	0.343
523	0.343
523	0.343
524	0.343
524	0.343
524	0.342
525	0.342
525	0.342
526	0.342
526	0.341
527	0.341
527	0.341
528	0.34
528	0.339
529	0.339
529	0.338
529	0.337
530	0.336
530	0.335
531	0.334
531	0.333
532	0.332
532	0.331
533	0.33
533	0.329
533	0.327
534	0.326
534	0.325
535	0.324
535	0.323
536	0.321
536	0.32
537	0.319
537	0.317
538	0.316
538	0.315
538	0.313
539	0.312
539	0.311
540	0.309
540	0.308
541	0.306
541	0.305
542	0.303
542	0.302
542	0.3
543	0.298
543	0.296
544	0.294
544	0.292
545	0.291
545	0.289
546	0.287
546	0.285
547	0.283
547	0.282
547	0.28
548	0.278
548	0.276
549	0.275
549	0.273
550	0.271
550	0.269
551	0.267
551	0.265
551	0.264
552	0.262
552	0.261
553	0.259
553	0.257
554	0.255
554	0.253
555	0.252
555	0.25
556	0.248
556	0.247
556	0.246
557	0.244
557	0.243
558	0.242
558	0.24
559	0.239
559	0.237
560	0.236
560	0.235
560	0.233
561	0.232
561	0.23
562	0.228
562	0.226
563	0.224
563	0.222
564	0.22
564	0.219
564	0.217
565	0.216
565	0.215
566	0.213
566	0.211
567	0.21
567	0.209
568	0.207
568	0.206
568	0.205
569	0.203
569	0.201
570	0.199
570	0.198
571	0.196
571	0.195
572	0.194
572	0.192
573	0.191
573	0.19
573	0.189
574	0.188
574	0.187
575	0.186
575	0.186
576	0.185
576	0.184
577	0.182
577	0.181
577	0.18
578	0.179
578	0.178
579	0.178
579	0.177
580	0.176
580	0.174
581	0.173
581	0.172
581	0.171
582	0.171
582	0.17
583	0.169
583	0.168
584	0.167
584	0.165
585	0.164
585	0.163
585	0.163
586	0.162
586	0.161
587	0.16
587	0.159
588	0.159
588	0.158
589	0.157
589	0.157
590	0.157
590	0.156
590	0.156
591	0.155
591	0.154
592	0.153
592	0.152
593	0.151
593	0.15
594	0.149
594	0.148
594	0.147
595	0.146
595	0.145
596	0.144
596	0.144
597	0.144
597	0.144
598	0.144
598	0.143
598	0.143
599	0.143
599	0.142
600	0.141
600	0.141
601	0.14
601	0.139
602	0.139
602	0.138
602	0.137
603	0.137
603	0.136
604	0.136
604	0.136
605	0.135
605	0.135
606	0.134
606	0.133
606	0.133
607	0.132
607	0.132
608	0.131
608	0.13
609	0.13
609	0.129
610	0.129
610	0.128
610	0.127
611	0.127
611	0.127
612	0.127
612	0.127
613	0.127
613	0.127
614	0.126
614	0.126
614	0.126
615	0.126
615	0.125
616	0.125
616	0.125
617	0.124
617	0.124
618	0.123
618	0.123
618	0.123
619	0.123
619	0.122
620	0.122
620	0.122
621	0.121
621	0.121
622	0.12
622	0.12
622	0.119
623	0.118
623	0.118
624	0.118
624	0.117
625	0.117
625	0.116
626	0.116
626	0.116
626	0.116
627	0.116
627	0.116
628	0.115
628	0.115
629	0.115
629	0.115
630	0.114
630	0.114
630	0.114
631	0.113
631	0.112
632	0.112
632	0.111
633	0.111
633	0.111
634	0.111
634	0.111
634	0.111
635	0.11
635	0.11
636	0.11
636	0.11
637	0.11
637	0.109
638	0.109
638	0.109
638	0.108
639	0.108
639	0.108
640	0.107
640	0.107
641	0.107
641	0.106
642	0.106
642	0.106
642	0.106
643	0.106
643	0.106
644	0.106
644	0.106
645	0.106
645	0.106
646	0.106
646	0.106
646	0.106
647	0.105
647	0.105
648	0.104
648	0.103
649	0.103
649	0.103
650	0.102
650	0.102
650	0.102
651	0.102
651	0.102
652	0.102
652	0.102
653	0.103
653	0.105
653	0.11
654	0.088
654	0.072
655	0.07
655	0.07
656	0.07
656	0.07
657	0.07
657	0.071
657	0.071
658	0.069
658	0.062
659	0.078
659	0.098
660	0.103
660	0.103
661	0.102
661	0.102
661	0.101
662	0.101
662	0.1
663	0.099
663	0.099
664	0.098
664	0.098
665	0.098
665	0.098
665	0.098
666	0.098
666	0.098
667	0.098
667	0.099
668	0.099
668	0.099
669	0.099
669	0.099
669	0.1
670	0.1
670	0.1
671	0.099
671	0.099
672	0.098
672	0.098
672	0.098
673	0.097
673	0.097
674	0.097
674	0.096
675	0.096
675	0.096
676	0.096
676	0.096
676	0.096
677	0.097
677	0.097
678	0.097
678	0.096
679	0.096
679	0.096
680	0.095
680	0.095
680	0.095
681	0.095
681	0.095
682	0.095
682	0.096
683	0.096
683	0.096
684	0.096
684	0.096
684	0.096
685	0.096
685	0.096
686	0.096
686	0.096
687	0.096
687	0.096
687	0.095
688	0.095
688	0.095
689	0.096
689	0.096
690	0.096
690	0.096
691	0.096
691	0.096
691	0.096
692	0.096
692	0.096
693	0.096
693	0.096
694	0.096
694	0.096
695	0.096
695	0.097
695	0.097
696	0.097
696	0.097
697	0.097
697	0.097
698	0.097
698	0.097
698	0.097
699	0.097
699	0.096
700	0.096
700	0.096
701	0.096
701	0.095
702	0.095
702	0.095
702	0.094
703	0.094
703	0.093
704	0.093
704	0.092
705	0.092
705	0.092
705	0.091
706	0.091
706	0.091
707	0.091
707	0.091
708	0.091
708	0.091
709	0.091
709	0.091
709	0.091
710	0.091
710	0.091
711	0.091
711	0.092
712	0.092
712	0.091
713	0.091
713	0.091
713	0.091
714	0.091
714	0.091
715	0.09
715	0.09
716	0.089
716	0.089
716	0.088
717	0.087
717	0.087
718	0.087
718	0.087
719	0.088
719	0.088
720	0.088
720	0.089
720	0.09
721	0.091
721	0.091
722	0.092
722	0.092
723	0.092
723	0.092
723	0.092
724	0.092
724	0.091
725	0.09
725	0.089
726	0.089
726	0.088
727	0.087
727	0.087
727	0.087
728	0.087
728	0.086
729	0.087
729	0.087
730	0.087
730	0.087
730	0.087
731	0.087
731	0.088
732	0.088
732	0.088
733	0.088
733	0.088
734	0.088
734	0.088
734	0.088
735	0.089
735	0.088
736	0.088
736	0.088
737	0.088
737	0.088
737	0.088
738	0.087
738	0.087
739	0.086
739	0.086
740	0.086
740	0.086
741	0.087
741	0.087
741	0.087
742	0.087
742	0.088
743	0.089
743	0.089
744	0.089
744	0.089
744	0.089
745	0.088
745	0.088
746	0.087
746	0.087
747	0.086
747	0.086
748	0.086
748	0.086
748	0.086
749	0.086
749	0.086
750	0.087
750	0.087
751	0.087
751	0.087
751	0.088
752	0.087
752	0.087
753	0.087
753	0.086
754	0.086
754	0.085
754	0.085
755	0.084
755	0.084
756	0.083
756	0.081
757	0.081
757	0.081
758	0.08
758	0.08
758	0.08
759	0.081
759	0.08
760	0.08
760	0.08
761	0.08
761	0.081
761	0.081
762	0.082
762	0.082
763	0.082
763	0.081
764	0.081
764	0.081
764	0.081
765	0.08
765	0.08
766	0.08
766	0.079
767	0.079
767	0.078
768	0.077
768	0.077
768	0.077
769	0.077
769	0.078
770	0.078
770	0.078
771	0.079
771	0.079
771	0.079
772	0.08
772	0.081
773	0.081
773	0.081
774	0.081
774	0.081
775	0.082
775	0.082
775	0.082
776	0.083
776	0.083
777	0.084
777	0.084
778	0.084
778	0.084
778	0.083
779	0.083
779	0.082
780	0.081
780	0.079
781	0.078
781	0.077
781	0.077
782	0.076
782	0.076
783	0.076
783	0.076
784	0.076
784	0.076
784	0.077
785	0.077
785	0.078
786	0.078
786	0.078
787	0.078
787	0.078
788	0.077
788	0.077
788	0.076
789	0.076
789	0.075
790	0.075
790	0.075
791	0.074
791	0.073
791	0.073
792	0.073
792	0.072
793	0.072
793	0.071
794	0.071
794	0.07
794	0.07
795	0.07
795	0.07
796	0.07
796	0.07
797	0.069
797	0.069
797	0.07
798	0.07
798	0.071
799	0.071
799	0.071
800	0.07
800	0.07
801	0.07
801	0.071
801	0.071
802	0.071
802	0.071
803	0.072
803	0.072
804	0.072
804	0.073
804	0.073
805	0.073
805	0.073
806	0.072
806	0.072
807	0.072
807	0.072
807	0.072
808	0.071
808	0.071
809	0.071
809	0.071
810	0.071
810	0.071
810	0.071
811	0.071
811	0.071
812	0.071
812	0.071
813	0.071
813	0.071
813	0.071
814	0.071
814	0.072
815	0.072
815	0.072
816	0.071
816	0.071
817	0.07
817	0.07
817	0.07
818	0.069
818	0.069
819	0.069
819	0.068
820	0.068
820	0.067
820	0.067
821	0.067
821	0.067
822	0.067
822	0.067
823	0.067
823	0.067
823	0.068
824	0.068
824	0.069
825	0.071
825	0.072
826	0.072
826	0.073
826	0.073
827	0.074
827	0.074
828	0.075
828	0.075
829	0.075
829	0.075
829	0.075
830	0.076
830	0.076
831	0.076
831	0.076
832	0.076
832	0.076
832	0.076
833	0.075
833	0.075
834	0.074
834	0.073
835	0.073
835	0.072
835	0.071
836	0.07
836	0.07
837	0.069
837	0.069
838	0.068
838	0.067
839	0.067
839	0.066
839	0.065
840	0.064
840	0.063
841	0.062
841	0.062
842	0.061
842	0.06
842	0.06
843	0.059
843	0.058
844	0.058
844	0.057
845	0.057
845	0.057
845	0.057
846	0.057
846	0.057
847	0.057
847	0.057
848	0.058
848	0.058
848	0.058
849	0.059
849	0.059
850	0.059
850	0.059
851	0.058
851	0.058
851	0.058
852	0.058
852	0.058
853	0.058
853	0.058
854	0.058
854	0.059
854	0.06
855	0.061
855	0.062
856	0.063
856	0.063
857	0.064
857	0.065
857	0.065
858	0.065
858	0.065
859	0.065
859	0.064
860	0.064
860	0.063
860	0.063
861	0.062
861	0.062
862	0.061
862	0.06
863	0.06
863	0.06
863	0.06
864	0.06
864	0.06
865	0.061
865	0.061
866	0.061
866	0.061
866	0.062
867	0.062
867	0.062
868	0.062
868	0.063
869	0.063
869	0.062
869	0.062
870	0.061
870	0.061
871	0.06
871	0.06
872	0.06
872	0.059
872	0.059
873	0.058
873	0.058
874	0.057
874	0.057
875	0.057
875	0.056
875	0.056
876	0.056
876	0.056
877	0.056
877	0.056
878	0.056
878	0.057
878	0.057
879	0.057
879	0.057
880	0.057
880	0.057
881	0.058
881	0.057
881	0.057
882	0.057
882	0.057
883	0.057
883	0.057
884	0.057
884	0.057
884	0.057
885	0.056
885	0.056
886	0.056
886	0.056
887	0.056
887	0.056
887	0.056
888	0.055
888	0.055
889	0.055
889	0.056
890	0.056
890	0.056
890	0.056
891	0.056
891	0.056
892	0.056
892	0.056
893	0.056
893	0.055
893	0.055
894	0.054
894	0.053
895	0.053
895	0.052
895	0.052
896	0.053
896	0.053
897	0.053
897	0.053
898	0.054
898	0.054
898	0.054
899	0.054
899	0.055
900	0.055
900	0.055
901	0.055
901	0.055
901	0.054
902	0.054
902	0.054
903	0.054
903	0.054
904	0.054
904	0.054
904	0.053
905	0.053
905	0.053
906	0.052
906	0.052
907	0.052
907	0.053
907	0.053
908	0.052
908	0.052
909	0.052
909	0.052
910	0.051
910	0.051
910	0.051
911	0.051
911	0.05
912	0.05
912	0.05
913	0.049
913	0.049
913	0.049
914	0.049
914	0.049
915	0.048
915	0.048
916	0.048
916	0.048
916	0.047
917	0.047
917	0.047
918	0.046
918	0.046
918	0.046
919	0.045
919	0.045
920	0.045
920	0.044
921	0.044
921	0.044
921	0.044
922	0.044
922	0.044
923	0.044
923	0.044
924	0.045
924	0.045
924	0.046
925	0.046
925	0.047
926	0.047
926	0.048
927	0.048
927	0.048
927	0.049
928	0.049
928	0.049
929	0.05
929	0.05
930	0.05
930	0.05
930	0.051
931	0.051
931	0.051
932	0.051
932	0.052
933	0.052
933	0.052
933	0.052
934	0.051
934	0.051
935	0.051
935	0.05
935	0.05
936	0.049
936	0.048
937	0.048
937	0.047
938	0.046
938	0.045
938	0.044
939	0.043
939	0.042
940	0.042
940	0.042
941	0.042
941	0.042
941	0.042
942	0.043
942	0.043
943	0.044
943	0.044
944	0.045
944	0.046
944	0.046
945	0.047
945	0.048
946	0.048
946	0.048
946	0.049
947	0.049
947	0.049
948	0.049
948	0.048
949	0.048
949	0.048
949	0.047
950	0.046
950	0.046
951	0.045
951	0.045
952	0.044
952	0.043
952	0.043
953	0.043
953	0.043
954	0.043
954	0.043
955	0.043
955	0.043
955	0.043
956	0.044
956	0.045
957	0.045
957	0.046
957	0.046
958	0.047
958	0.047
959	0.047
959	0.047
960	0.048
960	0.048
960	0.048
961	0.048
961	0.047
962	0.047
962	0.047
963	0.046
963	0.046
963	0.046
964	0.046
964	0.046
965	0.046
965	0.045
966	0.046
966	0.046
966	0.046
967	0.047
967	0.047
968	0.047
968	0.047
968	0.047
969	0.047
969	0.046
970	0.046
970	0.045
971	0.044
971	0.043
971	0.042
972	0.041
972	0.041
973	0.04
973	0.04
974	0.04
974	0.04
974	0.041
975	0.041
975	0.042
976	0.043
976	0.044
976	0.044
977	0.045
977	0.045
978	0.045
978	0.046
979	0.046
979	0.046
979	0.047
980	0.047
980	0.047
981	0.046
981	0.046
982	0.046
982	0.046
982	0.046
983	0.045
983	0.045
984	0.045
984	0.045
984	0.045
985	0.044
985	0.044
986	0.044
986	0.044
987	0.043
987	0.043
987	0.043
988	0.043
988	0.042
989	0.042
989	0.042
990	0.042
990	0.041
990	0.041
991	0.041
991	0.041
992	0.041
992	0.04
992	0.039
993	0.039
993	0.038
994	0.037
994	0.036
995	0.035
995	0.035
995	0.035
996	0.034
996	0.034
997	0.035
997	0.035
997	0.035
998	0.035
998	0.036
999	0.036
999	0.037
1000	0.037
1000	0.038
1000	0.038
1001	0.038
1001	0.038
1002	0.038
1002	0.038
1003	0.038
1003	0.038
1003	0.037
1004	0.037
1004	0.036
1005	0.035
1005	0.035
1005	0.034
1006	0.034
1006	0.033
1007	0.033
1007	0.032
1008	0.032
1008	0.031
1008	0.031
1009	0.031
1009	0.031
1010	0.031
1010	0.031
1010	0.03
1011	0.03
1011	0.03
1012	0.03
1012	0.03
1013	0.03
1013	0.03
1013	0.03
1014	0.03
1014	0.03
1015	0.03
1015	0.03
1016	0.03
1016	0.031
1016	0.031
1017	0.031
1017	0.031
1018	0.032
1018	0.032
1018	0.032
1019	0.032
1019	0.032
1020	0.033
1020	0.033
1021	0.034
1021	0.034
1021	0.034
1022	0.035
1022	0.035
1023	0.035
1023	0.035
1023	0.035
1024	0.035
1024	0.035
1025	0.035
1025	0.035
1026	0.035
1026	0.035
1026	0.035
1027	0.035
1027	0.035
1028	0.035
1028	0.035
1028	0.035
1029	0.035
1029	0.035
1030	0.036
1030	0.036
1031	0.036
1031	0.036
1031	0.037
1032	0.037
1032	0.037
1033	0.037
1033	0.037
1033	0.038
1034	0.038
1034	0.038
1035	0.038
1035	0.038
1036	0.038
1036	0.038
1036	0.038
1037	0.038
1037	0.038
1038	0.038
1038	0.038
1039	0.038
1039	0.037
1039	0.038
1040	0.038
1040	0.038
1041	0.037
1041	0.037
1041	0.037
1042	0.037
1042	0.037
1043	0.036
1043	0.036
1044	0.036
1044	0.036
1044	0.035
1045	0.035
1045	0.035
1046	0.034
1046	0.034
1046	0.034
1047	0.035
1047	0.035
1048	0.035
1048	0.035
1049	0.035
1049	0.035
1049	0.035
1050	0.035
1050	0.034
1051	0.034
1051	0.034
1051	0.033
1052	0.033
1052	0.032
1053	0.031
1053	0.03
1053	0.03
1054	0.029
1054	0.029
1055	0.029
1055	0.028
1056	0.028
1056	0.027
1056	0.027
1057	0.027
1057	0.026
1058	0.026
1058	0.025
1058	0.024
1059	0.024
1059	0.024
1060	0.023
1060	0.023
1061	0.023
1061	0.023
1061	0.023
1062	0.023
1062	0.023
1063	0.023
1063	0.023
1063	0.023
1064	0.023
1064	0.023
1065	0.023
1065	0.023
1066	0.023
1066	0.024
1066	0.023
1067	0.023
1067	0.023
1068	0.023
1068	0.024
1068	0.024
1069	0.024
1069	0.024
1070	0.024
1070	0.024
1071	0.024
1071	0.024
1071	0.024
1072	0.024
1072	0.024
1073	0.024
1073	0.024
1073	0.024
1074	0.024
1074	0.024
1075	0.024
1075	0.025
1076	0.025
1076	0.026
1076	0.026
1077	0.027
1077	0.027
1078	0.027
1078	0.027
1078	0.027
1079	0.027
1079	0.027
1080	0.026
1080	0.026
1080	0.026
1081	0.026
1081	0.026
1082	0.026
1082	0.026
1083	0.026
1083	0.026
1083	0.026
1084	0.026
1084	0.027
1085	0.026
1085	0.027
1085	0.027
1086	0.027
1086	0.026
1087	0.026
1087	0.026
1088	0.026
1088	0.026
1088	0.026
1089	0.025
1089	0.024
1090	0.023
1090	0.023
1090	0.022
1091	0.022
1091	0.021
1092	0.021
1092	0.021
1092	0.021
1093	0.021
1093	0.021
1094	0.021
1094	0.02
1095	0.02
1095	0.02
1095	0.02
1096	0.018
1096	0.017
1097	0.017
1097	0.016
1097	0.016
1098	0.015
1098	0.014
1099	0.015
1099	0.013
1100	0.013
1100	0.012
1100	0.012
1101	0.011
1101	0.01
1102	0.011
1102	0.009
1102	0.009
1103	0.008
1103	0.008
1104	0.008
1104	0.007
1104	0.007
1105	0.006
1105	0.005
1106	0.004
1106	0.002
1107	0.002
1107	0.001
1107	0.001
1108	-0.001
1108	-0.001
1109	-0.003
1109	-0.003
1109	-0.004
1110	-0.004
1110	-0.005
1111	-0.004
1111	-0.004
