Data from reversibility-20sec_Absorbance__7046__000000000007046.txt Node

Date: Thu Dec 07 03:21:45 CET 2023
User: Marek
Spectrometer: MAYP115816
Trigger mode: 0
Integration Time (sec): 2.000000E-1
Scans to average: 10
Electric dark correction enabled: true
Nonlinearity correction enabled: true
Boxcar width: 5
XAxis mode: Wavelengths
Number of Pixels in Spectrum: 2068
>>>>>Begin Spectral Data<<<<<
199	-0.154
199	-0.13
200	-0.068
200	-0.023
201	0.002
201	0.02
202	0.029
202	0.039
203	0.048
203	0.052
204	0.065
204	0.079
205	0.089
205	0.096
205	0.097
206	0.098
206	0.099
207	0.1
207	0.099
208	0.096
208	0.096
209	0.099
209	0.096
210	0.098
210	0.098
211	0.1
211	0.103
212	0.102
212	0.104
213	0.107
213	0.111
213	0.111
214	0.115
214	0.115
215	0.116
215	0.117
216	0.116
216	0.115
217	0.117
217	0.119
218	0.118
218	0.12
219	0.123
219	0.122
220	0.128
220	0.129
221	0.13
221	0.134
221	0.139
222	0.145
222	0.147
223	0.153
223	0.158
224	0.166
224	0.173
225	0.181
225	0.189
226	0.201
226	0.212
227	0.222
227	0.234
228	0.251
228	0.27
229	0.286
229	0.308
229	0.33
230	0.354
230	0.388
231	0.42
231	0.456
232	0.493
232	0.535
233	0.576
233	0.621
234	0.676
234	0.73
235	0.783
235	0.836
236	0.886
236	0.938
236	0.99
237	1.042
237	1.089
238	1.139
238	1.185
239	1.228
239	1.267
240	1.306
240	1.342
241	1.375
241	1.406
242	1.436
242	1.468
243	1.499
243	1.522
243	1.549
244	1.57
244	1.591
245	1.612
245	1.632
246	1.653
246	1.672
247	1.689
247	1.701
248	1.716
248	1.73
249	1.738
249	1.746
250	1.755
250	1.763
250	1.767
251	1.772
251	1.776
252	1.78
252	1.782
253	1.783
253	1.785
254	1.787
254	1.79
255	1.789
255	1.788
256	1.789
256	1.789
257	1.79
257	1.789
258	1.788
258	1.789
258	1.788
259	1.787
259	1.786
260	1.786
260	1.786
261	1.786
261	1.787
262	1.788
262	1.789
263	1.792
263	1.79
264	1.791
264	1.793
265	1.793
265	1.794
265	1.795
266	1.794
266	1.794
267	1.79
267	1.791
268	1.787
268	1.789
269	1.79
269	1.787
270	1.787
270	1.784
271	1.781
271	1.781
272	1.778
272	1.778
272	1.776
273	1.774
273	1.77
274	1.765
274	1.76
275	1.755
275	1.751
276	1.746
276	1.738
277	1.731
277	1.722
278	1.71
278	1.699
278	1.687
279	1.673
279	1.656
280	1.637
280	1.613
281	1.584
281	1.553
282	1.518
282	1.482
283	1.447
283	1.41
284	1.374
284	1.339
285	1.305
285	1.273
285	1.244
286	1.218
286	1.194
287	1.174
287	1.156
288	1.14
288	1.127
289	1.115
289	1.105
290	1.096
290	1.088
291	1.081
291	1.075
292	1.069
292	1.064
292	1.059
293	1.054
293	1.05
294	1.045
294	1.041
295	1.038
295	1.034
296	1.03
296	1.027
297	1.023
297	1.02
298	1.016
298	1.013
298	1.009
299	1.006
299	1.003
300	0.999
300	0.996
301	0.993
301	0.99
302	0.987
302	0.984
303	0.981
303	0.979
304	0.976
304	0.973
305	0.971
305	0.968
305	0.965
306	0.963
306	0.96
307	0.957
307	0.954
308	0.951
308	0.948
309	0.945
309	0.942
310	0.938
310	0.935
311	0.932
311	0.928
311	0.924
312	0.92
312	0.917
313	0.913
313	0.909
314	0.905
314	0.901
315	0.896
315	0.891
316	0.887
316	0.883
317	0.878
317	0.873
318	0.868
318	0.862
318	0.857
319	0.851
319	0.846
320	0.84
320	0.834
321	0.828
321	0.822
322	0.816
322	0.809
323	0.803
323	0.797
324	0.79
324	0.784
324	0.777
325	0.77
325	0.763
326	0.756
326	0.749
327	0.742
327	0.735
328	0.728
328	0.721
329	0.714
329	0.707
330	0.7
330	0.693
330	0.686
331	0.679
331	0.672
332	0.665
332	0.658
333	0.651
333	0.644
334	0.637
334	0.63
335	0.624
335	0.617
336	0.61
336	0.603
336	0.597
337	0.59
337	0.584
338	0.578
338	0.572
339	0.566
339	0.56
340	0.554
340	0.548
341	0.543
341	0.537
342	0.532
342	0.526
342	0.521
343	0.515
343	0.51
344	0.505
344	0.5
345	0.495
345	0.49
346	0.486
346	0.481
347	0.477
347	0.473
348	0.469
348	0.465
348	0.461
349	0.457
349	0.453
350	0.45
350	0.446
351	0.442
351	0.439
352	0.436
352	0.433
353	0.43
353	0.427
354	0.424
354	0.421
354	0.418
355	0.415
355	0.412
356	0.409
356	0.406
357	0.402
357	0.399
358	0.396
358	0.394
359	0.391
359	0.389
360	0.387
360	0.385
360	0.383
361	0.381
361	0.379
362	0.378
362	0.376
363	0.374
363	0.372
364	0.37
364	0.368
365	0.366
365	0.364
366	0.362
366	0.36
366	0.358
367	0.356
367	0.354
368	0.352
368	0.351
369	0.349
369	0.348
370	0.346
370	0.345
371	0.343
371	0.342
372	0.34
372	0.339
372	0.338
373	0.336
373	0.335
374	0.334
374	0.333
375	0.332
375	0.33
376	0.33
376	0.329
377	0.328
377	0.326
378	0.325
378	0.324
378	0.324
379	0.323
379	0.322
380	0.321
380	0.32
381	0.319
381	0.318
382	0.318
382	0.317
383	0.316
383	0.316
383	0.315
384	0.314
384	0.314
385	0.313
385	0.313
386	0.312
386	0.312
387	0.311
387	0.31
388	0.31
388	0.309
389	0.309
389	0.308
389	0.308
390	0.307
390	0.307
391	0.306
391	0.306
392	0.305
392	0.305
393	0.304
393	0.304
394	0.303
394	0.303
394	0.302
395	0.302
395	0.301
396	0.301
396	0.3
397	0.3
397	0.299
398	0.299
398	0.299
399	0.298
399	0.298
400	0.297
400	0.297
400	0.296
401	0.296
401	0.296
402	0.295
402	0.295
403	0.294
403	0.294
404	0.293
404	0.293
405	0.292
405	0.292
405	0.292
406	0.291
406	0.291
407	0.291
407	0.29
408	0.29
408	0.289
409	0.289
409	0.289
410	0.288
410	0.288
411	0.287
411	0.287
411	0.287
412	0.287
412	0.286
413	0.286
413	0.285
414	0.285
414	0.285
415	0.284
415	0.284
416	0.284
416	0.283
416	0.283
417	0.283
417	0.282
418	0.282
418	0.282
419	0.281
419	0.281
420	0.28
420	0.28
421	0.279
421	0.279
421	0.279
422	0.278
422	0.278
423	0.278
423	0.277
424	0.277
424	0.277
425	0.277
425	0.276
426	0.276
426	0.276
427	0.276
427	0.275
427	0.275
428	0.275
428	0.274
429	0.274
429	0.273
430	0.273
430	0.273
431	0.272
431	0.272
432	0.272
432	0.272
432	0.272
433	0.272
433	0.272
434	0.271
434	0.271
435	0.271
435	0.271
436	0.271
436	0.271
437	0.271
437	0.27
437	0.27
438	0.27
438	0.27
439	0.27
439	0.27
440	0.269
440	0.269
441	0.269
441	0.269
442	0.269
442	0.269
442	0.268
443	0.268
443	0.268
444	0.268
444	0.268
445	0.268
445	0.268
446	0.268
446	0.267
447	0.267
447	0.267
447	0.266
448	0.266
448	0.266
449	0.266
449	0.266
450	0.266
450	0.266
451	0.266
451	0.266
452	0.266
452	0.266
452	0.266
453	0.266
453	0.266
454	0.266
454	0.266
455	0.266
455	0.265
456	0.265
456	0.265
457	0.265
457	0.265
458	0.265
458	0.265
458	0.265
459	0.265
459	0.266
460	0.266
460	0.266
461	0.266
461	0.266
462	0.266
462	0.266
463	0.266
463	0.266
463	0.266
464	0.266
464	0.266
465	0.266
465	0.266
466	0.266
466	0.266
467	0.266
467	0.266
467	0.267
468	0.267
468	0.267
469	0.267
469	0.268
470	0.269
470	0.269
471	0.269
471	0.269
472	0.27
472	0.27
472	0.27
473	0.271
473	0.271
474	0.271
474	0.272
475	0.272
475	0.272
476	0.273
476	0.273
477	0.274
477	0.274
477	0.275
478	0.275
478	0.275
479	0.276
479	0.277
480	0.277
480	0.277
481	0.278
481	0.278
482	0.279
482	0.279
482	0.28
483	0.28
483	0.281
484	0.282
484	0.282
485	0.283
485	0.283
486	0.284
486	0.284
487	0.285
487	0.285
487	0.286
488	0.287
488	0.288
489	0.288
489	0.29
490	0.291
490	0.293
491	0.294
491	0.295
492	0.296
492	0.298
492	0.299
493	0.3
493	0.301
494	0.302
494	0.303
495	0.304
495	0.305
496	0.306
496	0.307
496	0.308
497	0.309
497	0.31
498	0.311
498	0.313
499	0.314
499	0.315
500	0.317
500	0.318
501	0.319
501	0.32
501	0.321
502	0.322
502	0.323
503	0.324
503	0.325
504	0.327
504	0.328
505	0.329
505	0.33
506	0.331
506	0.332
506	0.333
507	0.334
507	0.335
508	0.337
508	0.338
509	0.338
509	0.339
510	0.34
510	0.341
511	0.342
511	0.344
511	0.345
512	0.345
512	0.346
513	0.347
513	0.348
514	0.349
514	0.35
515	0.35
515	0.351
515	0.351
516	0.352
516	0.353
517	0.353
517	0.354
518	0.354
518	0.354
519	0.355
519	0.355
520	0.355
520	0.356
520	0.356
521	0.356
521	0.356
522	0.356
522	0.356
523	0.356
523	0.355
524	0.355
524	0.355
524	0.355
525	0.354
525	0.354
526	0.353
526	0.353
527	0.352
527	0.352
528	0.351
528	0.35
529	0.35
529	0.349
529	0.347
530	0.346
530	0.345
531	0.344
531	0.343
532	0.342
532	0.341
533	0.34
533	0.339
533	0.337
534	0.336
534	0.335
535	0.334
535	0.332
536	0.331
536	0.329
537	0.328
537	0.326
538	0.325
538	0.323
538	0.322
539	0.321
539	0.319
540	0.317
540	0.316
541	0.314
541	0.313
542	0.311
542	0.309
542	0.307
543	0.305
543	0.303
544	0.301
544	0.3
545	0.298
545	0.296
546	0.294
546	0.292
547	0.29
547	0.288
547	0.286
548	0.284
548	0.282
549	0.28
549	0.278
550	0.276
550	0.274
551	0.272
551	0.27
551	0.268
552	0.267
552	0.265
553	0.263
553	0.262
554	0.26
554	0.258
555	0.256
555	0.254
556	0.252
556	0.25
556	0.249
557	0.247
557	0.246
558	0.244
558	0.243
559	0.241
559	0.239
560	0.238
560	0.236
560	0.234
561	0.233
561	0.231
562	0.23
562	0.227
563	0.225
563	0.223
564	0.221
564	0.219
564	0.218
565	0.216
565	0.215
566	0.213
566	0.211
567	0.21
567	0.208
568	0.207
568	0.206
568	0.204
569	0.203
569	0.201
570	0.199
570	0.197
571	0.196
571	0.195
572	0.193
572	0.191
573	0.19
573	0.189
573	0.187
574	0.186
574	0.185
575	0.184
575	0.184
576	0.183
576	0.181
577	0.18
577	0.178
577	0.177
578	0.176
578	0.175
579	0.175
579	0.174
580	0.173
580	0.171
581	0.17
581	0.169
581	0.168
582	0.168
582	0.167
583	0.166
583	0.165
584	0.163
584	0.161
585	0.16
585	0.16
585	0.159
586	0.158
586	0.157
587	0.156
587	0.155
588	0.154
588	0.153
589	0.153
589	0.152
590	0.152
590	0.151
590	0.151
591	0.15
591	0.149
592	0.148
592	0.147
593	0.146
593	0.145
594	0.144
594	0.143
594	0.142
595	0.141
595	0.14
596	0.139
596	0.139
597	0.139
597	0.139
598	0.138
598	0.138
598	0.137
599	0.137
599	0.136
600	0.135
600	0.135
601	0.134
601	0.134
602	0.133
602	0.132
602	0.131
603	0.131
603	0.13
604	0.13
604	0.13
605	0.129
605	0.129
606	0.128
606	0.127
606	0.126
607	0.126
607	0.126
608	0.125
608	0.124
609	0.123
609	0.123
610	0.122
610	0.122
610	0.121
611	0.121
611	0.121
612	0.121
612	0.12
613	0.12
613	0.12
614	0.119
614	0.119
614	0.119
615	0.119
615	0.118
616	0.118
616	0.117
617	0.117
617	0.116
618	0.116
618	0.115
618	0.115
619	0.115
619	0.115
620	0.115
620	0.115
621	0.114
621	0.113
622	0.113
622	0.112
622	0.111
623	0.111
623	0.111
624	0.11
624	0.11
625	0.109
625	0.109
626	0.109
626	0.109
626	0.109
627	0.109
627	0.109
628	0.108
628	0.108
629	0.108
629	0.107
630	0.107
630	0.106
630	0.106
631	0.106
631	0.105
632	0.104
632	0.104
633	0.104
633	0.103
634	0.104
634	0.104
634	0.103
635	0.103
635	0.103
636	0.103
636	0.103
637	0.102
637	0.102
638	0.101
638	0.101
638	0.1
639	0.099
639	0.099
640	0.099
640	0.098
641	0.098
641	0.098
642	0.098
642	0.098
642	0.098
643	0.098
643	0.098
644	0.098
644	0.098
645	0.098
645	0.098
646	0.097
646	0.097
646	0.097
647	0.096
647	0.096
648	0.095
648	0.094
649	0.094
649	0.094
650	0.094
650	0.093
650	0.093
651	0.093
651	0.093
652	0.093
652	0.093
653	0.094
653	0.096
653	0.101
654	0.081
654	0.066
655	0.064
655	0.064
656	0.064
656	0.064
657	0.065
657	0.065
657	0.065
658	0.064
658	0.057
659	0.07
659	0.088
660	0.094
660	0.094
661	0.094
661	0.093
661	0.093
662	0.092
662	0.092
663	0.091
663	0.091
664	0.091
664	0.09
665	0.09
665	0.09
665	0.09
666	0.089
666	0.089
667	0.089
667	0.089
668	0.09
668	0.09
669	0.09
669	0.09
669	0.09
670	0.091
670	0.091
671	0.09
671	0.09
672	0.09
672	0.089
672	0.089
673	0.088
673	0.088
674	0.088
674	0.087
675	0.086
675	0.086
676	0.086
676	0.086
676	0.086
677	0.086
677	0.086
678	0.086
678	0.086
679	0.086
679	0.086
680	0.086
680	0.086
680	0.085
681	0.085
681	0.086
682	0.086
682	0.086
683	0.086
683	0.087
684	0.087
684	0.086
684	0.086
685	0.086
685	0.086
686	0.086
686	0.086
687	0.085
687	0.085
687	0.085
688	0.085
688	0.085
689	0.086
689	0.086
690	0.086
690	0.085
691	0.085
691	0.085
691	0.086
692	0.085
692	0.085
693	0.086
693	0.086
694	0.086
694	0.085
695	0.086
695	0.087
695	0.087
696	0.087
696	0.086
697	0.086
697	0.086
698	0.086
698	0.085
698	0.085
699	0.085
699	0.084
700	0.084
700	0.084
701	0.084
701	0.083
702	0.083
702	0.082
702	0.082
703	0.082
703	0.081
704	0.081
704	0.08
705	0.08
705	0.08
705	0.079
706	0.079
706	0.079
707	0.079
707	0.079
708	0.079
708	0.079
709	0.079
709	0.079
709	0.078
710	0.079
710	0.079
711	0.08
711	0.08
712	0.08
712	0.08
713	0.08
713	0.081
713	0.081
714	0.081
714	0.081
715	0.08
715	0.08
716	0.079
716	0.078
716	0.077
717	0.077
717	0.076
718	0.076
718	0.075
719	0.076
719	0.076
720	0.076
720	0.077
720	0.077
721	0.078
721	0.079
722	0.079
722	0.079
723	0.08
723	0.08
723	0.08
724	0.079
724	0.079
725	0.078
725	0.077
726	0.076
726	0.076
727	0.075
727	0.075
727	0.074
728	0.074
728	0.074
729	0.074
729	0.074
730	0.074
730	0.074
730	0.074
731	0.075
731	0.075
732	0.075
732	0.076
733	0.076
733	0.076
734	0.076
734	0.076
734	0.077
735	0.077
735	0.077
736	0.077
736	0.077
737	0.076
737	0.076
737	0.076
738	0.075
738	0.074
739	0.074
739	0.073
740	0.073
740	0.073
741	0.073
741	0.073
741	0.073
742	0.073
742	0.073
743	0.074
743	0.075
744	0.075
744	0.075
744	0.075
745	0.075
745	0.075
746	0.074
746	0.074
747	0.074
747	0.073
748	0.073
748	0.073
748	0.072
749	0.073
749	0.073
750	0.073
750	0.073
751	0.073
751	0.073
751	0.073
752	0.073
752	0.072
753	0.072
753	0.072
754	0.071
754	0.071
754	0.071
755	0.07
755	0.07
756	0.069
756	0.068
757	0.068
757	0.068
758	0.068
758	0.068
758	0.068
759	0.068
759	0.068
760	0.067
760	0.067
761	0.068
761	0.068
761	0.068
762	0.068
762	0.068
763	0.068
763	0.068
764	0.067
764	0.067
764	0.067
765	0.066
765	0.066
766	0.066
766	0.065
767	0.065
767	0.064
768	0.063
768	0.063
768	0.064
769	0.064
769	0.064
770	0.064
770	0.064
771	0.065
771	0.065
771	0.065
772	0.065
772	0.066
773	0.066
773	0.066
774	0.066
774	0.066
775	0.067
775	0.067
775	0.067
776	0.067
776	0.068
777	0.068
777	0.068
778	0.068
778	0.068
778	0.068
779	0.068
779	0.067
780	0.066
780	0.066
781	0.065
781	0.065
781	0.064
782	0.064
782	0.064
783	0.064
783	0.064
784	0.064
784	0.064
784	0.064
785	0.064
785	0.064
786	0.064
786	0.064
787	0.063
787	0.062
788	0.061
788	0.06
788	0.06
789	0.059
789	0.059
790	0.059
790	0.059
791	0.058
791	0.058
791	0.058
792	0.059
792	0.059
793	0.059
793	0.059
794	0.059
794	0.059
794	0.058
795	0.058
795	0.058
796	0.058
796	0.058
797	0.057
797	0.057
797	0.057
798	0.057
798	0.057
799	0.057
799	0.057
800	0.056
800	0.056
801	0.057
801	0.057
801	0.057
802	0.057
802	0.057
803	0.058
803	0.058
804	0.058
804	0.059
804	0.059
805	0.058
805	0.058
806	0.058
806	0.058
807	0.058
807	0.058
807	0.058
808	0.058
808	0.058
809	0.058
809	0.058
810	0.058
810	0.058
810	0.058
811	0.058
811	0.058
812	0.059
812	0.059
813	0.059
813	0.059
813	0.059
814	0.06
814	0.06
815	0.06
815	0.06
816	0.06
816	0.059
817	0.059
817	0.059
817	0.058
818	0.058
818	0.058
819	0.057
819	0.056
820	0.055
820	0.055
820	0.054
821	0.054
821	0.054
822	0.054
822	0.054
823	0.054
823	0.053
823	0.054
824	0.055
824	0.056
825	0.057
825	0.058
826	0.059
826	0.059
826	0.06
827	0.061
827	0.061
828	0.061
828	0.061
829	0.061
829	0.061
829	0.061
830	0.061
830	0.062
831	0.062
831	0.062
832	0.062
832	0.062
832	0.062
833	0.061
833	0.061
834	0.06
834	0.059
835	0.058
835	0.058
835	0.057
836	0.056
836	0.056
837	0.055
837	0.054
838	0.054
838	0.053
839	0.053
839	0.052
839	0.052
840	0.051
840	0.051
841	0.05
841	0.049
842	0.049
842	0.048
842	0.047
843	0.047
843	0.046
844	0.046
844	0.046
845	0.045
845	0.045
845	0.045
846	0.045
846	0.046
847	0.046
847	0.046
848	0.046
848	0.047
848	0.047
849	0.047
849	0.047
850	0.048
850	0.048
851	0.048
851	0.048
851	0.048
852	0.047
852	0.047
853	0.047
853	0.047
854	0.047
854	0.048
854	0.048
855	0.049
855	0.049
856	0.05
856	0.051
857	0.051
857	0.052
857	0.053
858	0.053
858	0.053
859	0.053
859	0.053
860	0.054
860	0.054
860	0.054
861	0.053
861	0.053
862	0.052
862	0.052
863	0.051
863	0.05
863	0.05
864	0.049
864	0.049
865	0.049
865	0.049
866	0.049
866	0.049
866	0.049
867	0.049
867	0.05
868	0.05
868	0.05
869	0.051
869	0.051
869	0.05
870	0.05
870	0.05
871	0.049
871	0.049
872	0.049
872	0.048
872	0.048
873	0.048
873	0.048
874	0.048
874	0.048
875	0.048
875	0.048
875	0.048
876	0.048
876	0.048
877	0.048
877	0.048
878	0.048
878	0.048
878	0.048
879	0.048
879	0.047
880	0.047
880	0.047
881	0.047
881	0.047
881	0.047
882	0.047
882	0.047
883	0.047
883	0.048
884	0.048
884	0.048
884	0.048
885	0.047
885	0.047
886	0.047
886	0.047
887	0.046
887	0.046
887	0.046
888	0.045
888	0.045
889	0.045
889	0.046
890	0.046
890	0.046
890	0.047
891	0.047
891	0.047
892	0.047
892	0.047
893	0.046
893	0.046
893	0.045
894	0.045
894	0.044
895	0.044
895	0.043
895	0.043
896	0.043
896	0.043
897	0.042
897	0.043
898	0.042
898	0.042
898	0.042
899	0.042
899	0.042
900	0.042
900	0.043
901	0.043
901	0.043
901	0.043
902	0.043
902	0.043
903	0.043
903	0.043
904	0.043
904	0.043
904	0.043
905	0.043
905	0.042
906	0.042
906	0.042
907	0.042
907	0.042
907	0.042
908	0.042
908	0.042
909	0.042
909	0.042
910	0.042
910	0.041
910	0.041
911	0.041
911	0.04
912	0.04
912	0.04
913	0.039
913	0.039
913	0.039
914	0.039
914	0.038
915	0.038
915	0.038
916	0.038
916	0.038
916	0.038
917	0.038
917	0.038
918	0.037
918	0.037
918	0.037
919	0.037
919	0.036
920	0.036
920	0.036
921	0.036
921	0.036
921	0.037
922	0.037
922	0.037
923	0.037
923	0.037
924	0.038
924	0.038
924	0.038
925	0.039
925	0.039
926	0.039
926	0.04
927	0.041
927	0.041
927	0.042
928	0.042
928	0.043
929	0.043
929	0.044
930	0.044
930	0.044
930	0.044
931	0.044
931	0.044
932	0.044
932	0.044
933	0.044
933	0.044
933	0.044
934	0.043
934	0.043
935	0.043
935	0.042
935	0.042
936	0.041
936	0.04
937	0.04
937	0.039
938	0.038
938	0.037
938	0.036
939	0.035
939	0.034
940	0.034
940	0.034
941	0.034
941	0.034
941	0.034
942	0.035
942	0.035
943	0.036
943	0.037
944	0.037
944	0.038
944	0.038
945	0.039
945	0.039
946	0.039
946	0.039
946	0.039
947	0.039
947	0.039
948	0.039
948	0.038
949	0.038
949	0.038
949	0.038
950	0.037
950	0.037
951	0.037
951	0.037
952	0.036
952	0.036
952	0.036
953	0.036
953	0.036
954	0.036
954	0.036
955	0.037
955	0.037
955	0.037
956	0.038
956	0.039
957	0.04
957	0.041
957	0.042
958	0.043
958	0.043
959	0.044
959	0.044
960	0.044
960	0.045
960	0.045
961	0.045
961	0.044
962	0.044
962	0.044
963	0.043
963	0.043
963	0.042
964	0.042
964	0.042
965	0.042
965	0.041
966	0.041
966	0.041
966	0.041
967	0.042
967	0.042
968	0.042
968	0.042
968	0.042
969	0.042
969	0.041
970	0.04
970	0.039
971	0.038
971	0.037
971	0.036
972	0.036
972	0.035
973	0.034
973	0.034
974	0.033
974	0.033
974	0.034
975	0.034
975	0.035
976	0.035
976	0.036
976	0.036
977	0.037
977	0.037
978	0.037
978	0.037
979	0.037
979	0.037
979	0.037
980	0.038
980	0.038
981	0.037
981	0.038
982	0.038
982	0.038
982	0.038
983	0.038
983	0.038
984	0.038
984	0.038
984	0.038
985	0.038
985	0.038
986	0.038
986	0.038
987	0.038
987	0.038
987	0.038
988	0.037
988	0.037
989	0.037
989	0.037
990	0.037
990	0.036
990	0.036
991	0.036
991	0.036
992	0.035
992	0.034
992	0.033
993	0.033
993	0.032
994	0.031
994	0.031
995	0.03
995	0.03
995	0.03
996	0.029
996	0.03
997	0.03
997	0.03
997	0.031
998	0.031
998	0.031
999	0.032
999	0.032
1000	0.033
1000	0.034
1000	0.034
1001	0.034
1001	0.034
1002	0.034
1002	0.034
1003	0.034
1003	0.034
1003	0.033
1004	0.033
1004	0.032
1005	0.031
1005	0.031
1005	0.03
1006	0.029
1006	0.029
1007	0.028
1007	0.028
1008	0.028
1008	0.028
1008	0.028
1009	0.028
1009	0.028
1010	0.028
1010	0.028
1010	0.028
1011	0.028
1011	0.028
1012	0.028
1012	0.028
1013	0.028
1013	0.028
1013	0.027
1014	0.027
1014	0.027
1015	0.027
1015	0.027
1016	0.027
1016	0.027
1016	0.027
1017	0.027
1017	0.027
1018	0.027
1018	0.027
1018	0.027
1019	0.027
1019	0.026
1020	0.026
1020	0.027
1021	0.027
1021	0.027
1021	0.028
1022	0.028
1022	0.028
1023	0.029
1023	0.029
1023	0.029
1024	0.03
1024	0.03
1025	0.03
1025	0.03
1026	0.03
1026	0.03
1026	0.03
1027	0.031
1027	0.031
1028	0.031
1028	0.031
1028	0.031
1029	0.031
1029	0.032
1030	0.032
1030	0.032
1031	0.033
1031	0.033
1031	0.033
1032	0.034
1032	0.034
1033	0.034
1033	0.034
1033	0.034
1034	0.035
1034	0.035
1035	0.035
1035	0.035
1036	0.035
1036	0.035
1036	0.035
1037	0.035
1037	0.034
1038	0.034
1038	0.034
1039	0.034
1039	0.034
1039	0.034
1040	0.034
1040	0.034
1041	0.034
1041	0.033
1041	0.033
1042	0.033
1042	0.033
1043	0.033
1043	0.033
1044	0.032
1044	0.032
1044	0.032
1045	0.032
1045	0.031
1046	0.031
1046	0.031
1046	0.031
1047	0.031
1047	0.03
1048	0.031
1048	0.031
1049	0.031
1049	0.031
1049	0.031
1050	0.031
1050	0.031
1051	0.031
1051	0.031
1051	0.03
1052	0.03
1052	0.029
1053	0.029
1053	0.028
1053	0.027
1054	0.027
1054	0.026
1055	0.026
1055	0.025
1056	0.025
1056	0.024
1056	0.024
1057	0.023
1057	0.022
1058	0.022
1058	0.021
1058	0.02
1059	0.02
1059	0.019
1060	0.019
1060	0.018
1061	0.018
1061	0.018
1061	0.018
1062	0.018
1062	0.018
1063	0.018
1063	0.018
1063	0.019
1064	0.018
1064	0.019
1065	0.019
1065	0.019
1066	0.019
1066	0.019
1066	0.019
1067	0.018
1067	0.019
1068	0.019
1068	0.018
1068	0.018
1069	0.018
1069	0.018
1070	0.018
1070	0.018
1071	0.018
1071	0.018
1071	0.018
1072	0.018
1072	0.018
1073	0.018
1073	0.018
1073	0.018
1074	0.018
1074	0.019
1075	0.019
1075	0.019
1076	0.02
1076	0.02
1076	0.021
1077	0.021
1077	0.021
1078	0.021
1078	0.021
1078	0.021
1079	0.021
1079	0.021
1080	0.02
1080	0.02
1080	0.02
1081	0.02
1081	0.02
1082	0.02
1082	0.021
1083	0.021
1083	0.021
1083	0.021
1084	0.021
1084	0.022
1085	0.022
1085	0.023
1085	0.024
1086	0.024
1086	0.023
1087	0.023
1087	0.023
1088	0.023
1088	0.023
1088	0.023
1089	0.022
1089	0.021
1090	0.02
1090	0.02
1090	0.018
1091	0.018
1091	0.018
1092	0.017
1092	0.017
1092	0.017
1093	0.016
1093	0.016
1094	0.016
1094	0.016
1095	0.016
1095	0.016
1095	0.016
1096	0.016
1096	0.015
1097	0.015
1097	0.014
1097	0.014
1098	0.013
1098	0.013
1099	0.012
1099	0.011
1100	0.01
1100	0.008
1100	0.008
1101	0.007
1101	0.006
1102	0.006
1102	0.005
1102	0.004
1103	0.003
1103	0.003
1104	0.003
1104	0.003
1104	0.002
1105	0.001
1105	-0.001
1106	-0.003
1106	-0.004
1107	-0.004
1107	-0.005
1107	-0.006
1108	-0.007
1108	-0.008
1109	-0.009
1109	-0.009
1109	-0.008
1110	-0.007
1110	-0.007
1111	-0.008
1111	-0.01
