Data from reversibility-20sec_Absorbance__2859__000000000002859.txt Node

Date: Wed Dec 06 04:06:05 CET 2023
User: Marek
Spectrometer: MAYP115816
Trigger mode: 0
Integration Time (sec): 2.000000E-1
Scans to average: 10
Electric dark correction enabled: true
Nonlinearity correction enabled: true
Boxcar width: 5
XAxis mode: Wavelengths
Number of Pixels in Spectrum: 2068
>>>>>Begin Spectral Data<<<<<
199	-0.127
199	-0.089
200	-0.023
200	0.03
201	0.058
201	0.077
202	0.088
202	0.094
203	0.104
203	0.109
204	0.124
204	0.141
205	0.15
205	0.155
205	0.153
206	0.153
206	0.15
207	0.153
207	0.154
208	0.154
208	0.154
209	0.157
209	0.151
210	0.152
210	0.155
211	0.156
211	0.161
212	0.162
212	0.16
213	0.16
213	0.158
213	0.157
214	0.158
214	0.162
215	0.165
215	0.164
216	0.165
216	0.162
217	0.163
217	0.166
218	0.169
218	0.175
219	0.178
219	0.179
220	0.178
220	0.175
221	0.175
221	0.179
221	0.183
222	0.194
222	0.2
223	0.205
223	0.21
224	0.214
224	0.223
225	0.235
225	0.245
226	0.256
226	0.265
227	0.278
227	0.283
228	0.297
228	0.312
229	0.325
229	0.35
229	0.373
230	0.396
230	0.427
231	0.461
231	0.499
232	0.535
232	0.582
233	0.624
233	0.675
234	0.727
234	0.777
235	0.831
235	0.886
236	0.938
236	0.991
236	1.046
237	1.099
237	1.144
238	1.195
238	1.244
239	1.295
239	1.341
240	1.38
240	1.418
241	1.458
241	1.493
242	1.525
242	1.562
243	1.594
243	1.622
243	1.648
244	1.671
244	1.697
245	1.72
245	1.746
246	1.766
246	1.788
247	1.806
247	1.82
248	1.839
248	1.855
249	1.868
249	1.878
250	1.888
250	1.9
250	1.903
251	1.913
251	1.913
252	1.919
252	1.921
253	1.921
253	1.919
254	1.919
254	1.92
255	1.917
255	1.916
256	1.917
256	1.915
257	1.919
257	1.917
258	1.918
258	1.92
258	1.921
259	1.92
259	1.922
260	1.924
260	1.927
261	1.928
261	1.931
262	1.935
262	1.939
263	1.945
263	1.947
264	1.952
264	1.957
265	1.96
265	1.964
265	1.963
266	1.967
266	1.969
267	1.968
267	1.97
268	1.97
268	1.973
269	1.976
269	1.976
270	1.978
270	1.976
271	1.974
271	1.975
272	1.972
272	1.971
272	1.966
273	1.956
273	1.948
274	1.938
274	1.93
275	1.92
275	1.913
276	1.905
276	1.897
277	1.888
277	1.877
278	1.865
278	1.853
278	1.836
279	1.816
279	1.789
280	1.757
280	1.718
281	1.672
281	1.622
282	1.571
282	1.52
283	1.471
283	1.424
284	1.38
284	1.338
285	1.299
285	1.263
285	1.232
286	1.205
286	1.182
287	1.161
287	1.144
288	1.129
288	1.116
289	1.106
289	1.096
290	1.089
290	1.082
291	1.076
291	1.071
292	1.066
292	1.062
292	1.058
293	1.054
293	1.051
294	1.048
294	1.045
295	1.042
295	1.039
296	1.037
296	1.034
297	1.031
297	1.028
298	1.025
298	1.023
298	1.02
299	1.017
299	1.015
300	1.012
300	1.01
301	1.007
301	1.004
302	1.002
302	1
303	0.998
303	0.996
304	0.993
304	0.991
305	0.989
305	0.986
305	0.984
306	0.982
306	0.979
307	0.977
307	0.975
308	0.972
308	0.97
309	0.967
309	0.964
310	0.961
310	0.959
311	0.956
311	0.952
311	0.949
312	0.946
312	0.942
313	0.939
313	0.935
314	0.931
314	0.927
315	0.923
315	0.919
316	0.914
316	0.91
317	0.905
317	0.9
318	0.895
318	0.89
318	0.884
319	0.879
319	0.873
320	0.867
320	0.862
321	0.856
321	0.849
322	0.843
322	0.837
323	0.831
323	0.824
324	0.818
324	0.811
324	0.804
325	0.797
325	0.791
326	0.784
326	0.777
327	0.77
327	0.763
328	0.756
328	0.749
329	0.742
329	0.734
330	0.727
330	0.72
330	0.713
331	0.705
331	0.698
332	0.691
332	0.684
333	0.677
333	0.67
334	0.663
334	0.656
335	0.649
335	0.643
336	0.636
336	0.629
336	0.623
337	0.616
337	0.61
338	0.604
338	0.598
339	0.591
339	0.585
340	0.579
340	0.573
341	0.568
341	0.562
342	0.556
342	0.551
342	0.545
343	0.54
343	0.535
344	0.53
344	0.525
345	0.52
345	0.516
346	0.511
346	0.507
347	0.502
347	0.498
348	0.494
348	0.489
348	0.485
349	0.481
349	0.478
350	0.474
350	0.47
351	0.467
351	0.464
352	0.46
352	0.457
353	0.455
353	0.452
354	0.448
354	0.445
354	0.443
355	0.44
355	0.437
356	0.434
356	0.432
357	0.429
357	0.426
358	0.423
358	0.421
359	0.418
359	0.416
360	0.414
360	0.411
360	0.409
361	0.407
361	0.405
362	0.403
362	0.401
363	0.399
363	0.398
364	0.396
364	0.394
365	0.392
365	0.39
366	0.388
366	0.387
366	0.385
367	0.383
367	0.382
368	0.38
368	0.378
369	0.376
369	0.375
370	0.374
370	0.372
371	0.371
371	0.37
372	0.368
372	0.367
372	0.366
373	0.365
373	0.364
374	0.363
374	0.361
375	0.36
375	0.359
376	0.359
376	0.358
377	0.356
377	0.355
378	0.354
378	0.353
378	0.352
379	0.352
379	0.351
380	0.35
380	0.349
381	0.348
381	0.347
382	0.347
382	0.346
383	0.345
383	0.345
383	0.344
384	0.344
384	0.343
385	0.342
385	0.342
386	0.341
386	0.341
387	0.34
387	0.339
388	0.339
388	0.338
389	0.338
389	0.338
389	0.337
390	0.337
390	0.336
391	0.336
391	0.335
392	0.335
392	0.335
393	0.334
393	0.334
394	0.333
394	0.333
394	0.332
395	0.332
395	0.331
396	0.331
396	0.331
397	0.33
397	0.33
398	0.329
398	0.329
399	0.329
399	0.328
400	0.328
400	0.327
400	0.327
401	0.327
401	0.326
402	0.326
402	0.326
403	0.325
403	0.324
404	0.324
404	0.324
405	0.324
405	0.323
405	0.323
406	0.323
406	0.322
407	0.322
407	0.321
408	0.321
408	0.32
409	0.32
409	0.32
410	0.319
410	0.319
411	0.319
411	0.318
411	0.318
412	0.318
412	0.317
413	0.317
413	0.317
414	0.316
414	0.316
415	0.316
415	0.315
416	0.315
416	0.315
416	0.314
417	0.314
417	0.314
418	0.313
418	0.313
419	0.313
419	0.312
420	0.312
420	0.312
421	0.311
421	0.311
421	0.31
422	0.31
422	0.309
423	0.309
423	0.309
424	0.308
424	0.308
425	0.307
425	0.307
426	0.307
426	0.306
427	0.306
427	0.306
427	0.306
428	0.305
428	0.305
429	0.305
429	0.304
430	0.304
430	0.304
431	0.303
431	0.303
432	0.303
432	0.303
432	0.303
433	0.303
433	0.302
434	0.302
434	0.302
435	0.302
435	0.302
436	0.302
436	0.302
437	0.301
437	0.301
437	0.301
438	0.3
438	0.3
439	0.3
439	0.3
440	0.299
440	0.299
441	0.298
441	0.298
442	0.298
442	0.297
442	0.297
443	0.297
443	0.297
444	0.296
444	0.296
445	0.296
445	0.296
446	0.296
446	0.295
447	0.295
447	0.295
447	0.295
448	0.295
448	0.295
449	0.294
449	0.294
450	0.294
450	0.294
451	0.293
451	0.293
452	0.293
452	0.293
452	0.293
453	0.293
453	0.292
454	0.292
454	0.292
455	0.292
455	0.292
456	0.292
456	0.292
457	0.291
457	0.291
458	0.291
458	0.291
458	0.291
459	0.291
459	0.291
460	0.29
460	0.29
461	0.29
461	0.29
462	0.29
462	0.29
463	0.29
463	0.289
463	0.289
464	0.289
464	0.288
465	0.288
465	0.287
466	0.287
466	0.287
467	0.287
467	0.287
467	0.287
468	0.287
468	0.287
469	0.288
469	0.288
470	0.288
470	0.288
471	0.289
471	0.289
472	0.289
472	0.289
472	0.289
473	0.289
473	0.289
474	0.289
474	0.288
475	0.288
475	0.288
476	0.288
476	0.288
477	0.289
477	0.289
477	0.289
478	0.289
478	0.289
479	0.289
479	0.289
480	0.289
480	0.29
481	0.29
481	0.29
482	0.29
482	0.29
482	0.29
483	0.291
483	0.291
484	0.292
484	0.292
485	0.292
485	0.292
486	0.292
486	0.292
487	0.292
487	0.293
487	0.293
488	0.293
488	0.293
489	0.294
489	0.295
490	0.295
490	0.296
491	0.297
491	0.298
492	0.298
492	0.299
492	0.3
493	0.3
493	0.301
494	0.302
494	0.303
495	0.303
495	0.303
496	0.304
496	0.305
496	0.305
497	0.306
497	0.306
498	0.307
498	0.307
499	0.307
499	0.308
500	0.309
500	0.31
501	0.31
501	0.311
501	0.311
502	0.312
502	0.313
503	0.314
503	0.314
504	0.315
504	0.315
505	0.316
505	0.316
506	0.317
506	0.318
506	0.318
507	0.319
507	0.32
508	0.32
508	0.321
509	0.322
509	0.323
510	0.324
510	0.324
511	0.325
511	0.326
511	0.326
512	0.327
512	0.328
513	0.328
513	0.329
514	0.329
514	0.33
515	0.33
515	0.331
515	0.331
516	0.331
516	0.332
517	0.332
517	0.332
518	0.333
518	0.333
519	0.334
519	0.334
520	0.334
520	0.334
520	0.335
521	0.335
521	0.335
522	0.336
522	0.336
523	0.336
523	0.336
524	0.336
524	0.336
524	0.336
525	0.337
525	0.336
526	0.336
526	0.336
527	0.336
527	0.336
528	0.336
528	0.336
529	0.336
529	0.336
529	0.335
530	0.335
530	0.334
531	0.334
531	0.334
532	0.334
532	0.333
533	0.333
533	0.332
533	0.332
534	0.331
534	0.331
535	0.33
535	0.33
536	0.329
536	0.328
537	0.328
537	0.327
538	0.327
538	0.326
538	0.326
539	0.325
539	0.325
540	0.324
540	0.324
541	0.323
541	0.322
542	0.322
542	0.322
542	0.321
543	0.32
543	0.319
544	0.319
544	0.318
545	0.318
545	0.317
546	0.317
546	0.316
547	0.315
547	0.314
547	0.313
548	0.312
548	0.312
549	0.311
549	0.31
550	0.309
550	0.308
551	0.307
551	0.307
551	0.306
552	0.305
552	0.304
553	0.304
553	0.303
554	0.302
554	0.301
555	0.3
555	0.299
556	0.299
556	0.298
556	0.297
557	0.297
557	0.296
558	0.296
558	0.295
559	0.295
559	0.294
560	0.294
560	0.293
560	0.293
561	0.292
561	0.292
562	0.291
562	0.29
563	0.289
563	0.288
564	0.287
564	0.286
564	0.285
565	0.285
565	0.284
566	0.283
566	0.282
567	0.282
567	0.281
568	0.28
568	0.28
568	0.279
569	0.279
569	0.278
570	0.277
570	0.276
571	0.275
571	0.275
572	0.274
572	0.273
573	0.273
573	0.272
573	0.271
574	0.271
574	0.271
575	0.27
575	0.27
576	0.27
576	0.269
577	0.268
577	0.267
577	0.267
578	0.266
578	0.265
579	0.265
579	0.265
580	0.264
580	0.263
581	0.262
581	0.261
581	0.261
582	0.261
582	0.261
583	0.261
583	0.26
584	0.259
584	0.258
585	0.258
585	0.257
585	0.257
586	0.256
586	0.256
587	0.255
587	0.254
588	0.253
588	0.253
589	0.252
589	0.252
590	0.252
590	0.252
590	0.252
591	0.251
591	0.251
592	0.25
592	0.249
593	0.248
593	0.248
594	0.247
594	0.246
594	0.246
595	0.245
595	0.245
596	0.244
596	0.244
597	0.245
597	0.245
598	0.245
598	0.245
598	0.245
599	0.245
599	0.244
600	0.244
600	0.243
601	0.243
601	0.243
602	0.242
602	0.241
602	0.24
603	0.24
603	0.24
604	0.239
604	0.239
605	0.239
605	0.239
606	0.238
606	0.238
606	0.237
607	0.237
607	0.236
608	0.236
608	0.235
609	0.234
609	0.234
610	0.234
610	0.233
610	0.233
611	0.233
611	0.233
612	0.233
612	0.233
613	0.233
613	0.233
614	0.233
614	0.233
614	0.232
615	0.233
615	0.232
616	0.232
616	0.232
617	0.232
617	0.231
618	0.231
618	0.231
618	0.231
619	0.231
619	0.231
620	0.231
620	0.231
621	0.23
621	0.23
622	0.229
622	0.229
622	0.228
623	0.228
623	0.228
624	0.227
624	0.226
625	0.226
625	0.226
626	0.225
626	0.225
626	0.225
627	0.225
627	0.225
628	0.225
628	0.224
629	0.224
629	0.224
630	0.224
630	0.224
630	0.224
631	0.224
631	0.224
632	0.224
632	0.223
633	0.223
633	0.223
634	0.224
634	0.224
634	0.223
635	0.223
635	0.223
636	0.222
636	0.222
637	0.221
637	0.221
638	0.22
638	0.22
638	0.219
639	0.219
639	0.218
640	0.218
640	0.218
641	0.218
641	0.218
642	0.218
642	0.218
642	0.219
643	0.219
643	0.219
644	0.22
644	0.22
645	0.22
645	0.22
646	0.22
646	0.22
646	0.22
647	0.219
647	0.219
648	0.218
648	0.218
649	0.217
649	0.217
650	0.217
650	0.217
650	0.217
651	0.217
651	0.216
652	0.216
652	0.217
653	0.217
653	0.219
653	0.225
654	0.175
654	0.139
655	0.141
655	0.142
656	0.142
656	0.142
657	0.143
657	0.143
657	0.143
658	0.142
658	0.131
659	0.166
659	0.215
660	0.219
660	0.218
661	0.218
661	0.217
661	0.216
662	0.216
662	0.215
663	0.215
663	0.215
664	0.214
664	0.214
665	0.214
665	0.214
665	0.214
666	0.215
666	0.215
667	0.216
667	0.216
668	0.217
668	0.217
669	0.217
669	0.217
669	0.217
670	0.218
670	0.217
671	0.217
671	0.217
672	0.217
672	0.216
672	0.216
673	0.216
673	0.216
674	0.215
674	0.215
675	0.214
675	0.215
676	0.215
676	0.215
676	0.215
677	0.215
677	0.216
678	0.216
678	0.215
679	0.215
679	0.215
680	0.216
680	0.215
680	0.215
681	0.215
681	0.215
682	0.215
682	0.216
683	0.216
683	0.217
684	0.217
684	0.217
684	0.217
685	0.217
685	0.217
686	0.217
686	0.217
687	0.217
687	0.217
687	0.217
688	0.216
688	0.216
689	0.217
689	0.217
690	0.217
690	0.217
691	0.217
691	0.217
691	0.217
692	0.217
692	0.217
693	0.218
693	0.218
694	0.218
694	0.217
695	0.218
695	0.219
695	0.219
696	0.218
696	0.218
697	0.218
697	0.218
698	0.218
698	0.217
698	0.218
699	0.218
699	0.217
700	0.217
700	0.217
701	0.217
701	0.217
702	0.217
702	0.217
702	0.217
703	0.217
703	0.217
704	0.217
704	0.217
705	0.217
705	0.217
705	0.217
706	0.217
706	0.217
707	0.217
707	0.217
708	0.217
708	0.217
709	0.217
709	0.217
709	0.216
710	0.216
710	0.217
711	0.217
711	0.217
712	0.217
712	0.217
713	0.218
713	0.218
713	0.218
714	0.218
714	0.218
715	0.218
715	0.217
716	0.217
716	0.217
716	0.216
717	0.215
717	0.215
718	0.214
718	0.214
719	0.214
719	0.214
720	0.214
720	0.215
720	0.215
721	0.215
721	0.216
722	0.217
722	0.217
723	0.217
723	0.218
723	0.218
724	0.218
724	0.218
725	0.217
725	0.217
726	0.217
726	0.217
727	0.216
727	0.216
727	0.216
728	0.215
728	0.215
729	0.216
729	0.216
730	0.216
730	0.217
730	0.217
731	0.217
731	0.218
732	0.219
732	0.219
733	0.219
733	0.219
734	0.219
734	0.219
734	0.219
735	0.219
735	0.219
736	0.218
736	0.218
737	0.217
737	0.217
737	0.216
738	0.216
738	0.215
739	0.215
739	0.215
740	0.215
740	0.215
741	0.215
741	0.215
741	0.216
742	0.216
742	0.217
743	0.218
743	0.218
744	0.219
744	0.219
744	0.219
745	0.219
745	0.218
746	0.218
746	0.218
747	0.218
747	0.218
748	0.218
748	0.219
748	0.219
749	0.219
749	0.22
750	0.221
750	0.221
751	0.221
751	0.222
751	0.222
752	0.222
752	0.221
753	0.221
753	0.22
754	0.22
754	0.219
754	0.219
755	0.219
755	0.219
756	0.218
756	0.217
757	0.217
757	0.217
758	0.217
758	0.217
758	0.217
759	0.217
759	0.217
760	0.217
760	0.216
761	0.217
761	0.218
761	0.218
762	0.219
762	0.219
763	0.22
763	0.22
764	0.22
764	0.22
764	0.221
765	0.221
765	0.221
766	0.221
766	0.221
767	0.221
767	0.22
768	0.22
768	0.22
768	0.22
769	0.22
769	0.22
770	0.22
770	0.22
771	0.22
771	0.22
771	0.22
772	0.221
772	0.221
773	0.221
773	0.221
774	0.222
774	0.222
775	0.223
775	0.223
775	0.223
776	0.223
776	0.223
777	0.224
777	0.224
778	0.223
778	0.223
778	0.223
779	0.222
779	0.222
780	0.221
780	0.221
781	0.22
781	0.22
781	0.22
782	0.22
782	0.22
783	0.22
783	0.221
784	0.221
784	0.221
784	0.221
785	0.222
785	0.222
786	0.222
786	0.222
787	0.222
787	0.222
788	0.221
788	0.221
788	0.221
789	0.221
789	0.221
790	0.221
790	0.221
791	0.221
791	0.221
791	0.221
792	0.222
792	0.222
793	0.222
793	0.222
794	0.222
794	0.222
794	0.222
795	0.222
795	0.222
796	0.222
796	0.222
797	0.221
797	0.221
797	0.222
798	0.222
798	0.222
799	0.222
799	0.222
800	0.221
800	0.221
801	0.22
801	0.22
801	0.22
802	0.22
802	0.22
803	0.22
803	0.22
804	0.221
804	0.222
804	0.222
805	0.223
805	0.223
806	0.223
806	0.223
807	0.223
807	0.223
807	0.223
808	0.223
808	0.223
809	0.222
809	0.222
810	0.222
810	0.222
810	0.222
811	0.222
811	0.223
812	0.224
812	0.224
813	0.224
813	0.224
813	0.225
814	0.225
814	0.225
815	0.225
815	0.225
816	0.225
816	0.224
817	0.224
817	0.223
817	0.223
818	0.223
818	0.223
819	0.223
819	0.222
820	0.221
820	0.221
820	0.221
821	0.221
821	0.222
822	0.222
822	0.222
823	0.222
823	0.222
823	0.223
824	0.224
824	0.225
825	0.226
825	0.227
826	0.227
826	0.227
826	0.227
827	0.227
827	0.227
828	0.226
828	0.226
829	0.226
829	0.225
829	0.225
830	0.225
830	0.225
831	0.226
831	0.226
832	0.226
832	0.226
832	0.227
833	0.227
833	0.227
834	0.227
834	0.227
835	0.226
835	0.226
835	0.226
836	0.225
836	0.225
837	0.225
837	0.224
838	0.224
838	0.223
839	0.223
839	0.222
839	0.221
840	0.22
840	0.219
841	0.218
841	0.217
842	0.216
842	0.216
842	0.215
843	0.215
843	0.215
844	0.215
844	0.214
845	0.214
845	0.215
845	0.215
846	0.215
846	0.216
847	0.216
847	0.216
848	0.216
848	0.216
848	0.216
849	0.216
849	0.216
850	0.215
850	0.215
851	0.214
851	0.214
851	0.213
852	0.213
852	0.212
853	0.212
853	0.211
854	0.212
854	0.212
854	0.212
855	0.213
855	0.214
856	0.214
856	0.215
857	0.216
857	0.216
857	0.217
858	0.217
858	0.216
859	0.216
859	0.216
860	0.215
860	0.214
860	0.213
861	0.212
861	0.211
862	0.209
862	0.208
863	0.207
863	0.206
863	0.206
864	0.205
864	0.205
865	0.205
865	0.205
866	0.204
866	0.204
866	0.204
867	0.204
867	0.205
868	0.204
868	0.204
869	0.204
869	0.203
869	0.203
870	0.202
870	0.202
871	0.201
871	0.201
872	0.201
872	0.201
872	0.201
873	0.2
873	0.2
874	0.199
874	0.199
875	0.198
875	0.198
875	0.198
876	0.197
876	0.197
877	0.197
877	0.197
878	0.197
878	0.197
878	0.197
879	0.198
879	0.198
880	0.199
880	0.199
881	0.199
881	0.199
881	0.199
882	0.199
882	0.199
883	0.198
883	0.198
884	0.198
884	0.197
884	0.197
885	0.196
885	0.196
886	0.195
886	0.195
887	0.194
887	0.193
887	0.192
888	0.192
888	0.191
889	0.191
889	0.19
890	0.19
890	0.19
890	0.189
891	0.189
891	0.188
892	0.188
892	0.188
893	0.188
893	0.187
893	0.187
894	0.187
894	0.186
895	0.186
895	0.185
895	0.185
896	0.184
896	0.184
897	0.183
897	0.183
898	0.182
898	0.181
898	0.181
899	0.18
899	0.18
900	0.179
900	0.179
901	0.179
901	0.179
901	0.179
902	0.179
902	0.179
903	0.179
903	0.179
904	0.178
904	0.178
904	0.178
905	0.178
905	0.178
906	0.178
906	0.178
907	0.179
907	0.179
907	0.18
908	0.18
908	0.18
909	0.181
909	0.181
910	0.181
910	0.18
910	0.18
911	0.179
911	0.179
912	0.178
912	0.178
913	0.177
913	0.176
913	0.176
914	0.176
914	0.175
915	0.175
915	0.174
916	0.174
916	0.174
916	0.173
917	0.173
917	0.172
918	0.171
918	0.171
918	0.17
919	0.169
919	0.169
920	0.168
920	0.167
921	0.167
921	0.166
921	0.166
922	0.165
922	0.164
923	0.164
923	0.164
924	0.164
924	0.164
924	0.164
925	0.165
925	0.165
926	0.165
926	0.164
927	0.165
927	0.165
927	0.165
928	0.165
928	0.164
929	0.165
929	0.165
930	0.164
930	0.164
930	0.164
931	0.164
931	0.164
932	0.164
932	0.164
933	0.164
933	0.164
933	0.164
934	0.163
934	0.163
935	0.163
935	0.162
935	0.162
936	0.161
936	0.16
937	0.16
937	0.159
938	0.158
938	0.157
938	0.157
939	0.156
939	0.156
940	0.155
940	0.155
941	0.154
941	0.154
941	0.154
942	0.154
942	0.153
943	0.154
943	0.154
944	0.153
944	0.153
944	0.153
945	0.153
945	0.153
946	0.153
946	0.153
946	0.153
947	0.153
947	0.153
948	0.153
948	0.153
949	0.153
949	0.153
949	0.152
950	0.152
950	0.151
951	0.15
951	0.149
952	0.148
952	0.147
952	0.146
953	0.145
953	0.144
954	0.143
954	0.142
955	0.141
955	0.14
955	0.14
956	0.14
956	0.14
957	0.14
957	0.139
957	0.139
958	0.139
958	0.139
959	0.139
959	0.139
960	0.139
960	0.139
960	0.139
961	0.138
961	0.138
962	0.138
962	0.137
963	0.137
963	0.136
963	0.136
964	0.137
964	0.137
965	0.137
965	0.138
966	0.138
966	0.139
966	0.14
967	0.14
967	0.141
968	0.142
968	0.142
968	0.142
969	0.142
969	0.142
970	0.142
970	0.141
971	0.141
971	0.141
971	0.14
972	0.14
972	0.139
973	0.139
973	0.139
974	0.139
974	0.139
974	0.138
975	0.138
975	0.138
976	0.138
976	0.138
976	0.138
977	0.138
977	0.137
978	0.137
978	0.137
979	0.137
979	0.137
979	0.137
980	0.137
980	0.137
981	0.136
981	0.136
982	0.136
982	0.135
982	0.135
983	0.134
983	0.134
984	0.133
984	0.132
984	0.132
985	0.131
985	0.13
986	0.13
986	0.129
987	0.129
987	0.128
987	0.128
988	0.127
988	0.127
989	0.126
989	0.126
990	0.126
990	0.125
990	0.125
991	0.124
991	0.123
992	0.123
992	0.122
992	0.121
993	0.121
993	0.12
994	0.119
994	0.119
995	0.118
995	0.118
995	0.118
996	0.118
996	0.118
997	0.118
997	0.119
997	0.119
998	0.12
998	0.121
999	0.122
999	0.122
1000	0.123
1000	0.124
1000	0.124
1001	0.124
1001	0.124
1002	0.124
1002	0.123
1003	0.123
1003	0.122
1003	0.121
1004	0.12
1004	0.119
1005	0.118
1005	0.117
1005	0.116
1006	0.116
1006	0.115
1007	0.115
1007	0.115
1008	0.114
1008	0.115
1008	0.115
1009	0.115
1009	0.115
1010	0.115
1010	0.115
1010	0.116
1011	0.116
1011	0.116
1012	0.116
1012	0.116
1013	0.115
1013	0.115
1013	0.115
1014	0.115
1014	0.114
1015	0.114
1015	0.114
1016	0.114
1016	0.113
1016	0.113
1017	0.112
1017	0.112
1018	0.111
1018	0.111
1018	0.11
1019	0.11
1019	0.11
1020	0.11
1020	0.11
1021	0.11
1021	0.11
1021	0.11
1022	0.11
1022	0.11
1023	0.11
1023	0.11
1023	0.11
1024	0.11
1024	0.109
1025	0.109
1025	0.109
1026	0.108
1026	0.108
1026	0.107
1027	0.107
1027	0.106
1028	0.106
1028	0.106
1028	0.106
1029	0.105
1029	0.105
1030	0.105
1030	0.106
1031	0.106
1031	0.106
1031	0.106
1032	0.106
1032	0.106
1033	0.106
1033	0.107
1033	0.106
1034	0.106
1034	0.106
1035	0.106
1035	0.106
1036	0.106
1036	0.105
1036	0.105
1037	0.105
1037	0.104
1038	0.104
1038	0.104
1039	0.104
1039	0.104
1039	0.104
1040	0.105
1040	0.105
1041	0.105
1041	0.105
1041	0.106
1042	0.106
1042	0.106
1043	0.107
1043	0.107
1044	0.108
1044	0.108
1044	0.108
1045	0.108
1045	0.108
1046	0.109
1046	0.109
1046	0.109
1047	0.11
1047	0.11
1048	0.11
1048	0.111
1049	0.112
1049	0.112
1049	0.112
1050	0.113
1050	0.113
1051	0.113
1051	0.113
1051	0.113
1052	0.113
1052	0.112
1053	0.111
1053	0.111
1053	0.11
1054	0.109
1054	0.108
1055	0.107
1055	0.106
1056	0.105
1056	0.104
1056	0.103
1057	0.102
1057	0.101
1058	0.1
1058	0.099
1058	0.098
1059	0.097
1059	0.097
1060	0.096
1060	0.095
1061	0.095
1061	0.094
1061	0.094
1062	0.094
1062	0.094
1063	0.094
1063	0.093
1063	0.093
1064	0.092
1064	0.092
1065	0.092
1065	0.092
1066	0.092
1066	0.091
1066	0.091
1067	0.09
1067	0.09
1068	0.09
1068	0.09
1068	0.089
1069	0.089
1069	0.088
1070	0.088
1070	0.087
1071	0.087
1071	0.086
1071	0.085
1072	0.085
1072	0.085
1073	0.084
1073	0.083
1073	0.083
1074	0.083
1074	0.083
1075	0.083
1075	0.083
1076	0.083
1076	0.084
1076	0.084
1077	0.084
1077	0.085
1078	0.085
1078	0.085
1078	0.085
1079	0.085
1079	0.086
1080	0.085
1080	0.085
1080	0.085
1081	0.085
1081	0.085
1082	0.085
1082	0.085
1083	0.085
1083	0.085
1083	0.085
1084	0.085
1084	0.085
1085	0.085
1085	0.085
1085	0.084
1086	0.084
1086	0.083
1087	0.083
1087	0.082
1088	0.081
1088	0.081
1088	0.081
1089	0.08
1089	0.08
1090	0.079
1090	0.078
1090	0.077
1091	0.077
1091	0.077
1092	0.077
1092	0.077
1092	0.076
1093	0.076
1093	0.076
1094	0.076
1094	0.076
1095	0.076
1095	0.076
1095	0.075
1096	0.074
1096	0.074
1097	0.073
1097	0.073
1097	0.072
1098	0.072
1098	0.07
1099	0.069
1099	0.068
1100	0.068
1100	0.068
1100	0.067
1101	0.067
1101	0.067
1102	0.066
1102	0.065
1102	0.064
1103	0.064
1103	0.065
1104	0.064
1104	0.064
1104	0.063
1105	0.063
1105	0.061
1106	0.059
1106	0.058
1107	0.058
1107	0.058
1107	0.057
1108	0.055
1108	0.055
1109	0.053
1109	0.053
1109	0.053
1110	0.054
1110	0.054
1111	0.055
1111	0.052
