Data from reversibility-20sec_Absorbance__268__000000000000268.txt Node

Date: Tue Dec 05 13:42:25 CET 2023
User: Marek
Spectrometer: MAYP115816
Trigger mode: 0
Integration Time (sec): 2.000000E-1
Scans to average: 10
Electric dark correction enabled: true
Nonlinearity correction enabled: true
Boxcar width: 5
XAxis mode: Wavelengths
Number of Pixels in Spectrum: 2068
>>>>>Begin Spectral Data<<<<<
199	-0.243
199	-0.208
200	-0.137
200	-0.084
201	-0.049
201	-0.031
202	-0.015
202	-0.003
203	0.001
203	0.004
204	0.02
204	0.032
205	0.044
205	0.051
205	0.05
206	0.049
206	0.045
207	0.046
207	0.043
208	0.046
208	0.046
209	0.046
209	0.044
210	0.047
210	0.048
211	0.049
211	0.05
212	0.053
212	0.056
213	0.06
213	0.06
213	0.062
214	0.068
214	0.072
215	0.072
215	0.072
216	0.075
216	0.073
217	0.078
217	0.08
218	0.077
218	0.082
219	0.085
219	0.085
220	0.085
220	0.085
221	0.086
221	0.087
221	0.093
222	0.097
222	0.099
223	0.106
223	0.109
224	0.114
224	0.124
225	0.135
225	0.144
226	0.153
226	0.164
227	0.173
227	0.184
228	0.199
228	0.216
229	0.233
229	0.255
229	0.276
230	0.299
230	0.331
231	0.364
231	0.403
232	0.439
232	0.48
233	0.523
233	0.57
234	0.619
234	0.67
235	0.721
235	0.774
236	0.824
236	0.874
236	0.923
237	0.973
237	1.021
238	1.068
238	1.116
239	1.164
239	1.205
240	1.246
240	1.28
241	1.313
241	1.347
242	1.379
242	1.413
243	1.444
243	1.469
243	1.492
244	1.514
244	1.538
245	1.556
245	1.577
246	1.597
246	1.615
247	1.629
247	1.642
248	1.656
248	1.671
249	1.681
249	1.688
250	1.696
250	1.704
250	1.71
251	1.714
251	1.715
252	1.721
252	1.723
253	1.724
253	1.723
254	1.723
254	1.724
255	1.722
255	1.722
256	1.721
256	1.72
257	1.72
257	1.718
258	1.716
258	1.716
258	1.715
259	1.717
259	1.715
260	1.715
260	1.715
261	1.715
261	1.717
262	1.72
262	1.721
263	1.724
263	1.725
264	1.726
264	1.725
265	1.726
265	1.726
265	1.726
266	1.725
266	1.725
267	1.723
267	1.724
268	1.722
268	1.721
269	1.723
269	1.723
270	1.722
270	1.721
271	1.718
271	1.717
272	1.713
272	1.711
272	1.708
273	1.704
273	1.699
274	1.694
274	1.689
275	1.683
275	1.676
276	1.67
276	1.663
277	1.656
277	1.646
278	1.636
278	1.624
278	1.61
279	1.595
279	1.575
280	1.552
280	1.525
281	1.493
281	1.458
282	1.42
282	1.382
283	1.345
283	1.307
284	1.271
284	1.236
285	1.203
285	1.173
285	1.146
286	1.122
286	1.102
287	1.083
287	1.068
288	1.055
288	1.044
289	1.034
289	1.025
290	1.018
290	1.012
291	1.006
291	1.002
292	0.998
292	0.994
292	0.99
293	0.987
293	0.984
294	0.981
294	0.979
295	0.977
295	0.974
296	0.972
296	0.969
297	0.967
297	0.964
298	0.962
298	0.959
298	0.957
299	0.955
299	0.953
300	0.951
300	0.948
301	0.946
301	0.944
302	0.942
302	0.94
303	0.938
303	0.936
304	0.934
304	0.932
305	0.93
305	0.928
305	0.925
306	0.923
306	0.921
307	0.919
307	0.916
308	0.914
308	0.911
309	0.909
309	0.906
310	0.903
310	0.901
311	0.898
311	0.895
311	0.892
312	0.889
312	0.886
313	0.882
313	0.879
314	0.875
314	0.871
315	0.867
315	0.863
316	0.859
316	0.855
317	0.85
317	0.846
318	0.841
318	0.836
318	0.831
319	0.825
319	0.82
320	0.815
320	0.809
321	0.803
321	0.797
322	0.792
322	0.786
323	0.779
323	0.773
324	0.767
324	0.761
324	0.754
325	0.748
325	0.741
326	0.735
326	0.729
327	0.722
327	0.716
328	0.709
328	0.702
329	0.696
329	0.689
330	0.682
330	0.675
330	0.669
331	0.662
331	0.655
332	0.648
332	0.641
333	0.634
333	0.627
334	0.621
334	0.614
335	0.608
335	0.601
336	0.594
336	0.588
336	0.582
337	0.575
337	0.569
338	0.563
338	0.557
339	0.551
339	0.545
340	0.54
340	0.534
341	0.529
341	0.523
342	0.518
342	0.513
342	0.508
343	0.503
343	0.498
344	0.493
344	0.489
345	0.484
345	0.48
346	0.475
346	0.471
347	0.467
347	0.463
348	0.459
348	0.455
348	0.452
349	0.448
349	0.444
350	0.441
350	0.438
351	0.434
351	0.431
352	0.428
352	0.425
353	0.422
353	0.419
354	0.416
354	0.413
354	0.41
355	0.407
355	0.404
356	0.402
356	0.399
357	0.396
357	0.393
358	0.391
358	0.388
359	0.386
359	0.383
360	0.381
360	0.38
360	0.378
361	0.376
361	0.374
362	0.372
362	0.371
363	0.369
363	0.367
364	0.365
364	0.363
365	0.361
365	0.359
366	0.358
366	0.356
366	0.354
367	0.352
367	0.351
368	0.349
368	0.347
369	0.346
369	0.344
370	0.343
370	0.341
371	0.34
371	0.338
372	0.337
372	0.336
372	0.334
373	0.333
373	0.332
374	0.331
374	0.33
375	0.329
375	0.328
376	0.327
376	0.326
377	0.325
377	0.324
378	0.323
378	0.322
378	0.321
379	0.32
379	0.319
380	0.319
380	0.318
381	0.317
381	0.316
382	0.315
382	0.314
383	0.314
383	0.313
383	0.312
384	0.311
384	0.31
385	0.31
385	0.309
386	0.308
386	0.308
387	0.307
387	0.306
388	0.306
388	0.305
389	0.304
389	0.304
389	0.303
390	0.303
390	0.302
391	0.301
391	0.301
392	0.301
392	0.3
393	0.3
393	0.299
394	0.299
394	0.298
394	0.297
395	0.297
395	0.296
396	0.296
396	0.295
397	0.294
397	0.294
398	0.293
398	0.293
399	0.292
399	0.292
400	0.292
400	0.291
400	0.291
401	0.291
401	0.29
402	0.289
402	0.289
403	0.288
403	0.288
404	0.288
404	0.287
405	0.287
405	0.287
405	0.286
406	0.286
406	0.285
407	0.285
407	0.285
408	0.284
408	0.284
409	0.283
409	0.283
410	0.282
410	0.282
411	0.281
411	0.281
411	0.281
412	0.281
412	0.28
413	0.28
413	0.28
414	0.28
414	0.279
415	0.279
415	0.279
416	0.279
416	0.278
416	0.278
417	0.277
417	0.277
418	0.277
418	0.276
419	0.276
419	0.275
420	0.275
420	0.275
421	0.274
421	0.274
421	0.274
422	0.274
422	0.274
423	0.273
423	0.273
424	0.273
424	0.273
425	0.272
425	0.272
426	0.272
426	0.272
427	0.271
427	0.271
427	0.271
428	0.271
428	0.27
429	0.27
429	0.27
430	0.27
430	0.27
431	0.27
431	0.27
432	0.27
432	0.27
432	0.269
433	0.269
433	0.269
434	0.269
434	0.269
435	0.268
435	0.268
436	0.268
436	0.268
437	0.268
437	0.268
437	0.268
438	0.267
438	0.267
439	0.267
439	0.267
440	0.267
440	0.267
441	0.266
441	0.266
442	0.266
442	0.266
442	0.266
443	0.266
443	0.266
444	0.266
444	0.266
445	0.266
445	0.266
446	0.266
446	0.265
447	0.265
447	0.265
447	0.265
448	0.265
448	0.264
449	0.264
449	0.264
450	0.264
450	0.264
451	0.264
451	0.264
452	0.265
452	0.265
452	0.265
453	0.265
453	0.265
454	0.265
454	0.265
455	0.265
455	0.264
456	0.264
456	0.264
457	0.265
457	0.264
458	0.264
458	0.264
458	0.265
459	0.264
459	0.264
460	0.265
460	0.265
461	0.265
461	0.264
462	0.264
462	0.265
463	0.265
463	0.265
463	0.265
464	0.265
464	0.265
465	0.265
465	0.265
466	0.266
466	0.266
467	0.266
467	0.267
467	0.267
468	0.267
468	0.267
469	0.268
469	0.268
470	0.268
470	0.268
471	0.269
471	0.269
472	0.269
472	0.269
472	0.27
473	0.27
473	0.271
474	0.271
474	0.272
475	0.272
475	0.273
476	0.273
476	0.274
477	0.274
477	0.275
477	0.276
478	0.276
478	0.277
479	0.277
479	0.278
480	0.278
480	0.279
481	0.28
481	0.28
482	0.281
482	0.282
482	0.282
483	0.283
483	0.284
484	0.285
484	0.285
485	0.286
485	0.287
486	0.288
486	0.289
487	0.29
487	0.29
487	0.291
488	0.292
488	0.293
489	0.294
489	0.296
490	0.297
490	0.298
491	0.3
491	0.301
492	0.302
492	0.303
492	0.305
493	0.306
493	0.307
494	0.308
494	0.309
495	0.311
495	0.312
496	0.313
496	0.315
496	0.316
497	0.318
497	0.319
498	0.32
498	0.321
499	0.322
499	0.324
500	0.326
500	0.327
501	0.328
501	0.33
501	0.331
502	0.332
502	0.333
503	0.335
503	0.336
504	0.338
504	0.339
505	0.341
505	0.342
506	0.343
506	0.345
506	0.346
507	0.347
507	0.348
508	0.349
508	0.351
509	0.352
509	0.353
510	0.354
510	0.355
511	0.356
511	0.358
511	0.359
512	0.36
512	0.361
513	0.362
513	0.363
514	0.364
514	0.365
515	0.366
515	0.367
515	0.368
516	0.368
516	0.369
517	0.37
517	0.371
518	0.371
518	0.372
519	0.372
519	0.372
520	0.372
520	0.372
520	0.373
521	0.373
521	0.373
522	0.372
522	0.373
523	0.373
523	0.373
524	0.373
524	0.373
524	0.373
525	0.373
525	0.373
526	0.372
526	0.372
527	0.371
527	0.37
528	0.369
528	0.369
529	0.368
529	0.367
529	0.366
530	0.365
530	0.364
531	0.362
531	0.361
532	0.36
532	0.359
533	0.358
533	0.357
533	0.357
534	0.355
534	0.354
535	0.353
535	0.352
536	0.35
536	0.349
537	0.347
537	0.345
538	0.344
538	0.342
538	0.34
539	0.338
539	0.336
540	0.335
540	0.333
541	0.331
541	0.329
542	0.328
542	0.326
542	0.324
543	0.322
543	0.32
544	0.318
544	0.316
545	0.315
545	0.313
546	0.312
546	0.31
547	0.308
547	0.306
547	0.304
548	0.302
548	0.3
549	0.298
549	0.296
550	0.294
550	0.292
551	0.29
551	0.287
551	0.285
552	0.283
552	0.281
553	0.279
553	0.277
554	0.275
554	0.273
555	0.271
555	0.269
556	0.267
556	0.265
556	0.264
557	0.262
557	0.261
558	0.259
558	0.258
559	0.256
559	0.254
560	0.252
560	0.251
560	0.249
561	0.248
561	0.246
562	0.244
562	0.242
563	0.24
563	0.238
564	0.237
564	0.235
564	0.233
565	0.232
565	0.23
566	0.228
566	0.226
567	0.225
567	0.224
568	0.222
568	0.221
568	0.22
569	0.218
569	0.217
570	0.216
570	0.214
571	0.213
571	0.212
572	0.21
572	0.209
573	0.208
573	0.206
573	0.205
574	0.204
574	0.203
575	0.202
575	0.201
576	0.2
576	0.199
577	0.197
577	0.196
577	0.195
578	0.194
578	0.193
579	0.192
579	0.191
580	0.19
580	0.188
581	0.187
581	0.186
581	0.185
582	0.185
582	0.184
583	0.183
583	0.182
584	0.181
584	0.179
585	0.178
585	0.177
585	0.175
586	0.174
586	0.173
587	0.172
587	0.171
588	0.17
588	0.169
589	0.168
589	0.167
590	0.167
590	0.166
590	0.166
591	0.165
591	0.164
592	0.163
592	0.162
593	0.162
593	0.161
594	0.16
594	0.159
594	0.158
595	0.158
595	0.156
596	0.155
596	0.155
597	0.155
597	0.155
598	0.154
598	0.154
598	0.153
599	0.153
599	0.152
600	0.151
600	0.151
601	0.15
601	0.149
602	0.148
602	0.147
602	0.146
603	0.146
603	0.146
604	0.145
604	0.145
605	0.144
605	0.144
606	0.143
606	0.142
606	0.142
607	0.141
607	0.141
608	0.14
608	0.139
609	0.138
609	0.138
610	0.137
610	0.136
610	0.136
611	0.136
611	0.136
612	0.135
612	0.135
613	0.135
613	0.134
614	0.134
614	0.133
614	0.133
615	0.132
615	0.132
616	0.132
616	0.131
617	0.131
617	0.13
618	0.129
618	0.129
618	0.129
619	0.129
619	0.128
620	0.128
620	0.128
621	0.127
621	0.127
622	0.126
622	0.125
622	0.125
623	0.124
623	0.124
624	0.124
624	0.123
625	0.123
625	0.122
626	0.122
626	0.122
626	0.122
627	0.121
627	0.121
628	0.12
628	0.12
629	0.119
629	0.118
630	0.118
630	0.117
630	0.117
631	0.116
631	0.116
632	0.116
632	0.116
633	0.116
633	0.116
634	0.116
634	0.117
634	0.117
635	0.117
635	0.117
636	0.117
636	0.117
637	0.116
637	0.116
638	0.115
638	0.115
638	0.114
639	0.113
639	0.113
640	0.113
640	0.112
641	0.112
641	0.111
642	0.111
642	0.111
642	0.111
643	0.111
643	0.111
644	0.11
644	0.11
645	0.11
645	0.11
646	0.11
646	0.11
646	0.11
647	0.11
647	0.109
648	0.109
648	0.109
649	0.108
649	0.108
650	0.108
650	0.107
650	0.107
651	0.107
651	0.106
652	0.106
652	0.106
653	0.106
653	0.108
653	0.113
654	0.09
654	0.074
655	0.073
655	0.074
656	0.074
656	0.074
657	0.074
657	0.075
657	0.075
658	0.073
658	0.066
659	0.083
659	0.104
660	0.107
660	0.107
661	0.107
661	0.106
661	0.106
662	0.106
662	0.105
663	0.105
663	0.105
664	0.104
664	0.104
665	0.104
665	0.104
665	0.103
666	0.103
666	0.103
667	0.103
667	0.103
668	0.103
668	0.103
669	0.103
669	0.103
669	0.103
670	0.103
670	0.102
671	0.102
671	0.101
672	0.101
672	0.1
672	0.1
673	0.1
673	0.1
674	0.1
674	0.099
675	0.099
675	0.099
676	0.1
676	0.1
676	0.1
677	0.1
677	0.1
678	0.1
678	0.1
679	0.1
679	0.1
680	0.1
680	0.1
680	0.1
681	0.1
681	0.101
682	0.101
682	0.101
683	0.101
683	0.102
684	0.102
684	0.102
684	0.102
685	0.102
685	0.102
686	0.102
686	0.102
687	0.101
687	0.101
687	0.101
688	0.101
688	0.101
689	0.101
689	0.101
690	0.101
690	0.1
691	0.1
691	0.1
691	0.1
692	0.101
692	0.101
693	0.101
693	0.101
694	0.101
694	0.101
695	0.102
695	0.103
695	0.103
696	0.103
696	0.103
697	0.103
697	0.103
698	0.103
698	0.102
698	0.102
699	0.102
699	0.102
700	0.101
700	0.101
701	0.101
701	0.101
702	0.101
702	0.101
702	0.101
703	0.101
703	0.1
704	0.1
704	0.1
705	0.1
705	0.1
705	0.099
706	0.099
706	0.099
707	0.099
707	0.099
708	0.099
708	0.099
709	0.099
709	0.099
709	0.099
710	0.099
710	0.099
711	0.1
711	0.1
712	0.1
712	0.1
713	0.1
713	0.1
713	0.1
714	0.1
714	0.1
715	0.099
715	0.099
716	0.099
716	0.099
716	0.098
717	0.098
717	0.098
718	0.097
718	0.097
719	0.098
719	0.098
720	0.098
720	0.099
720	0.099
721	0.099
721	0.1
722	0.101
722	0.101
723	0.101
723	0.101
723	0.102
724	0.101
724	0.101
725	0.1
725	0.1
726	0.099
726	0.099
727	0.098
727	0.098
727	0.098
728	0.098
728	0.098
729	0.098
729	0.098
730	0.098
730	0.098
730	0.098
731	0.098
731	0.098
732	0.098
732	0.098
733	0.098
733	0.097
734	0.097
734	0.097
734	0.097
735	0.097
735	0.097
736	0.097
736	0.097
737	0.096
737	0.096
737	0.096
738	0.095
738	0.095
739	0.094
739	0.094
740	0.094
740	0.094
741	0.094
741	0.094
741	0.094
742	0.094
742	0.094
743	0.095
743	0.095
744	0.096
744	0.096
744	0.096
745	0.097
745	0.097
746	0.097
746	0.097
747	0.097
747	0.097
748	0.097
748	0.097
748	0.096
749	0.096
749	0.096
750	0.096
750	0.095
751	0.095
751	0.094
751	0.094
752	0.094
752	0.093
753	0.093
753	0.093
754	0.093
754	0.093
754	0.093
755	0.093
755	0.093
756	0.092
756	0.092
757	0.091
757	0.091
758	0.09
758	0.09
758	0.089
759	0.089
759	0.089
760	0.088
760	0.088
761	0.089
761	0.089
761	0.09
762	0.09
762	0.09
763	0.09
763	0.09
764	0.089
764	0.089
764	0.089
765	0.088
765	0.088
766	0.087
766	0.087
767	0.086
767	0.085
768	0.085
768	0.084
768	0.084
769	0.083
769	0.083
770	0.083
770	0.082
771	0.082
771	0.082
771	0.082
772	0.083
772	0.083
773	0.083
773	0.083
774	0.083
774	0.084
775	0.084
775	0.084
775	0.084
776	0.084
776	0.084
777	0.084
777	0.084
778	0.084
778	0.083
778	0.082
779	0.082
779	0.081
780	0.08
780	0.08
781	0.079
781	0.079
781	0.078
782	0.078
782	0.078
783	0.078
783	0.078
784	0.078
784	0.078
784	0.078
785	0.078
785	0.078
786	0.078
786	0.078
787	0.078
787	0.077
788	0.077
788	0.076
788	0.076
789	0.075
789	0.075
790	0.074
790	0.074
791	0.073
791	0.073
791	0.072
792	0.073
792	0.072
793	0.072
793	0.072
794	0.071
794	0.07
794	0.07
795	0.07
795	0.069
796	0.069
796	0.069
797	0.068
797	0.068
797	0.068
798	0.067
798	0.067
799	0.067
799	0.067
800	0.067
800	0.066
801	0.066
801	0.066
801	0.065
802	0.065
802	0.065
803	0.065
803	0.065
804	0.065
804	0.066
804	0.066
805	0.066
805	0.066
806	0.067
806	0.066
807	0.066
807	0.066
807	0.066
808	0.066
808	0.066
809	0.066
809	0.065
810	0.065
810	0.065
810	0.064
811	0.064
811	0.064
812	0.064
812	0.064
813	0.064
813	0.064
813	0.064
814	0.064
814	0.064
815	0.064
815	0.064
816	0.064
816	0.064
817	0.063
817	0.063
817	0.063
818	0.062
818	0.062
819	0.061
819	0.06
820	0.059
820	0.059
820	0.058
821	0.057
821	0.057
822	0.056
822	0.056
823	0.056
823	0.056
823	0.056
824	0.057
824	0.058
825	0.059
825	0.059
826	0.06
826	0.06
826	0.06
827	0.06
827	0.061
828	0.06
828	0.06
829	0.06
829	0.06
829	0.059
830	0.059
830	0.059
831	0.059
831	0.059
832	0.059
832	0.059
832	0.059
833	0.058
833	0.058
834	0.058
834	0.058
835	0.058
835	0.058
835	0.058
836	0.058
836	0.058
837	0.057
837	0.057
838	0.056
838	0.056
839	0.055
839	0.054
839	0.053
840	0.052
840	0.05
841	0.049
841	0.048
842	0.047
842	0.047
842	0.046
843	0.046
843	0.046
844	0.045
844	0.045
845	0.045
845	0.045
845	0.045
846	0.045
846	0.045
847	0.045
847	0.046
848	0.046
848	0.046
848	0.047
849	0.047
849	0.047
850	0.047
850	0.048
851	0.048
851	0.048
851	0.047
852	0.046
852	0.046
853	0.045
853	0.044
854	0.044
854	0.044
854	0.044
855	0.044
855	0.045
856	0.045
856	0.045
857	0.046
857	0.046
857	0.047
858	0.047
858	0.046
859	0.046
859	0.045
860	0.045
860	0.044
860	0.043
861	0.043
861	0.042
862	0.042
862	0.041
863	0.041
863	0.04
863	0.04
864	0.04
864	0.04
865	0.04
865	0.04
866	0.039
866	0.039
866	0.039
867	0.039
867	0.039
868	0.039
868	0.039
869	0.039
869	0.039
869	0.039
870	0.039
870	0.04
871	0.04
871	0.04
872	0.041
872	0.041
872	0.041
873	0.041
873	0.041
874	0.04
874	0.04
875	0.04
875	0.04
875	0.039
876	0.039
876	0.039
877	0.039
877	0.039
878	0.039
878	0.039
878	0.04
879	0.041
879	0.041
880	0.041
880	0.041
881	0.041
881	0.041
881	0.041
882	0.041
882	0.04
883	0.039
883	0.038
884	0.037
884	0.036
884	0.035
885	0.034
885	0.033
886	0.032
886	0.031
887	0.03
887	0.029
887	0.028
888	0.027
888	0.027
889	0.026
889	0.026
890	0.027
890	0.027
890	0.027
891	0.028
891	0.028
892	0.029
892	0.03
893	0.031
893	0.032
893	0.032
894	0.033
894	0.033
895	0.033
895	0.033
895	0.033
896	0.033
896	0.033
897	0.032
897	0.032
898	0.031
898	0.031
898	0.03
899	0.03
899	0.03
900	0.03
900	0.03
901	0.03
901	0.03
901	0.03
902	0.03
902	0.03
903	0.03
903	0.029
904	0.029
904	0.029
904	0.028
905	0.028
905	0.027
906	0.027
906	0.027
907	0.027
907	0.028
907	0.028
908	0.028
908	0.029
909	0.029
909	0.029
910	0.03
910	0.03
910	0.03
911	0.03
911	0.029
912	0.029
912	0.029
913	0.028
913	0.028
913	0.027
914	0.027
914	0.026
915	0.026
915	0.026
916	0.026
916	0.025
916	0.025
917	0.024
917	0.024
918	0.023
918	0.023
918	0.023
919	0.023
919	0.023
920	0.023
920	0.023
921	0.023
921	0.023
921	0.023
922	0.024
922	0.024
923	0.025
923	0.025
924	0.026
924	0.026
924	0.026
925	0.027
925	0.027
926	0.027
926	0.027
927	0.028
927	0.027
927	0.027
928	0.027
928	0.027
929	0.027
929	0.027
930	0.027
930	0.026
930	0.026
931	0.026
931	0.026
932	0.025
932	0.025
933	0.025
933	0.025
933	0.025
934	0.025
934	0.025
935	0.025
935	0.025
935	0.025
936	0.025
936	0.025
937	0.025
937	0.025
938	0.024
938	0.024
938	0.024
939	0.024
939	0.024
940	0.024
940	0.024
941	0.024
941	0.024
941	0.025
942	0.025
942	0.025
943	0.026
943	0.026
944	0.026
944	0.026
944	0.025
945	0.025
945	0.025
946	0.025
946	0.024
946	0.024
947	0.024
947	0.023
948	0.022
948	0.022
949	0.021
949	0.021
949	0.02
950	0.02
950	0.02
951	0.02
951	0.019
952	0.019
952	0.019
952	0.019
953	0.019
953	0.018
954	0.018
954	0.018
955	0.018
955	0.018
955	0.018
956	0.018
956	0.018
957	0.018
957	0.018
957	0.018
958	0.018
958	0.018
959	0.019
959	0.019
960	0.019
960	0.019
960	0.018
961	0.018
961	0.018
962	0.018
962	0.018
963	0.018
963	0.019
963	0.019
964	0.019
964	0.019
965	0.02
965	0.02
966	0.021
966	0.021
966	0.022
967	0.022
967	0.023
968	0.023
968	0.023
968	0.024
969	0.024
969	0.024
970	0.024
970	0.023
971	0.023
971	0.023
971	0.023
972	0.022
972	0.022
973	0.022
973	0.021
974	0.021
974	0.021
974	0.021
975	0.021
975	0.021
976	0.021
976	0.022
976	0.022
977	0.021
977	0.021
978	0.021
978	0.021
979	0.021
979	0.021
979	0.02
980	0.02
980	0.019
981	0.019
981	0.018
982	0.018
982	0.018
982	0.018
983	0.018
983	0.018
984	0.018
984	0.018
984	0.017
985	0.018
985	0.018
986	0.018
986	0.017
987	0.017
987	0.017
987	0.016
988	0.016
988	0.015
989	0.015
989	0.014
990	0.014
990	0.013
990	0.013
991	0.013
991	0.013
992	0.013
992	0.012
992	0.012
993	0.012
993	0.011
994	0.011
994	0.011
995	0.01
995	0.01
995	0.01
996	0.011
996	0.011
997	0.012
997	0.012
997	0.013
998	0.014
998	0.015
999	0.016
999	0.017
1000	0.018
1000	0.019
1000	0.019
1001	0.019
1001	0.019
1002	0.02
1002	0.02
1003	0.02
1003	0.019
1003	0.019
1004	0.019
1004	0.019
1005	0.018
1005	0.018
1005	0.018
1006	0.017
1006	0.017
1007	0.017
1007	0.017
1008	0.017
1008	0.017
1008	0.017
1009	0.017
1009	0.017
1010	0.017
1010	0.017
1010	0.017
1011	0.017
1011	0.017
1012	0.017
1012	0.016
1013	0.016
1013	0.016
1013	0.015
1014	0.015
1014	0.014
1015	0.014
1015	0.014
1016	0.013
1016	0.013
1016	0.013
1017	0.012
1017	0.012
1018	0.012
1018	0.012
1018	0.012
1019	0.012
1019	0.012
1020	0.012
1020	0.012
1021	0.012
1021	0.012
1021	0.012
1022	0.012
1022	0.012
1023	0.012
1023	0.012
1023	0.012
1024	0.011
1024	0.011
1025	0.01
1025	0.01
1026	0.01
1026	0.009
1026	0.009
1027	0.008
1027	0.008
1028	0.008
1028	0.007
1028	0.007
1029	0.007
1029	0.007
1030	0.007
1030	0.007
1031	0.007
1031	0.007
1031	0.007
1032	0.007
1032	0.007
1033	0.007
1033	0.007
1033	0.007
1034	0.007
1034	0.007
1035	0.008
1035	0.008
1036	0.008
1036	0.008
1036	0.009
1037	0.009
1037	0.009
1038	0.009
1038	0.009
1039	0.009
1039	0.009
1039	0.009
1040	0.01
1040	0.01
1041	0.01
1041	0.01
1041	0.01
1042	0.01
1042	0.01
1043	0.01
1043	0.01
1044	0.01
1044	0.011
1044	0.011
1045	0.011
1045	0.012
1046	0.012
1046	0.012
1046	0.013
1047	0.014
1047	0.014
1048	0.015
1048	0.016
1049	0.016
1049	0.016
1049	0.016
1050	0.016
1050	0.015
1051	0.015
1051	0.014
1051	0.014
1052	0.013
1052	0.012
1053	0.011
1053	0.01
1053	0.009
1054	0.009
1054	0.008
1055	0.008
1055	0.008
1056	0.007
1056	0.006
1056	0.006
1057	0.005
1057	0.005
1058	0.004
1058	0.003
1058	0.003
1059	0.002
1059	0.002
1060	0.001
1060	0.001
1061	0
1061	0
1061	0
1062	-0
1062	0
1063	0
1063	0
1063	0
1064	0
1064	0
1065	-0
1065	-0
1066	0
1066	-0
1066	-0
1067	-0.001
1067	-0.001
1068	-0.001
1068	-0.001
1068	-0.001
1069	-0.002
1069	-0.002
1070	-0.002
1070	-0.003
1071	-0.004
1071	-0.004
1071	-0.005
1072	-0.005
1072	-0.006
1073	-0.007
1073	-0.007
1073	-0.007
1074	-0.007
1074	-0.007
1075	-0.007
1075	-0.006
1076	-0.006
1076	-0.004
1076	-0.004
1077	-0.003
1077	-0.003
1078	-0.003
1078	-0.002
1078	-0.002
1079	-0.002
1079	-0.002
1080	-0.002
1080	-0.002
1080	-0.002
1081	-0.002
1081	-0.002
1082	-0.002
1082	-0.002
1083	-0.002
1083	-0.002
1083	-0.002
1084	-0.002
1084	-0.002
1085	-0.002
1085	-0.003
1085	-0.003
1086	-0.003
1086	-0.004
1087	-0.004
1087	-0.005
1088	-0.006
1088	-0.006
1088	-0.006
1089	-0.007
1089	-0.007
1090	-0.008
1090	-0.008
1090	-0.009
1091	-0.009
1091	-0.009
1092	-0.009
1092	-0.009
1092	-0.009
1093	-0.01
1093	-0.009
1094	-0.009
1094	-0.009
1095	-0.01
1095	-0.01
1095	-0.01
1096	-0.011
1096	-0.011
1097	-0.011
1097	-0.012
1097	-0.013
1098	-0.013
1098	-0.015
1099	-0.015
1099	-0.016
1100	-0.016
1100	-0.018
1100	-0.018
1101	-0.02
1101	-0.02
1102	-0.02
1102	-0.021
1102	-0.021
1103	-0.021
1103	-0.021
1104	-0.022
1104	-0.022
1104	-0.022
1105	-0.023
1105	-0.025
1106	-0.025
1106	-0.027
1107	-0.028
1107	-0.03
1107	-0.03
1108	-0.031
1108	-0.032
1109	-0.033
1109	-0.035
1109	-0.035
1110	-0.033
1110	-0.035
1111	-0.036
1111	-0.035
