Data from reversibility-20sec_Absorbance__2759__000000000002759.txt Node

Date: Wed Dec 06 03:32:46 CET 2023
User: Marek
Spectrometer: MAYP115816
Trigger mode: 0
Integration Time (sec): 2.000000E-1
Scans to average: 10
Electric dark correction enabled: true
Nonlinearity correction enabled: true
Boxcar width: 5
XAxis mode: Wavelengths
Number of Pixels in Spectrum: 2068
>>>>>Begin Spectral Data<<<<<
199	-0.152
199	-0.107
200	-0.045
200	0.009
201	0.035
201	0.056
202	0.071
202	0.078
203	0.084
203	0.087
204	0.101
204	0.115
205	0.127
205	0.134
205	0.131
206	0.131
206	0.128
207	0.129
207	0.128
208	0.127
208	0.129
209	0.13
209	0.13
210	0.131
210	0.131
211	0.132
211	0.135
212	0.131
212	0.131
213	0.136
213	0.139
213	0.139
214	0.142
214	0.141
215	0.141
215	0.14
216	0.143
216	0.14
217	0.146
217	0.148
218	0.147
218	0.146
219	0.149
219	0.147
220	0.15
220	0.151
221	0.151
221	0.155
221	0.163
222	0.169
222	0.173
223	0.179
223	0.185
224	0.19
224	0.2
225	0.211
225	0.22
226	0.229
226	0.237
227	0.247
227	0.255
228	0.271
228	0.286
229	0.304
229	0.327
229	0.351
230	0.379
230	0.409
231	0.444
231	0.486
232	0.523
232	0.569
233	0.612
233	0.663
234	0.712
234	0.767
235	0.819
235	0.87
236	0.919
236	0.971
236	1.024
237	1.077
237	1.126
238	1.175
238	1.223
239	1.276
239	1.317
240	1.362
240	1.401
241	1.445
241	1.484
242	1.52
242	1.557
243	1.591
243	1.623
243	1.649
244	1.669
244	1.696
245	1.718
245	1.741
246	1.76
246	1.781
247	1.795
247	1.812
248	1.829
248	1.844
249	1.858
249	1.868
250	1.879
250	1.888
250	1.897
251	1.903
251	1.907
252	1.914
252	1.915
253	1.917
253	1.915
254	1.915
254	1.922
255	1.919
255	1.919
256	1.921
256	1.922
257	1.922
257	1.92
258	1.92
258	1.921
258	1.922
259	1.925
259	1.924
260	1.928
260	1.931
261	1.93
261	1.934
262	1.94
262	1.943
263	1.951
263	1.954
264	1.956
264	1.96
265	1.961
265	1.963
265	1.964
266	1.966
266	1.967
267	1.965
267	1.967
268	1.967
268	1.969
269	1.972
269	1.972
270	1.975
270	1.975
271	1.975
271	1.975
272	1.974
272	1.971
272	1.968
273	1.96
273	1.952
274	1.945
274	1.935
275	1.926
275	1.918
276	1.91
276	1.902
277	1.892
277	1.882
278	1.87
278	1.858
278	1.842
279	1.822
279	1.797
280	1.766
280	1.729
281	1.686
281	1.639
282	1.59
282	1.542
283	1.494
283	1.448
284	1.405
284	1.363
285	1.324
285	1.289
285	1.258
286	1.231
286	1.208
287	1.187
287	1.169
288	1.155
288	1.142
289	1.131
289	1.122
290	1.114
290	1.108
291	1.102
291	1.097
292	1.092
292	1.088
292	1.084
293	1.08
293	1.076
294	1.073
294	1.07
295	1.067
295	1.064
296	1.06
296	1.057
297	1.055
297	1.052
298	1.049
298	1.046
298	1.043
299	1.04
299	1.038
300	1.035
300	1.032
301	1.029
301	1.027
302	1.024
302	1.022
303	1.02
303	1.017
304	1.015
304	1.013
305	1.01
305	1.008
305	1.005
306	1.003
306	1.001
307	0.999
307	0.996
308	0.993
308	0.991
309	0.988
309	0.985
310	0.982
310	0.979
311	0.976
311	0.973
311	0.969
312	0.966
312	0.962
313	0.958
313	0.954
314	0.95
314	0.946
315	0.942
315	0.937
316	0.933
316	0.928
317	0.923
317	0.918
318	0.913
318	0.908
318	0.903
319	0.897
319	0.892
320	0.886
320	0.88
321	0.874
321	0.868
322	0.862
322	0.856
323	0.849
323	0.843
324	0.836
324	0.83
324	0.823
325	0.816
325	0.809
326	0.802
326	0.795
327	0.788
327	0.781
328	0.774
328	0.767
329	0.76
329	0.752
330	0.745
330	0.738
330	0.731
331	0.724
331	0.717
332	0.71
332	0.703
333	0.696
333	0.689
334	0.681
334	0.675
335	0.667
335	0.661
336	0.654
336	0.647
336	0.64
337	0.634
337	0.627
338	0.621
338	0.614
339	0.608
339	0.602
340	0.596
340	0.591
341	0.585
341	0.58
342	0.574
342	0.569
342	0.563
343	0.558
343	0.553
344	0.548
344	0.543
345	0.538
345	0.533
346	0.529
346	0.524
347	0.519
347	0.515
348	0.511
348	0.507
348	0.503
349	0.499
349	0.495
350	0.492
350	0.488
351	0.485
351	0.481
352	0.478
352	0.475
353	0.472
353	0.469
354	0.466
354	0.463
354	0.46
355	0.457
355	0.454
356	0.452
356	0.449
357	0.445
357	0.443
358	0.44
358	0.437
359	0.435
359	0.432
360	0.43
360	0.428
360	0.426
361	0.423
361	0.421
362	0.42
362	0.418
363	0.416
363	0.414
364	0.412
364	0.41
365	0.408
365	0.406
366	0.404
366	0.403
366	0.401
367	0.399
367	0.398
368	0.396
368	0.394
369	0.393
369	0.391
370	0.39
370	0.388
371	0.387
371	0.385
372	0.384
372	0.383
372	0.382
373	0.381
373	0.38
374	0.378
374	0.377
375	0.376
375	0.375
376	0.374
376	0.373
377	0.372
377	0.371
378	0.369
378	0.368
378	0.367
379	0.367
379	0.366
380	0.365
380	0.364
381	0.363
381	0.362
382	0.361
382	0.361
383	0.36
383	0.359
383	0.358
384	0.358
384	0.357
385	0.356
385	0.356
386	0.355
386	0.355
387	0.354
387	0.353
388	0.353
388	0.352
389	0.352
389	0.351
389	0.351
390	0.35
390	0.35
391	0.349
391	0.349
392	0.348
392	0.348
393	0.347
393	0.347
394	0.346
394	0.346
394	0.345
395	0.345
395	0.345
396	0.344
396	0.344
397	0.343
397	0.343
398	0.342
398	0.342
399	0.342
399	0.341
400	0.341
400	0.34
400	0.34
401	0.339
401	0.339
402	0.338
402	0.338
403	0.338
403	0.337
404	0.337
404	0.336
405	0.336
405	0.335
405	0.335
406	0.335
406	0.334
407	0.334
407	0.333
408	0.333
408	0.332
409	0.332
409	0.332
410	0.331
410	0.331
411	0.331
411	0.33
411	0.33
412	0.33
412	0.329
413	0.329
413	0.329
414	0.328
414	0.328
415	0.328
415	0.327
416	0.327
416	0.326
416	0.326
417	0.326
417	0.325
418	0.325
418	0.325
419	0.324
419	0.324
420	0.323
420	0.323
421	0.322
421	0.322
421	0.322
422	0.321
422	0.321
423	0.32
423	0.32
424	0.319
424	0.319
425	0.319
425	0.319
426	0.318
426	0.318
427	0.318
427	0.317
427	0.317
428	0.317
428	0.316
429	0.316
429	0.316
430	0.315
430	0.315
431	0.315
431	0.315
432	0.315
432	0.315
432	0.314
433	0.314
433	0.314
434	0.314
434	0.314
435	0.313
435	0.313
436	0.313
436	0.313
437	0.313
437	0.312
437	0.312
438	0.312
438	0.312
439	0.312
439	0.311
440	0.311
440	0.311
441	0.31
441	0.31
442	0.31
442	0.309
442	0.309
443	0.309
443	0.309
444	0.308
444	0.308
445	0.308
445	0.308
446	0.308
446	0.307
447	0.307
447	0.307
447	0.307
448	0.307
448	0.307
449	0.306
449	0.306
450	0.306
450	0.306
451	0.306
451	0.306
452	0.306
452	0.306
452	0.306
453	0.306
453	0.306
454	0.305
454	0.305
455	0.305
455	0.305
456	0.305
456	0.305
457	0.304
457	0.304
458	0.304
458	0.304
458	0.303
459	0.303
459	0.303
460	0.303
460	0.303
461	0.303
461	0.303
462	0.303
462	0.303
463	0.303
463	0.303
463	0.303
464	0.302
464	0.302
465	0.302
465	0.302
466	0.302
466	0.302
467	0.302
467	0.302
467	0.302
468	0.302
468	0.302
469	0.302
469	0.303
470	0.303
470	0.303
471	0.304
471	0.304
472	0.304
472	0.304
472	0.304
473	0.304
473	0.305
474	0.305
474	0.305
475	0.305
475	0.305
476	0.305
476	0.305
477	0.306
477	0.306
477	0.306
478	0.306
478	0.306
479	0.307
479	0.307
480	0.307
480	0.308
481	0.308
481	0.308
482	0.308
482	0.309
482	0.309
483	0.31
483	0.311
484	0.311
484	0.311
485	0.312
485	0.312
486	0.312
486	0.313
487	0.313
487	0.314
487	0.314
488	0.314
488	0.315
489	0.315
489	0.317
490	0.317
490	0.318
491	0.319
491	0.32
492	0.321
492	0.322
492	0.323
493	0.324
493	0.325
494	0.326
494	0.327
495	0.327
495	0.328
496	0.329
496	0.33
496	0.331
497	0.332
497	0.332
498	0.334
498	0.334
499	0.335
499	0.336
500	0.337
500	0.339
501	0.34
501	0.341
501	0.341
502	0.342
502	0.343
503	0.344
503	0.345
504	0.346
504	0.347
505	0.348
505	0.348
506	0.349
506	0.35
506	0.35
507	0.351
507	0.352
508	0.353
508	0.354
509	0.354
509	0.355
510	0.356
510	0.357
511	0.358
511	0.359
511	0.36
512	0.361
512	0.362
513	0.363
513	0.364
514	0.364
514	0.365
515	0.366
515	0.367
515	0.367
516	0.367
516	0.368
517	0.368
517	0.369
518	0.369
518	0.369
519	0.37
519	0.37
520	0.37
520	0.37
520	0.371
521	0.371
521	0.371
522	0.371
522	0.371
523	0.372
523	0.371
524	0.371
524	0.371
524	0.371
525	0.371
525	0.371
526	0.371
526	0.371
527	0.37
527	0.37
528	0.369
528	0.369
529	0.369
529	0.368
529	0.368
530	0.367
530	0.367
531	0.366
531	0.366
532	0.365
532	0.364
533	0.364
533	0.363
533	0.362
534	0.361
534	0.36
535	0.36
535	0.359
536	0.358
536	0.357
537	0.356
537	0.355
538	0.354
538	0.353
538	0.351
539	0.35
539	0.349
540	0.349
540	0.347
541	0.346
541	0.345
542	0.344
542	0.343
542	0.342
543	0.341
543	0.34
544	0.339
544	0.338
545	0.337
545	0.336
546	0.335
546	0.333
547	0.332
547	0.33
547	0.329
548	0.328
548	0.327
549	0.325
549	0.324
550	0.323
550	0.321
551	0.32
551	0.319
551	0.317
552	0.316
552	0.315
553	0.314
553	0.313
554	0.312
554	0.31
555	0.309
555	0.307
556	0.306
556	0.304
556	0.304
557	0.303
557	0.302
558	0.301
558	0.3
559	0.299
559	0.298
560	0.297
560	0.297
560	0.296
561	0.295
561	0.294
562	0.292
562	0.291
563	0.289
563	0.288
564	0.286
564	0.285
564	0.284
565	0.283
565	0.282
566	0.28
566	0.279
567	0.278
567	0.278
568	0.277
568	0.275
568	0.275
569	0.274
569	0.273
570	0.271
570	0.27
571	0.269
571	0.268
572	0.267
572	0.266
573	0.265
573	0.264
573	0.264
574	0.263
574	0.263
575	0.262
575	0.262
576	0.262
576	0.26
577	0.259
577	0.258
577	0.258
578	0.257
578	0.256
579	0.255
579	0.254
580	0.253
580	0.252
581	0.25
581	0.25
581	0.25
582	0.249
582	0.249
583	0.249
583	0.248
584	0.247
584	0.245
585	0.245
585	0.244
585	0.243
586	0.243
586	0.242
587	0.241
587	0.24
588	0.239
588	0.238
589	0.238
589	0.237
590	0.237
590	0.236
590	0.236
591	0.236
591	0.234
592	0.233
592	0.232
593	0.232
593	0.231
594	0.23
594	0.229
594	0.228
595	0.228
595	0.227
596	0.226
596	0.227
597	0.227
597	0.227
598	0.227
598	0.227
598	0.226
599	0.226
599	0.226
600	0.225
600	0.224
601	0.224
601	0.223
602	0.222
602	0.221
602	0.22
603	0.22
603	0.22
604	0.219
604	0.219
605	0.219
605	0.219
606	0.218
606	0.217
606	0.217
607	0.216
607	0.216
608	0.215
608	0.214
609	0.213
609	0.213
610	0.213
610	0.212
610	0.212
611	0.212
611	0.211
612	0.211
612	0.212
613	0.212
613	0.211
614	0.211
614	0.21
614	0.21
615	0.21
615	0.21
616	0.209
616	0.209
617	0.209
617	0.208
618	0.208
618	0.208
618	0.208
619	0.208
619	0.208
620	0.208
620	0.208
621	0.207
621	0.207
622	0.206
622	0.205
622	0.205
623	0.204
623	0.204
624	0.203
624	0.202
625	0.202
625	0.202
626	0.201
626	0.201
626	0.201
627	0.201
627	0.201
628	0.201
628	0.2
629	0.2
629	0.2
630	0.2
630	0.199
630	0.199
631	0.199
631	0.199
632	0.198
632	0.198
633	0.197
633	0.197
634	0.197
634	0.197
634	0.197
635	0.197
635	0.197
636	0.196
636	0.196
637	0.196
637	0.196
638	0.196
638	0.195
638	0.195
639	0.194
639	0.194
640	0.194
640	0.194
641	0.194
641	0.193
642	0.193
642	0.193
642	0.194
643	0.194
643	0.194
644	0.194
644	0.194
645	0.194
645	0.194
646	0.194
646	0.194
646	0.194
647	0.193
647	0.193
648	0.193
648	0.192
649	0.191
649	0.191
650	0.191
650	0.191
650	0.191
651	0.19
651	0.19
652	0.19
652	0.19
653	0.191
653	0.192
653	0.198
654	0.156
654	0.124
655	0.125
655	0.125
656	0.126
656	0.126
657	0.126
657	0.127
657	0.127
658	0.126
658	0.115
659	0.146
659	0.187
660	0.192
660	0.192
661	0.192
661	0.191
661	0.19
662	0.19
662	0.189
663	0.188
663	0.188
664	0.188
664	0.187
665	0.187
665	0.187
665	0.187
666	0.187
666	0.187
667	0.187
667	0.188
668	0.188
668	0.188
669	0.188
669	0.188
669	0.188
670	0.188
670	0.188
671	0.188
671	0.188
672	0.188
672	0.187
672	0.187
673	0.187
673	0.187
674	0.187
674	0.186
675	0.186
675	0.186
676	0.187
676	0.187
676	0.187
677	0.187
677	0.187
678	0.186
678	0.186
679	0.186
679	0.186
680	0.186
680	0.185
680	0.185
681	0.185
681	0.185
682	0.185
682	0.185
683	0.186
683	0.186
684	0.186
684	0.186
684	0.186
685	0.186
685	0.186
686	0.186
686	0.185
687	0.186
687	0.186
687	0.186
688	0.186
688	0.186
689	0.186
689	0.187
690	0.187
690	0.187
691	0.187
691	0.187
691	0.187
692	0.187
692	0.187
693	0.187
693	0.188
694	0.187
694	0.187
695	0.188
695	0.189
695	0.188
696	0.188
696	0.188
697	0.188
697	0.187
698	0.187
698	0.187
698	0.187
699	0.187
699	0.186
700	0.186
700	0.186
701	0.186
701	0.186
702	0.186
702	0.186
702	0.186
703	0.185
703	0.185
704	0.185
704	0.185
705	0.185
705	0.184
705	0.184
706	0.183
706	0.183
707	0.183
707	0.183
708	0.183
708	0.183
709	0.183
709	0.183
709	0.183
710	0.183
710	0.183
711	0.184
711	0.184
712	0.184
712	0.185
713	0.185
713	0.185
713	0.185
714	0.185
714	0.185
715	0.185
715	0.185
716	0.184
716	0.184
716	0.183
717	0.183
717	0.182
718	0.182
718	0.181
719	0.181
719	0.181
720	0.181
720	0.181
720	0.182
721	0.182
721	0.183
722	0.183
722	0.184
723	0.184
723	0.185
723	0.185
724	0.186
724	0.186
725	0.185
725	0.184
726	0.184
726	0.183
727	0.182
727	0.182
727	0.182
728	0.181
728	0.181
729	0.181
729	0.181
730	0.182
730	0.182
730	0.183
731	0.184
731	0.184
732	0.185
732	0.186
733	0.186
733	0.186
734	0.186
734	0.186
734	0.186
735	0.186
735	0.185
736	0.185
736	0.184
737	0.184
737	0.184
737	0.183
738	0.182
738	0.182
739	0.182
739	0.182
740	0.181
740	0.182
741	0.182
741	0.182
741	0.182
742	0.182
742	0.183
743	0.184
743	0.184
744	0.185
744	0.185
744	0.185
745	0.185
745	0.185
746	0.185
746	0.185
747	0.185
747	0.185
748	0.185
748	0.186
748	0.186
749	0.187
749	0.187
750	0.188
750	0.188
751	0.188
751	0.189
751	0.189
752	0.188
752	0.188
753	0.187
753	0.187
754	0.186
754	0.185
754	0.185
755	0.185
755	0.184
756	0.184
756	0.183
757	0.182
757	0.182
758	0.182
758	0.182
758	0.182
759	0.182
759	0.182
760	0.182
760	0.183
761	0.183
761	0.184
761	0.184
762	0.184
762	0.185
763	0.185
763	0.185
764	0.185
764	0.185
764	0.185
765	0.185
765	0.185
766	0.185
766	0.185
767	0.185
767	0.184
768	0.183
768	0.183
768	0.183
769	0.183
769	0.183
770	0.183
770	0.184
771	0.184
771	0.184
771	0.184
772	0.185
772	0.185
773	0.185
773	0.186
774	0.186
774	0.186
775	0.187
775	0.187
775	0.187
776	0.187
776	0.187
777	0.187
777	0.186
778	0.186
778	0.185
778	0.185
779	0.184
779	0.184
780	0.183
780	0.183
781	0.182
781	0.182
781	0.182
782	0.181
782	0.181
783	0.181
783	0.181
784	0.181
784	0.181
784	0.182
785	0.182
785	0.182
786	0.182
786	0.182
787	0.183
787	0.182
788	0.182
788	0.182
788	0.182
789	0.181
789	0.181
790	0.181
790	0.181
791	0.18
791	0.18
791	0.18
792	0.181
792	0.181
793	0.181
793	0.181
794	0.181
794	0.181
794	0.181
795	0.181
795	0.181
796	0.181
796	0.181
797	0.181
797	0.181
797	0.181
798	0.18
798	0.18
799	0.18
799	0.179
800	0.179
800	0.178
801	0.178
801	0.177
801	0.177
802	0.177
802	0.177
803	0.177
803	0.177
804	0.177
804	0.177
804	0.177
805	0.177
805	0.177
806	0.177
806	0.178
807	0.178
807	0.178
807	0.178
808	0.178
808	0.178
809	0.178
809	0.178
810	0.179
810	0.179
810	0.179
811	0.178
811	0.179
812	0.179
812	0.179
813	0.178
813	0.178
813	0.178
814	0.178
814	0.178
815	0.178
815	0.177
816	0.177
816	0.176
817	0.175
817	0.175
817	0.174
818	0.173
818	0.173
819	0.172
819	0.172
820	0.171
820	0.17
820	0.17
821	0.17
821	0.17
822	0.17
822	0.17
823	0.171
823	0.171
823	0.172
824	0.173
824	0.174
825	0.174
825	0.175
826	0.175
826	0.175
826	0.175
827	0.175
827	0.174
828	0.174
828	0.173
829	0.173
829	0.172
829	0.172
830	0.171
830	0.171
831	0.172
831	0.172
832	0.171
832	0.172
832	0.172
833	0.172
833	0.171
834	0.171
834	0.171
835	0.17
835	0.17
835	0.17
836	0.169
836	0.169
837	0.169
837	0.168
838	0.168
838	0.167
839	0.166
839	0.165
839	0.165
840	0.164
840	0.163
841	0.161
841	0.16
842	0.16
842	0.159
842	0.158
843	0.157
843	0.157
844	0.157
844	0.156
845	0.156
845	0.156
845	0.157
846	0.157
846	0.157
847	0.157
847	0.158
848	0.158
848	0.158
848	0.159
849	0.159
849	0.159
850	0.159
850	0.158
851	0.158
851	0.158
851	0.157
852	0.156
852	0.155
853	0.154
853	0.153
854	0.153
854	0.153
854	0.153
855	0.153
855	0.154
856	0.154
856	0.155
857	0.155
857	0.156
857	0.156
858	0.156
858	0.156
859	0.155
859	0.154
860	0.153
860	0.152
860	0.151
861	0.15
861	0.149
862	0.148
862	0.147
863	0.147
863	0.147
863	0.146
864	0.146
864	0.146
865	0.146
865	0.146
866	0.146
866	0.145
866	0.145
867	0.145
867	0.145
868	0.144
868	0.144
869	0.143
869	0.143
869	0.142
870	0.141
870	0.141
871	0.14
871	0.14
872	0.14
872	0.14
872	0.14
873	0.14
873	0.14
874	0.139
874	0.139
875	0.139
875	0.139
875	0.138
876	0.138
876	0.137
877	0.137
877	0.137
878	0.137
878	0.138
878	0.139
879	0.14
879	0.14
880	0.141
880	0.142
881	0.142
881	0.142
881	0.142
882	0.142
882	0.141
883	0.14
883	0.14
884	0.139
884	0.138
884	0.137
885	0.136
885	0.135
886	0.135
886	0.134
887	0.134
887	0.133
887	0.132
888	0.131
888	0.13
889	0.129
889	0.128
890	0.128
890	0.127
890	0.126
891	0.126
891	0.125
892	0.125
892	0.125
893	0.124
893	0.124
893	0.124
894	0.124
894	0.124
895	0.123
895	0.123
895	0.123
896	0.123
896	0.122
897	0.122
897	0.122
898	0.122
898	0.122
898	0.122
899	0.121
899	0.122
900	0.121
900	0.121
901	0.122
901	0.122
901	0.122
902	0.122
902	0.122
903	0.121
903	0.121
904	0.121
904	0.121
904	0.121
905	0.12
905	0.12
906	0.121
906	0.121
907	0.122
907	0.122
907	0.123
908	0.123
908	0.124
909	0.124
909	0.124
910	0.124
910	0.124
910	0.123
911	0.122
911	0.122
912	0.121
912	0.12
913	0.119
913	0.118
913	0.117
914	0.116
914	0.116
915	0.115
915	0.114
916	0.114
916	0.113
916	0.113
917	0.112
917	0.112
918	0.111
918	0.111
918	0.11
919	0.109
919	0.109
920	0.108
920	0.107
921	0.107
921	0.106
921	0.106
922	0.105
922	0.105
923	0.105
923	0.105
924	0.105
924	0.105
924	0.105
925	0.105
925	0.105
926	0.106
926	0.106
927	0.106
927	0.107
927	0.107
928	0.107
928	0.108
929	0.108
929	0.109
930	0.109
930	0.109
930	0.11
931	0.11
931	0.11
932	0.111
932	0.111
933	0.112
933	0.112
933	0.112
934	0.112
934	0.112
935	0.112
935	0.112
935	0.112
936	0.112
936	0.111
937	0.111
937	0.11
938	0.11
938	0.109
938	0.108
939	0.107
939	0.106
940	0.106
940	0.105
941	0.105
941	0.104
941	0.104
942	0.104
942	0.104
943	0.103
943	0.103
944	0.103
944	0.103
944	0.103
945	0.102
945	0.102
946	0.102
946	0.102
946	0.101
947	0.102
947	0.102
948	0.101
948	0.101
949	0.101
949	0.1
949	0.099
950	0.099
950	0.098
951	0.097
951	0.096
952	0.095
952	0.094
952	0.093
953	0.093
953	0.092
954	0.092
954	0.091
955	0.091
955	0.091
955	0.091
956	0.091
956	0.091
957	0.092
957	0.092
957	0.093
958	0.094
958	0.094
959	0.095
959	0.095
960	0.096
960	0.096
960	0.096
961	0.096
961	0.096
962	0.097
962	0.097
963	0.097
963	0.097
963	0.097
964	0.097
964	0.097
965	0.098
965	0.098
966	0.098
966	0.099
966	0.099
967	0.099
967	0.1
968	0.1
968	0.1
968	0.1
969	0.099
969	0.099
970	0.098
970	0.098
971	0.097
971	0.097
971	0.097
972	0.096
972	0.096
973	0.095
973	0.095
974	0.095
974	0.095
974	0.096
975	0.096
975	0.096
976	0.096
976	0.096
976	0.096
977	0.096
977	0.095
978	0.095
978	0.094
979	0.094
979	0.093
979	0.092
980	0.092
980	0.091
981	0.09
981	0.089
982	0.089
982	0.088
982	0.088
983	0.087
983	0.087
984	0.086
984	0.086
984	0.085
985	0.085
985	0.084
986	0.083
986	0.083
987	0.082
987	0.082
987	0.081
988	0.081
988	0.081
989	0.081
989	0.081
990	0.081
990	0.081
990	0.081
991	0.081
991	0.081
992	0.081
992	0.081
992	0.081
993	0.08
993	0.08
994	0.08
994	0.08
995	0.079
995	0.079
995	0.079
996	0.078
996	0.078
997	0.079
997	0.079
997	0.079
998	0.079
998	0.079
999	0.079
999	0.079
1000	0.08
1000	0.08
1000	0.08
1001	0.08
1001	0.08
1002	0.079
1002	0.079
1003	0.079
1003	0.079
1003	0.079
1004	0.078
1004	0.078
1005	0.078
1005	0.077
1005	0.077
1006	0.077
1006	0.077
1007	0.077
1007	0.076
1008	0.076
1008	0.076
1008	0.076
1009	0.077
1009	0.077
1010	0.077
1010	0.077
1010	0.077
1011	0.078
1011	0.078
1012	0.078
1012	0.078
1013	0.078
1013	0.078
1013	0.078
1014	0.078
1014	0.077
1015	0.077
1015	0.077
1016	0.076
1016	0.076
1016	0.075
1017	0.075
1017	0.074
1018	0.074
1018	0.073
1018	0.073
1019	0.073
1019	0.073
1020	0.073
1020	0.073
1021	0.073
1021	0.074
1021	0.074
1022	0.074
1022	0.074
1023	0.074
1023	0.075
1023	0.075
1024	0.075
1024	0.075
1025	0.075
1025	0.075
1026	0.076
1026	0.075
1026	0.075
1027	0.075
1027	0.075
1028	0.075
1028	0.075
1028	0.075
1029	0.075
1029	0.075
1030	0.076
1030	0.076
1031	0.076
1031	0.076
1031	0.077
1032	0.077
1032	0.077
1033	0.077
1033	0.076
1033	0.076
1034	0.076
1034	0.076
1035	0.075
1035	0.075
1036	0.075
1036	0.075
1036	0.075
1037	0.074
1037	0.074
1038	0.074
1038	0.074
1039	0.074
1039	0.074
1039	0.075
1040	0.075
1040	0.075
1041	0.075
1041	0.076
1041	0.076
1042	0.076
1042	0.076
1043	0.077
1043	0.077
1044	0.077
1044	0.077
1044	0.077
1045	0.077
1045	0.077
1046	0.077
1046	0.078
1046	0.078
1047	0.078
1047	0.079
1048	0.079
1048	0.08
1049	0.08
1049	0.08
1049	0.081
1050	0.081
1050	0.081
1051	0.081
1051	0.081
1051	0.08
1052	0.08
1052	0.079
1053	0.078
1053	0.078
1053	0.077
1054	0.076
1054	0.075
1055	0.075
1055	0.074
1056	0.073
1056	0.073
1056	0.072
1057	0.072
1057	0.071
1058	0.07
1058	0.069
1058	0.069
1059	0.068
1059	0.068
1060	0.067
1060	0.067
1061	0.066
1061	0.066
1061	0.066
1062	0.066
1062	0.066
1063	0.066
1063	0.066
1063	0.066
1064	0.065
1064	0.065
1065	0.065
1065	0.065
1066	0.065
1066	0.064
1066	0.064
1067	0.063
1067	0.063
1068	0.062
1068	0.062
1068	0.061
1069	0.061
1069	0.06
1070	0.06
1070	0.059
1071	0.058
1071	0.058
1071	0.057
1072	0.056
1072	0.056
1073	0.055
1073	0.054
1073	0.054
1074	0.054
1074	0.054
1075	0.054
1075	0.054
1076	0.054
1076	0.055
1076	0.055
1077	0.055
1077	0.056
1078	0.056
1078	0.056
1078	0.056
1079	0.056
1079	0.056
1080	0.056
1080	0.056
1080	0.056
1081	0.056
1081	0.056
1082	0.056
1082	0.056
1083	0.056
1083	0.056
1083	0.056
1084	0.056
1084	0.056
1085	0.056
1085	0.056
1085	0.056
1086	0.056
1086	0.056
1087	0.056
1087	0.056
1088	0.055
1088	0.056
1088	0.056
1089	0.056
1089	0.055
1090	0.054
1090	0.054
1090	0.053
1091	0.053
1091	0.052
1092	0.053
1092	0.053
1092	0.053
1093	0.052
1093	0.053
1094	0.052
1094	0.052
1095	0.052
1095	0.052
1095	0.051
1096	0.051
1096	0.05
1097	0.05
1097	0.049
1097	0.05
1098	0.048
1098	0.047
1099	0.047
1099	0.047
1100	0.046
1100	0.045
1100	0.044
1101	0.044
1101	0.043
1102	0.042
1102	0.041
1102	0.041
1103	0.041
1103	0.041
1104	0.04
1104	0.04
1104	0.04
1105	0.04
1105	0.038
1106	0.036
1106	0.036
1107	0.035
1107	0.034
1107	0.033
1108	0.032
1108	0.031
1109	0.031
1109	0.029
1109	0.028
1110	0.03
1110	0.029
1111	0.028
1111	0.024
