Data from reversibility-20sec_Absorbance__7357__000000000007357.txt Node

Date: Thu Dec 07 05:05:27 CET 2023
User: Marek
Spectrometer: MAYP115816
Trigger mode: 0
Integration Time (sec): 2.000000E-1
Scans to average: 10
Electric dark correction enabled: true
Nonlinearity correction enabled: true
Boxcar width: 5
XAxis mode: Wavelengths
Number of Pixels in Spectrum: 2068
>>>>>Begin Spectral Data<<<<<
199	-0.144
199	-0.109
200	-0.049
200	-0.002
201	0.032
201	0.048
202	0.053
202	0.063
203	0.071
203	0.074
204	0.088
204	0.102
205	0.11
205	0.115
205	0.114
206	0.111
206	0.11
207	0.113
207	0.112
208	0.111
208	0.11
209	0.113
209	0.11
210	0.111
210	0.112
211	0.115
211	0.117
212	0.118
212	0.12
213	0.124
213	0.125
213	0.125
214	0.127
214	0.127
215	0.132
215	0.133
216	0.135
216	0.134
217	0.138
217	0.142
218	0.142
218	0.146
219	0.15
219	0.153
220	0.159
220	0.159
221	0.162
221	0.166
221	0.172
222	0.176
222	0.181
223	0.187
223	0.192
224	0.2
224	0.204
225	0.209
225	0.218
226	0.226
226	0.233
227	0.243
227	0.253
228	0.267
228	0.28
229	0.295
229	0.32
229	0.344
230	0.371
230	0.403
231	0.435
231	0.472
232	0.506
232	0.548
233	0.593
233	0.641
234	0.692
234	0.741
235	0.794
235	0.847
236	0.9
236	0.953
236	1.006
237	1.06
237	1.11
238	1.155
238	1.201
239	1.248
239	1.289
240	1.329
240	1.366
241	1.4
241	1.432
242	1.463
242	1.497
243	1.526
243	1.552
243	1.575
244	1.596
244	1.617
245	1.637
245	1.658
246	1.676
246	1.693
247	1.706
247	1.718
248	1.734
248	1.747
249	1.758
249	1.766
250	1.775
250	1.782
250	1.785
251	1.789
251	1.793
252	1.797
252	1.798
253	1.797
253	1.796
254	1.796
254	1.8
255	1.798
255	1.799
256	1.8
256	1.801
257	1.801
257	1.802
258	1.801
258	1.801
258	1.802
259	1.8
259	1.799
260	1.799
260	1.8
261	1.799
261	1.8
262	1.802
262	1.802
263	1.805
263	1.806
264	1.806
264	1.808
265	1.809
265	1.81
265	1.808
266	1.808
266	1.808
267	1.805
267	1.804
268	1.803
268	1.802
269	1.804
269	1.803
270	1.801
270	1.799
271	1.797
271	1.796
272	1.793
272	1.793
272	1.793
273	1.789
273	1.785
274	1.78
274	1.775
275	1.769
275	1.763
276	1.757
276	1.75
277	1.743
277	1.733
278	1.721
278	1.71
278	1.696
279	1.683
279	1.665
280	1.645
280	1.619
281	1.589
281	1.554
282	1.517
282	1.478
283	1.44
283	1.401
284	1.364
284	1.327
285	1.291
285	1.258
285	1.229
286	1.203
286	1.18
287	1.16
287	1.142
288	1.127
288	1.114
289	1.103
289	1.093
290	1.084
290	1.076
291	1.07
291	1.064
292	1.058
292	1.053
292	1.048
293	1.043
293	1.039
294	1.035
294	1.031
295	1.027
295	1.024
296	1.02
296	1.016
297	1.013
297	1.01
298	1.006
298	1.003
298	1
299	0.997
299	0.994
300	0.991
300	0.988
301	0.985
301	0.983
302	0.98
302	0.977
303	0.974
303	0.972
304	0.969
304	0.966
305	0.963
305	0.961
305	0.958
306	0.955
306	0.952
307	0.949
307	0.946
308	0.943
308	0.941
309	0.937
309	0.934
310	0.931
310	0.928
311	0.925
311	0.921
311	0.918
312	0.914
312	0.911
313	0.907
313	0.903
314	0.899
314	0.894
315	0.89
315	0.885
316	0.881
316	0.876
317	0.872
317	0.867
318	0.862
318	0.856
318	0.851
319	0.845
319	0.84
320	0.834
320	0.828
321	0.822
321	0.816
322	0.809
322	0.803
323	0.796
323	0.79
324	0.783
324	0.776
324	0.769
325	0.762
325	0.756
326	0.749
326	0.742
327	0.735
327	0.728
328	0.721
328	0.714
329	0.707
329	0.7
330	0.692
330	0.685
330	0.678
331	0.671
331	0.664
332	0.657
332	0.65
333	0.643
333	0.636
334	0.629
334	0.622
335	0.615
335	0.608
336	0.601
336	0.595
336	0.588
337	0.581
337	0.575
338	0.569
338	0.562
339	0.556
339	0.55
340	0.544
340	0.539
341	0.533
341	0.527
342	0.521
342	0.516
342	0.51
343	0.505
343	0.5
344	0.495
344	0.49
345	0.484
345	0.48
346	0.475
346	0.471
347	0.466
347	0.462
348	0.458
348	0.454
348	0.45
349	0.446
349	0.442
350	0.439
350	0.435
351	0.431
351	0.428
352	0.425
352	0.422
353	0.419
353	0.416
354	0.413
354	0.41
354	0.407
355	0.404
355	0.401
356	0.398
356	0.395
357	0.391
357	0.388
358	0.385
358	0.382
359	0.38
359	0.378
360	0.376
360	0.374
360	0.372
361	0.37
361	0.368
362	0.367
362	0.365
363	0.363
363	0.361
364	0.359
364	0.357
365	0.355
365	0.353
366	0.351
366	0.35
366	0.348
367	0.346
367	0.344
368	0.342
368	0.341
369	0.339
369	0.338
370	0.336
370	0.335
371	0.333
371	0.332
372	0.331
372	0.329
372	0.328
373	0.327
373	0.326
374	0.325
374	0.324
375	0.323
375	0.322
376	0.321
376	0.32
377	0.319
377	0.318
378	0.317
378	0.316
378	0.315
379	0.314
379	0.313
380	0.312
380	0.311
381	0.31
381	0.309
382	0.309
382	0.308
383	0.307
383	0.307
383	0.306
384	0.306
384	0.305
385	0.305
385	0.304
386	0.303
386	0.303
387	0.302
387	0.302
388	0.301
388	0.301
389	0.3
389	0.3
389	0.299
390	0.299
390	0.298
391	0.298
391	0.298
392	0.297
392	0.297
393	0.296
393	0.296
394	0.295
394	0.295
394	0.294
395	0.294
395	0.293
396	0.293
396	0.292
397	0.292
397	0.291
398	0.291
398	0.29
399	0.29
399	0.289
400	0.289
400	0.288
400	0.288
401	0.288
401	0.288
402	0.287
402	0.287
403	0.286
403	0.286
404	0.286
404	0.285
405	0.285
405	0.285
405	0.284
406	0.284
406	0.284
407	0.283
407	0.283
408	0.283
408	0.283
409	0.282
409	0.282
410	0.282
410	0.281
411	0.281
411	0.281
411	0.281
412	0.28
412	0.28
413	0.28
413	0.279
414	0.279
414	0.278
415	0.278
415	0.278
416	0.277
416	0.277
416	0.277
417	0.276
417	0.276
418	0.276
418	0.275
419	0.275
419	0.274
420	0.274
420	0.273
421	0.273
421	0.272
421	0.272
422	0.272
422	0.271
423	0.271
423	0.27
424	0.27
424	0.27
425	0.27
425	0.27
426	0.269
426	0.269
427	0.269
427	0.268
427	0.268
428	0.267
428	0.267
429	0.267
429	0.266
430	0.266
430	0.265
431	0.265
431	0.265
432	0.265
432	0.265
432	0.265
433	0.265
433	0.264
434	0.264
434	0.264
435	0.264
435	0.264
436	0.264
436	0.264
437	0.263
437	0.263
437	0.263
438	0.263
438	0.263
439	0.262
439	0.262
440	0.262
440	0.261
441	0.261
441	0.261
442	0.261
442	0.26
442	0.26
443	0.26
443	0.26
444	0.26
444	0.26
445	0.26
445	0.26
446	0.26
446	0.259
447	0.259
447	0.259
447	0.259
448	0.259
448	0.259
449	0.259
449	0.258
450	0.258
450	0.258
451	0.258
451	0.258
452	0.258
452	0.258
452	0.258
453	0.258
453	0.258
454	0.258
454	0.258
455	0.258
455	0.257
456	0.257
456	0.257
457	0.257
457	0.257
458	0.257
458	0.256
458	0.256
459	0.256
459	0.256
460	0.256
460	0.257
461	0.257
461	0.257
462	0.257
462	0.257
463	0.257
463	0.257
463	0.257
464	0.257
464	0.256
465	0.256
465	0.256
466	0.256
466	0.256
467	0.257
467	0.257
467	0.257
468	0.257
468	0.257
469	0.257
469	0.258
470	0.258
470	0.258
471	0.258
471	0.258
472	0.259
472	0.259
472	0.259
473	0.26
473	0.26
474	0.26
474	0.26
475	0.26
475	0.261
476	0.261
476	0.261
477	0.262
477	0.262
477	0.262
478	0.263
478	0.263
479	0.264
479	0.264
480	0.264
480	0.265
481	0.265
481	0.266
482	0.266
482	0.266
482	0.267
483	0.267
483	0.268
484	0.269
484	0.269
485	0.269
485	0.269
486	0.27
486	0.27
487	0.271
487	0.271
487	0.272
488	0.273
488	0.273
489	0.274
489	0.275
490	0.277
490	0.278
491	0.279
491	0.28
492	0.281
492	0.282
492	0.283
493	0.284
493	0.285
494	0.286
494	0.286
495	0.287
495	0.288
496	0.289
496	0.29
496	0.291
497	0.292
497	0.293
498	0.294
498	0.295
499	0.296
499	0.297
500	0.298
500	0.299
501	0.3
501	0.301
501	0.301
502	0.302
502	0.303
503	0.304
503	0.305
504	0.306
504	0.307
505	0.308
505	0.309
506	0.31
506	0.311
506	0.312
507	0.313
507	0.314
508	0.315
508	0.316
509	0.317
509	0.318
510	0.319
510	0.32
511	0.32
511	0.321
511	0.322
512	0.323
512	0.324
513	0.324
513	0.325
514	0.326
514	0.326
515	0.327
515	0.327
515	0.328
516	0.328
516	0.329
517	0.33
517	0.33
518	0.331
518	0.331
519	0.331
519	0.332
520	0.332
520	0.332
520	0.332
521	0.332
521	0.332
522	0.332
522	0.332
523	0.332
523	0.332
524	0.332
524	0.332
524	0.332
525	0.331
525	0.331
526	0.331
526	0.33
527	0.33
527	0.329
528	0.329
528	0.328
529	0.328
529	0.327
529	0.326
530	0.325
530	0.325
531	0.324
531	0.323
532	0.322
532	0.321
533	0.32
533	0.319
533	0.317
534	0.317
534	0.316
535	0.315
535	0.314
536	0.312
536	0.311
537	0.31
537	0.309
538	0.308
538	0.306
538	0.305
539	0.304
539	0.303
540	0.302
540	0.3
541	0.299
541	0.298
542	0.296
542	0.295
542	0.293
543	0.292
543	0.29
544	0.289
544	0.288
545	0.286
545	0.285
546	0.283
546	0.281
547	0.279
547	0.277
547	0.275
548	0.274
548	0.272
549	0.271
549	0.269
550	0.267
550	0.266
551	0.264
551	0.263
551	0.262
552	0.26
552	0.259
553	0.257
553	0.256
554	0.254
554	0.252
555	0.25
555	0.249
556	0.247
556	0.245
556	0.244
557	0.243
557	0.242
558	0.241
558	0.239
559	0.238
559	0.237
560	0.236
560	0.234
560	0.233
561	0.232
561	0.231
562	0.229
562	0.227
563	0.226
563	0.224
564	0.222
564	0.221
564	0.219
565	0.218
565	0.217
566	0.215
566	0.214
567	0.213
567	0.212
568	0.211
568	0.209
568	0.208
569	0.207
569	0.205
570	0.204
570	0.202
571	0.201
571	0.2
572	0.199
572	0.197
573	0.196
573	0.195
573	0.194
574	0.193
574	0.192
575	0.191
575	0.19
576	0.189
576	0.188
577	0.187
577	0.186
577	0.185
578	0.184
578	0.183
579	0.182
579	0.182
580	0.181
580	0.18
581	0.179
581	0.178
581	0.177
582	0.177
582	0.176
583	0.176
583	0.175
584	0.173
584	0.172
585	0.171
585	0.17
585	0.169
586	0.169
586	0.168
587	0.167
587	0.166
588	0.165
588	0.165
589	0.164
589	0.164
590	0.163
590	0.163
590	0.163
591	0.162
591	0.161
592	0.16
592	0.159
593	0.158
593	0.158
594	0.157
594	0.156
594	0.155
595	0.154
595	0.153
596	0.152
596	0.152
597	0.153
597	0.152
598	0.152
598	0.152
598	0.151
599	0.151
599	0.151
600	0.15
600	0.149
601	0.149
601	0.148
602	0.147
602	0.146
602	0.146
603	0.145
603	0.145
604	0.145
604	0.144
605	0.144
605	0.143
606	0.143
606	0.142
606	0.141
607	0.141
607	0.14
608	0.14
608	0.139
609	0.138
609	0.138
610	0.137
610	0.137
610	0.136
611	0.136
611	0.136
612	0.136
612	0.136
613	0.136
613	0.136
614	0.135
614	0.135
614	0.135
615	0.135
615	0.134
616	0.134
616	0.134
617	0.134
617	0.133
618	0.133
618	0.133
618	0.132
619	0.132
619	0.132
620	0.132
620	0.131
621	0.131
621	0.13
622	0.13
622	0.129
622	0.128
623	0.128
623	0.128
624	0.127
624	0.127
625	0.126
625	0.126
626	0.126
626	0.126
626	0.126
627	0.126
627	0.126
628	0.126
628	0.126
629	0.126
629	0.125
630	0.125
630	0.124
630	0.124
631	0.124
631	0.123
632	0.123
632	0.122
633	0.122
633	0.122
634	0.122
634	0.122
634	0.122
635	0.121
635	0.121
636	0.12
636	0.12
637	0.119
637	0.119
638	0.118
638	0.118
638	0.117
639	0.117
639	0.117
640	0.117
640	0.116
641	0.116
641	0.116
642	0.116
642	0.116
642	0.116
643	0.116
643	0.116
644	0.116
644	0.117
645	0.116
645	0.117
646	0.117
646	0.117
646	0.117
647	0.117
647	0.117
648	0.116
648	0.115
649	0.115
649	0.115
650	0.114
650	0.114
650	0.114
651	0.114
651	0.114
652	0.114
652	0.114
653	0.114
653	0.116
653	0.12
654	0.096
654	0.078
655	0.077
655	0.077
656	0.077
656	0.077
657	0.077
657	0.078
657	0.077
658	0.076
658	0.069
659	0.086
659	0.109
660	0.114
660	0.114
661	0.113
661	0.113
661	0.112
662	0.112
662	0.111
663	0.111
663	0.111
664	0.111
664	0.111
665	0.11
665	0.11
665	0.11
666	0.111
666	0.111
667	0.111
667	0.111
668	0.111
668	0.111
669	0.111
669	0.111
669	0.111
670	0.111
670	0.111
671	0.111
671	0.11
672	0.11
672	0.109
672	0.109
673	0.108
673	0.108
674	0.108
674	0.107
675	0.106
675	0.107
676	0.107
676	0.107
676	0.107
677	0.107
677	0.107
678	0.107
678	0.107
679	0.107
679	0.107
680	0.107
680	0.107
680	0.106
681	0.106
681	0.106
682	0.106
682	0.106
683	0.107
683	0.107
684	0.107
684	0.107
684	0.107
685	0.107
685	0.107
686	0.108
686	0.108
687	0.108
687	0.108
687	0.108
688	0.108
688	0.109
689	0.109
689	0.11
690	0.11
690	0.109
691	0.109
691	0.109
691	0.109
692	0.109
692	0.109
693	0.109
693	0.109
694	0.109
694	0.109
695	0.109
695	0.11
695	0.11
696	0.11
696	0.11
697	0.11
697	0.11
698	0.109
698	0.109
698	0.109
699	0.108
699	0.108
700	0.107
700	0.107
701	0.106
701	0.106
702	0.105
702	0.105
702	0.104
703	0.104
703	0.103
704	0.102
704	0.102
705	0.102
705	0.102
705	0.101
706	0.101
706	0.101
707	0.101
707	0.101
708	0.101
708	0.101
709	0.101
709	0.101
709	0.101
710	0.101
710	0.102
711	0.102
711	0.103
712	0.103
712	0.103
713	0.104
713	0.104
713	0.104
714	0.104
714	0.104
715	0.104
715	0.103
716	0.103
716	0.102
716	0.102
717	0.101
717	0.101
718	0.1
718	0.1
719	0.101
719	0.101
720	0.102
720	0.102
720	0.103
721	0.103
721	0.104
722	0.105
722	0.105
723	0.105
723	0.105
723	0.105
724	0.105
724	0.104
725	0.103
725	0.102
726	0.102
726	0.101
727	0.1
727	0.099
727	0.099
728	0.099
728	0.098
729	0.098
729	0.098
730	0.098
730	0.099
730	0.099
731	0.099
731	0.099
732	0.1
732	0.1
733	0.1
733	0.101
734	0.101
734	0.101
734	0.102
735	0.102
735	0.102
736	0.102
736	0.102
737	0.102
737	0.103
737	0.102
738	0.102
738	0.101
739	0.1
739	0.1
740	0.1
740	0.1
741	0.1
741	0.1
741	0.1
742	0.1
742	0.101
743	0.102
743	0.102
744	0.103
744	0.103
744	0.103
745	0.103
745	0.103
746	0.103
746	0.103
747	0.102
747	0.102
748	0.102
748	0.102
748	0.101
749	0.101
749	0.102
750	0.102
750	0.102
751	0.102
751	0.103
751	0.103
752	0.103
752	0.102
753	0.102
753	0.101
754	0.101
754	0.1
754	0.1
755	0.099
755	0.099
756	0.098
756	0.097
757	0.096
757	0.096
758	0.096
758	0.096
758	0.096
759	0.096
759	0.095
760	0.095
760	0.095
761	0.095
761	0.096
761	0.096
762	0.096
762	0.097
763	0.097
763	0.096
764	0.096
764	0.096
764	0.096
765	0.095
765	0.095
766	0.094
766	0.094
767	0.093
767	0.092
768	0.092
768	0.091
768	0.091
769	0.091
769	0.091
770	0.091
770	0.092
771	0.092
771	0.092
771	0.093
772	0.094
772	0.094
773	0.095
773	0.095
774	0.095
774	0.095
775	0.095
775	0.095
775	0.095
776	0.095
776	0.095
777	0.095
777	0.095
778	0.095
778	0.094
778	0.094
779	0.094
779	0.093
780	0.092
780	0.091
781	0.09
781	0.089
781	0.089
782	0.088
782	0.088
783	0.088
783	0.088
784	0.088
784	0.088
784	0.089
785	0.089
785	0.09
786	0.09
786	0.09
787	0.091
787	0.09
788	0.09
788	0.09
788	0.089
789	0.089
789	0.089
790	0.089
790	0.088
791	0.088
791	0.088
791	0.087
792	0.088
792	0.088
793	0.087
793	0.087
794	0.087
794	0.087
794	0.087
795	0.087
795	0.087
796	0.087
796	0.086
797	0.086
797	0.086
797	0.086
798	0.086
798	0.086
799	0.086
799	0.085
800	0.085
800	0.084
801	0.084
801	0.085
801	0.085
802	0.085
802	0.085
803	0.085
803	0.085
804	0.085
804	0.086
804	0.085
805	0.085
805	0.085
806	0.084
806	0.084
807	0.084
807	0.083
807	0.084
808	0.084
808	0.084
809	0.083
809	0.084
810	0.084
810	0.084
810	0.084
811	0.084
811	0.084
812	0.085
812	0.085
813	0.085
813	0.085
813	0.086
814	0.087
814	0.087
815	0.088
815	0.088
816	0.088
816	0.088
817	0.087
817	0.087
817	0.086
818	0.086
818	0.085
819	0.084
819	0.083
820	0.082
820	0.081
820	0.081
821	0.081
821	0.08
822	0.08
822	0.08
823	0.08
823	0.08
823	0.08
824	0.081
824	0.082
825	0.084
825	0.085
826	0.086
826	0.086
826	0.087
827	0.087
827	0.088
828	0.088
828	0.088
829	0.088
829	0.088
829	0.088
830	0.088
830	0.088
831	0.089
831	0.089
832	0.088
832	0.088
832	0.088
833	0.088
833	0.087
834	0.087
834	0.086
835	0.086
835	0.085
835	0.084
836	0.084
836	0.084
837	0.084
837	0.083
838	0.083
838	0.082
839	0.082
839	0.081
839	0.08
840	0.079
840	0.078
841	0.077
841	0.077
842	0.076
842	0.075
842	0.074
843	0.074
843	0.073
844	0.073
844	0.072
845	0.072
845	0.072
845	0.072
846	0.072
846	0.072
847	0.072
847	0.072
848	0.072
848	0.072
848	0.072
849	0.072
849	0.072
850	0.071
850	0.071
851	0.071
851	0.07
851	0.07
852	0.069
852	0.069
853	0.069
853	0.069
854	0.069
854	0.07
854	0.071
855	0.072
855	0.073
856	0.074
856	0.075
857	0.076
857	0.077
857	0.078
858	0.079
858	0.079
859	0.079
859	0.079
860	0.079
860	0.078
860	0.078
861	0.077
861	0.076
862	0.075
862	0.074
863	0.074
863	0.073
863	0.073
864	0.073
864	0.072
865	0.073
865	0.073
866	0.073
866	0.073
866	0.073
867	0.073
867	0.074
868	0.074
868	0.074
869	0.074
869	0.074
869	0.073
870	0.073
870	0.073
871	0.073
871	0.072
872	0.072
872	0.072
872	0.072
873	0.072
873	0.071
874	0.071
874	0.071
875	0.07
875	0.07
875	0.07
876	0.07
876	0.069
877	0.069
877	0.069
878	0.069
878	0.07
878	0.07
879	0.07
879	0.071
880	0.071
880	0.071
881	0.071
881	0.071
881	0.071
882	0.071
882	0.071
883	0.07
883	0.07
884	0.07
884	0.07
884	0.07
885	0.07
885	0.07
886	0.07
886	0.07
887	0.069
887	0.069
887	0.069
888	0.069
888	0.069
889	0.069
889	0.069
890	0.069
890	0.069
890	0.07
891	0.07
891	0.07
892	0.07
892	0.07
893	0.069
893	0.069
893	0.069
894	0.068
894	0.067
895	0.066
895	0.066
895	0.065
896	0.065
896	0.065
897	0.064
897	0.064
898	0.064
898	0.064
898	0.064
899	0.064
899	0.064
900	0.064
900	0.064
901	0.064
901	0.064
901	0.064
902	0.064
902	0.064
903	0.064
903	0.064
904	0.064
904	0.064
904	0.064
905	0.063
905	0.063
906	0.063
906	0.063
907	0.063
907	0.063
907	0.063
908	0.063
908	0.063
909	0.062
909	0.062
910	0.062
910	0.062
910	0.062
911	0.061
911	0.061
912	0.06
912	0.06
913	0.059
913	0.059
913	0.058
914	0.058
914	0.058
915	0.058
915	0.058
916	0.058
916	0.058
916	0.058
917	0.058
917	0.058
918	0.058
918	0.058
918	0.058
919	0.058
919	0.058
920	0.058
920	0.058
921	0.058
921	0.058
921	0.058
922	0.058
922	0.058
923	0.058
923	0.058
924	0.058
924	0.058
924	0.058
925	0.058
925	0.058
926	0.058
926	0.059
927	0.059
927	0.059
927	0.059
928	0.06
928	0.06
929	0.061
929	0.061
930	0.061
930	0.062
930	0.062
931	0.062
931	0.062
932	0.062
932	0.062
933	0.062
933	0.062
933	0.062
934	0.061
934	0.061
935	0.06
935	0.059
935	0.059
936	0.058
936	0.057
937	0.056
937	0.056
938	0.055
938	0.054
938	0.054
939	0.053
939	0.053
940	0.052
940	0.052
941	0.053
941	0.053
941	0.054
942	0.054
942	0.055
943	0.055
943	0.056
944	0.056
944	0.057
944	0.058
945	0.058
945	0.058
946	0.058
946	0.058
946	0.058
947	0.058
947	0.058
948	0.057
948	0.057
949	0.057
949	0.056
949	0.055
950	0.055
950	0.054
951	0.054
951	0.053
952	0.053
952	0.052
952	0.052
953	0.052
953	0.051
954	0.051
954	0.051
955	0.052
955	0.052
955	0.052
956	0.053
956	0.054
957	0.054
957	0.055
957	0.056
958	0.057
958	0.058
959	0.058
959	0.059
960	0.06
960	0.06
960	0.06
961	0.06
961	0.06
962	0.06
962	0.06
963	0.06
963	0.06
963	0.059
964	0.059
964	0.059
965	0.059
965	0.059
966	0.058
966	0.058
966	0.058
967	0.058
967	0.058
968	0.058
968	0.058
968	0.057
969	0.057
969	0.056
970	0.055
970	0.054
971	0.054
971	0.053
971	0.052
972	0.051
972	0.051
973	0.051
973	0.051
974	0.051
974	0.051
974	0.052
975	0.052
975	0.053
976	0.053
976	0.054
976	0.054
977	0.054
977	0.054
978	0.054
978	0.054
979	0.053
979	0.053
979	0.053
980	0.053
980	0.053
981	0.053
981	0.053
982	0.054
982	0.054
982	0.054
983	0.055
983	0.055
984	0.055
984	0.055
984	0.055
985	0.055
985	0.055
986	0.055
986	0.054
987	0.054
987	0.054
987	0.053
988	0.053
988	0.053
989	0.052
989	0.052
990	0.052
990	0.052
990	0.052
991	0.052
991	0.052
992	0.052
992	0.051
992	0.051
993	0.05
993	0.05
994	0.049
994	0.048
995	0.048
995	0.047
995	0.047
996	0.047
996	0.047
997	0.047
997	0.047
997	0.047
998	0.048
998	0.048
999	0.049
999	0.05
1000	0.051
1000	0.051
1000	0.051
1001	0.052
1001	0.052
1002	0.052
1002	0.052
1003	0.052
1003	0.052
1003	0.052
1004	0.051
1004	0.05
1005	0.05
1005	0.049
1005	0.049
1006	0.048
1006	0.048
1007	0.047
1007	0.047
1008	0.047
1008	0.046
1008	0.046
1009	0.046
1009	0.046
1010	0.046
1010	0.046
1010	0.046
1011	0.045
1011	0.045
1012	0.045
1012	0.044
1013	0.044
1013	0.043
1013	0.043
1014	0.042
1014	0.042
1015	0.042
1015	0.042
1016	0.042
1016	0.042
1016	0.042
1017	0.041
1017	0.041
1018	0.042
1018	0.042
1018	0.042
1019	0.042
1019	0.042
1020	0.042
1020	0.042
1021	0.042
1021	0.043
1021	0.043
1022	0.044
1022	0.044
1023	0.044
1023	0.045
1023	0.045
1024	0.045
1024	0.045
1025	0.046
1025	0.046
1026	0.046
1026	0.045
1026	0.045
1027	0.046
1027	0.045
1028	0.045
1028	0.045
1028	0.045
1029	0.045
1029	0.045
1030	0.045
1030	0.045
1031	0.046
1031	0.046
1031	0.046
1032	0.046
1032	0.046
1033	0.046
1033	0.046
1033	0.046
1034	0.047
1034	0.047
1035	0.047
1035	0.047
1036	0.047
1036	0.047
1036	0.047
1037	0.047
1037	0.046
1038	0.046
1038	0.046
1039	0.046
1039	0.046
1039	0.045
1040	0.045
1040	0.045
1041	0.044
1041	0.044
1041	0.043
1042	0.043
1042	0.043
1043	0.043
1043	0.042
1044	0.042
1044	0.041
1044	0.041
1045	0.041
1045	0.041
1046	0.041
1046	0.041
1046	0.041
1047	0.041
1047	0.04
1048	0.041
1048	0.041
1049	0.041
1049	0.041
1049	0.041
1050	0.041
1050	0.041
1051	0.04
1051	0.04
1051	0.04
1052	0.04
1052	0.04
1053	0.039
1053	0.039
1053	0.038
1054	0.038
1054	0.038
1055	0.037
1055	0.037
1056	0.037
1056	0.036
1056	0.036
1057	0.035
1057	0.035
1058	0.035
1058	0.035
1058	0.034
1059	0.034
1059	0.034
1060	0.034
1060	0.034
1061	0.034
1061	0.034
1061	0.034
1062	0.034
1062	0.035
1063	0.035
1063	0.035
1063	0.034
1064	0.034
1064	0.034
1065	0.034
1065	0.034
1066	0.034
1066	0.034
1066	0.034
1067	0.034
1067	0.034
1068	0.034
1068	0.035
1068	0.034
1069	0.035
1069	0.034
1070	0.034
1070	0.034
1071	0.034
1071	0.034
1071	0.034
1072	0.034
1072	0.033
1073	0.033
1073	0.032
1073	0.032
1074	0.032
1074	0.033
1075	0.033
1075	0.033
1076	0.033
1076	0.034
1076	0.034
1077	0.034
1077	0.034
1078	0.034
1078	0.034
1078	0.034
1079	0.033
1079	0.033
1080	0.032
1080	0.032
1080	0.032
1081	0.031
1081	0.031
1082	0.032
1082	0.032
1083	0.032
1083	0.031
1083	0.031
1084	0.032
1084	0.032
1085	0.032
1085	0.032
1085	0.033
1086	0.033
1086	0.032
1087	0.032
1087	0.032
1088	0.032
1088	0.032
1088	0.032
1089	0.032
1089	0.031
1090	0.03
1090	0.029
1090	0.029
1091	0.029
1091	0.029
1092	0.029
1092	0.029
1092	0.029
1093	0.029
1093	0.03
1094	0.03
1094	0.03
1095	0.03
1095	0.03
1095	0.029
1096	0.029
1096	0.028
1097	0.027
1097	0.026
1097	0.025
1098	0.024
1098	0.023
1099	0.022
1099	0.022
1100	0.021
1100	0.02
1100	0.02
1101	0.019
1101	0.019
1102	0.019
1102	0.019
1102	0.018
1103	0.017
1103	0.018
1104	0.017
1104	0.017
1104	0.017
1105	0.016
1105	0.015
1106	0.014
1106	0.013
1107	0.013
1107	0.013
1107	0.012
1108	0.011
1108	0.011
1109	0.009
1109	0.009
1109	0.01
1110	0.012
1110	0.012
1111	0.01
1111	0.006
