Data from reversibility-20sec_Absorbance__6316__000000000006316.txt Node

Date: Wed Dec 06 23:18:26 CET 2023
User: Marek
Spectrometer: MAYP115816
Trigger mode: 0
Integration Time (sec): 2.000000E-1
Scans to average: 10
Electric dark correction enabled: true
Nonlinearity correction enabled: true
Boxcar width: 5
XAxis mode: Wavelengths
Number of Pixels in Spectrum: 2068
>>>>>Begin Spectral Data<<<<<
199	-0.147
199	-0.122
200	-0.062
200	-0.001
201	0.025
201	0.04
202	0.055
202	0.066
203	0.075
203	0.081
204	0.096
204	0.109
205	0.121
205	0.13
205	0.128
206	0.129
206	0.13
207	0.133
207	0.131
208	0.13
208	0.128
209	0.131
209	0.128
210	0.129
210	0.129
211	0.13
211	0.135
212	0.133
212	0.134
213	0.138
213	0.143
213	0.143
214	0.145
214	0.147
215	0.153
215	0.152
216	0.15
216	0.147
217	0.154
217	0.155
218	0.153
218	0.154
219	0.157
219	0.16
220	0.164
220	0.159
221	0.159
221	0.163
221	0.167
222	0.168
222	0.171
223	0.177
223	0.18
224	0.187
224	0.193
225	0.2
225	0.211
226	0.221
226	0.232
227	0.242
227	0.253
228	0.269
228	0.283
229	0.298
229	0.319
229	0.34
230	0.363
230	0.391
231	0.425
231	0.461
232	0.499
232	0.542
233	0.582
233	0.631
234	0.682
234	0.733
235	0.787
235	0.84
236	0.891
236	0.94
236	0.995
237	1.047
237	1.098
238	1.144
238	1.193
239	1.242
239	1.285
240	1.322
240	1.36
241	1.395
241	1.431
242	1.46
242	1.491
243	1.518
243	1.544
243	1.567
244	1.587
244	1.605
245	1.626
245	1.648
246	1.667
246	1.685
247	1.701
247	1.715
248	1.73
248	1.744
249	1.754
249	1.762
250	1.771
250	1.775
250	1.776
251	1.779
251	1.78
252	1.783
252	1.783
253	1.78
253	1.777
254	1.773
254	1.774
255	1.772
255	1.772
256	1.771
256	1.771
257	1.771
257	1.768
258	1.769
258	1.77
258	1.771
259	1.771
259	1.77
260	1.77
260	1.772
261	1.773
261	1.776
262	1.779
262	1.782
263	1.783
263	1.785
264	1.787
264	1.789
265	1.791
265	1.792
265	1.791
266	1.791
266	1.791
267	1.788
267	1.788
268	1.789
268	1.788
269	1.789
269	1.788
270	1.787
270	1.787
271	1.786
271	1.785
272	1.782
272	1.78
272	1.775
273	1.768
273	1.762
274	1.755
274	1.748
275	1.741
275	1.734
276	1.726
276	1.719
277	1.711
277	1.701
278	1.69
278	1.678
278	1.663
279	1.646
279	1.625
280	1.597
280	1.565
281	1.527
281	1.484
282	1.44
282	1.395
283	1.351
283	1.308
284	1.267
284	1.228
285	1.191
285	1.157
285	1.127
286	1.102
286	1.079
287	1.059
287	1.043
288	1.029
288	1.017
289	1.007
289	0.998
290	0.99
290	0.984
291	0.978
291	0.973
292	0.968
292	0.964
292	0.96
293	0.956
293	0.953
294	0.949
294	0.946
295	0.943
295	0.94
296	0.938
296	0.935
297	0.932
297	0.929
298	0.927
298	0.924
298	0.921
299	0.918
299	0.915
300	0.913
300	0.91
301	0.907
301	0.905
302	0.902
302	0.9
303	0.897
303	0.895
304	0.893
304	0.891
305	0.889
305	0.887
305	0.884
306	0.882
306	0.88
307	0.878
307	0.875
308	0.873
308	0.87
309	0.868
309	0.865
310	0.862
310	0.859
311	0.857
311	0.854
311	0.851
312	0.847
312	0.844
313	0.84
313	0.837
314	0.833
314	0.829
315	0.825
315	0.821
316	0.816
316	0.812
317	0.807
317	0.802
318	0.798
318	0.793
318	0.788
319	0.782
319	0.777
320	0.772
320	0.766
321	0.76
321	0.754
322	0.748
322	0.741
323	0.735
323	0.728
324	0.722
324	0.716
324	0.709
325	0.702
325	0.696
326	0.689
326	0.682
327	0.675
327	0.668
328	0.661
328	0.654
329	0.647
329	0.64
330	0.633
330	0.626
330	0.619
331	0.612
331	0.605
332	0.598
332	0.591
333	0.584
333	0.577
334	0.571
334	0.564
335	0.557
335	0.55
336	0.544
336	0.537
336	0.531
337	0.524
337	0.518
338	0.512
338	0.506
339	0.5
339	0.494
340	0.488
340	0.482
341	0.477
341	0.471
342	0.466
342	0.46
342	0.455
343	0.45
343	0.445
344	0.44
344	0.435
345	0.43
345	0.425
346	0.421
346	0.417
347	0.412
347	0.408
348	0.404
348	0.4
348	0.396
349	0.392
349	0.388
350	0.385
350	0.381
351	0.378
351	0.375
352	0.372
352	0.369
353	0.366
353	0.363
354	0.36
354	0.357
354	0.355
355	0.352
355	0.349
356	0.346
356	0.343
357	0.34
357	0.338
358	0.335
358	0.332
359	0.33
359	0.328
360	0.326
360	0.324
360	0.322
361	0.32
361	0.319
362	0.317
362	0.316
363	0.314
363	0.312
364	0.31
364	0.309
365	0.307
365	0.305
366	0.303
366	0.302
366	0.3
367	0.298
367	0.297
368	0.295
368	0.294
369	0.292
369	0.291
370	0.289
370	0.288
371	0.287
371	0.286
372	0.285
372	0.284
372	0.283
373	0.282
373	0.281
374	0.28
374	0.279
375	0.278
375	0.277
376	0.276
376	0.275
377	0.275
377	0.274
378	0.273
378	0.272
378	0.271
379	0.271
379	0.27
380	0.269
380	0.269
381	0.268
381	0.267
382	0.267
382	0.266
383	0.266
383	0.265
383	0.265
384	0.264
384	0.264
385	0.263
385	0.263
386	0.263
386	0.262
387	0.262
387	0.261
388	0.261
388	0.261
389	0.26
389	0.26
389	0.26
390	0.259
390	0.259
391	0.258
391	0.258
392	0.258
392	0.258
393	0.257
393	0.257
394	0.257
394	0.256
394	0.256
395	0.256
395	0.255
396	0.255
396	0.255
397	0.255
397	0.254
398	0.254
398	0.254
399	0.253
399	0.253
400	0.253
400	0.253
400	0.252
401	0.252
401	0.252
402	0.252
402	0.251
403	0.251
403	0.251
404	0.251
404	0.25
405	0.25
405	0.25
405	0.25
406	0.249
406	0.249
407	0.249
407	0.249
408	0.248
408	0.248
409	0.247
409	0.247
410	0.247
410	0.247
411	0.247
411	0.246
411	0.246
412	0.246
412	0.245
413	0.245
413	0.245
414	0.245
414	0.245
415	0.244
415	0.244
416	0.243
416	0.243
416	0.243
417	0.242
417	0.242
418	0.242
418	0.242
419	0.241
419	0.241
420	0.241
420	0.24
421	0.24
421	0.24
421	0.239
422	0.239
422	0.239
423	0.238
423	0.238
424	0.238
424	0.237
425	0.237
425	0.237
426	0.236
426	0.236
427	0.236
427	0.236
427	0.235
428	0.235
428	0.234
429	0.234
429	0.234
430	0.234
430	0.233
431	0.233
431	0.233
432	0.233
432	0.233
432	0.232
433	0.232
433	0.232
434	0.232
434	0.232
435	0.232
435	0.231
436	0.231
436	0.231
437	0.231
437	0.231
437	0.23
438	0.23
438	0.23
439	0.23
439	0.229
440	0.229
440	0.229
441	0.229
441	0.228
442	0.228
442	0.228
442	0.228
443	0.227
443	0.227
444	0.227
444	0.227
445	0.227
445	0.226
446	0.226
446	0.226
447	0.225
447	0.225
447	0.225
448	0.225
448	0.225
449	0.224
449	0.224
450	0.224
450	0.224
451	0.224
451	0.223
452	0.223
452	0.223
452	0.223
453	0.223
453	0.223
454	0.222
454	0.222
455	0.222
455	0.222
456	0.221
456	0.221
457	0.221
457	0.221
458	0.221
458	0.221
458	0.22
459	0.22
459	0.22
460	0.22
460	0.22
461	0.22
461	0.219
462	0.219
462	0.219
463	0.218
463	0.218
463	0.218
464	0.217
464	0.217
465	0.216
465	0.216
466	0.216
466	0.216
467	0.216
467	0.216
467	0.216
468	0.216
468	0.216
469	0.216
469	0.216
470	0.216
470	0.216
471	0.216
471	0.216
472	0.216
472	0.216
472	0.216
473	0.216
473	0.216
474	0.216
474	0.216
475	0.215
475	0.215
476	0.215
476	0.215
477	0.215
477	0.215
477	0.215
478	0.215
478	0.215
479	0.215
479	0.215
480	0.215
480	0.215
481	0.215
481	0.215
482	0.215
482	0.215
482	0.214
483	0.215
483	0.215
484	0.215
484	0.215
485	0.215
485	0.215
486	0.215
486	0.215
487	0.215
487	0.215
487	0.215
488	0.215
488	0.216
489	0.216
489	0.216
490	0.217
490	0.217
491	0.218
491	0.218
492	0.218
492	0.218
492	0.219
493	0.219
493	0.219
494	0.22
494	0.22
495	0.22
495	0.22
496	0.22
496	0.221
496	0.221
497	0.221
497	0.222
498	0.222
498	0.223
499	0.223
499	0.223
500	0.224
500	0.224
501	0.225
501	0.225
501	0.225
502	0.225
502	0.226
503	0.226
503	0.227
504	0.227
504	0.227
505	0.228
505	0.228
506	0.229
506	0.229
506	0.229
507	0.229
507	0.23
508	0.23
508	0.23
509	0.23
509	0.231
510	0.231
510	0.232
511	0.232
511	0.233
511	0.233
512	0.234
512	0.235
513	0.235
513	0.235
514	0.236
514	0.236
515	0.236
515	0.237
515	0.237
516	0.237
516	0.237
517	0.238
517	0.238
518	0.239
518	0.239
519	0.239
519	0.239
520	0.24
520	0.24
520	0.24
521	0.24
521	0.241
522	0.241
522	0.241
523	0.241
523	0.241
524	0.241
524	0.242
524	0.242
525	0.242
525	0.242
526	0.242
526	0.242
527	0.242
527	0.243
528	0.243
528	0.243
529	0.243
529	0.243
529	0.243
530	0.243
530	0.243
531	0.243
531	0.243
532	0.242
532	0.242
533	0.242
533	0.242
533	0.242
534	0.242
534	0.242
535	0.242
535	0.242
536	0.241
536	0.241
537	0.241
537	0.241
538	0.241
538	0.241
538	0.241
539	0.241
539	0.241
540	0.24
540	0.24
541	0.24
541	0.24
542	0.24
542	0.24
542	0.24
543	0.239
543	0.239
544	0.239
544	0.239
545	0.239
545	0.239
546	0.239
546	0.238
547	0.238
547	0.237
547	0.237
548	0.237
548	0.237
549	0.236
549	0.236
550	0.236
550	0.235
551	0.235
551	0.235
551	0.234
552	0.234
552	0.234
553	0.233
553	0.233
554	0.232
554	0.231
555	0.231
555	0.23
556	0.23
556	0.229
556	0.229
557	0.229
557	0.229
558	0.229
558	0.229
559	0.229
559	0.23
560	0.23
560	0.23
560	0.23
561	0.23
561	0.229
562	0.228
562	0.227
563	0.226
563	0.226
564	0.225
564	0.225
564	0.224
565	0.224
565	0.224
566	0.223
566	0.223
567	0.223
567	0.223
568	0.223
568	0.223
568	0.223
569	0.222
569	0.222
570	0.221
570	0.22
571	0.22
571	0.219
572	0.219
572	0.218
573	0.218
573	0.217
573	0.217
574	0.216
574	0.216
575	0.216
575	0.216
576	0.216
576	0.216
577	0.215
577	0.215
577	0.214
578	0.214
578	0.214
579	0.214
579	0.214
580	0.213
580	0.212
581	0.212
581	0.211
581	0.212
582	0.212
582	0.212
583	0.212
583	0.212
584	0.211
584	0.21
585	0.21
585	0.21
585	0.21
586	0.209
586	0.209
587	0.208
587	0.207
588	0.206
588	0.206
589	0.206
589	0.206
590	0.206
590	0.205
590	0.206
591	0.206
591	0.206
592	0.205
592	0.205
593	0.205
593	0.204
594	0.204
594	0.203
594	0.203
595	0.203
595	0.202
596	0.202
596	0.202
597	0.203
597	0.203
598	0.202
598	0.202
598	0.202
599	0.202
599	0.202
600	0.201
600	0.201
601	0.201
601	0.2
602	0.2
602	0.199
602	0.199
603	0.198
603	0.199
604	0.199
604	0.199
605	0.199
605	0.199
606	0.199
606	0.198
606	0.198
607	0.198
607	0.198
608	0.198
608	0.197
609	0.197
609	0.197
610	0.196
610	0.196
610	0.196
611	0.196
611	0.195
612	0.195
612	0.195
613	0.195
613	0.195
614	0.195
614	0.194
614	0.194
615	0.194
615	0.194
616	0.194
616	0.194
617	0.194
617	0.194
618	0.194
618	0.194
618	0.194
619	0.195
619	0.195
620	0.196
620	0.195
621	0.195
621	0.195
622	0.194
622	0.193
622	0.193
623	0.192
623	0.192
624	0.191
624	0.191
625	0.19
625	0.19
626	0.189
626	0.189
626	0.189
627	0.189
627	0.189
628	0.189
628	0.189
629	0.188
629	0.188
630	0.188
630	0.188
630	0.188
631	0.188
631	0.187
632	0.187
632	0.187
633	0.187
633	0.187
634	0.187
634	0.188
634	0.188
635	0.187
635	0.187
636	0.187
636	0.187
637	0.187
637	0.187
638	0.187
638	0.186
638	0.186
639	0.185
639	0.185
640	0.186
640	0.186
641	0.186
641	0.185
642	0.185
642	0.185
642	0.186
643	0.186
643	0.186
644	0.186
644	0.186
645	0.186
645	0.186
646	0.186
646	0.186
646	0.186
647	0.185
647	0.185
648	0.184
648	0.183
649	0.183
649	0.183
650	0.182
650	0.182
650	0.182
651	0.182
651	0.183
652	0.183
652	0.183
653	0.184
653	0.185
653	0.191
654	0.15
654	0.12
655	0.121
655	0.121
656	0.122
656	0.122
657	0.122
657	0.123
657	0.123
658	0.122
658	0.112
659	0.141
659	0.181
660	0.186
660	0.186
661	0.186
661	0.185
661	0.185
662	0.184
662	0.184
663	0.184
663	0.183
664	0.183
664	0.183
665	0.183
665	0.183
665	0.183
666	0.183
666	0.183
667	0.183
667	0.184
668	0.184
668	0.184
669	0.185
669	0.185
669	0.186
670	0.186
670	0.186
671	0.186
671	0.186
672	0.186
672	0.185
672	0.185
673	0.184
673	0.184
674	0.183
674	0.183
675	0.182
675	0.182
676	0.182
676	0.182
676	0.182
677	0.182
677	0.182
678	0.182
678	0.182
679	0.182
679	0.183
680	0.183
680	0.183
680	0.182
681	0.183
681	0.183
682	0.183
682	0.183
683	0.183
683	0.184
684	0.184
684	0.183
684	0.183
685	0.183
685	0.183
686	0.183
686	0.183
687	0.183
687	0.183
687	0.183
688	0.183
688	0.183
689	0.184
689	0.184
690	0.184
690	0.184
691	0.184
691	0.184
691	0.184
692	0.184
692	0.184
693	0.185
693	0.185
694	0.184
694	0.184
695	0.185
695	0.186
695	0.186
696	0.186
696	0.186
697	0.186
697	0.186
698	0.185
698	0.185
698	0.185
699	0.185
699	0.185
700	0.185
700	0.185
701	0.185
701	0.185
702	0.185
702	0.185
702	0.186
703	0.186
703	0.186
704	0.186
704	0.186
705	0.186
705	0.186
705	0.186
706	0.186
706	0.186
707	0.186
707	0.186
708	0.186
708	0.186
709	0.186
709	0.186
709	0.186
710	0.186
710	0.186
711	0.187
711	0.187
712	0.187
712	0.187
713	0.187
713	0.187
713	0.187
714	0.187
714	0.187
715	0.187
715	0.186
716	0.186
716	0.186
716	0.185
717	0.184
717	0.184
718	0.183
718	0.183
719	0.184
719	0.184
720	0.184
720	0.185
720	0.185
721	0.185
721	0.186
722	0.187
722	0.188
723	0.188
723	0.189
723	0.189
724	0.189
724	0.189
725	0.188
725	0.188
726	0.187
726	0.187
727	0.186
727	0.186
727	0.185
728	0.185
728	0.185
729	0.185
729	0.185
730	0.185
730	0.186
730	0.187
731	0.187
731	0.188
732	0.189
732	0.19
733	0.19
733	0.191
734	0.191
734	0.191
734	0.192
735	0.192
735	0.192
736	0.191
736	0.191
737	0.191
737	0.191
737	0.191
738	0.19
738	0.19
739	0.189
739	0.189
740	0.189
740	0.189
741	0.189
741	0.189
741	0.189
742	0.189
742	0.189
743	0.19
743	0.191
744	0.192
744	0.193
744	0.193
745	0.194
745	0.194
746	0.194
746	0.194
747	0.194
747	0.194
748	0.193
748	0.193
748	0.193
749	0.192
749	0.192
750	0.192
750	0.192
751	0.192
751	0.192
751	0.192
752	0.192
752	0.191
753	0.191
753	0.191
754	0.19
754	0.19
754	0.19
755	0.19
755	0.19
756	0.19
756	0.189
757	0.189
757	0.189
758	0.189
758	0.189
758	0.19
759	0.19
759	0.19
760	0.19
760	0.19
761	0.19
761	0.191
761	0.191
762	0.191
762	0.192
763	0.192
763	0.192
764	0.191
764	0.192
764	0.192
765	0.192
765	0.192
766	0.192
766	0.192
767	0.192
767	0.191
768	0.191
768	0.191
768	0.191
769	0.191
769	0.192
770	0.192
770	0.192
771	0.193
771	0.193
771	0.194
772	0.195
772	0.196
773	0.196
773	0.196
774	0.197
774	0.197
775	0.198
775	0.198
775	0.198
776	0.199
776	0.199
777	0.2
777	0.2
778	0.2
778	0.2
778	0.2
779	0.201
779	0.2
780	0.2
780	0.199
781	0.199
781	0.198
781	0.198
782	0.197
782	0.197
783	0.198
783	0.198
784	0.198
784	0.199
784	0.199
785	0.2
785	0.2
786	0.201
786	0.201
787	0.201
787	0.2
788	0.2
788	0.199
788	0.198
789	0.197
789	0.197
790	0.197
790	0.197
791	0.196
791	0.196
791	0.196
792	0.197
792	0.198
793	0.198
793	0.198
794	0.199
794	0.199
794	0.199
795	0.199
795	0.2
796	0.2
796	0.201
797	0.2
797	0.201
797	0.201
798	0.201
798	0.201
799	0.201
799	0.201
800	0.201
800	0.2
801	0.2
801	0.2
801	0.2
802	0.2
802	0.2
803	0.201
803	0.201
804	0.201
804	0.202
804	0.202
805	0.202
805	0.202
806	0.202
806	0.202
807	0.201
807	0.201
807	0.201
808	0.2
808	0.2
809	0.2
809	0.2
810	0.2
810	0.201
810	0.201
811	0.201
811	0.202
812	0.203
812	0.203
813	0.204
813	0.205
813	0.205
814	0.206
814	0.207
815	0.207
815	0.208
816	0.207
816	0.207
817	0.206
817	0.206
817	0.206
818	0.206
818	0.205
819	0.205
819	0.204
820	0.203
820	0.203
820	0.203
821	0.203
821	0.204
822	0.204
822	0.204
823	0.205
823	0.205
823	0.206
824	0.206
824	0.207
825	0.208
825	0.209
826	0.209
826	0.209
826	0.209
827	0.21
827	0.21
828	0.21
828	0.21
829	0.21
829	0.211
829	0.211
830	0.211
830	0.212
831	0.213
831	0.213
832	0.213
832	0.213
832	0.213
833	0.213
833	0.213
834	0.212
834	0.212
835	0.211
835	0.21
835	0.21
836	0.21
836	0.209
837	0.209
837	0.209
838	0.209
838	0.208
839	0.208
839	0.207
839	0.207
840	0.206
840	0.205
841	0.204
841	0.203
842	0.202
842	0.201
842	0.201
843	0.2
843	0.199
844	0.199
844	0.198
845	0.198
845	0.197
845	0.198
846	0.197
846	0.197
847	0.197
847	0.198
848	0.198
848	0.199
848	0.2
849	0.2
849	0.201
850	0.202
850	0.202
851	0.203
851	0.203
851	0.203
852	0.203
852	0.202
853	0.202
853	0.202
854	0.202
854	0.202
854	0.203
855	0.203
855	0.204
856	0.204
856	0.205
857	0.206
857	0.206
857	0.207
858	0.207
858	0.207
859	0.206
859	0.206
860	0.205
860	0.205
860	0.204
861	0.203
861	0.202
862	0.201
862	0.2
863	0.199
863	0.199
863	0.199
864	0.199
864	0.199
865	0.199
865	0.199
866	0.199
866	0.2
866	0.2
867	0.201
867	0.202
868	0.202
868	0.202
869	0.203
869	0.203
869	0.202
870	0.202
870	0.202
871	0.202
871	0.202
872	0.202
872	0.202
872	0.202
873	0.202
873	0.202
874	0.201
874	0.201
875	0.201
875	0.2
875	0.2
876	0.199
876	0.199
877	0.198
877	0.198
878	0.198
878	0.198
878	0.199
879	0.199
879	0.199
880	0.2
880	0.2
881	0.2
881	0.201
881	0.201
882	0.201
882	0.201
883	0.201
883	0.201
884	0.201
884	0.201
884	0.201
885	0.201
885	0.2
886	0.2
886	0.2
887	0.199
887	0.198
887	0.197
888	0.196
888	0.195
889	0.194
889	0.194
890	0.193
890	0.193
890	0.193
891	0.192
891	0.192
892	0.192
892	0.192
893	0.192
893	0.192
893	0.192
894	0.192
894	0.192
895	0.192
895	0.192
895	0.192
896	0.192
896	0.193
897	0.193
897	0.193
898	0.193
898	0.192
898	0.192
899	0.191
899	0.191
900	0.19
900	0.189
901	0.189
901	0.188
901	0.188
902	0.187
902	0.187
903	0.186
903	0.186
904	0.186
904	0.185
904	0.185
905	0.185
905	0.185
906	0.185
906	0.185
907	0.185
907	0.185
907	0.185
908	0.185
908	0.185
909	0.185
909	0.185
910	0.185
910	0.185
910	0.185
911	0.184
911	0.184
912	0.184
912	0.183
913	0.183
913	0.183
913	0.183
914	0.183
914	0.183
915	0.183
915	0.183
916	0.183
916	0.182
916	0.182
917	0.182
917	0.181
918	0.181
918	0.18
918	0.179
919	0.179
919	0.178
920	0.178
920	0.177
921	0.177
921	0.176
921	0.176
922	0.176
922	0.176
923	0.176
923	0.176
924	0.177
924	0.177
924	0.177
925	0.178
925	0.178
926	0.179
926	0.179
927	0.179
927	0.18
927	0.18
928	0.18
928	0.18
929	0.18
929	0.18
930	0.179
930	0.179
930	0.179
931	0.178
931	0.177
932	0.177
932	0.176
933	0.175
933	0.175
933	0.174
934	0.174
934	0.173
935	0.173
935	0.173
935	0.173
936	0.172
936	0.172
937	0.171
937	0.171
938	0.171
938	0.17
938	0.17
939	0.17
939	0.169
940	0.169
940	0.169
941	0.169
941	0.169
941	0.169
942	0.169
942	0.169
943	0.169
943	0.169
944	0.169
944	0.169
944	0.169
945	0.169
945	0.169
946	0.169
946	0.168
946	0.168
947	0.168
947	0.168
948	0.167
948	0.167
949	0.166
949	0.166
949	0.165
950	0.165
950	0.164
951	0.164
951	0.163
952	0.162
952	0.162
952	0.161
953	0.161
953	0.161
954	0.16
954	0.16
955	0.16
955	0.16
955	0.159
956	0.16
956	0.16
957	0.16
957	0.16
957	0.16
958	0.16
958	0.16
959	0.16
959	0.16
960	0.159
960	0.159
960	0.159
961	0.159
961	0.158
962	0.158
962	0.158
963	0.158
963	0.158
963	0.158
964	0.159
964	0.159
965	0.159
965	0.159
966	0.159
966	0.159
966	0.159
967	0.158
967	0.158
968	0.157
968	0.157
968	0.156
969	0.155
969	0.154
970	0.153
970	0.152
971	0.152
971	0.151
971	0.151
972	0.15
972	0.15
973	0.149
973	0.149
974	0.149
974	0.149
974	0.149
975	0.15
975	0.15
976	0.151
976	0.151
976	0.151
977	0.152
977	0.151
978	0.151
978	0.151
979	0.151
979	0.151
979	0.151
980	0.15
980	0.15
981	0.149
981	0.149
982	0.149
982	0.149
982	0.149
983	0.149
983	0.149
984	0.149
984	0.149
984	0.149
985	0.149
985	0.149
986	0.149
986	0.149
987	0.149
987	0.148
987	0.148
988	0.148
988	0.147
989	0.147
989	0.147
990	0.146
990	0.146
990	0.145
991	0.145
991	0.144
992	0.144
992	0.143
992	0.142
993	0.141
993	0.139
994	0.138
994	0.137
995	0.136
995	0.136
995	0.135
996	0.135
996	0.134
997	0.135
997	0.135
997	0.135
998	0.136
998	0.137
999	0.137
999	0.138
1000	0.139
1000	0.139
1000	0.14
1001	0.14
1001	0.14
1002	0.14
1002	0.14
1003	0.14
1003	0.139
1003	0.138
1004	0.138
1004	0.137
1005	0.136
1005	0.135
1005	0.134
1006	0.133
1006	0.133
1007	0.132
1007	0.131
1008	0.131
1008	0.13
1008	0.13
1009	0.13
1009	0.13
1010	0.13
1010	0.13
1010	0.131
1011	0.131
1011	0.131
1012	0.13
1012	0.13
1013	0.13
1013	0.13
1013	0.129
1014	0.129
1014	0.128
1015	0.128
1015	0.127
1016	0.127
1016	0.127
1016	0.126
1017	0.126
1017	0.125
1018	0.125
1018	0.125
1018	0.125
1019	0.124
1019	0.124
1020	0.124
1020	0.124
1021	0.124
1021	0.124
1021	0.124
1022	0.125
1022	0.125
1023	0.125
1023	0.125
1023	0.126
1024	0.126
1024	0.126
1025	0.126
1025	0.126
1026	0.127
1026	0.127
1026	0.127
1027	0.127
1027	0.127
1028	0.126
1028	0.126
1028	0.127
1029	0.127
1029	0.126
1030	0.127
1030	0.127
1031	0.127
1031	0.127
1031	0.127
1032	0.127
1032	0.127
1033	0.128
1033	0.128
1033	0.128
1034	0.128
1034	0.127
1035	0.127
1035	0.127
1036	0.127
1036	0.127
1036	0.127
1037	0.127
1037	0.126
1038	0.126
1038	0.125
1039	0.125
1039	0.125
1039	0.124
1040	0.124
1040	0.124
1041	0.124
1041	0.123
1041	0.123
1042	0.123
1042	0.122
1043	0.122
1043	0.122
1044	0.122
1044	0.121
1044	0.121
1045	0.121
1045	0.12
1046	0.12
1046	0.12
1046	0.12
1047	0.12
1047	0.12
1048	0.12
1048	0.12
1049	0.12
1049	0.12
1049	0.12
1050	0.12
1050	0.119
1051	0.119
1051	0.118
1051	0.118
1052	0.117
1052	0.117
1053	0.116
1053	0.115
1053	0.114
1054	0.114
1054	0.113
1055	0.113
1055	0.112
1056	0.111
1056	0.111
1056	0.11
1057	0.109
1057	0.109
1058	0.108
1058	0.107
1058	0.107
1059	0.106
1059	0.105
1060	0.105
1060	0.104
1061	0.104
1061	0.103
1061	0.103
1062	0.102
1062	0.102
1063	0.102
1063	0.102
1063	0.101
1064	0.101
1064	0.101
1065	0.101
1065	0.101
1066	0.1
1066	0.1
1066	0.1
1067	0.099
1067	0.099
1068	0.099
1068	0.099
1068	0.098
1069	0.098
1069	0.097
1070	0.097
1070	0.097
1071	0.097
1071	0.096
1071	0.096
1072	0.096
1072	0.095
1073	0.094
1073	0.094
1073	0.094
1074	0.094
1074	0.094
1075	0.094
1075	0.094
1076	0.094
1076	0.095
1076	0.095
1077	0.095
1077	0.095
1078	0.095
1078	0.095
1078	0.095
1079	0.094
1079	0.094
1080	0.094
1080	0.093
1080	0.092
1081	0.092
1081	0.092
1082	0.092
1082	0.092
1083	0.092
1083	0.091
1083	0.091
1084	0.091
1084	0.092
1085	0.092
1085	0.092
1085	0.092
1086	0.092
1086	0.091
1087	0.091
1087	0.091
1088	0.091
1088	0.091
1088	0.091
1089	0.09
1089	0.09
1090	0.089
1090	0.089
1090	0.088
1091	0.087
1091	0.087
1092	0.087
1092	0.087
1092	0.086
1093	0.086
1093	0.086
1094	0.086
1094	0.086
1095	0.085
1095	0.085
1095	0.085
1096	0.084
1096	0.084
1097	0.083
1097	0.081
1097	0.081
1098	0.08
1098	0.079
1099	0.078
1099	0.077
1100	0.075
1100	0.074
1100	0.072
1101	0.071
1101	0.069
1102	0.069
1102	0.067
1102	0.065
1103	0.065
1103	0.065
1104	0.065
1104	0.065
1104	0.064
1105	0.062
1105	0.06
1106	0.059
1106	0.057
1107	0.057
1107	0.057
1107	0.054
1108	0.053
1108	0.052
1109	0.05
1109	0.049
1109	0.05
1110	0.053
1110	0.054
1111	0.054
1111	0.051
