Data from reversibility-20sec_Absorbance__2261__000000000002261.txt Node

Date: Wed Dec 06 00:46:46 CET 2023
User: Marek
Spectrometer: MAYP115816
Trigger mode: 0
Integration Time (sec): 2.000000E-1
Scans to average: 10
Electric dark correction enabled: true
Nonlinearity correction enabled: true
Boxcar width: 5
XAxis mode: Wavelengths
Number of Pixels in Spectrum: 2068
>>>>>Begin Spectral Data<<<<<
199	-0.214
199	-0.171
200	-0.099
200	-0.041
201	-0.01
201	0.008
202	0.022
202	0.031
203	0.038
203	0.042
204	0.053
204	0.071
205	0.084
205	0.091
205	0.087
206	0.086
206	0.084
207	0.083
207	0.083
208	0.083
208	0.085
209	0.093
209	0.088
210	0.089
210	0.089
211	0.091
211	0.093
212	0.094
212	0.098
213	0.101
213	0.102
213	0.102
214	0.102
214	0.103
215	0.106
215	0.105
216	0.106
216	0.104
217	0.109
217	0.109
218	0.11
218	0.113
219	0.116
219	0.116
220	0.122
220	0.118
221	0.116
221	0.119
221	0.124
222	0.128
222	0.133
223	0.138
223	0.143
224	0.148
224	0.156
225	0.165
225	0.177
226	0.188
226	0.199
227	0.212
227	0.222
228	0.237
228	0.251
229	0.265
229	0.287
229	0.31
230	0.334
230	0.363
231	0.398
231	0.438
232	0.474
232	0.521
233	0.564
233	0.612
234	0.668
234	0.722
235	0.776
235	0.83
236	0.884
236	0.935
236	0.986
237	1.04
237	1.088
238	1.138
238	1.188
239	1.235
239	1.279
240	1.325
240	1.363
241	1.4
241	1.437
242	1.47
242	1.509
243	1.542
243	1.572
243	1.602
244	1.629
244	1.655
245	1.673
245	1.701
246	1.724
246	1.748
247	1.765
247	1.78
248	1.801
248	1.816
249	1.829
249	1.837
250	1.847
250	1.859
250	1.865
251	1.872
251	1.875
252	1.882
252	1.886
253	1.887
253	1.887
254	1.886
254	1.892
255	1.893
255	1.897
256	1.898
256	1.898
257	1.901
257	1.902
258	1.902
258	1.905
258	1.908
259	1.91
259	1.91
260	1.911
260	1.913
261	1.915
261	1.921
262	1.925
262	1.928
263	1.934
263	1.935
264	1.936
264	1.94
265	1.944
265	1.946
265	1.947
266	1.95
266	1.949
267	1.948
267	1.951
268	1.951
268	1.953
269	1.957
269	1.958
270	1.957
270	1.958
271	1.956
271	1.957
272	1.956
272	1.955
272	1.952
273	1.946
273	1.94
274	1.933
274	1.927
275	1.92
275	1.914
276	1.907
276	1.898
277	1.889
277	1.879
278	1.868
278	1.857
278	1.843
279	1.825
279	1.804
280	1.778
280	1.746
281	1.708
281	1.667
282	1.623
282	1.58
283	1.537
283	1.495
284	1.453
284	1.415
285	1.377
285	1.343
285	1.313
286	1.286
286	1.263
287	1.242
287	1.224
288	1.208
288	1.195
289	1.184
289	1.174
290	1.166
290	1.159
291	1.152
291	1.147
292	1.142
292	1.137
292	1.133
293	1.129
293	1.125
294	1.122
294	1.118
295	1.115
295	1.112
296	1.108
296	1.105
297	1.102
297	1.099
298	1.096
298	1.093
298	1.09
299	1.087
299	1.084
300	1.081
300	1.078
301	1.075
301	1.072
302	1.07
302	1.067
303	1.064
303	1.062
304	1.059
304	1.056
305	1.054
305	1.051
305	1.049
306	1.046
306	1.043
307	1.041
307	1.038
308	1.035
308	1.032
309	1.029
309	1.026
310	1.023
310	1.02
311	1.017
311	1.013
311	1.01
312	1.006
312	1.003
313	0.998
313	0.994
314	0.99
314	0.986
315	0.981
315	0.977
316	0.972
316	0.968
317	0.963
317	0.958
318	0.952
318	0.947
318	0.942
319	0.936
319	0.93
320	0.925
320	0.919
321	0.913
321	0.906
322	0.9
322	0.894
323	0.887
323	0.881
324	0.874
324	0.867
324	0.861
325	0.854
325	0.847
326	0.84
326	0.833
327	0.826
327	0.819
328	0.812
328	0.805
329	0.797
329	0.79
330	0.783
330	0.776
330	0.769
331	0.762
331	0.755
332	0.747
332	0.74
333	0.733
333	0.726
334	0.719
334	0.712
335	0.705
335	0.698
336	0.691
336	0.684
336	0.678
337	0.671
337	0.665
338	0.658
338	0.652
339	0.646
339	0.64
340	0.634
340	0.628
341	0.623
341	0.617
342	0.611
342	0.606
342	0.6
343	0.595
343	0.59
344	0.585
344	0.58
345	0.575
345	0.57
346	0.566
346	0.561
347	0.556
347	0.552
348	0.548
348	0.544
348	0.54
349	0.536
349	0.532
350	0.528
350	0.524
351	0.521
351	0.517
352	0.514
352	0.511
353	0.508
353	0.505
354	0.502
354	0.499
354	0.496
355	0.492
355	0.489
356	0.487
356	0.484
357	0.48
357	0.478
358	0.475
358	0.472
359	0.47
359	0.467
360	0.465
360	0.463
360	0.46
361	0.458
361	0.456
362	0.455
362	0.453
363	0.451
363	0.449
364	0.447
364	0.445
365	0.443
365	0.441
366	0.439
366	0.437
366	0.435
367	0.434
367	0.432
368	0.43
368	0.429
369	0.427
369	0.425
370	0.424
370	0.422
371	0.421
371	0.419
372	0.418
372	0.416
372	0.415
373	0.413
373	0.412
374	0.411
374	0.41
375	0.409
375	0.407
376	0.406
376	0.405
377	0.404
377	0.403
378	0.402
378	0.4
378	0.399
379	0.398
379	0.397
380	0.396
380	0.395
381	0.394
381	0.393
382	0.393
382	0.392
383	0.391
383	0.39
383	0.389
384	0.388
384	0.388
385	0.387
385	0.386
386	0.385
386	0.385
387	0.384
387	0.383
388	0.382
388	0.382
389	0.381
389	0.381
389	0.38
390	0.38
390	0.379
391	0.378
391	0.378
392	0.377
392	0.377
393	0.377
393	0.376
394	0.375
394	0.375
394	0.374
395	0.374
395	0.373
396	0.372
396	0.372
397	0.371
397	0.371
398	0.37
398	0.369
399	0.369
399	0.368
400	0.368
400	0.367
400	0.367
401	0.366
401	0.366
402	0.365
402	0.365
403	0.364
403	0.364
404	0.363
404	0.363
405	0.362
405	0.362
405	0.361
406	0.361
406	0.36
407	0.36
407	0.359
408	0.359
408	0.359
409	0.358
409	0.358
410	0.358
410	0.357
411	0.357
411	0.356
411	0.356
412	0.356
412	0.356
413	0.355
413	0.355
414	0.354
414	0.354
415	0.354
415	0.353
416	0.353
416	0.352
416	0.352
417	0.351
417	0.351
418	0.351
418	0.35
419	0.35
419	0.349
420	0.349
420	0.348
421	0.348
421	0.347
421	0.347
422	0.347
422	0.346
423	0.346
423	0.345
424	0.345
424	0.345
425	0.344
425	0.344
426	0.344
426	0.343
427	0.343
427	0.343
427	0.342
428	0.342
428	0.342
429	0.341
429	0.341
430	0.341
430	0.341
431	0.34
431	0.34
432	0.34
432	0.34
432	0.34
433	0.339
433	0.339
434	0.339
434	0.339
435	0.339
435	0.339
436	0.338
436	0.338
437	0.338
437	0.338
437	0.338
438	0.337
438	0.337
439	0.337
439	0.337
440	0.336
440	0.336
441	0.336
441	0.335
442	0.335
442	0.335
442	0.335
443	0.335
443	0.335
444	0.334
444	0.334
445	0.334
445	0.334
446	0.334
446	0.334
447	0.333
447	0.333
447	0.333
448	0.333
448	0.333
449	0.333
449	0.333
450	0.333
450	0.333
451	0.333
451	0.333
452	0.332
452	0.332
452	0.332
453	0.332
453	0.332
454	0.332
454	0.332
455	0.331
455	0.331
456	0.331
456	0.331
457	0.331
457	0.331
458	0.331
458	0.331
458	0.331
459	0.331
459	0.331
460	0.331
460	0.332
461	0.331
461	0.331
462	0.331
462	0.331
463	0.331
463	0.331
463	0.331
464	0.331
464	0.331
465	0.33
465	0.331
466	0.331
466	0.331
467	0.331
467	0.331
467	0.331
468	0.331
468	0.332
469	0.332
469	0.333
470	0.333
470	0.334
471	0.334
471	0.335
472	0.335
472	0.336
472	0.336
473	0.337
473	0.337
474	0.337
474	0.337
475	0.338
475	0.338
476	0.338
476	0.339
477	0.339
477	0.339
477	0.34
478	0.34
478	0.34
479	0.341
479	0.341
480	0.342
480	0.342
481	0.343
481	0.343
482	0.344
482	0.345
482	0.345
483	0.346
483	0.347
484	0.348
484	0.349
485	0.349
485	0.35
486	0.351
486	0.351
487	0.352
487	0.353
487	0.354
488	0.355
488	0.355
489	0.357
489	0.358
490	0.36
490	0.361
491	0.362
491	0.363
492	0.365
492	0.366
492	0.367
493	0.368
493	0.37
494	0.371
494	0.372
495	0.373
495	0.375
496	0.376
496	0.378
496	0.379
497	0.38
497	0.381
498	0.382
498	0.383
499	0.384
499	0.386
500	0.387
500	0.389
501	0.39
501	0.391
501	0.392
502	0.393
502	0.395
503	0.396
503	0.397
504	0.398
504	0.4
505	0.401
505	0.403
506	0.404
506	0.405
506	0.406
507	0.408
507	0.409
508	0.41
508	0.411
509	0.412
509	0.413
510	0.414
510	0.416
511	0.417
511	0.418
511	0.42
512	0.421
512	0.422
513	0.423
513	0.423
514	0.425
514	0.425
515	0.426
515	0.427
515	0.427
516	0.428
516	0.428
517	0.429
517	0.43
518	0.43
518	0.431
519	0.431
519	0.431
520	0.431
520	0.432
520	0.432
521	0.432
521	0.432
522	0.432
522	0.431
523	0.431
523	0.431
524	0.431
524	0.431
524	0.43
525	0.43
525	0.429
526	0.429
526	0.429
527	0.428
527	0.428
528	0.427
528	0.426
529	0.426
529	0.425
529	0.423
530	0.422
530	0.421
531	0.42
531	0.419
532	0.418
532	0.416
533	0.415
533	0.414
533	0.413
534	0.411
534	0.41
535	0.408
535	0.407
536	0.406
536	0.404
537	0.403
537	0.401
538	0.4
538	0.398
538	0.396
539	0.395
539	0.393
540	0.392
540	0.39
541	0.388
541	0.386
542	0.384
542	0.382
542	0.38
543	0.379
543	0.376
544	0.374
544	0.372
545	0.37
545	0.369
546	0.367
546	0.364
547	0.362
547	0.36
547	0.358
548	0.356
548	0.354
549	0.352
549	0.35
550	0.348
550	0.346
551	0.344
551	0.342
551	0.34
552	0.338
552	0.336
553	0.334
553	0.332
554	0.33
554	0.328
555	0.326
555	0.324
556	0.322
556	0.32
556	0.318
557	0.316
557	0.315
558	0.313
558	0.311
559	0.309
559	0.307
560	0.306
560	0.304
560	0.303
561	0.301
561	0.299
562	0.297
562	0.295
563	0.293
563	0.291
564	0.289
564	0.288
564	0.286
565	0.285
565	0.283
566	0.282
566	0.28
567	0.279
567	0.277
568	0.276
568	0.274
568	0.273
569	0.272
569	0.27
570	0.268
570	0.267
571	0.265
571	0.264
572	0.262
572	0.261
573	0.259
573	0.258
573	0.256
574	0.255
574	0.254
575	0.253
575	0.252
576	0.251
576	0.249
577	0.248
577	0.246
577	0.245
578	0.244
578	0.243
579	0.242
579	0.242
580	0.24
580	0.238
581	0.237
581	0.236
581	0.235
582	0.234
582	0.234
583	0.233
583	0.232
584	0.23
584	0.228
585	0.227
585	0.226
585	0.225
586	0.224
586	0.223
587	0.222
587	0.22
588	0.219
588	0.218
589	0.217
589	0.217
590	0.216
590	0.215
590	0.215
591	0.215
591	0.214
592	0.213
592	0.211
593	0.211
593	0.21
594	0.209
594	0.208
594	0.207
595	0.207
595	0.206
596	0.205
596	0.204
597	0.205
597	0.204
598	0.204
598	0.203
598	0.202
599	0.202
599	0.201
600	0.2
600	0.199
601	0.199
601	0.198
602	0.197
602	0.196
602	0.195
603	0.194
603	0.194
604	0.193
604	0.193
605	0.193
605	0.192
606	0.192
606	0.191
606	0.19
607	0.19
607	0.189
608	0.189
608	0.188
609	0.187
609	0.187
610	0.186
610	0.185
610	0.184
611	0.184
611	0.184
612	0.184
612	0.184
613	0.183
613	0.183
614	0.183
614	0.182
614	0.181
615	0.181
615	0.181
616	0.18
616	0.18
617	0.18
617	0.179
618	0.179
618	0.179
618	0.179
619	0.179
619	0.179
620	0.179
620	0.179
621	0.178
621	0.177
622	0.176
622	0.176
622	0.175
623	0.174
623	0.174
624	0.173
624	0.172
625	0.171
625	0.171
626	0.17
626	0.17
626	0.17
627	0.169
627	0.169
628	0.168
628	0.168
629	0.168
629	0.167
630	0.167
630	0.166
630	0.166
631	0.166
631	0.166
632	0.166
632	0.165
633	0.165
633	0.165
634	0.165
634	0.165
634	0.164
635	0.164
635	0.163
636	0.163
636	0.163
637	0.163
637	0.162
638	0.162
638	0.162
638	0.161
639	0.16
639	0.16
640	0.16
640	0.16
641	0.16
641	0.159
642	0.159
642	0.159
642	0.159
643	0.158
643	0.158
644	0.158
644	0.158
645	0.158
645	0.158
646	0.157
646	0.157
646	0.157
647	0.156
647	0.156
648	0.156
648	0.155
649	0.155
649	0.155
650	0.155
650	0.155
650	0.155
651	0.155
651	0.155
652	0.155
652	0.155
653	0.156
653	0.157
653	0.163
654	0.129
654	0.104
655	0.103
655	0.103
656	0.104
656	0.104
657	0.104
657	0.104
657	0.104
658	0.103
658	0.093
659	0.117
659	0.149
660	0.154
660	0.154
661	0.153
661	0.153
661	0.152
662	0.152
662	0.151
663	0.15
663	0.15
664	0.149
664	0.149
665	0.148
665	0.148
665	0.148
666	0.149
666	0.149
667	0.149
667	0.15
668	0.15
668	0.151
669	0.151
669	0.151
669	0.151
670	0.151
670	0.151
671	0.151
671	0.15
672	0.15
672	0.149
672	0.149
673	0.149
673	0.148
674	0.148
674	0.148
675	0.147
675	0.147
676	0.147
676	0.147
676	0.146
677	0.146
677	0.146
678	0.146
678	0.145
679	0.145
679	0.145
680	0.145
680	0.145
680	0.145
681	0.146
681	0.146
682	0.147
682	0.147
683	0.147
683	0.147
684	0.148
684	0.147
684	0.147
685	0.147
685	0.147
686	0.147
686	0.146
687	0.146
687	0.145
687	0.145
688	0.145
688	0.144
689	0.144
689	0.145
690	0.144
690	0.144
691	0.144
691	0.144
691	0.144
692	0.145
692	0.145
693	0.146
693	0.146
694	0.146
694	0.146
695	0.146
695	0.147
695	0.147
696	0.147
696	0.146
697	0.146
697	0.146
698	0.145
698	0.145
698	0.145
699	0.145
699	0.144
700	0.144
700	0.144
701	0.145
701	0.145
702	0.145
702	0.145
702	0.145
703	0.145
703	0.145
704	0.144
704	0.144
705	0.144
705	0.144
705	0.143
706	0.143
706	0.143
707	0.143
707	0.143
708	0.143
708	0.143
709	0.143
709	0.143
709	0.142
710	0.142
710	0.142
711	0.142
711	0.141
712	0.141
712	0.141
713	0.14
713	0.14
713	0.14
714	0.14
714	0.14
715	0.14
715	0.14
716	0.14
716	0.139
716	0.139
717	0.138
717	0.138
718	0.138
718	0.138
719	0.138
719	0.138
720	0.138
720	0.138
720	0.138
721	0.138
721	0.139
722	0.139
722	0.139
723	0.139
723	0.139
723	0.139
724	0.139
724	0.139
725	0.139
725	0.138
726	0.138
726	0.137
727	0.137
727	0.137
727	0.137
728	0.136
728	0.136
729	0.136
729	0.136
730	0.136
730	0.136
730	0.137
731	0.137
731	0.138
732	0.138
732	0.138
733	0.138
733	0.138
734	0.138
734	0.138
734	0.137
735	0.137
735	0.136
736	0.135
736	0.135
737	0.134
737	0.134
737	0.133
738	0.133
738	0.132
739	0.131
739	0.131
740	0.13
740	0.131
741	0.131
741	0.131
741	0.13
742	0.13
742	0.13
743	0.131
743	0.131
744	0.131
744	0.131
744	0.131
745	0.131
745	0.131
746	0.131
746	0.131
747	0.131
747	0.131
748	0.131
748	0.131
748	0.131
749	0.132
749	0.132
750	0.132
750	0.132
751	0.133
751	0.133
751	0.133
752	0.133
752	0.132
753	0.131
753	0.131
754	0.13
754	0.129
754	0.129
755	0.129
755	0.128
756	0.127
756	0.126
757	0.125
757	0.125
758	0.124
758	0.124
758	0.124
759	0.124
759	0.124
760	0.124
760	0.123
761	0.124
761	0.124
761	0.125
762	0.125
762	0.125
763	0.125
763	0.125
764	0.125
764	0.125
764	0.125
765	0.125
765	0.124
766	0.124
766	0.124
767	0.123
767	0.122
768	0.121
768	0.121
768	0.121
769	0.12
769	0.12
770	0.119
770	0.119
771	0.119
771	0.118
771	0.118
772	0.119
772	0.119
773	0.119
773	0.119
774	0.119
774	0.119
775	0.12
775	0.12
775	0.119
776	0.119
776	0.119
777	0.119
777	0.119
778	0.119
778	0.118
778	0.118
779	0.118
779	0.117
780	0.116
780	0.116
781	0.116
781	0.115
781	0.115
782	0.114
782	0.114
783	0.114
783	0.114
784	0.113
784	0.113
784	0.113
785	0.113
785	0.112
786	0.112
786	0.112
787	0.111
787	0.111
788	0.11
788	0.11
788	0.11
789	0.11
789	0.11
790	0.11
790	0.11
791	0.11
791	0.109
791	0.109
792	0.11
792	0.11
793	0.11
793	0.11
794	0.109
794	0.109
794	0.109
795	0.109
795	0.109
796	0.109
796	0.109
797	0.109
797	0.109
797	0.109
798	0.109
798	0.109
799	0.108
799	0.108
800	0.107
800	0.106
801	0.105
801	0.105
801	0.104
802	0.104
802	0.103
803	0.103
803	0.103
804	0.103
804	0.103
804	0.103
805	0.102
805	0.102
806	0.102
806	0.103
807	0.103
807	0.103
807	0.102
808	0.102
808	0.102
809	0.102
809	0.102
810	0.102
810	0.102
810	0.101
811	0.101
811	0.101
812	0.102
812	0.102
813	0.102
813	0.102
813	0.102
814	0.103
814	0.103
815	0.103
815	0.103
816	0.102
816	0.101
817	0.101
817	0.1
817	0.1
818	0.1
818	0.099
819	0.099
819	0.098
820	0.097
820	0.097
820	0.096
821	0.096
821	0.096
822	0.095
822	0.095
823	0.095
823	0.094
823	0.094
824	0.095
824	0.095
825	0.096
825	0.096
826	0.096
826	0.096
826	0.096
827	0.096
827	0.095
828	0.095
828	0.095
829	0.095
829	0.094
829	0.094
830	0.094
830	0.094
831	0.095
831	0.095
832	0.095
832	0.095
832	0.095
833	0.095
833	0.095
834	0.095
834	0.095
835	0.095
835	0.095
835	0.095
836	0.095
836	0.095
837	0.095
837	0.095
838	0.094
838	0.094
839	0.093
839	0.093
839	0.092
840	0.091
840	0.09
841	0.089
841	0.087
842	0.086
842	0.086
842	0.085
843	0.084
843	0.084
844	0.084
844	0.083
845	0.083
845	0.083
845	0.083
846	0.083
846	0.083
847	0.083
847	0.083
848	0.083
848	0.083
848	0.083
849	0.083
849	0.084
850	0.084
850	0.084
851	0.084
851	0.084
851	0.084
852	0.083
852	0.083
853	0.083
853	0.082
854	0.082
854	0.082
854	0.082
855	0.083
855	0.083
856	0.084
856	0.084
857	0.085
857	0.086
857	0.086
858	0.086
858	0.086
859	0.086
859	0.085
860	0.084
860	0.083
860	0.082
861	0.081
861	0.08
862	0.079
862	0.078
863	0.078
863	0.077
863	0.077
864	0.077
864	0.077
865	0.076
865	0.076
866	0.076
866	0.076
866	0.076
867	0.076
867	0.076
868	0.076
868	0.076
869	0.076
869	0.075
869	0.075
870	0.075
870	0.075
871	0.074
871	0.075
872	0.075
872	0.075
872	0.075
873	0.075
873	0.074
874	0.074
874	0.074
875	0.074
875	0.073
875	0.073
876	0.073
876	0.073
877	0.073
877	0.074
878	0.074
878	0.075
878	0.076
879	0.077
879	0.077
880	0.078
880	0.079
881	0.079
881	0.079
881	0.079
882	0.079
882	0.078
883	0.078
883	0.078
884	0.077
884	0.076
884	0.076
885	0.075
885	0.074
886	0.073
886	0.073
887	0.072
887	0.071
887	0.07
888	0.07
888	0.069
889	0.069
889	0.069
890	0.069
890	0.069
890	0.069
891	0.07
891	0.07
892	0.07
892	0.071
893	0.072
893	0.072
893	0.073
894	0.073
894	0.073
895	0.073
895	0.073
895	0.073
896	0.072
896	0.072
897	0.071
897	0.07
898	0.07
898	0.069
898	0.069
899	0.068
899	0.068
900	0.068
900	0.068
901	0.068
901	0.068
901	0.068
902	0.068
902	0.068
903	0.068
903	0.068
904	0.068
904	0.068
904	0.068
905	0.068
905	0.068
906	0.067
906	0.067
907	0.068
907	0.068
907	0.068
908	0.068
908	0.068
909	0.068
909	0.068
910	0.068
910	0.068
910	0.068
911	0.068
911	0.068
912	0.068
912	0.068
913	0.068
913	0.068
913	0.068
914	0.068
914	0.068
915	0.068
915	0.068
916	0.068
916	0.067
916	0.067
917	0.066
917	0.065
918	0.065
918	0.064
918	0.064
919	0.063
919	0.063
920	0.062
920	0.062
921	0.062
921	0.061
921	0.061
922	0.06
922	0.06
923	0.06
923	0.059
924	0.059
924	0.059
924	0.059
925	0.059
925	0.06
926	0.06
926	0.06
927	0.06
927	0.061
927	0.061
928	0.061
928	0.061
929	0.061
929	0.061
930	0.061
930	0.061
930	0.061
931	0.062
931	0.062
932	0.062
932	0.062
933	0.062
933	0.062
933	0.061
934	0.061
934	0.061
935	0.061
935	0.06
935	0.06
936	0.06
936	0.059
937	0.059
937	0.059
938	0.06
938	0.059
938	0.06
939	0.06
939	0.06
940	0.06
940	0.061
941	0.061
941	0.062
941	0.062
942	0.063
942	0.063
943	0.063
943	0.064
944	0.064
944	0.064
944	0.064
945	0.064
945	0.064
946	0.064
946	0.064
946	0.064
947	0.064
947	0.064
948	0.064
948	0.064
949	0.064
949	0.063
949	0.063
950	0.063
950	0.063
951	0.062
951	0.062
952	0.061
952	0.06
952	0.06
953	0.059
953	0.059
954	0.058
954	0.057
955	0.057
955	0.056
955	0.055
956	0.055
956	0.055
957	0.055
957	0.055
957	0.055
958	0.055
958	0.055
959	0.055
959	0.055
960	0.056
960	0.056
960	0.056
961	0.056
961	0.057
962	0.057
962	0.057
963	0.057
963	0.057
963	0.057
964	0.057
964	0.058
965	0.058
965	0.058
966	0.058
966	0.058
966	0.059
967	0.059
967	0.059
968	0.06
968	0.06
968	0.06
969	0.06
969	0.06
970	0.06
970	0.06
971	0.06
971	0.06
971	0.06
972	0.06
972	0.06
973	0.06
973	0.06
974	0.06
974	0.06
974	0.061
975	0.061
975	0.062
976	0.062
976	0.062
976	0.062
977	0.063
977	0.063
978	0.063
978	0.063
979	0.063
979	0.063
979	0.063
980	0.062
980	0.062
981	0.061
981	0.061
982	0.06
982	0.06
982	0.059
983	0.059
983	0.058
984	0.057
984	0.057
984	0.056
985	0.055
985	0.055
986	0.055
986	0.054
987	0.054
987	0.053
987	0.053
988	0.053
988	0.053
989	0.052
989	0.052
990	0.052
990	0.051
990	0.051
991	0.05
991	0.05
992	0.049
992	0.049
992	0.048
993	0.048
993	0.047
994	0.047
994	0.047
995	0.047
995	0.047
995	0.048
996	0.048
996	0.049
997	0.049
997	0.05
997	0.051
998	0.052
998	0.053
999	0.054
999	0.055
1000	0.056
1000	0.057
1000	0.057
1001	0.058
1001	0.058
1002	0.058
1002	0.058
1003	0.057
1003	0.057
1003	0.056
1004	0.055
1004	0.054
1005	0.053
1005	0.052
1005	0.051
1006	0.05
1006	0.05
1007	0.049
1007	0.049
1008	0.048
1008	0.048
1008	0.048
1009	0.048
1009	0.048
1010	0.048
1010	0.049
1010	0.049
1011	0.049
1011	0.049
1012	0.049
1012	0.049
1013	0.049
1013	0.049
1013	0.049
1014	0.049
1014	0.049
1015	0.049
1015	0.049
1016	0.05
1016	0.05
1016	0.05
1017	0.05
1017	0.05
1018	0.05
1018	0.05
1018	0.05
1019	0.05
1019	0.05
1020	0.05
1020	0.05
1021	0.05
1021	0.051
1021	0.051
1022	0.051
1022	0.051
1023	0.051
1023	0.051
1023	0.051
1024	0.05
1024	0.05
1025	0.05
1025	0.049
1026	0.049
1026	0.048
1026	0.048
1027	0.047
1027	0.047
1028	0.046
1028	0.046
1028	0.046
1029	0.046
1029	0.046
1030	0.046
1030	0.046
1031	0.046
1031	0.047
1031	0.047
1032	0.047
1032	0.047
1033	0.047
1033	0.047
1033	0.047
1034	0.047
1034	0.047
1035	0.047
1035	0.047
1036	0.047
1036	0.047
1036	0.047
1037	0.047
1037	0.047
1038	0.047
1038	0.047
1039	0.047
1039	0.048
1039	0.048
1040	0.048
1040	0.049
1041	0.049
1041	0.049
1041	0.049
1042	0.05
1042	0.05
1043	0.05
1043	0.05
1044	0.05
1044	0.05
1044	0.05
1045	0.05
1045	0.051
1046	0.051
1046	0.051
1046	0.052
1047	0.052
1047	0.052
1048	0.053
1048	0.053
1049	0.053
1049	0.053
1049	0.054
1050	0.053
1050	0.053
1051	0.053
1051	0.052
1051	0.052
1052	0.051
1052	0.05
1053	0.05
1053	0.049
1053	0.048
1054	0.047
1054	0.047
1055	0.046
1055	0.046
1056	0.045
1056	0.045
1056	0.044
1057	0.043
1057	0.043
1058	0.042
1058	0.041
1058	0.04
1059	0.04
1059	0.039
1060	0.039
1060	0.038
1061	0.038
1061	0.037
1061	0.037
1062	0.037
1062	0.037
1063	0.037
1063	0.037
1063	0.036
1064	0.036
1064	0.036
1065	0.035
1065	0.035
1066	0.035
1066	0.035
1066	0.035
1067	0.035
1067	0.035
1068	0.035
1068	0.035
1068	0.035
1069	0.035
1069	0.034
1070	0.034
1070	0.033
1071	0.033
1071	0.032
1071	0.032
1072	0.031
1072	0.031
1073	0.03
1073	0.03
1073	0.03
1074	0.03
1074	0.03
1075	0.03
1075	0.03
1076	0.03
1076	0.031
1076	0.031
1077	0.031
1077	0.032
1078	0.032
1078	0.032
1078	0.033
1079	0.033
1079	0.033
1080	0.033
1080	0.033
1080	0.034
1081	0.034
1081	0.035
1082	0.036
1082	0.036
1083	0.036
1083	0.036
1083	0.036
1084	0.036
1084	0.036
1085	0.036
1085	0.035
1085	0.035
1086	0.035
1086	0.034
1087	0.033
1087	0.033
1088	0.032
1088	0.032
1088	0.032
1089	0.031
1089	0.031
1090	0.031
1090	0.03
1090	0.03
1091	0.029
1091	0.029
1092	0.029
1092	0.029
1092	0.029
1093	0.028
1093	0.029
1094	0.029
1094	0.028
1095	0.028
1095	0.028
1095	0.028
1096	0.028
1096	0.027
1097	0.026
1097	0.025
1097	0.025
1098	0.024
1098	0.023
1099	0.023
1099	0.022
1100	0.021
1100	0.02
1100	0.019
1101	0.019
1101	0.018
1102	0.018
1102	0.017
1102	0.017
1103	0.016
1103	0.016
1104	0.016
1104	0.016
1104	0.016
1105	0.015
1105	0.012
1106	0.012
1106	0.011
1107	0.01
1107	0.009
1107	0.007
1108	0.006
1108	0.004
1109	0.004
1109	0.003
1109	0.003
1110	0.005
1110	0.003
1111	0.002
1111	0
