Data from reversibility-20sec_Absorbance__4988__000000000004988.txt Node

Date: Wed Dec 06 15:55:46 CET 2023
User: Marek
Spectrometer: MAYP115816
Trigger mode: 0
Integration Time (sec): 2.000000E-1
Scans to average: 10
Electric dark correction enabled: true
Nonlinearity correction enabled: true
Boxcar width: 5
XAxis mode: Wavelengths
Number of Pixels in Spectrum: 2068
>>>>>Begin Spectral Data<<<<<
199	-0.209
199	-0.182
200	-0.115
200	-0.059
201	-0.028
201	-0.012
202	0
202	0.011
203	0.016
203	0.02
204	0.036
204	0.048
205	0.06
205	0.067
205	0.062
206	0.062
206	0.064
207	0.067
207	0.068
208	0.068
208	0.069
209	0.068
209	0.067
210	0.069
210	0.07
211	0.074
211	0.075
212	0.07
212	0.071
213	0.073
213	0.076
213	0.077
214	0.081
214	0.082
215	0.083
215	0.083
216	0.083
216	0.082
217	0.089
217	0.089
218	0.088
218	0.092
219	0.096
219	0.098
220	0.102
220	0.102
221	0.103
221	0.107
221	0.114
222	0.118
222	0.122
223	0.128
223	0.131
224	0.136
224	0.142
225	0.151
225	0.162
226	0.17
226	0.181
227	0.193
227	0.202
228	0.218
228	0.233
229	0.25
229	0.273
229	0.295
230	0.32
230	0.349
231	0.382
231	0.419
232	0.455
232	0.499
233	0.542
233	0.592
234	0.641
234	0.694
235	0.748
235	0.802
236	0.852
236	0.905
236	0.959
237	1.01
237	1.057
238	1.102
238	1.146
239	1.197
239	1.237
240	1.277
240	1.313
241	1.347
241	1.38
242	1.411
242	1.445
243	1.476
243	1.505
243	1.53
244	1.55
244	1.572
245	1.591
245	1.614
246	1.637
246	1.652
247	1.665
247	1.68
248	1.694
248	1.708
249	1.719
249	1.727
250	1.733
250	1.742
250	1.746
251	1.749
251	1.754
252	1.76
252	1.76
253	1.761
253	1.761
254	1.762
254	1.763
255	1.764
255	1.765
256	1.765
256	1.765
257	1.766
257	1.765
258	1.765
258	1.766
258	1.764
259	1.765
259	1.765
260	1.763
260	1.763
261	1.763
261	1.765
262	1.767
262	1.768
263	1.772
263	1.773
264	1.773
264	1.774
265	1.774
265	1.778
265	1.778
266	1.778
266	1.777
267	1.774
267	1.774
268	1.774
268	1.772
269	1.773
269	1.772
270	1.771
270	1.768
271	1.767
271	1.765
272	1.764
272	1.765
272	1.762
273	1.757
273	1.755
274	1.752
274	1.746
275	1.742
275	1.737
276	1.73
276	1.724
277	1.716
277	1.706
278	1.695
278	1.684
278	1.671
279	1.657
279	1.641
280	1.621
280	1.597
281	1.568
281	1.536
282	1.502
282	1.466
283	1.43
283	1.394
284	1.358
284	1.323
285	1.29
285	1.259
285	1.23
286	1.206
286	1.183
287	1.164
287	1.147
288	1.132
288	1.119
289	1.108
289	1.098
290	1.09
290	1.083
291	1.077
291	1.071
292	1.065
292	1.06
292	1.056
293	1.052
293	1.048
294	1.044
294	1.041
295	1.037
295	1.034
296	1.03
296	1.027
297	1.024
297	1.021
298	1.017
298	1.014
298	1.011
299	1.008
299	1.005
300	1.002
300	0.999
301	0.996
301	0.994
302	0.991
302	0.988
303	0.986
303	0.983
304	0.98
304	0.978
305	0.975
305	0.972
305	0.969
306	0.966
306	0.963
307	0.961
307	0.958
308	0.955
308	0.952
309	0.949
309	0.946
310	0.943
310	0.939
311	0.937
311	0.933
311	0.93
312	0.927
312	0.923
313	0.919
313	0.915
314	0.911
314	0.907
315	0.903
315	0.899
316	0.895
316	0.89
317	0.886
317	0.881
318	0.876
318	0.871
318	0.865
319	0.86
319	0.854
320	0.849
320	0.843
321	0.837
321	0.831
322	0.825
322	0.819
323	0.812
323	0.806
324	0.8
324	0.793
324	0.787
325	0.78
325	0.773
326	0.767
326	0.76
327	0.753
327	0.746
328	0.739
328	0.733
329	0.726
329	0.719
330	0.712
330	0.705
330	0.698
331	0.691
331	0.684
332	0.677
332	0.671
333	0.664
333	0.657
334	0.65
334	0.643
335	0.637
335	0.63
336	0.623
336	0.616
336	0.61
337	0.604
337	0.598
338	0.592
338	0.586
339	0.58
339	0.574
340	0.568
340	0.563
341	0.557
341	0.552
342	0.547
342	0.541
342	0.536
343	0.531
343	0.526
344	0.521
344	0.516
345	0.512
345	0.507
346	0.503
346	0.498
347	0.494
347	0.49
348	0.486
348	0.482
348	0.478
349	0.474
349	0.47
350	0.467
350	0.463
351	0.46
351	0.456
352	0.453
352	0.45
353	0.447
353	0.444
354	0.441
354	0.438
354	0.435
355	0.432
355	0.429
356	0.426
356	0.423
357	0.42
357	0.417
358	0.415
358	0.412
359	0.41
359	0.407
360	0.405
360	0.403
360	0.401
361	0.399
361	0.397
362	0.396
362	0.394
363	0.392
363	0.39
364	0.388
364	0.386
365	0.384
365	0.383
366	0.381
366	0.379
366	0.377
367	0.376
367	0.374
368	0.372
368	0.371
369	0.369
369	0.367
370	0.366
370	0.364
371	0.363
371	0.361
372	0.36
372	0.359
372	0.358
373	0.356
373	0.355
374	0.354
374	0.353
375	0.352
375	0.351
376	0.35
376	0.349
377	0.348
377	0.347
378	0.346
378	0.345
378	0.344
379	0.343
379	0.342
380	0.341
380	0.34
381	0.339
381	0.338
382	0.338
382	0.337
383	0.336
383	0.336
383	0.335
384	0.334
384	0.333
385	0.333
385	0.332
386	0.332
386	0.331
387	0.33
387	0.33
388	0.329
388	0.328
389	0.328
389	0.327
389	0.327
390	0.326
390	0.326
391	0.325
391	0.325
392	0.324
392	0.324
393	0.323
393	0.323
394	0.322
394	0.322
394	0.322
395	0.321
395	0.321
396	0.32
396	0.32
397	0.319
397	0.318
398	0.318
398	0.318
399	0.317
399	0.317
400	0.316
400	0.316
400	0.315
401	0.315
401	0.315
402	0.314
402	0.314
403	0.314
403	0.313
404	0.313
404	0.313
405	0.312
405	0.312
405	0.312
406	0.311
406	0.311
407	0.31
407	0.31
408	0.31
408	0.309
409	0.309
409	0.309
410	0.308
410	0.308
411	0.307
411	0.307
411	0.307
412	0.307
412	0.306
413	0.305
413	0.305
414	0.305
414	0.304
415	0.304
415	0.303
416	0.303
416	0.303
416	0.302
417	0.302
417	0.302
418	0.302
418	0.301
419	0.301
419	0.3
420	0.3
420	0.299
421	0.299
421	0.299
421	0.298
422	0.298
422	0.297
423	0.297
423	0.297
424	0.296
424	0.296
425	0.296
425	0.296
426	0.296
426	0.295
427	0.295
427	0.295
427	0.294
428	0.294
428	0.294
429	0.293
429	0.293
430	0.293
430	0.293
431	0.293
431	0.292
432	0.292
432	0.292
432	0.292
433	0.292
433	0.292
434	0.291
434	0.291
435	0.291
435	0.291
436	0.29
436	0.29
437	0.29
437	0.29
437	0.29
438	0.289
438	0.289
439	0.289
439	0.289
440	0.288
440	0.288
441	0.288
441	0.288
442	0.288
442	0.288
442	0.288
443	0.287
443	0.287
444	0.287
444	0.287
445	0.287
445	0.287
446	0.287
446	0.287
447	0.287
447	0.286
447	0.286
448	0.286
448	0.286
449	0.286
449	0.286
450	0.287
450	0.287
451	0.287
451	0.287
452	0.287
452	0.287
452	0.287
453	0.287
453	0.287
454	0.287
454	0.287
455	0.287
455	0.287
456	0.287
456	0.286
457	0.286
457	0.286
458	0.286
458	0.286
458	0.286
459	0.286
459	0.285
460	0.285
460	0.285
461	0.285
461	0.285
462	0.286
462	0.286
463	0.286
463	0.286
463	0.286
464	0.286
464	0.286
465	0.286
465	0.286
466	0.286
466	0.286
467	0.286
467	0.287
467	0.287
468	0.287
468	0.287
469	0.287
469	0.287
470	0.288
470	0.288
471	0.289
471	0.289
472	0.29
472	0.29
472	0.291
473	0.291
473	0.291
474	0.292
474	0.292
475	0.293
475	0.293
476	0.294
476	0.294
477	0.295
477	0.295
477	0.296
478	0.296
478	0.297
479	0.297
479	0.298
480	0.298
480	0.299
481	0.299
481	0.3
482	0.3
482	0.301
482	0.301
483	0.302
483	0.303
484	0.304
484	0.305
485	0.305
485	0.306
486	0.307
486	0.307
487	0.308
487	0.309
487	0.31
488	0.311
488	0.312
489	0.312
489	0.314
490	0.315
490	0.316
491	0.317
491	0.318
492	0.32
492	0.321
492	0.322
493	0.323
493	0.324
494	0.326
494	0.327
495	0.328
495	0.329
496	0.331
496	0.332
496	0.333
497	0.335
497	0.336
498	0.337
498	0.338
499	0.34
499	0.341
500	0.342
500	0.344
501	0.345
501	0.346
501	0.347
502	0.349
502	0.35
503	0.351
503	0.352
504	0.353
504	0.355
505	0.356
505	0.357
506	0.358
506	0.359
506	0.36
507	0.362
507	0.363
508	0.364
508	0.366
509	0.366
509	0.368
510	0.369
510	0.37
511	0.371
511	0.372
511	0.373
512	0.374
512	0.375
513	0.376
513	0.377
514	0.378
514	0.378
515	0.379
515	0.38
515	0.38
516	0.381
516	0.382
517	0.383
517	0.383
518	0.384
518	0.384
519	0.385
519	0.385
520	0.385
520	0.385
520	0.385
521	0.385
521	0.385
522	0.384
522	0.384
523	0.384
523	0.384
524	0.383
524	0.383
524	0.383
525	0.383
525	0.382
526	0.382
526	0.381
527	0.381
527	0.38
528	0.379
528	0.379
529	0.378
529	0.377
529	0.376
530	0.375
530	0.374
531	0.374
531	0.373
532	0.371
532	0.37
533	0.369
533	0.367
533	0.366
534	0.364
534	0.363
535	0.361
535	0.36
536	0.358
536	0.357
537	0.356
537	0.354
538	0.352
538	0.35
538	0.349
539	0.347
539	0.346
540	0.344
540	0.342
541	0.341
541	0.339
542	0.337
542	0.335
542	0.333
543	0.331
543	0.329
544	0.327
544	0.325
545	0.323
545	0.322
546	0.32
546	0.317
547	0.315
547	0.313
547	0.311
548	0.309
548	0.307
549	0.305
549	0.303
550	0.301
550	0.299
551	0.297
551	0.295
551	0.293
552	0.29
552	0.288
553	0.286
553	0.284
554	0.282
554	0.28
555	0.278
555	0.276
556	0.274
556	0.272
556	0.27
557	0.269
557	0.268
558	0.266
558	0.265
559	0.263
559	0.261
560	0.26
560	0.258
560	0.256
561	0.255
561	0.253
562	0.251
562	0.248
563	0.246
563	0.244
564	0.242
564	0.24
564	0.238
565	0.237
565	0.235
566	0.233
566	0.232
567	0.23
567	0.229
568	0.228
568	0.226
568	0.225
569	0.223
569	0.222
570	0.22
570	0.218
571	0.217
571	0.215
572	0.214
572	0.212
573	0.211
573	0.21
573	0.208
574	0.207
574	0.206
575	0.205
575	0.205
576	0.203
576	0.202
577	0.2
577	0.199
577	0.197
578	0.196
578	0.195
579	0.195
579	0.194
580	0.192
580	0.19
581	0.189
581	0.188
581	0.187
582	0.187
582	0.186
583	0.186
583	0.184
584	0.183
584	0.181
585	0.18
585	0.179
585	0.178
586	0.177
586	0.175
587	0.174
587	0.173
588	0.172
588	0.171
589	0.17
589	0.169
590	0.169
590	0.168
590	0.168
591	0.168
591	0.167
592	0.166
592	0.165
593	0.164
593	0.164
594	0.163
594	0.162
594	0.161
595	0.16
595	0.159
596	0.158
596	0.157
597	0.158
597	0.157
598	0.157
598	0.156
598	0.156
599	0.155
599	0.155
600	0.154
600	0.153
601	0.152
601	0.152
602	0.151
602	0.15
602	0.149
603	0.149
603	0.148
604	0.148
604	0.148
605	0.147
605	0.147
606	0.146
606	0.145
606	0.144
607	0.144
607	0.143
608	0.143
608	0.142
609	0.141
609	0.14
610	0.14
610	0.139
610	0.139
611	0.139
611	0.139
612	0.139
612	0.139
613	0.138
613	0.138
614	0.137
614	0.137
614	0.136
615	0.136
615	0.135
616	0.135
616	0.134
617	0.134
617	0.133
618	0.133
618	0.132
618	0.132
619	0.132
619	0.132
620	0.132
620	0.132
621	0.131
621	0.13
622	0.13
622	0.129
622	0.128
623	0.127
623	0.127
624	0.126
624	0.125
625	0.124
625	0.124
626	0.124
626	0.123
626	0.123
627	0.123
627	0.122
628	0.122
628	0.121
629	0.121
629	0.121
630	0.121
630	0.12
630	0.121
631	0.121
631	0.121
632	0.12
632	0.12
633	0.12
633	0.12
634	0.12
634	0.12
634	0.119
635	0.119
635	0.118
636	0.118
636	0.117
637	0.116
637	0.116
638	0.115
638	0.115
638	0.115
639	0.114
639	0.114
640	0.114
640	0.114
641	0.114
641	0.114
642	0.115
642	0.115
642	0.116
643	0.116
643	0.116
644	0.116
644	0.116
645	0.115
645	0.115
646	0.114
646	0.114
646	0.114
647	0.113
647	0.112
648	0.112
648	0.111
649	0.111
649	0.11
650	0.11
650	0.11
650	0.11
651	0.11
651	0.109
652	0.109
652	0.109
653	0.109
653	0.111
653	0.117
654	0.094
654	0.077
655	0.074
655	0.074
656	0.074
656	0.074
657	0.075
657	0.075
657	0.075
658	0.074
658	0.065
659	0.082
659	0.103
660	0.109
660	0.11
661	0.109
661	0.109
661	0.109
662	0.109
662	0.108
663	0.108
663	0.108
664	0.107
664	0.107
665	0.107
665	0.107
665	0.107
666	0.107
666	0.107
667	0.107
667	0.107
668	0.107
668	0.107
669	0.108
669	0.108
669	0.108
670	0.108
670	0.108
671	0.107
671	0.107
672	0.106
672	0.105
672	0.105
673	0.105
673	0.104
674	0.104
674	0.103
675	0.103
675	0.103
676	0.103
676	0.103
676	0.103
677	0.102
677	0.102
678	0.102
678	0.101
679	0.101
679	0.101
680	0.101
680	0.1
680	0.1
681	0.1
681	0.1
682	0.1
682	0.101
683	0.101
683	0.101
684	0.101
684	0.101
684	0.101
685	0.101
685	0.101
686	0.101
686	0.101
687	0.101
687	0.101
687	0.101
688	0.101
688	0.102
689	0.102
689	0.102
690	0.102
690	0.102
691	0.101
691	0.101
691	0.101
692	0.101
692	0.1
693	0.1
693	0.1
694	0.099
694	0.099
695	0.099
695	0.1
695	0.1
696	0.101
696	0.101
697	0.101
697	0.101
698	0.101
698	0.101
698	0.101
699	0.102
699	0.101
700	0.1
700	0.1
701	0.1
701	0.099
702	0.099
702	0.098
702	0.098
703	0.097
703	0.097
704	0.097
704	0.096
705	0.097
705	0.097
705	0.097
706	0.097
706	0.098
707	0.098
707	0.098
708	0.099
708	0.099
709	0.099
709	0.099
709	0.099
710	0.098
710	0.099
711	0.099
711	0.098
712	0.098
712	0.098
713	0.097
713	0.097
713	0.097
714	0.096
714	0.096
715	0.095
715	0.095
716	0.094
716	0.094
716	0.093
717	0.092
717	0.092
718	0.091
718	0.091
719	0.091
719	0.091
720	0.092
720	0.092
720	0.092
721	0.092
721	0.093
722	0.093
722	0.093
723	0.094
723	0.094
723	0.094
724	0.094
724	0.093
725	0.093
725	0.092
726	0.092
726	0.092
727	0.092
727	0.091
727	0.091
728	0.091
728	0.091
729	0.091
729	0.09
730	0.09
730	0.09
730	0.09
731	0.091
731	0.091
732	0.092
732	0.092
733	0.093
733	0.093
734	0.094
734	0.094
734	0.095
735	0.096
735	0.095
736	0.095
736	0.095
737	0.095
737	0.094
737	0.094
738	0.093
738	0.092
739	0.091
739	0.09
740	0.09
740	0.089
741	0.089
741	0.089
741	0.089
742	0.089
742	0.089
743	0.09
743	0.09
744	0.091
744	0.091
744	0.092
745	0.091
745	0.091
746	0.091
746	0.091
747	0.09
747	0.089
748	0.088
748	0.088
748	0.087
749	0.086
749	0.086
750	0.086
750	0.085
751	0.085
751	0.084
751	0.084
752	0.084
752	0.083
753	0.083
753	0.083
754	0.083
754	0.083
754	0.083
755	0.084
755	0.084
756	0.084
756	0.083
757	0.082
757	0.082
758	0.082
758	0.082
758	0.083
759	0.083
759	0.082
760	0.082
760	0.082
761	0.082
761	0.083
761	0.083
762	0.083
762	0.084
763	0.084
763	0.083
764	0.083
764	0.082
764	0.082
765	0.081
765	0.081
766	0.08
766	0.08
767	0.08
767	0.079
768	0.078
768	0.077
768	0.078
769	0.078
769	0.078
770	0.078
770	0.079
771	0.079
771	0.08
771	0.08
772	0.081
772	0.082
773	0.082
773	0.082
774	0.082
774	0.081
775	0.081
775	0.081
775	0.08
776	0.08
776	0.08
777	0.08
777	0.079
778	0.079
778	0.078
778	0.078
779	0.078
779	0.077
780	0.077
780	0.076
781	0.076
781	0.075
781	0.075
782	0.075
782	0.075
783	0.075
783	0.075
784	0.075
784	0.075
784	0.076
785	0.076
785	0.076
786	0.077
786	0.077
787	0.077
787	0.077
788	0.077
788	0.076
788	0.076
789	0.075
789	0.075
790	0.074
790	0.074
791	0.073
791	0.072
791	0.071
792	0.071
792	0.07
793	0.069
793	0.069
794	0.068
794	0.068
794	0.067
795	0.067
795	0.067
796	0.068
796	0.068
797	0.067
797	0.068
797	0.069
798	0.069
798	0.069
799	0.07
799	0.07
800	0.07
800	0.069
801	0.069
801	0.069
801	0.068
802	0.068
802	0.067
803	0.067
803	0.067
804	0.068
804	0.068
804	0.068
805	0.068
805	0.068
806	0.068
806	0.068
807	0.068
807	0.068
807	0.068
808	0.068
808	0.068
809	0.068
809	0.068
810	0.068
810	0.068
810	0.068
811	0.067
811	0.068
812	0.068
812	0.068
813	0.068
813	0.068
813	0.068
814	0.068
814	0.068
815	0.068
815	0.068
816	0.068
816	0.067
817	0.067
817	0.067
817	0.066
818	0.066
818	0.066
819	0.066
819	0.066
820	0.066
820	0.065
820	0.066
821	0.066
821	0.066
822	0.066
822	0.066
823	0.066
823	0.065
823	0.066
824	0.066
824	0.066
825	0.067
825	0.067
826	0.067
826	0.067
826	0.067
827	0.067
827	0.068
828	0.068
828	0.068
829	0.068
829	0.068
829	0.068
830	0.068
830	0.068
831	0.069
831	0.069
832	0.068
832	0.068
832	0.068
833	0.068
833	0.068
834	0.067
834	0.067
835	0.066
835	0.066
835	0.065
836	0.065
836	0.064
837	0.064
837	0.063
838	0.063
838	0.062
839	0.061
839	0.061
839	0.06
840	0.059
840	0.059
841	0.058
841	0.057
842	0.057
842	0.056
842	0.056
843	0.055
843	0.054
844	0.054
844	0.053
845	0.052
845	0.051
845	0.05
846	0.05
846	0.049
847	0.049
847	0.049
848	0.049
848	0.05
848	0.05
849	0.051
849	0.052
850	0.052
850	0.053
851	0.053
851	0.054
851	0.054
852	0.054
852	0.054
853	0.054
853	0.054
854	0.054
854	0.055
854	0.056
855	0.056
855	0.057
856	0.057
856	0.058
857	0.059
857	0.059
857	0.059
858	0.059
858	0.058
859	0.057
859	0.056
860	0.056
860	0.055
860	0.054
861	0.053
861	0.053
862	0.052
862	0.051
863	0.051
863	0.05
863	0.05
864	0.05
864	0.05
865	0.05
865	0.051
866	0.051
866	0.051
866	0.052
867	0.052
867	0.053
868	0.054
868	0.054
869	0.054
869	0.054
869	0.054
870	0.054
870	0.053
871	0.053
871	0.053
872	0.053
872	0.052
872	0.052
873	0.052
873	0.051
874	0.051
874	0.051
875	0.051
875	0.051
875	0.051
876	0.051
876	0.052
877	0.052
877	0.052
878	0.052
878	0.052
878	0.053
879	0.053
879	0.053
880	0.053
880	0.053
881	0.052
881	0.052
881	0.052
882	0.052
882	0.052
883	0.051
883	0.051
884	0.052
884	0.052
884	0.052
885	0.052
885	0.052
886	0.051
886	0.051
887	0.05
887	0.05
887	0.049
888	0.048
888	0.047
889	0.047
889	0.047
890	0.047
890	0.046
890	0.046
891	0.046
891	0.046
892	0.046
892	0.046
893	0.045
893	0.045
893	0.045
894	0.044
894	0.044
895	0.043
895	0.043
895	0.043
896	0.044
896	0.044
897	0.045
897	0.045
898	0.046
898	0.047
898	0.047
899	0.048
899	0.049
900	0.049
900	0.049
901	0.049
901	0.049
901	0.049
902	0.049
902	0.048
903	0.048
903	0.048
904	0.047
904	0.047
904	0.046
905	0.046
905	0.045
906	0.045
906	0.045
907	0.046
907	0.046
907	0.046
908	0.046
908	0.046
909	0.045
909	0.045
910	0.045
910	0.045
910	0.045
911	0.045
911	0.045
912	0.044
912	0.045
913	0.045
913	0.045
913	0.045
914	0.045
914	0.045
915	0.045
915	0.045
916	0.045
916	0.045
916	0.045
917	0.044
917	0.044
918	0.044
918	0.043
918	0.043
919	0.043
919	0.043
920	0.043
920	0.043
921	0.044
921	0.044
921	0.044
922	0.045
922	0.045
923	0.046
923	0.047
924	0.047
924	0.048
924	0.049
925	0.049
925	0.05
926	0.05
926	0.051
927	0.051
927	0.051
927	0.051
928	0.051
928	0.051
929	0.051
929	0.05
930	0.049
930	0.049
930	0.048
931	0.048
931	0.047
932	0.047
932	0.046
933	0.046
933	0.046
933	0.045
934	0.045
934	0.045
935	0.044
935	0.044
935	0.044
936	0.043
936	0.043
937	0.043
937	0.042
938	0.042
938	0.042
938	0.042
939	0.042
939	0.042
940	0.042
940	0.043
941	0.043
941	0.043
941	0.043
942	0.044
942	0.044
943	0.044
943	0.044
944	0.044
944	0.044
944	0.044
945	0.044
945	0.044
946	0.044
946	0.044
946	0.044
947	0.044
947	0.044
948	0.044
948	0.044
949	0.044
949	0.043
949	0.043
950	0.043
950	0.043
951	0.043
951	0.043
952	0.042
952	0.042
952	0.042
953	0.042
953	0.041
954	0.041
954	0.041
955	0.04
955	0.04
955	0.039
956	0.04
956	0.04
957	0.04
957	0.04
957	0.041
958	0.041
958	0.041
959	0.041
959	0.041
960	0.041
960	0.041
960	0.041
961	0.041
961	0.041
962	0.041
962	0.041
963	0.041
963	0.041
963	0.042
964	0.042
964	0.043
965	0.043
965	0.043
966	0.043
966	0.043
966	0.044
967	0.043
967	0.044
968	0.044
968	0.044
968	0.043
969	0.043
969	0.042
970	0.041
970	0.041
971	0.04
971	0.039
971	0.039
972	0.039
972	0.038
973	0.038
973	0.038
974	0.038
974	0.038
974	0.038
975	0.038
975	0.039
976	0.039
976	0.04
976	0.04
977	0.04
977	0.04
978	0.04
978	0.04
979	0.04
979	0.039
979	0.039
980	0.039
980	0.038
981	0.037
981	0.037
982	0.037
982	0.037
982	0.037
983	0.036
983	0.036
984	0.036
984	0.036
984	0.036
985	0.036
985	0.036
986	0.036
986	0.036
987	0.036
987	0.036
987	0.036
988	0.036
988	0.036
989	0.036
989	0.036
990	0.036
990	0.036
990	0.036
991	0.036
991	0.036
992	0.035
992	0.035
992	0.034
993	0.034
993	0.033
994	0.033
994	0.032
995	0.032
995	0.032
995	0.031
996	0.031
996	0.031
997	0.032
997	0.032
997	0.033
998	0.034
998	0.035
999	0.035
999	0.036
1000	0.038
1000	0.038
1000	0.039
1001	0.039
1001	0.04
1002	0.039
1002	0.039
1003	0.039
1003	0.038
1003	0.037
1004	0.036
1004	0.035
1005	0.034
1005	0.033
1005	0.032
1006	0.032
1006	0.031
1007	0.031
1007	0.03
1008	0.03
1008	0.03
1008	0.03
1009	0.031
1009	0.031
1010	0.031
1010	0.031
1010	0.031
1011	0.031
1011	0.03
1012	0.03
1012	0.029
1013	0.029
1013	0.028
1013	0.027
1014	0.027
1014	0.026
1015	0.026
1015	0.026
1016	0.026
1016	0.026
1016	0.026
1017	0.027
1017	0.027
1018	0.027
1018	0.028
1018	0.028
1019	0.028
1019	0.029
1020	0.029
1020	0.029
1021	0.03
1021	0.03
1021	0.03
1022	0.031
1022	0.031
1023	0.031
1023	0.031
1023	0.032
1024	0.032
1024	0.032
1025	0.032
1025	0.032
1026	0.032
1026	0.032
1026	0.032
1027	0.033
1027	0.033
1028	0.033
1028	0.033
1028	0.033
1029	0.033
1029	0.034
1030	0.034
1030	0.034
1031	0.034
1031	0.034
1031	0.034
1032	0.035
1032	0.035
1033	0.035
1033	0.035
1033	0.035
1034	0.034
1034	0.034
1035	0.034
1035	0.033
1036	0.033
1036	0.032
1036	0.032
1037	0.032
1037	0.032
1038	0.031
1038	0.031
1039	0.031
1039	0.031
1039	0.031
1040	0.031
1040	0.031
1041	0.032
1041	0.031
1041	0.031
1042	0.031
1042	0.031
1043	0.031
1043	0.031
1044	0.031
1044	0.032
1044	0.032
1045	0.032
1045	0.032
1046	0.032
1046	0.033
1046	0.033
1047	0.034
1047	0.034
1048	0.034
1048	0.035
1049	0.035
1049	0.035
1049	0.035
1050	0.035
1050	0.035
1051	0.034
1051	0.034
1051	0.034
1052	0.033
1052	0.033
1053	0.032
1053	0.032
1053	0.031
1054	0.031
1054	0.03
1055	0.03
1055	0.03
1056	0.03
1056	0.029
1056	0.029
1057	0.029
1057	0.028
1058	0.028
1058	0.027
1058	0.027
1059	0.026
1059	0.026
1060	0.026
1060	0.026
1061	0.025
1061	0.025
1061	0.025
1062	0.025
1062	0.025
1063	0.025
1063	0.025
1063	0.025
1064	0.024
1064	0.025
1065	0.024
1065	0.024
1066	0.024
1066	0.024
1066	0.024
1067	0.023
1067	0.023
1068	0.023
1068	0.023
1068	0.023
1069	0.023
1069	0.022
1070	0.022
1070	0.022
1071	0.021
1071	0.021
1071	0.021
1072	0.02
1072	0.02
1073	0.02
1073	0.02
1073	0.02
1074	0.02
1074	0.02
1075	0.02
1075	0.021
1076	0.021
1076	0.022
1076	0.022
1077	0.022
1077	0.022
1078	0.021
1078	0.021
1078	0.021
1079	0.021
1079	0.021
1080	0.02
1080	0.02
1080	0.02
1081	0.02
1081	0.02
1082	0.02
1082	0.02
1083	0.02
1083	0.02
1083	0.02
1084	0.02
1084	0.02
1085	0.02
1085	0.02
1085	0.02
1086	0.021
1086	0.021
1087	0.02
1087	0.02
1088	0.021
1088	0.02
1088	0.021
1089	0.02
1089	0.019
1090	0.019
1090	0.019
1090	0.018
1091	0.018
1091	0.018
1092	0.018
1092	0.018
1092	0.019
1093	0.018
1093	0.019
1094	0.019
1094	0.019
1095	0.019
1095	0.018
1095	0.019
1096	0.018
1096	0.017
1097	0.016
1097	0.015
1097	0.015
1098	0.015
1098	0.013
1099	0.013
1099	0.011
1100	0.01
1100	0.008
1100	0.007
1101	0.006
1101	0.005
1102	0.005
1102	0.004
1102	0.002
1103	0.002
1103	0.001
1104	0.001
1104	0.001
1104	0.001
1105	0.001
1105	-0
1106	-0.002
1106	-0.003
1107	-0.004
1107	-0.005
1107	-0.006
1108	-0.006
1108	-0.007
1109	-0.009
1109	-0.009
1109	-0.01
1110	-0.01
1110	-0.011
1111	-0.011
1111	-0.011
