Data from reversibility-20sec_Absorbance__4940__000000000004940.txt Node

Date: Wed Dec 06 15:39:46 CET 2023
User: Marek
Spectrometer: MAYP115816
Trigger mode: 0
Integration Time (sec): 2.000000E-1
Scans to average: 10
Electric dark correction enabled: true
Nonlinearity correction enabled: true
Boxcar width: 5
XAxis mode: Wavelengths
Number of Pixels in Spectrum: 2068
>>>>>Begin Spectral Data<<<<<
199	-0.191
199	-0.165
200	-0.096
200	-0.04
201	-0.009
201	0.009
202	0.019
202	0.028
203	0.035
203	0.036
204	0.05
204	0.066
205	0.079
205	0.088
205	0.086
206	0.086
206	0.087
207	0.09
207	0.09
208	0.091
208	0.094
209	0.097
209	0.093
210	0.095
210	0.093
211	0.093
211	0.096
212	0.093
212	0.094
213	0.098
213	0.097
213	0.096
214	0.098
214	0.102
215	0.103
215	0.104
216	0.104
216	0.102
217	0.105
217	0.108
218	0.107
218	0.112
219	0.118
219	0.12
220	0.122
220	0.12
221	0.12
221	0.124
221	0.13
222	0.136
222	0.14
223	0.147
223	0.15
224	0.153
224	0.159
225	0.169
225	0.178
226	0.19
226	0.2
227	0.21
227	0.222
228	0.235
228	0.253
229	0.269
229	0.295
229	0.318
230	0.34
230	0.372
231	0.402
231	0.439
232	0.475
232	0.518
233	0.562
233	0.606
234	0.657
234	0.709
235	0.762
235	0.815
236	0.867
236	0.918
236	0.969
237	1.021
237	1.067
238	1.117
238	1.165
239	1.215
239	1.255
240	1.293
240	1.33
241	1.365
241	1.4
242	1.434
242	1.467
243	1.499
243	1.525
243	1.549
244	1.569
244	1.592
245	1.612
245	1.636
246	1.656
246	1.674
247	1.688
247	1.7
248	1.715
248	1.728
249	1.74
249	1.748
250	1.756
250	1.763
250	1.768
251	1.774
251	1.778
252	1.782
252	1.783
253	1.784
253	1.784
254	1.782
254	1.786
255	1.784
255	1.787
256	1.786
256	1.785
257	1.784
257	1.784
258	1.785
258	1.784
258	1.783
259	1.783
259	1.782
260	1.782
260	1.782
261	1.781
261	1.784
262	1.787
262	1.789
263	1.792
263	1.792
264	1.793
264	1.795
265	1.795
265	1.796
265	1.796
266	1.796
266	1.795
267	1.792
267	1.793
268	1.791
268	1.794
269	1.794
269	1.794
270	1.793
270	1.792
271	1.79
271	1.79
272	1.789
272	1.788
272	1.785
273	1.779
273	1.773
274	1.768
274	1.762
275	1.757
275	1.751
276	1.744
276	1.737
277	1.73
277	1.721
278	1.711
278	1.7
278	1.687
279	1.673
279	1.656
280	1.635
280	1.609
281	1.579
281	1.546
282	1.509
282	1.473
283	1.436
283	1.4
284	1.364
284	1.329
285	1.295
285	1.264
285	1.236
286	1.211
286	1.189
287	1.17
287	1.153
288	1.139
288	1.126
289	1.115
289	1.105
290	1.097
290	1.09
291	1.083
291	1.077
292	1.071
292	1.066
292	1.061
293	1.057
293	1.053
294	1.049
294	1.046
295	1.043
295	1.039
296	1.036
296	1.032
297	1.029
297	1.026
298	1.023
298	1.02
298	1.017
299	1.014
299	1.011
300	1.008
300	1.005
301	1.003
301	1
302	0.998
302	0.995
303	0.993
303	0.99
304	0.987
304	0.985
305	0.982
305	0.979
305	0.976
306	0.974
306	0.971
307	0.968
307	0.965
308	0.962
308	0.959
309	0.956
309	0.953
310	0.95
310	0.947
311	0.944
311	0.94
311	0.936
312	0.933
312	0.93
313	0.926
313	0.922
314	0.918
314	0.914
315	0.909
315	0.905
316	0.901
316	0.896
317	0.892
317	0.887
318	0.882
318	0.877
318	0.871
319	0.866
319	0.86
320	0.855
320	0.849
321	0.843
321	0.837
322	0.83
322	0.824
323	0.818
323	0.811
324	0.805
324	0.799
324	0.792
325	0.785
325	0.779
326	0.772
326	0.766
327	0.759
327	0.752
328	0.745
328	0.738
329	0.731
329	0.724
330	0.717
330	0.71
330	0.703
331	0.696
331	0.689
332	0.683
332	0.676
333	0.669
333	0.662
334	0.655
334	0.649
335	0.642
335	0.635
336	0.629
336	0.622
336	0.615
337	0.609
337	0.603
338	0.597
338	0.591
339	0.585
339	0.579
340	0.573
340	0.568
341	0.562
341	0.557
342	0.551
342	0.546
342	0.541
343	0.536
343	0.531
344	0.526
344	0.521
345	0.516
345	0.512
346	0.507
346	0.503
347	0.498
347	0.494
348	0.49
348	0.486
348	0.483
349	0.479
349	0.475
350	0.471
350	0.468
351	0.465
351	0.461
352	0.458
352	0.455
353	0.452
353	0.449
354	0.446
354	0.443
354	0.44
355	0.436
355	0.433
356	0.43
356	0.427
357	0.424
357	0.421
358	0.418
358	0.416
359	0.413
359	0.411
360	0.409
360	0.408
360	0.406
361	0.404
361	0.402
362	0.401
362	0.399
363	0.397
363	0.396
364	0.393
364	0.391
365	0.389
365	0.387
366	0.385
366	0.383
366	0.381
367	0.379
367	0.378
368	0.376
368	0.374
369	0.373
369	0.371
370	0.37
370	0.368
371	0.367
371	0.365
372	0.364
372	0.363
372	0.362
373	0.361
373	0.36
374	0.358
374	0.357
375	0.356
375	0.355
376	0.354
376	0.353
377	0.352
377	0.351
378	0.35
378	0.349
378	0.348
379	0.347
379	0.346
380	0.345
380	0.344
381	0.343
381	0.342
382	0.342
382	0.341
383	0.34
383	0.339
383	0.339
384	0.338
384	0.337
385	0.337
385	0.336
386	0.335
386	0.335
387	0.334
387	0.334
388	0.333
388	0.332
389	0.332
389	0.331
389	0.33
390	0.33
390	0.329
391	0.329
391	0.328
392	0.328
392	0.328
393	0.327
393	0.326
394	0.326
394	0.326
394	0.325
395	0.324
395	0.324
396	0.323
396	0.323
397	0.322
397	0.322
398	0.321
398	0.321
399	0.32
399	0.32
400	0.319
400	0.319
400	0.319
401	0.319
401	0.318
402	0.318
402	0.317
403	0.317
403	0.317
404	0.316
404	0.316
405	0.316
405	0.316
405	0.315
406	0.315
406	0.314
407	0.314
407	0.313
408	0.313
408	0.312
409	0.312
409	0.312
410	0.311
410	0.311
411	0.31
411	0.31
411	0.309
412	0.309
412	0.309
413	0.308
413	0.308
414	0.308
414	0.307
415	0.307
415	0.307
416	0.306
416	0.306
416	0.305
417	0.305
417	0.305
418	0.305
418	0.304
419	0.303
419	0.303
420	0.303
420	0.302
421	0.302
421	0.301
421	0.301
422	0.301
422	0.301
423	0.3
423	0.3
424	0.3
424	0.299
425	0.299
425	0.299
426	0.298
426	0.298
427	0.298
427	0.297
427	0.297
428	0.296
428	0.296
429	0.296
429	0.295
430	0.295
430	0.295
431	0.295
431	0.295
432	0.295
432	0.295
432	0.294
433	0.294
433	0.294
434	0.294
434	0.294
435	0.294
435	0.293
436	0.293
436	0.293
437	0.293
437	0.293
437	0.292
438	0.292
438	0.292
439	0.292
439	0.292
440	0.291
440	0.291
441	0.291
441	0.291
442	0.29
442	0.29
442	0.29
443	0.29
443	0.29
444	0.29
444	0.29
445	0.29
445	0.29
446	0.29
446	0.29
447	0.289
447	0.289
447	0.289
448	0.289
448	0.289
449	0.289
449	0.289
450	0.289
450	0.288
451	0.288
451	0.288
452	0.288
452	0.288
452	0.288
453	0.288
453	0.288
454	0.288
454	0.288
455	0.288
455	0.288
456	0.288
456	0.288
457	0.288
457	0.288
458	0.287
458	0.287
458	0.287
459	0.287
459	0.288
460	0.288
460	0.288
461	0.288
461	0.288
462	0.288
462	0.288
463	0.288
463	0.288
463	0.288
464	0.288
464	0.288
465	0.288
465	0.288
466	0.288
466	0.288
467	0.288
467	0.288
467	0.289
468	0.289
468	0.289
469	0.289
469	0.29
470	0.29
470	0.291
471	0.291
471	0.291
472	0.292
472	0.292
472	0.293
473	0.293
473	0.293
474	0.294
474	0.294
475	0.294
475	0.295
476	0.295
476	0.296
477	0.296
477	0.297
477	0.297
478	0.298
478	0.298
479	0.299
479	0.3
480	0.3
480	0.301
481	0.302
481	0.302
482	0.303
482	0.303
482	0.304
483	0.305
483	0.305
484	0.306
484	0.307
485	0.308
485	0.308
486	0.309
486	0.309
487	0.31
487	0.311
487	0.312
488	0.313
488	0.314
489	0.314
489	0.316
490	0.317
490	0.318
491	0.32
491	0.321
492	0.322
492	0.323
492	0.324
493	0.325
493	0.327
494	0.328
494	0.329
495	0.33
495	0.331
496	0.333
496	0.334
496	0.336
497	0.337
497	0.338
498	0.339
498	0.34
499	0.342
499	0.343
500	0.345
500	0.346
501	0.347
501	0.348
501	0.349
502	0.351
502	0.352
503	0.353
503	0.355
504	0.356
504	0.357
505	0.358
505	0.359
506	0.361
506	0.362
506	0.363
507	0.365
507	0.366
508	0.367
508	0.368
509	0.369
509	0.37
510	0.371
510	0.372
511	0.373
511	0.375
511	0.376
512	0.377
512	0.378
513	0.379
513	0.38
514	0.381
514	0.382
515	0.383
515	0.384
515	0.384
516	0.385
516	0.386
517	0.387
517	0.387
518	0.388
518	0.388
519	0.388
519	0.388
520	0.389
520	0.389
520	0.389
521	0.389
521	0.389
522	0.389
522	0.388
523	0.388
523	0.388
524	0.388
524	0.388
524	0.387
525	0.387
525	0.386
526	0.386
526	0.385
527	0.385
527	0.384
528	0.383
528	0.383
529	0.382
529	0.381
529	0.379
530	0.379
530	0.378
531	0.377
531	0.376
532	0.375
532	0.373
533	0.372
533	0.371
533	0.369
534	0.368
534	0.366
535	0.365
535	0.364
536	0.362
536	0.361
537	0.359
537	0.357
538	0.356
538	0.354
538	0.352
539	0.351
539	0.349
540	0.347
540	0.345
541	0.343
541	0.341
542	0.339
542	0.337
542	0.335
543	0.333
543	0.331
544	0.329
544	0.327
545	0.325
545	0.324
546	0.322
546	0.32
547	0.317
547	0.315
547	0.313
548	0.312
548	0.309
549	0.308
549	0.306
550	0.304
550	0.301
551	0.299
551	0.297
551	0.295
552	0.293
552	0.291
553	0.289
553	0.287
554	0.284
554	0.282
555	0.28
555	0.277
556	0.275
556	0.273
556	0.272
557	0.27
557	0.268
558	0.266
558	0.265
559	0.263
559	0.262
560	0.26
560	0.258
560	0.257
561	0.255
561	0.253
562	0.251
562	0.249
563	0.247
563	0.245
564	0.243
564	0.241
564	0.239
565	0.238
565	0.236
566	0.234
566	0.232
567	0.231
567	0.229
568	0.228
568	0.226
568	0.225
569	0.223
569	0.222
570	0.22
570	0.218
571	0.217
571	0.215
572	0.214
572	0.212
573	0.211
573	0.21
573	0.209
574	0.207
574	0.206
575	0.205
575	0.204
576	0.203
576	0.202
577	0.2
577	0.199
577	0.198
578	0.196
578	0.195
579	0.195
579	0.194
580	0.192
580	0.19
581	0.189
581	0.188
581	0.187
582	0.186
582	0.186
583	0.185
583	0.184
584	0.182
584	0.18
585	0.179
585	0.178
585	0.177
586	0.176
586	0.175
587	0.174
587	0.172
588	0.171
588	0.17
589	0.17
589	0.169
590	0.169
590	0.168
590	0.168
591	0.167
591	0.166
592	0.165
592	0.164
593	0.164
593	0.163
594	0.162
594	0.161
594	0.16
595	0.159
595	0.158
596	0.157
596	0.157
597	0.157
597	0.156
598	0.156
598	0.155
598	0.154
599	0.154
599	0.153
600	0.152
600	0.151
601	0.15
601	0.15
602	0.149
602	0.148
602	0.147
603	0.147
603	0.146
604	0.146
604	0.146
605	0.146
605	0.146
606	0.145
606	0.144
606	0.144
607	0.143
607	0.143
608	0.142
608	0.141
609	0.14
609	0.14
610	0.139
610	0.138
610	0.138
611	0.138
611	0.137
612	0.137
612	0.137
613	0.136
613	0.136
614	0.135
614	0.134
614	0.134
615	0.133
615	0.133
616	0.132
616	0.132
617	0.131
617	0.131
618	0.13
618	0.13
618	0.13
619	0.13
619	0.13
620	0.13
620	0.129
621	0.129
621	0.128
622	0.128
622	0.127
622	0.127
623	0.126
623	0.125
624	0.125
624	0.124
625	0.123
625	0.123
626	0.123
626	0.122
626	0.122
627	0.122
627	0.122
628	0.121
628	0.121
629	0.12
629	0.12
630	0.12
630	0.119
630	0.119
631	0.119
631	0.119
632	0.119
632	0.118
633	0.118
633	0.118
634	0.118
634	0.118
634	0.118
635	0.117
635	0.116
636	0.116
636	0.115
637	0.115
637	0.114
638	0.114
638	0.113
638	0.112
639	0.112
639	0.111
640	0.111
640	0.111
641	0.111
641	0.111
642	0.111
642	0.111
642	0.112
643	0.112
643	0.112
644	0.112
644	0.111
645	0.111
645	0.111
646	0.111
646	0.111
646	0.11
647	0.11
647	0.109
648	0.109
648	0.108
649	0.108
649	0.108
650	0.108
650	0.108
650	0.107
651	0.107
651	0.107
652	0.107
652	0.106
653	0.107
653	0.108
653	0.114
654	0.091
654	0.074
655	0.072
655	0.072
656	0.072
656	0.072
657	0.073
657	0.073
657	0.073
658	0.072
658	0.064
659	0.08
659	0.1
660	0.106
660	0.106
661	0.105
661	0.105
661	0.104
662	0.104
662	0.104
663	0.104
663	0.103
664	0.103
664	0.103
665	0.103
665	0.103
665	0.103
666	0.103
666	0.103
667	0.103
667	0.102
668	0.102
668	0.102
669	0.102
669	0.102
669	0.102
670	0.103
670	0.102
671	0.102
671	0.102
672	0.101
672	0.101
672	0.1
673	0.1
673	0.1
674	0.099
674	0.099
675	0.098
675	0.098
676	0.098
676	0.098
676	0.098
677	0.098
677	0.098
678	0.097
678	0.097
679	0.096
679	0.096
680	0.096
680	0.096
680	0.095
681	0.095
681	0.096
682	0.096
682	0.096
683	0.097
683	0.097
684	0.097
684	0.097
684	0.097
685	0.097
685	0.097
686	0.097
686	0.097
687	0.096
687	0.096
687	0.096
688	0.096
688	0.096
689	0.097
689	0.097
690	0.097
690	0.097
691	0.096
691	0.096
691	0.096
692	0.096
692	0.096
693	0.096
693	0.096
694	0.096
694	0.095
695	0.096
695	0.097
695	0.098
696	0.098
696	0.098
697	0.098
697	0.098
698	0.097
698	0.097
698	0.096
699	0.096
699	0.096
700	0.095
700	0.094
701	0.094
701	0.093
702	0.093
702	0.093
702	0.093
703	0.092
703	0.092
704	0.092
704	0.091
705	0.091
705	0.091
705	0.091
706	0.092
706	0.092
707	0.093
707	0.093
708	0.093
708	0.094
709	0.094
709	0.094
709	0.094
710	0.094
710	0.094
711	0.094
711	0.094
712	0.094
712	0.094
713	0.094
713	0.093
713	0.093
714	0.092
714	0.091
715	0.091
715	0.09
716	0.089
716	0.088
716	0.088
717	0.087
717	0.087
718	0.086
718	0.086
719	0.087
719	0.087
720	0.088
720	0.088
720	0.089
721	0.089
721	0.09
722	0.09
722	0.09
723	0.09
723	0.09
723	0.09
724	0.09
724	0.09
725	0.089
725	0.089
726	0.089
726	0.088
727	0.088
727	0.088
727	0.087
728	0.087
728	0.087
729	0.087
729	0.087
730	0.087
730	0.087
730	0.087
731	0.088
731	0.088
732	0.089
732	0.09
733	0.09
733	0.09
734	0.09
734	0.091
734	0.091
735	0.092
735	0.092
736	0.091
736	0.091
737	0.091
737	0.091
737	0.091
738	0.09
738	0.089
739	0.088
739	0.088
740	0.087
740	0.086
741	0.086
741	0.086
741	0.085
742	0.085
742	0.085
743	0.086
743	0.086
744	0.086
744	0.087
744	0.087
745	0.087
745	0.087
746	0.087
746	0.087
747	0.086
747	0.086
748	0.086
748	0.085
748	0.085
749	0.084
749	0.084
750	0.084
750	0.084
751	0.084
751	0.084
751	0.084
752	0.083
752	0.083
753	0.082
753	0.082
754	0.081
754	0.08
754	0.08
755	0.08
755	0.079
756	0.078
756	0.077
757	0.077
757	0.077
758	0.077
758	0.077
758	0.077
759	0.077
759	0.077
760	0.076
760	0.076
761	0.076
761	0.077
761	0.077
762	0.077
762	0.077
763	0.078
763	0.077
764	0.076
764	0.076
764	0.076
765	0.076
765	0.076
766	0.076
766	0.075
767	0.075
767	0.074
768	0.073
768	0.073
768	0.074
769	0.074
769	0.074
770	0.074
770	0.074
771	0.075
771	0.075
771	0.075
772	0.076
772	0.076
773	0.076
773	0.076
774	0.076
774	0.076
775	0.076
775	0.076
775	0.076
776	0.076
776	0.076
777	0.076
777	0.076
778	0.076
778	0.075
778	0.075
779	0.075
779	0.074
780	0.073
780	0.073
781	0.072
781	0.072
781	0.072
782	0.072
782	0.072
783	0.072
783	0.073
784	0.073
784	0.073
784	0.073
785	0.073
785	0.074
786	0.074
786	0.074
787	0.074
787	0.073
788	0.072
788	0.071
788	0.071
789	0.07
789	0.069
790	0.068
790	0.067
791	0.066
791	0.065
791	0.064
792	0.064
792	0.064
793	0.063
793	0.063
794	0.063
794	0.062
794	0.062
795	0.063
795	0.063
796	0.063
796	0.064
797	0.063
797	0.064
797	0.064
798	0.065
798	0.065
799	0.065
799	0.065
800	0.065
800	0.065
801	0.064
801	0.064
801	0.063
802	0.063
802	0.062
803	0.062
803	0.062
804	0.061
804	0.062
804	0.061
805	0.061
805	0.061
806	0.061
806	0.061
807	0.061
807	0.061
807	0.061
808	0.062
808	0.062
809	0.062
809	0.062
810	0.062
810	0.062
810	0.062
811	0.062
811	0.062
812	0.062
812	0.062
813	0.062
813	0.063
813	0.063
814	0.064
814	0.064
815	0.065
815	0.065
816	0.065
816	0.065
817	0.065
817	0.064
817	0.064
818	0.064
818	0.063
819	0.063
819	0.062
820	0.061
820	0.061
820	0.06
821	0.06
821	0.06
822	0.06
822	0.06
823	0.06
823	0.06
823	0.06
824	0.061
824	0.062
825	0.063
825	0.063
826	0.063
826	0.063
826	0.063
827	0.064
827	0.064
828	0.064
828	0.063
829	0.063
829	0.064
829	0.063
830	0.063
830	0.064
831	0.064
831	0.065
832	0.064
832	0.064
832	0.064
833	0.064
833	0.064
834	0.064
834	0.063
835	0.063
835	0.062
835	0.062
836	0.062
836	0.061
837	0.061
837	0.061
838	0.06
838	0.06
839	0.06
839	0.059
839	0.059
840	0.058
840	0.057
841	0.056
841	0.055
842	0.055
842	0.054
842	0.053
843	0.052
843	0.051
844	0.051
844	0.05
845	0.049
845	0.049
845	0.048
846	0.048
846	0.048
847	0.048
847	0.048
848	0.048
848	0.048
848	0.049
849	0.049
849	0.05
850	0.05
850	0.051
851	0.051
851	0.051
851	0.051
852	0.05
852	0.05
853	0.05
853	0.05
854	0.05
854	0.05
854	0.051
855	0.051
855	0.052
856	0.053
856	0.053
857	0.054
857	0.055
857	0.056
858	0.056
858	0.056
859	0.055
859	0.055
860	0.054
860	0.053
860	0.053
861	0.052
861	0.051
862	0.05
862	0.049
863	0.049
863	0.048
863	0.048
864	0.048
864	0.048
865	0.048
865	0.049
866	0.049
866	0.049
866	0.049
867	0.05
867	0.051
868	0.051
868	0.051
869	0.052
869	0.051
869	0.051
870	0.051
870	0.051
871	0.051
871	0.051
872	0.051
872	0.051
872	0.051
873	0.05
873	0.05
874	0.05
874	0.05
875	0.05
875	0.049
875	0.049
876	0.05
876	0.049
877	0.049
877	0.049
878	0.049
878	0.049
878	0.05
879	0.05
879	0.05
880	0.05
880	0.05
881	0.049
881	0.049
881	0.049
882	0.049
882	0.049
883	0.048
883	0.048
884	0.048
884	0.049
884	0.049
885	0.049
885	0.049
886	0.048
886	0.048
887	0.048
887	0.047
887	0.047
888	0.046
888	0.045
889	0.044
889	0.044
890	0.044
890	0.044
890	0.044
891	0.043
891	0.043
892	0.043
892	0.043
893	0.043
893	0.043
893	0.042
894	0.042
894	0.042
895	0.041
895	0.041
895	0.042
896	0.042
896	0.042
897	0.042
897	0.043
898	0.043
898	0.044
898	0.044
899	0.044
899	0.045
900	0.045
900	0.045
901	0.045
901	0.045
901	0.045
902	0.045
902	0.045
903	0.044
903	0.044
904	0.044
904	0.044
904	0.043
905	0.043
905	0.043
906	0.043
906	0.043
907	0.044
907	0.044
907	0.045
908	0.045
908	0.045
909	0.045
909	0.045
910	0.045
910	0.045
910	0.045
911	0.044
911	0.044
912	0.043
912	0.043
913	0.042
913	0.042
913	0.042
914	0.042
914	0.041
915	0.041
915	0.042
916	0.042
916	0.042
916	0.042
917	0.043
917	0.043
918	0.043
918	0.043
918	0.043
919	0.044
919	0.044
920	0.044
920	0.044
921	0.044
921	0.043
921	0.043
922	0.043
922	0.043
923	0.043
923	0.044
924	0.044
924	0.044
924	0.044
925	0.045
925	0.045
926	0.046
926	0.046
927	0.046
927	0.046
927	0.046
928	0.046
928	0.045
929	0.045
929	0.045
930	0.044
930	0.044
930	0.043
931	0.043
931	0.042
932	0.042
932	0.042
933	0.041
933	0.041
933	0.04
934	0.04
934	0.04
935	0.039
935	0.039
935	0.039
936	0.038
936	0.038
937	0.038
937	0.038
938	0.038
938	0.038
938	0.039
939	0.039
939	0.039
940	0.039
940	0.04
941	0.04
941	0.041
941	0.041
942	0.042
942	0.041
943	0.042
943	0.041
944	0.041
944	0.041
944	0.041
945	0.042
945	0.042
946	0.042
946	0.042
946	0.042
947	0.042
947	0.042
948	0.043
948	0.043
949	0.043
949	0.043
949	0.043
950	0.043
950	0.043
951	0.043
951	0.042
952	0.042
952	0.041
952	0.041
953	0.041
953	0.041
954	0.04
954	0.04
955	0.04
955	0.04
955	0.04
956	0.04
956	0.04
957	0.041
957	0.041
957	0.041
958	0.041
958	0.041
959	0.041
959	0.041
960	0.041
960	0.041
960	0.041
961	0.041
961	0.041
962	0.04
962	0.04
963	0.04
963	0.04
963	0.04
964	0.04
964	0.04
965	0.04
965	0.04
966	0.04
966	0.04
966	0.04
967	0.04
967	0.04
968	0.04
968	0.04
968	0.04
969	0.039
969	0.039
970	0.038
970	0.038
971	0.037
971	0.037
971	0.036
972	0.036
972	0.035
973	0.035
973	0.034
974	0.034
974	0.034
974	0.034
975	0.034
975	0.034
976	0.035
976	0.035
976	0.035
977	0.035
977	0.036
978	0.035
978	0.035
979	0.035
979	0.035
979	0.035
980	0.035
980	0.035
981	0.034
981	0.034
982	0.034
982	0.034
982	0.034
983	0.035
983	0.035
984	0.036
984	0.036
984	0.037
985	0.037
985	0.038
986	0.038
986	0.038
987	0.038
987	0.039
987	0.039
988	0.039
988	0.039
989	0.039
989	0.04
990	0.04
990	0.04
990	0.04
991	0.04
991	0.04
992	0.04
992	0.039
992	0.038
993	0.038
993	0.037
994	0.036
994	0.036
995	0.035
995	0.035
995	0.035
996	0.034
996	0.034
997	0.035
997	0.035
997	0.035
998	0.036
998	0.036
999	0.037
999	0.038
1000	0.038
1000	0.039
1000	0.039
1001	0.04
1001	0.04
1002	0.04
1002	0.04
1003	0.039
1003	0.039
1003	0.039
1004	0.038
1004	0.037
1005	0.037
1005	0.036
1005	0.036
1006	0.035
1006	0.035
1007	0.034
1007	0.034
1008	0.033
1008	0.033
1008	0.033
1009	0.032
1009	0.032
1010	0.032
1010	0.032
1010	0.032
1011	0.032
1011	0.032
1012	0.032
1012	0.032
1013	0.032
1013	0.031
1013	0.031
1014	0.031
1014	0.031
1015	0.031
1015	0.031
1016	0.031
1016	0.031
1016	0.03
1017	0.03
1017	0.03
1018	0.03
1018	0.03
1018	0.03
1019	0.03
1019	0.03
1020	0.03
1020	0.03
1021	0.03
1021	0.03
1021	0.031
1022	0.031
1022	0.031
1023	0.032
1023	0.032
1023	0.033
1024	0.033
1024	0.033
1025	0.034
1025	0.034
1026	0.034
1026	0.034
1026	0.034
1027	0.034
1027	0.034
1028	0.034
1028	0.034
1028	0.034
1029	0.034
1029	0.034
1030	0.034
1030	0.035
1031	0.035
1031	0.035
1031	0.035
1032	0.036
1032	0.036
1033	0.036
1033	0.036
1033	0.037
1034	0.037
1034	0.037
1035	0.037
1035	0.037
1036	0.037
1036	0.037
1036	0.037
1037	0.037
1037	0.037
1038	0.037
1038	0.037
1039	0.038
1039	0.038
1039	0.038
1040	0.038
1040	0.038
1041	0.038
1041	0.038
1041	0.038
1042	0.038
1042	0.038
1043	0.038
1043	0.037
1044	0.037
1044	0.037
1044	0.037
1045	0.037
1045	0.037
1046	0.037
1046	0.037
1046	0.037
1047	0.037
1047	0.037
1048	0.037
1048	0.037
1049	0.037
1049	0.036
1049	0.036
1050	0.036
1050	0.035
1051	0.035
1051	0.034
1051	0.034
1052	0.033
1052	0.033
1053	0.033
1053	0.033
1053	0.033
1054	0.032
1054	0.032
1055	0.032
1055	0.032
1056	0.032
1056	0.032
1056	0.031
1057	0.031
1057	0.03
1058	0.029
1058	0.029
1058	0.028
1059	0.027
1059	0.027
1060	0.026
1060	0.026
1061	0.025
1061	0.025
1061	0.024
1062	0.024
1062	0.024
1063	0.024
1063	0.024
1063	0.024
1064	0.024
1064	0.024
1065	0.024
1065	0.024
1066	0.025
1066	0.025
1066	0.025
1067	0.025
1067	0.025
1068	0.025
1068	0.025
1068	0.025
1069	0.025
1069	0.024
1070	0.024
1070	0.024
1071	0.023
1071	0.023
1071	0.023
1072	0.022
1072	0.022
1073	0.021
1073	0.021
1073	0.021
1074	0.021
1074	0.021
1075	0.021
1075	0.021
1076	0.022
1076	0.022
1076	0.022
1077	0.022
1077	0.022
1078	0.021
1078	0.022
1078	0.021
1079	0.021
1079	0.021
1080	0.02
1080	0.02
1080	0.019
1081	0.019
1081	0.019
1082	0.019
1082	0.019
1083	0.019
1083	0.018
1083	0.019
1084	0.019
1084	0.019
1085	0.02
1085	0.02
1085	0.02
1086	0.021
1086	0.02
1087	0.021
1087	0.021
1088	0.021
1088	0.021
1088	0.022
1089	0.021
1089	0.021
1090	0.021
1090	0.02
1090	0.02
1091	0.02
1091	0.02
1092	0.02
1092	0.02
1092	0.019
1093	0.018
1093	0.019
1094	0.018
1094	0.018
1095	0.017
1095	0.017
1095	0.017
1096	0.016
1096	0.014
1097	0.014
1097	0.013
1097	0.013
1098	0.012
1098	0.011
1099	0.01
1099	0.01
1100	0.009
1100	0.007
1100	0.007
1101	0.006
1101	0.005
1102	0.004
1102	0.002
1102	0.001
1103	0.001
1103	0.001
1104	0.001
1104	0.001
1104	0.001
1105	0.001
1105	-0.001
1106	-0.003
1106	-0.004
1107	-0.004
1107	-0.004
1107	-0.005
1108	-0.006
1108	-0.007
1109	-0.008
1109	-0.009
1109	-0.01
1110	-0.007
1110	-0.007
1111	-0.007
1111	-0.008
