Data from reversibility-20sec_Absorbance__2914__000000000002914.txt Node

Date: Wed Dec 06 04:24:25 CET 2023
User: Marek
Spectrometer: MAYP115816
Trigger mode: 0
Integration Time (sec): 2.000000E-1
Scans to average: 10
Electric dark correction enabled: true
Nonlinearity correction enabled: true
Boxcar width: 5
XAxis mode: Wavelengths
Number of Pixels in Spectrum: 2068
>>>>>Begin Spectral Data<<<<<
199	-0.14
199	-0.095
200	-0.024
200	0.028
201	0.058
201	0.075
202	0.09
202	0.098
203	0.106
203	0.111
204	0.126
204	0.14
205	0.148
205	0.153
205	0.151
206	0.15
206	0.148
207	0.149
207	0.15
208	0.149
208	0.146
209	0.149
209	0.151
210	0.155
210	0.156
211	0.156
211	0.158
212	0.157
212	0.156
213	0.16
213	0.162
213	0.162
214	0.163
214	0.165
215	0.165
215	0.165
216	0.167
216	0.167
217	0.171
217	0.173
218	0.172
218	0.176
219	0.182
219	0.185
220	0.188
220	0.187
221	0.186
221	0.19
221	0.197
222	0.203
222	0.206
223	0.21
223	0.216
224	0.218
224	0.226
225	0.233
225	0.244
226	0.255
226	0.264
227	0.272
227	0.282
228	0.298
228	0.316
229	0.332
229	0.357
229	0.379
230	0.402
230	0.432
231	0.46
231	0.501
232	0.539
232	0.583
233	0.629
233	0.673
234	0.72
234	0.771
235	0.825
235	0.883
236	0.936
236	0.992
236	1.045
237	1.098
237	1.149
238	1.196
238	1.248
239	1.302
239	1.344
240	1.388
240	1.422
241	1.458
241	1.495
242	1.528
242	1.564
243	1.597
243	1.625
243	1.652
244	1.674
244	1.7
245	1.718
245	1.744
246	1.766
246	1.786
247	1.803
247	1.818
248	1.836
248	1.854
249	1.864
249	1.876
250	1.885
250	1.898
250	1.905
251	1.91
251	1.915
252	1.921
252	1.922
253	1.922
253	1.918
254	1.919
254	1.922
255	1.922
255	1.921
256	1.922
256	1.922
257	1.921
257	1.921
258	1.923
258	1.922
258	1.925
259	1.926
259	1.925
260	1.925
260	1.929
261	1.929
261	1.934
262	1.938
262	1.942
263	1.946
263	1.95
264	1.953
264	1.956
265	1.958
265	1.962
265	1.964
266	1.967
266	1.969
267	1.969
267	1.971
268	1.973
268	1.975
269	1.979
269	1.981
270	1.981
270	1.981
271	1.979
271	1.979
272	1.977
272	1.976
272	1.97
273	1.962
273	1.951
274	1.942
274	1.932
275	1.923
275	1.915
276	1.907
276	1.897
277	1.887
277	1.874
278	1.863
278	1.849
278	1.834
279	1.814
279	1.788
280	1.755
280	1.715
281	1.67
281	1.62
282	1.569
282	1.517
283	1.468
283	1.421
284	1.377
284	1.335
285	1.295
285	1.261
285	1.23
286	1.203
286	1.179
287	1.159
287	1.142
288	1.128
288	1.115
289	1.104
289	1.095
290	1.088
290	1.081
291	1.074
291	1.07
292	1.065
292	1.061
292	1.057
293	1.053
293	1.05
294	1.047
294	1.044
295	1.041
295	1.038
296	1.035
296	1.032
297	1.029
297	1.026
298	1.023
298	1.02
298	1.017
299	1.014
299	1.012
300	1.009
300	1.007
301	1.004
301	1.001
302	0.999
302	0.997
303	0.995
303	0.993
304	0.99
304	0.988
305	0.986
305	0.984
305	0.981
306	0.979
306	0.977
307	0.975
307	0.972
308	0.97
308	0.967
309	0.964
309	0.962
310	0.959
310	0.956
311	0.953
311	0.949
311	0.946
312	0.943
312	0.939
313	0.935
313	0.932
314	0.928
314	0.924
315	0.92
315	0.915
316	0.911
316	0.906
317	0.902
317	0.897
318	0.892
318	0.887
318	0.881
319	0.876
319	0.871
320	0.865
320	0.859
321	0.853
321	0.847
322	0.841
322	0.834
323	0.828
323	0.821
324	0.815
324	0.808
324	0.801
325	0.794
325	0.787
326	0.78
326	0.773
327	0.766
327	0.759
328	0.752
328	0.745
329	0.738
329	0.731
330	0.724
330	0.717
330	0.71
331	0.703
331	0.696
332	0.689
332	0.682
333	0.675
333	0.668
334	0.661
334	0.653
335	0.647
335	0.64
336	0.633
336	0.626
336	0.619
337	0.613
337	0.606
338	0.6
338	0.594
339	0.588
339	0.582
340	0.576
340	0.57
341	0.565
341	0.559
342	0.554
342	0.548
342	0.543
343	0.538
343	0.533
344	0.527
344	0.523
345	0.518
345	0.513
346	0.508
346	0.503
347	0.499
347	0.495
348	0.491
348	0.487
348	0.483
349	0.479
349	0.475
350	0.472
350	0.468
351	0.465
351	0.461
352	0.458
352	0.455
353	0.452
353	0.449
354	0.446
354	0.443
354	0.44
355	0.437
355	0.434
356	0.432
356	0.429
357	0.425
357	0.423
358	0.42
358	0.417
359	0.415
359	0.413
360	0.411
360	0.408
360	0.406
361	0.404
361	0.403
362	0.401
362	0.399
363	0.398
363	0.396
364	0.394
364	0.392
365	0.39
365	0.388
366	0.386
366	0.385
366	0.383
367	0.381
367	0.38
368	0.378
368	0.376
369	0.374
369	0.373
370	0.372
370	0.37
371	0.369
371	0.368
372	0.366
372	0.365
372	0.364
373	0.363
373	0.362
374	0.361
374	0.36
375	0.359
375	0.358
376	0.357
376	0.356
377	0.355
377	0.353
378	0.352
378	0.351
378	0.35
379	0.349
379	0.348
380	0.347
380	0.347
381	0.346
381	0.345
382	0.344
382	0.344
383	0.343
383	0.343
383	0.342
384	0.341
384	0.341
385	0.34
385	0.34
386	0.339
386	0.338
387	0.338
387	0.337
388	0.337
388	0.336
389	0.336
389	0.335
389	0.335
390	0.334
390	0.334
391	0.333
391	0.333
392	0.332
392	0.332
393	0.332
393	0.331
394	0.331
394	0.33
394	0.33
395	0.329
395	0.329
396	0.329
396	0.328
397	0.328
397	0.327
398	0.327
398	0.327
399	0.326
399	0.326
400	0.326
400	0.325
400	0.325
401	0.324
401	0.324
402	0.324
402	0.323
403	0.323
403	0.322
404	0.322
404	0.321
405	0.321
405	0.321
405	0.32
406	0.32
406	0.32
407	0.319
407	0.319
408	0.319
408	0.318
409	0.318
409	0.318
410	0.317
410	0.317
411	0.316
411	0.316
411	0.316
412	0.315
412	0.315
413	0.315
413	0.314
414	0.314
414	0.314
415	0.314
415	0.313
416	0.313
416	0.312
416	0.312
417	0.312
417	0.312
418	0.311
418	0.311
419	0.311
419	0.31
420	0.31
420	0.309
421	0.309
421	0.308
421	0.308
422	0.308
422	0.307
423	0.307
423	0.306
424	0.306
424	0.306
425	0.306
425	0.305
426	0.305
426	0.304
427	0.304
427	0.304
427	0.303
428	0.303
428	0.303
429	0.302
429	0.302
430	0.302
430	0.301
431	0.301
431	0.301
432	0.301
432	0.301
432	0.3
433	0.3
433	0.3
434	0.3
434	0.3
435	0.3
435	0.299
436	0.299
436	0.299
437	0.299
437	0.299
437	0.299
438	0.298
438	0.298
439	0.298
439	0.297
440	0.297
440	0.296
441	0.296
441	0.296
442	0.295
442	0.295
442	0.295
443	0.295
443	0.294
444	0.294
444	0.294
445	0.294
445	0.294
446	0.294
446	0.293
447	0.293
447	0.293
447	0.293
448	0.293
448	0.293
449	0.293
449	0.292
450	0.292
450	0.292
451	0.291
451	0.291
452	0.291
452	0.291
452	0.291
453	0.291
453	0.29
454	0.29
454	0.29
455	0.29
455	0.29
456	0.29
456	0.289
457	0.289
457	0.289
458	0.289
458	0.289
458	0.289
459	0.288
459	0.288
460	0.288
460	0.288
461	0.288
461	0.288
462	0.288
462	0.288
463	0.288
463	0.288
463	0.287
464	0.287
464	0.286
465	0.286
465	0.286
466	0.286
466	0.286
467	0.286
467	0.286
467	0.286
468	0.286
468	0.286
469	0.286
469	0.286
470	0.287
470	0.287
471	0.287
471	0.286
472	0.286
472	0.287
472	0.287
473	0.287
473	0.287
474	0.287
474	0.287
475	0.287
475	0.287
476	0.287
476	0.287
477	0.287
477	0.288
477	0.288
478	0.288
478	0.288
479	0.288
479	0.288
480	0.288
480	0.288
481	0.289
481	0.289
482	0.289
482	0.289
482	0.289
483	0.29
483	0.29
484	0.291
484	0.29
485	0.291
485	0.291
486	0.291
486	0.291
487	0.291
487	0.291
487	0.292
488	0.292
488	0.292
489	0.292
489	0.294
490	0.294
490	0.295
491	0.296
491	0.297
492	0.297
492	0.298
492	0.299
493	0.3
493	0.301
494	0.302
494	0.302
495	0.303
495	0.303
496	0.304
496	0.305
496	0.305
497	0.306
497	0.306
498	0.307
498	0.307
499	0.308
499	0.308
500	0.309
500	0.31
501	0.311
501	0.311
501	0.312
502	0.313
502	0.314
503	0.314
503	0.315
504	0.315
504	0.316
505	0.317
505	0.317
506	0.318
506	0.318
506	0.319
507	0.32
507	0.32
508	0.321
508	0.322
509	0.322
509	0.323
510	0.324
510	0.325
511	0.326
511	0.326
511	0.327
512	0.328
512	0.328
513	0.329
513	0.329
514	0.33
514	0.331
515	0.331
515	0.332
515	0.332
516	0.333
516	0.333
517	0.334
517	0.334
518	0.335
518	0.335
519	0.335
519	0.335
520	0.336
520	0.336
520	0.336
521	0.336
521	0.337
522	0.337
522	0.337
523	0.338
523	0.338
524	0.338
524	0.338
524	0.338
525	0.338
525	0.338
526	0.338
526	0.338
527	0.338
527	0.338
528	0.337
528	0.337
529	0.336
529	0.336
529	0.336
530	0.335
530	0.335
531	0.335
531	0.335
532	0.334
532	0.334
533	0.333
533	0.333
533	0.333
534	0.332
534	0.332
535	0.331
535	0.331
536	0.33
536	0.329
537	0.329
537	0.328
538	0.327
538	0.327
538	0.326
539	0.325
539	0.325
540	0.324
540	0.323
541	0.323
541	0.322
542	0.321
542	0.321
542	0.32
543	0.319
543	0.318
544	0.318
544	0.317
545	0.317
545	0.316
546	0.315
546	0.314
547	0.313
547	0.312
547	0.312
548	0.311
548	0.31
549	0.309
549	0.308
550	0.307
550	0.307
551	0.305
551	0.305
551	0.304
552	0.304
552	0.303
553	0.302
553	0.302
554	0.301
554	0.3
555	0.299
555	0.298
556	0.297
556	0.296
556	0.295
557	0.295
557	0.294
558	0.293
558	0.293
559	0.292
559	0.292
560	0.291
560	0.291
560	0.29
561	0.29
561	0.289
562	0.288
562	0.286
563	0.285
563	0.284
564	0.283
564	0.282
564	0.281
565	0.281
565	0.28
566	0.279
566	0.278
567	0.278
567	0.277
568	0.276
568	0.276
568	0.275
569	0.274
569	0.274
570	0.272
570	0.271
571	0.27
571	0.27
572	0.269
572	0.269
573	0.268
573	0.268
573	0.267
574	0.267
574	0.266
575	0.266
575	0.266
576	0.266
576	0.265
577	0.263
577	0.263
577	0.262
578	0.261
578	0.26
579	0.26
579	0.26
580	0.259
580	0.258
581	0.257
581	0.256
581	0.256
582	0.256
582	0.256
583	0.256
583	0.255
584	0.254
584	0.253
585	0.253
585	0.252
585	0.252
586	0.251
586	0.251
587	0.25
587	0.249
588	0.248
588	0.248
589	0.247
589	0.247
590	0.246
590	0.246
590	0.246
591	0.245
591	0.244
592	0.244
592	0.243
593	0.242
593	0.242
594	0.241
594	0.24
594	0.24
595	0.239
595	0.238
596	0.238
596	0.238
597	0.239
597	0.239
598	0.239
598	0.239
598	0.239
599	0.238
599	0.238
600	0.237
600	0.237
601	0.236
601	0.236
602	0.235
602	0.234
602	0.234
603	0.233
603	0.233
604	0.233
604	0.233
605	0.233
605	0.233
606	0.232
606	0.231
606	0.231
607	0.23
607	0.23
608	0.229
608	0.228
609	0.228
609	0.227
610	0.227
610	0.226
610	0.226
611	0.226
611	0.226
612	0.225
612	0.226
613	0.226
613	0.226
614	0.225
614	0.225
614	0.225
615	0.225
615	0.225
616	0.224
616	0.224
617	0.224
617	0.224
618	0.224
618	0.223
618	0.223
619	0.223
619	0.223
620	0.224
620	0.223
621	0.223
621	0.222
622	0.222
622	0.221
622	0.221
623	0.22
623	0.22
624	0.22
624	0.219
625	0.219
625	0.219
626	0.218
626	0.218
626	0.218
627	0.218
627	0.218
628	0.218
628	0.217
629	0.217
629	0.217
630	0.216
630	0.216
630	0.216
631	0.216
631	0.215
632	0.215
632	0.215
633	0.215
633	0.214
634	0.215
634	0.215
634	0.215
635	0.215
635	0.214
636	0.214
636	0.214
637	0.214
637	0.214
638	0.213
638	0.213
638	0.213
639	0.212
639	0.212
640	0.212
640	0.211
641	0.211
641	0.211
642	0.211
642	0.211
642	0.211
643	0.211
643	0.212
644	0.212
644	0.212
645	0.212
645	0.212
646	0.212
646	0.213
646	0.213
647	0.213
647	0.212
648	0.212
648	0.211
649	0.211
649	0.211
650	0.211
650	0.211
650	0.21
651	0.21
651	0.21
652	0.21
652	0.21
653	0.21
653	0.212
653	0.217
654	0.169
654	0.135
655	0.136
655	0.137
656	0.137
656	0.138
657	0.138
657	0.138
657	0.139
658	0.137
658	0.127
659	0.161
659	0.207
660	0.212
660	0.211
661	0.211
661	0.21
661	0.209
662	0.209
662	0.208
663	0.207
663	0.207
664	0.207
664	0.207
665	0.207
665	0.207
665	0.207
666	0.208
666	0.208
667	0.208
667	0.208
668	0.209
668	0.209
669	0.208
669	0.208
669	0.209
670	0.209
670	0.209
671	0.208
671	0.208
672	0.208
672	0.207
672	0.207
673	0.207
673	0.207
674	0.207
674	0.206
675	0.206
675	0.207
676	0.207
676	0.207
676	0.208
677	0.208
677	0.208
678	0.208
678	0.207
679	0.207
679	0.207
680	0.207
680	0.207
680	0.206
681	0.206
681	0.207
682	0.207
682	0.207
683	0.207
683	0.208
684	0.208
684	0.208
684	0.208
685	0.208
685	0.208
686	0.208
686	0.208
687	0.208
687	0.208
687	0.208
688	0.208
688	0.208
689	0.209
689	0.209
690	0.209
690	0.209
691	0.209
691	0.209
691	0.209
692	0.209
692	0.209
693	0.21
693	0.21
694	0.21
694	0.21
695	0.21
695	0.211
695	0.211
696	0.211
696	0.211
697	0.211
697	0.211
698	0.211
698	0.211
698	0.211
699	0.211
699	0.21
700	0.21
700	0.21
701	0.21
701	0.209
702	0.209
702	0.209
702	0.209
703	0.208
703	0.208
704	0.208
704	0.208
705	0.208
705	0.207
705	0.207
706	0.207
706	0.207
707	0.207
707	0.207
708	0.207
708	0.207
709	0.207
709	0.207
709	0.207
710	0.207
710	0.208
711	0.208
711	0.208
712	0.208
712	0.208
713	0.209
713	0.209
713	0.209
714	0.209
714	0.209
715	0.209
715	0.209
716	0.208
716	0.208
716	0.208
717	0.207
717	0.206
718	0.206
718	0.205
719	0.205
719	0.205
720	0.205
720	0.205
720	0.205
721	0.206
721	0.206
722	0.207
722	0.207
723	0.208
723	0.208
723	0.208
724	0.208
724	0.208
725	0.207
725	0.207
726	0.206
726	0.206
727	0.205
727	0.205
727	0.205
728	0.205
728	0.204
729	0.205
729	0.205
730	0.205
730	0.206
730	0.207
731	0.207
731	0.208
732	0.209
732	0.209
733	0.209
733	0.21
734	0.21
734	0.21
734	0.21
735	0.21
735	0.21
736	0.209
736	0.209
737	0.209
737	0.208
737	0.208
738	0.207
738	0.206
739	0.206
739	0.206
740	0.206
740	0.206
741	0.206
741	0.206
741	0.207
742	0.207
742	0.207
743	0.208
743	0.209
744	0.209
744	0.209
744	0.209
745	0.209
745	0.209
746	0.209
746	0.209
747	0.209
747	0.209
748	0.21
748	0.21
748	0.21
749	0.211
749	0.211
750	0.211
750	0.212
751	0.212
751	0.212
751	0.212
752	0.212
752	0.211
753	0.211
753	0.21
754	0.209
754	0.209
754	0.208
755	0.208
755	0.208
756	0.207
756	0.206
757	0.205
757	0.205
758	0.205
758	0.205
758	0.206
759	0.206
759	0.206
760	0.206
760	0.206
761	0.207
761	0.208
761	0.208
762	0.208
762	0.209
763	0.209
763	0.209
764	0.209
764	0.21
764	0.21
765	0.21
765	0.209
766	0.209
766	0.209
767	0.209
767	0.208
768	0.208
768	0.208
768	0.208
769	0.208
769	0.208
770	0.208
770	0.209
771	0.209
771	0.209
771	0.21
772	0.21
772	0.211
773	0.211
773	0.212
774	0.212
774	0.213
775	0.213
775	0.214
775	0.214
776	0.214
776	0.214
777	0.214
777	0.214
778	0.213
778	0.213
778	0.212
779	0.212
779	0.211
780	0.21
780	0.21
781	0.21
781	0.209
781	0.209
782	0.209
782	0.209
783	0.209
783	0.21
784	0.21
784	0.21
784	0.211
785	0.211
785	0.211
786	0.211
786	0.212
787	0.212
787	0.212
788	0.211
788	0.211
788	0.21
789	0.21
789	0.209
790	0.209
790	0.209
791	0.209
791	0.209
791	0.209
792	0.21
792	0.21
793	0.21
793	0.211
794	0.211
794	0.211
794	0.211
795	0.212
795	0.212
796	0.212
796	0.212
797	0.212
797	0.212
797	0.212
798	0.212
798	0.212
799	0.212
799	0.212
800	0.212
800	0.211
801	0.211
801	0.21
801	0.21
802	0.21
802	0.21
803	0.21
803	0.21
804	0.21
804	0.211
804	0.211
805	0.211
805	0.212
806	0.212
806	0.212
807	0.212
807	0.213
807	0.213
808	0.213
808	0.213
809	0.213
809	0.213
810	0.213
810	0.213
810	0.213
811	0.213
811	0.214
812	0.214
812	0.213
813	0.214
813	0.214
813	0.214
814	0.214
814	0.214
815	0.214
815	0.214
816	0.214
816	0.213
817	0.212
817	0.212
817	0.211
818	0.211
818	0.21
819	0.21
819	0.209
820	0.208
820	0.208
820	0.208
821	0.208
821	0.209
822	0.209
822	0.209
823	0.209
823	0.21
823	0.211
824	0.212
824	0.213
825	0.214
825	0.214
826	0.215
826	0.215
826	0.215
827	0.216
827	0.215
828	0.215
828	0.215
829	0.215
829	0.214
829	0.214
830	0.214
830	0.214
831	0.214
831	0.214
832	0.214
832	0.214
832	0.214
833	0.214
833	0.214
834	0.214
834	0.214
835	0.213
835	0.213
835	0.212
836	0.212
836	0.212
837	0.211
837	0.21
838	0.21
838	0.209
839	0.208
839	0.207
839	0.207
840	0.206
840	0.205
841	0.204
841	0.203
842	0.203
842	0.202
842	0.202
843	0.202
843	0.202
844	0.202
844	0.202
845	0.202
845	0.202
845	0.203
846	0.203
846	0.203
847	0.203
847	0.204
848	0.204
848	0.204
848	0.204
849	0.204
849	0.204
850	0.204
850	0.203
851	0.203
851	0.202
851	0.201
852	0.201
852	0.2
853	0.199
853	0.199
854	0.198
854	0.198
854	0.199
855	0.199
855	0.2
856	0.2
856	0.201
857	0.202
857	0.203
857	0.203
858	0.203
858	0.203
859	0.202
859	0.201
860	0.2
860	0.2
860	0.199
861	0.198
861	0.197
862	0.196
862	0.195
863	0.194
863	0.194
863	0.194
864	0.193
864	0.193
865	0.193
865	0.193
866	0.193
866	0.193
866	0.192
867	0.192
867	0.192
868	0.191
868	0.191
869	0.19
869	0.189
869	0.188
870	0.188
870	0.187
871	0.187
871	0.186
872	0.186
872	0.186
872	0.186
873	0.186
873	0.186
874	0.186
874	0.186
875	0.186
875	0.186
875	0.185
876	0.185
876	0.184
877	0.184
877	0.184
878	0.184
878	0.184
878	0.185
879	0.186
879	0.186
880	0.187
880	0.187
881	0.188
881	0.188
881	0.188
882	0.188
882	0.187
883	0.187
883	0.186
884	0.185
884	0.184
884	0.184
885	0.183
885	0.182
886	0.181
886	0.181
887	0.18
887	0.179
887	0.178
888	0.177
888	0.176
889	0.175
889	0.175
890	0.174
890	0.174
890	0.173
891	0.172
891	0.172
892	0.171
892	0.171
893	0.171
893	0.171
893	0.171
894	0.17
894	0.17
895	0.17
895	0.169
895	0.169
896	0.169
896	0.169
897	0.169
897	0.168
898	0.168
898	0.168
898	0.168
899	0.168
899	0.167
900	0.167
900	0.167
901	0.167
901	0.167
901	0.167
902	0.167
902	0.167
903	0.167
903	0.167
904	0.167
904	0.166
904	0.166
905	0.166
905	0.166
906	0.166
906	0.166
907	0.167
907	0.167
907	0.168
908	0.168
908	0.168
909	0.168
909	0.168
910	0.168
910	0.167
910	0.167
911	0.166
911	0.165
912	0.164
912	0.164
913	0.163
913	0.162
913	0.161
914	0.16
914	0.16
915	0.159
915	0.158
916	0.158
916	0.157
916	0.157
917	0.156
917	0.155
918	0.155
918	0.154
918	0.153
919	0.152
919	0.151
920	0.151
920	0.15
921	0.149
921	0.148
921	0.148
922	0.147
922	0.147
923	0.147
923	0.147
924	0.147
924	0.147
924	0.147
925	0.147
925	0.148
926	0.148
926	0.148
927	0.149
927	0.149
927	0.149
928	0.149
928	0.15
929	0.15
929	0.15
930	0.151
930	0.151
930	0.151
931	0.151
931	0.151
932	0.151
932	0.151
933	0.152
933	0.152
933	0.151
934	0.151
934	0.151
935	0.151
935	0.151
935	0.151
936	0.15
936	0.15
937	0.149
937	0.148
938	0.147
938	0.147
938	0.146
939	0.145
939	0.144
940	0.143
940	0.142
941	0.141
941	0.141
941	0.141
942	0.141
942	0.14
943	0.14
943	0.139
944	0.139
944	0.139
944	0.138
945	0.138
945	0.138
946	0.137
946	0.137
946	0.137
947	0.137
947	0.137
948	0.137
948	0.137
949	0.137
949	0.136
949	0.136
950	0.135
950	0.135
951	0.134
951	0.133
952	0.131
952	0.13
952	0.129
953	0.128
953	0.127
954	0.127
954	0.126
955	0.126
955	0.125
955	0.125
956	0.125
956	0.126
957	0.126
957	0.126
957	0.127
958	0.127
958	0.128
959	0.128
959	0.129
960	0.129
960	0.129
960	0.129
961	0.129
961	0.129
962	0.129
962	0.129
963	0.129
963	0.129
963	0.129
964	0.129
964	0.13
965	0.13
965	0.13
966	0.131
966	0.131
966	0.132
967	0.132
967	0.132
968	0.132
968	0.132
968	0.132
969	0.131
969	0.131
970	0.13
970	0.129
971	0.129
971	0.128
971	0.128
972	0.127
972	0.127
973	0.126
973	0.126
974	0.126
974	0.126
974	0.126
975	0.126
975	0.126
976	0.126
976	0.126
976	0.126
977	0.125
977	0.124
978	0.124
978	0.123
979	0.122
979	0.122
979	0.121
980	0.12
980	0.119
981	0.118
981	0.118
982	0.117
982	0.117
982	0.117
983	0.116
983	0.116
984	0.115
984	0.115
984	0.114
985	0.114
985	0.113
986	0.113
986	0.112
987	0.112
987	0.111
987	0.111
988	0.111
988	0.11
989	0.11
989	0.11
990	0.11
990	0.11
990	0.11
991	0.11
991	0.109
992	0.109
992	0.109
992	0.109
993	0.108
993	0.108
994	0.107
994	0.107
995	0.107
995	0.106
995	0.106
996	0.106
996	0.106
997	0.106
997	0.106
997	0.106
998	0.106
998	0.106
999	0.107
999	0.107
1000	0.107
1000	0.107
1000	0.107
1001	0.107
1001	0.107
1002	0.107
1002	0.107
1003	0.107
1003	0.106
1003	0.106
1004	0.105
1004	0.105
1005	0.104
1005	0.104
1005	0.104
1006	0.103
1006	0.103
1007	0.103
1007	0.103
1008	0.102
1008	0.102
1008	0.102
1009	0.102
1009	0.103
1010	0.103
1010	0.103
1010	0.103
1011	0.103
1011	0.103
1012	0.104
1012	0.104
1013	0.104
1013	0.104
1013	0.103
1014	0.103
1014	0.103
1015	0.102
1015	0.102
1016	0.101
1016	0.101
1016	0.1
1017	0.099
1017	0.099
1018	0.098
1018	0.098
1018	0.098
1019	0.097
1019	0.097
1020	0.097
1020	0.097
1021	0.097
1021	0.098
1021	0.098
1022	0.098
1022	0.098
1023	0.098
1023	0.098
1023	0.099
1024	0.099
1024	0.099
1025	0.099
1025	0.099
1026	0.098
1026	0.098
1026	0.098
1027	0.098
1027	0.097
1028	0.097
1028	0.097
1028	0.097
1029	0.097
1029	0.097
1030	0.097
1030	0.097
1031	0.097
1031	0.097
1031	0.097
1032	0.097
1032	0.097
1033	0.097
1033	0.097
1033	0.097
1034	0.097
1034	0.097
1035	0.097
1035	0.097
1036	0.096
1036	0.096
1036	0.096
1037	0.096
1037	0.096
1038	0.096
1038	0.096
1039	0.095
1039	0.095
1039	0.095
1040	0.096
1040	0.096
1041	0.096
1041	0.096
1041	0.096
1042	0.096
1042	0.096
1043	0.096
1043	0.096
1044	0.096
1044	0.097
1044	0.097
1045	0.097
1045	0.097
1046	0.097
1046	0.098
1046	0.098
1047	0.099
1047	0.099
1048	0.099
1048	0.1
1049	0.101
1049	0.101
1049	0.101
1050	0.101
1050	0.101
1051	0.101
1051	0.101
1051	0.101
1052	0.1
1052	0.1
1053	0.099
1053	0.098
1053	0.098
1054	0.097
1054	0.097
1055	0.096
1055	0.096
1056	0.095
1056	0.095
1056	0.094
1057	0.093
1057	0.092
1058	0.092
1058	0.091
1058	0.09
1059	0.089
1059	0.089
1060	0.088
1060	0.088
1061	0.087
1061	0.087
1061	0.087
1062	0.086
1062	0.086
1063	0.086
1063	0.086
1063	0.086
1064	0.085
1064	0.085
1065	0.085
1065	0.084
1066	0.084
1066	0.083
1066	0.083
1067	0.083
1067	0.082
1068	0.082
1068	0.082
1068	0.081
1069	0.081
1069	0.08
1070	0.08
1070	0.079
1071	0.079
1071	0.078
1071	0.078
1072	0.077
1072	0.076
1073	0.075
1073	0.075
1073	0.074
1074	0.074
1074	0.074
1075	0.073
1075	0.074
1076	0.074
1076	0.074
1076	0.074
1077	0.074
1077	0.074
1078	0.074
1078	0.075
1078	0.074
1079	0.074
1079	0.075
1080	0.074
1080	0.075
1080	0.074
1081	0.074
1081	0.075
1082	0.075
1082	0.076
1083	0.076
1083	0.076
1083	0.076
1084	0.075
1084	0.076
1085	0.076
1085	0.076
1085	0.076
1086	0.076
1086	0.075
1087	0.075
1087	0.075
1088	0.074
1088	0.074
1088	0.074
1089	0.074
1089	0.074
1090	0.073
1090	0.072
1090	0.071
1091	0.071
1091	0.071
1092	0.072
1092	0.072
1092	0.072
1093	0.071
1093	0.072
1094	0.072
1094	0.072
1095	0.072
1095	0.071
1095	0.071
1096	0.07
1096	0.069
1097	0.068
1097	0.068
1097	0.068
1098	0.068
1098	0.067
1099	0.066
1099	0.065
1100	0.065
1100	0.063
1100	0.063
1101	0.062
1101	0.061
1102	0.06
1102	0.058
1102	0.058
1103	0.057
1103	0.058
1104	0.057
1104	0.057
1104	0.057
1105	0.056
1105	0.054
1106	0.053
1106	0.053
1107	0.051
1107	0.051
1107	0.048
1108	0.047
1108	0.046
1109	0.045
1109	0.044
1109	0.043
1110	0.044
1110	0.042
1111	0.038
1111	0.039
