Data from reversibility-20sec_Absorbance__1654__000000000001654.txt Node

Date: Tue Dec 05 21:24:25 CET 2023
User: Marek
Spectrometer: MAYP115816
Trigger mode: 0
Integration Time (sec): 2.000000E-1
Scans to average: 10
Electric dark correction enabled: true
Nonlinearity correction enabled: true
Boxcar width: 5
XAxis mode: Wavelengths
Number of Pixels in Spectrum: 2068
>>>>>Begin Spectral Data<<<<<
199	-0.218
199	-0.178
200	-0.106
200	-0.047
201	-0.013
201	0.008
202	0.02
202	0.029
203	0.036
203	0.037
204	0.052
204	0.068
205	0.081
205	0.086
205	0.082
206	0.08
206	0.077
207	0.081
207	0.078
208	0.077
208	0.078
209	0.079
209	0.078
210	0.078
210	0.078
211	0.08
211	0.081
212	0.079
212	0.08
213	0.085
213	0.085
213	0.084
214	0.087
214	0.087
215	0.086
215	0.086
216	0.087
216	0.086
217	0.09
217	0.091
218	0.089
218	0.092
219	0.096
219	0.098
220	0.102
220	0.101
221	0.104
221	0.104
221	0.11
222	0.113
222	0.115
223	0.121
223	0.123
224	0.127
224	0.133
225	0.14
225	0.154
226	0.162
226	0.172
227	0.185
227	0.197
228	0.215
228	0.229
229	0.247
229	0.271
229	0.294
230	0.321
230	0.349
231	0.381
231	0.423
232	0.455
232	0.5
233	0.545
233	0.595
234	0.645
234	0.699
235	0.752
235	0.802
236	0.855
236	0.91
236	0.961
237	1.015
237	1.065
238	1.114
238	1.163
239	1.216
239	1.261
240	1.305
240	1.348
241	1.388
241	1.425
242	1.462
242	1.502
243	1.536
243	1.564
243	1.594
244	1.62
244	1.646
245	1.666
245	1.69
246	1.71
246	1.73
247	1.746
247	1.761
248	1.778
248	1.797
249	1.81
249	1.819
250	1.829
250	1.843
250	1.851
251	1.86
251	1.867
252	1.874
252	1.878
253	1.883
253	1.882
254	1.883
254	1.887
255	1.888
255	1.888
256	1.887
256	1.887
257	1.889
257	1.889
258	1.891
258	1.892
258	1.894
259	1.896
259	1.895
260	1.895
260	1.898
261	1.902
261	1.907
262	1.912
262	1.916
263	1.923
263	1.925
264	1.927
264	1.93
265	1.934
265	1.938
265	1.94
266	1.941
266	1.943
267	1.941
267	1.943
268	1.942
268	1.944
269	1.948
269	1.949
270	1.95
270	1.951
271	1.95
271	1.952
272	1.948
272	1.947
272	1.942
273	1.936
273	1.929
274	1.921
274	1.914
275	1.907
275	1.9
276	1.894
276	1.886
277	1.879
277	1.868
278	1.858
278	1.846
278	1.831
279	1.814
279	1.79
280	1.761
280	1.726
281	1.685
281	1.639
282	1.592
282	1.544
283	1.498
283	1.453
284	1.41
284	1.369
285	1.332
285	1.297
285	1.267
286	1.24
286	1.217
287	1.196
287	1.179
288	1.164
288	1.151
289	1.141
289	1.131
290	1.123
290	1.116
291	1.111
291	1.105
292	1.101
292	1.097
292	1.093
293	1.089
293	1.086
294	1.082
294	1.08
295	1.077
295	1.074
296	1.072
296	1.069
297	1.066
297	1.064
298	1.061
298	1.058
298	1.056
299	1.053
299	1.05
300	1.048
300	1.045
301	1.042
301	1.04
302	1.037
302	1.035
303	1.033
303	1.03
304	1.028
304	1.026
305	1.024
305	1.022
305	1.02
306	1.017
306	1.015
307	1.013
307	1.01
308	1.007
308	1.005
309	1.002
309	0.999
310	0.996
310	0.993
311	0.99
311	0.987
311	0.984
312	0.98
312	0.976
313	0.973
313	0.969
314	0.965
314	0.961
315	0.957
315	0.952
316	0.948
316	0.943
317	0.939
317	0.934
318	0.929
318	0.924
318	0.918
319	0.913
319	0.907
320	0.902
320	0.896
321	0.89
321	0.884
322	0.878
322	0.872
323	0.865
323	0.858
324	0.852
324	0.845
324	0.838
325	0.831
325	0.824
326	0.817
326	0.81
327	0.803
327	0.796
328	0.789
328	0.782
329	0.775
329	0.768
330	0.76
330	0.753
330	0.746
331	0.739
331	0.731
332	0.724
332	0.717
333	0.71
333	0.702
334	0.695
334	0.688
335	0.681
335	0.674
336	0.667
336	0.661
336	0.654
337	0.647
337	0.641
338	0.634
338	0.628
339	0.622
339	0.616
340	0.61
340	0.604
341	0.598
341	0.592
342	0.587
342	0.581
342	0.575
343	0.57
343	0.565
344	0.56
344	0.555
345	0.55
345	0.545
346	0.541
346	0.536
347	0.532
347	0.527
348	0.523
348	0.519
348	0.515
349	0.511
349	0.507
350	0.503
350	0.499
351	0.496
351	0.492
352	0.489
352	0.486
353	0.483
353	0.48
354	0.477
354	0.474
354	0.471
355	0.468
355	0.465
356	0.462
356	0.459
357	0.456
357	0.454
358	0.451
358	0.448
359	0.446
359	0.443
360	0.441
360	0.439
360	0.437
361	0.435
361	0.432
362	0.43
362	0.429
363	0.427
363	0.425
364	0.422
364	0.42
365	0.418
365	0.417
366	0.415
366	0.413
366	0.411
367	0.409
367	0.407
368	0.406
368	0.404
369	0.402
369	0.401
370	0.399
370	0.398
371	0.396
371	0.395
372	0.393
372	0.392
372	0.39
373	0.389
373	0.388
374	0.387
374	0.385
375	0.384
375	0.383
376	0.382
376	0.382
377	0.38
377	0.379
378	0.378
378	0.377
378	0.376
379	0.375
379	0.374
380	0.373
380	0.372
381	0.371
381	0.37
382	0.37
382	0.369
383	0.368
383	0.367
383	0.367
384	0.366
384	0.365
385	0.364
385	0.364
386	0.363
386	0.363
387	0.362
387	0.361
388	0.36
388	0.36
389	0.359
389	0.359
389	0.358
390	0.358
390	0.357
391	0.356
391	0.356
392	0.355
392	0.355
393	0.354
393	0.354
394	0.353
394	0.353
394	0.352
395	0.351
395	0.351
396	0.35
396	0.35
397	0.349
397	0.348
398	0.348
398	0.347
399	0.347
399	0.347
400	0.346
400	0.346
400	0.346
401	0.345
401	0.345
402	0.345
402	0.344
403	0.344
403	0.344
404	0.343
404	0.343
405	0.343
405	0.342
405	0.342
406	0.342
406	0.341
407	0.341
407	0.34
408	0.34
408	0.34
409	0.339
409	0.339
410	0.338
410	0.338
411	0.337
411	0.337
411	0.337
412	0.336
412	0.335
413	0.335
413	0.335
414	0.334
414	0.334
415	0.333
415	0.333
416	0.332
416	0.332
416	0.331
417	0.331
417	0.331
418	0.331
418	0.33
419	0.33
419	0.329
420	0.329
420	0.328
421	0.328
421	0.328
421	0.327
422	0.327
422	0.327
423	0.326
423	0.326
424	0.325
424	0.325
425	0.325
425	0.324
426	0.324
426	0.323
427	0.323
427	0.323
427	0.322
428	0.322
428	0.322
429	0.322
429	0.321
430	0.321
430	0.321
431	0.321
431	0.32
432	0.32
432	0.32
432	0.319
433	0.319
433	0.319
434	0.319
434	0.319
435	0.318
435	0.318
436	0.318
436	0.318
437	0.317
437	0.317
437	0.317
438	0.317
438	0.316
439	0.316
439	0.316
440	0.316
440	0.316
441	0.315
441	0.315
442	0.315
442	0.315
442	0.314
443	0.314
443	0.314
444	0.313
444	0.313
445	0.313
445	0.313
446	0.313
446	0.312
447	0.312
447	0.312
447	0.312
448	0.312
448	0.312
449	0.311
449	0.311
450	0.311
450	0.311
451	0.311
451	0.311
452	0.311
452	0.311
452	0.311
453	0.31
453	0.31
454	0.31
454	0.31
455	0.309
455	0.309
456	0.309
456	0.309
457	0.309
457	0.308
458	0.308
458	0.308
458	0.308
459	0.308
459	0.308
460	0.308
460	0.308
461	0.308
461	0.307
462	0.307
462	0.307
463	0.307
463	0.307
463	0.307
464	0.307
464	0.307
465	0.306
465	0.306
466	0.306
466	0.306
467	0.306
467	0.306
467	0.306
468	0.305
468	0.305
469	0.305
469	0.306
470	0.306
470	0.306
471	0.306
471	0.306
472	0.306
472	0.306
472	0.307
473	0.307
473	0.307
474	0.307
474	0.307
475	0.307
475	0.307
476	0.308
476	0.308
477	0.308
477	0.309
477	0.309
478	0.309
478	0.31
479	0.31
479	0.31
480	0.311
480	0.311
481	0.311
481	0.311
482	0.312
482	0.312
482	0.312
483	0.313
483	0.313
484	0.314
484	0.314
485	0.314
485	0.314
486	0.315
486	0.315
487	0.316
487	0.317
487	0.317
488	0.318
488	0.318
489	0.319
489	0.32
490	0.321
490	0.322
491	0.323
491	0.324
492	0.324
492	0.325
492	0.326
493	0.326
493	0.327
494	0.328
494	0.329
495	0.33
495	0.331
496	0.331
496	0.333
496	0.333
497	0.334
497	0.335
498	0.336
498	0.337
499	0.338
499	0.338
500	0.339
500	0.341
501	0.341
501	0.342
501	0.343
502	0.344
502	0.344
503	0.345
503	0.346
504	0.347
504	0.348
505	0.348
505	0.349
506	0.35
506	0.351
506	0.352
507	0.353
507	0.354
508	0.354
508	0.355
509	0.356
509	0.357
510	0.358
510	0.358
511	0.359
511	0.36
511	0.361
512	0.361
512	0.362
513	0.363
513	0.363
514	0.364
514	0.365
515	0.365
515	0.366
515	0.366
516	0.367
516	0.368
517	0.368
517	0.369
518	0.369
518	0.369
519	0.369
519	0.369
520	0.369
520	0.369
520	0.37
521	0.37
521	0.37
522	0.369
522	0.369
523	0.37
523	0.37
524	0.37
524	0.371
524	0.371
525	0.371
525	0.371
526	0.37
526	0.371
527	0.37
527	0.37
528	0.37
528	0.37
529	0.369
529	0.369
529	0.368
530	0.367
530	0.366
531	0.366
531	0.365
532	0.364
532	0.363
533	0.363
533	0.362
533	0.362
534	0.361
534	0.36
535	0.36
535	0.359
536	0.358
536	0.358
537	0.357
537	0.356
538	0.355
538	0.354
538	0.353
539	0.352
539	0.351
540	0.35
540	0.349
541	0.348
541	0.347
542	0.346
542	0.345
542	0.344
543	0.343
543	0.342
544	0.34
544	0.339
545	0.338
545	0.338
546	0.337
546	0.336
547	0.334
547	0.333
547	0.332
548	0.331
548	0.33
549	0.329
549	0.327
550	0.326
550	0.325
551	0.324
551	0.322
551	0.321
552	0.32
552	0.319
553	0.318
553	0.317
554	0.316
554	0.315
555	0.313
555	0.312
556	0.31
556	0.309
556	0.308
557	0.307
557	0.306
558	0.305
558	0.304
559	0.303
559	0.302
560	0.301
560	0.301
560	0.3
561	0.299
561	0.298
562	0.297
562	0.296
563	0.294
563	0.293
564	0.291
564	0.29
564	0.29
565	0.289
565	0.288
566	0.287
566	0.286
567	0.285
567	0.285
568	0.284
568	0.283
568	0.283
569	0.282
569	0.281
570	0.28
570	0.278
571	0.278
571	0.277
572	0.276
572	0.275
573	0.274
573	0.273
573	0.271
574	0.27
574	0.269
575	0.268
575	0.268
576	0.267
576	0.266
577	0.265
577	0.264
577	0.263
578	0.263
578	0.262
579	0.262
579	0.262
580	0.261
580	0.259
581	0.258
581	0.257
581	0.257
582	0.257
582	0.256
583	0.256
583	0.256
584	0.255
584	0.253
585	0.253
585	0.253
585	0.252
586	0.252
586	0.251
587	0.25
587	0.249
588	0.248
588	0.247
589	0.247
589	0.246
590	0.246
590	0.245
590	0.245
591	0.245
591	0.244
592	0.243
592	0.242
593	0.242
593	0.241
594	0.241
594	0.24
594	0.239
595	0.238
595	0.237
596	0.236
596	0.236
597	0.237
597	0.236
598	0.236
598	0.235
598	0.235
599	0.234
599	0.233
600	0.233
600	0.232
601	0.231
601	0.231
602	0.23
602	0.229
602	0.228
603	0.228
603	0.228
604	0.228
604	0.228
605	0.228
605	0.228
606	0.227
606	0.226
606	0.226
607	0.225
607	0.225
608	0.224
608	0.223
609	0.223
609	0.222
610	0.222
610	0.221
610	0.221
611	0.221
611	0.221
612	0.221
612	0.221
613	0.221
613	0.221
614	0.22
614	0.22
614	0.22
615	0.219
615	0.219
616	0.218
616	0.218
617	0.217
617	0.216
618	0.216
618	0.215
618	0.215
619	0.215
619	0.215
620	0.215
620	0.215
621	0.215
621	0.214
622	0.214
622	0.213
622	0.213
623	0.212
623	0.212
624	0.211
624	0.21
625	0.21
625	0.21
626	0.21
626	0.209
626	0.209
627	0.209
627	0.209
628	0.209
628	0.209
629	0.208
629	0.208
630	0.207
630	0.207
630	0.207
631	0.206
631	0.206
632	0.205
632	0.205
633	0.205
633	0.205
634	0.205
634	0.206
634	0.206
635	0.205
635	0.205
636	0.205
636	0.205
637	0.205
637	0.204
638	0.204
638	0.204
638	0.204
639	0.203
639	0.203
640	0.203
640	0.203
641	0.203
641	0.203
642	0.202
642	0.202
642	0.202
643	0.202
643	0.202
644	0.202
644	0.202
645	0.202
645	0.201
646	0.201
646	0.201
646	0.201
647	0.201
647	0.2
648	0.2
648	0.199
649	0.199
649	0.198
650	0.198
650	0.198
650	0.198
651	0.198
651	0.198
652	0.197
652	0.197
653	0.198
653	0.2
653	0.207
654	0.163
654	0.13
655	0.13
655	0.131
656	0.131
656	0.131
657	0.131
657	0.132
657	0.132
658	0.13
658	0.118
659	0.149
659	0.193
660	0.197
660	0.197
661	0.197
661	0.196
661	0.196
662	0.196
662	0.195
663	0.195
663	0.195
664	0.195
664	0.194
665	0.194
665	0.194
665	0.194
666	0.194
666	0.194
667	0.194
667	0.194
668	0.194
668	0.194
669	0.194
669	0.194
669	0.195
670	0.195
670	0.195
671	0.194
671	0.194
672	0.194
672	0.193
672	0.193
673	0.192
673	0.192
674	0.192
674	0.192
675	0.191
675	0.191
676	0.192
676	0.192
676	0.192
677	0.192
677	0.192
678	0.192
678	0.192
679	0.192
679	0.192
680	0.192
680	0.191
680	0.191
681	0.191
681	0.192
682	0.192
682	0.193
683	0.194
683	0.195
684	0.196
684	0.196
684	0.196
685	0.197
685	0.197
686	0.197
686	0.197
687	0.196
687	0.196
687	0.195
688	0.195
688	0.194
689	0.194
689	0.195
690	0.194
690	0.194
691	0.194
691	0.194
691	0.194
692	0.194
692	0.194
693	0.195
693	0.195
694	0.195
694	0.195
695	0.196
695	0.197
695	0.197
696	0.197
696	0.196
697	0.196
697	0.196
698	0.196
698	0.196
698	0.196
699	0.196
699	0.195
700	0.195
700	0.195
701	0.196
701	0.196
702	0.196
702	0.195
702	0.195
703	0.195
703	0.195
704	0.194
704	0.194
705	0.194
705	0.194
705	0.194
706	0.193
706	0.194
707	0.194
707	0.194
708	0.194
708	0.194
709	0.194
709	0.194
709	0.193
710	0.193
710	0.193
711	0.194
711	0.194
712	0.194
712	0.194
713	0.194
713	0.194
713	0.194
714	0.195
714	0.195
715	0.195
715	0.194
716	0.194
716	0.194
716	0.193
717	0.192
717	0.192
718	0.191
718	0.191
719	0.191
719	0.191
720	0.191
720	0.191
720	0.192
721	0.192
721	0.193
722	0.194
722	0.194
723	0.194
723	0.195
723	0.195
724	0.195
724	0.195
725	0.194
725	0.194
726	0.193
726	0.193
727	0.192
727	0.192
727	0.192
728	0.192
728	0.192
729	0.192
729	0.192
730	0.192
730	0.193
730	0.193
731	0.194
731	0.194
732	0.195
732	0.195
733	0.195
733	0.195
734	0.195
734	0.195
734	0.195
735	0.195
735	0.195
736	0.195
736	0.195
737	0.195
737	0.195
737	0.195
738	0.195
738	0.194
739	0.193
739	0.193
740	0.192
740	0.192
741	0.191
741	0.191
741	0.19
742	0.19
742	0.19
743	0.191
743	0.191
744	0.192
744	0.193
744	0.194
745	0.194
745	0.195
746	0.196
746	0.196
747	0.197
747	0.197
748	0.198
748	0.198
748	0.198
749	0.198
749	0.198
750	0.198
750	0.198
751	0.197
751	0.197
751	0.196
752	0.195
752	0.194
753	0.194
753	0.193
754	0.193
754	0.193
754	0.193
755	0.193
755	0.194
756	0.193
756	0.192
757	0.192
757	0.192
758	0.192
758	0.192
758	0.192
759	0.192
759	0.191
760	0.191
760	0.191
761	0.192
761	0.193
761	0.194
762	0.195
762	0.196
763	0.196
763	0.196
764	0.196
764	0.196
764	0.196
765	0.196
765	0.195
766	0.195
766	0.194
767	0.194
767	0.193
768	0.192
768	0.191
768	0.192
769	0.192
769	0.192
770	0.192
770	0.193
771	0.193
771	0.193
771	0.193
772	0.194
772	0.195
773	0.195
773	0.195
774	0.195
774	0.195
775	0.195
775	0.195
775	0.195
776	0.195
776	0.195
777	0.195
777	0.195
778	0.194
778	0.193
778	0.193
779	0.193
779	0.193
780	0.192
780	0.192
781	0.192
781	0.192
781	0.191
782	0.191
782	0.192
783	0.192
783	0.192
784	0.192
784	0.193
784	0.193
785	0.193
785	0.194
786	0.194
786	0.195
787	0.195
787	0.195
788	0.195
788	0.195
788	0.195
789	0.194
789	0.195
790	0.194
790	0.194
791	0.193
791	0.193
791	0.192
792	0.193
792	0.193
793	0.192
793	0.192
794	0.192
794	0.192
794	0.191
795	0.192
795	0.192
796	0.192
796	0.192
797	0.192
797	0.191
797	0.191
798	0.191
798	0.19
799	0.19
799	0.189
800	0.189
800	0.188
801	0.188
801	0.188
801	0.188
802	0.188
802	0.189
803	0.189
803	0.19
804	0.191
804	0.192
804	0.192
805	0.192
805	0.192
806	0.192
806	0.192
807	0.191
807	0.19
807	0.19
808	0.189
808	0.189
809	0.188
809	0.188
810	0.187
810	0.187
810	0.187
811	0.187
811	0.187
812	0.188
812	0.188
813	0.188
813	0.188
813	0.189
814	0.189
814	0.19
815	0.19
815	0.19
816	0.19
816	0.19
817	0.189
817	0.189
817	0.189
818	0.188
818	0.188
819	0.187
819	0.187
820	0.185
820	0.185
820	0.184
821	0.184
821	0.184
822	0.184
822	0.184
823	0.183
823	0.183
823	0.183
824	0.183
824	0.184
825	0.184
825	0.184
826	0.184
826	0.183
826	0.182
827	0.182
827	0.182
828	0.182
828	0.181
829	0.181
829	0.181
829	0.18
830	0.18
830	0.181
831	0.181
831	0.182
832	0.181
832	0.182
832	0.182
833	0.182
833	0.181
834	0.181
834	0.181
835	0.18
835	0.18
835	0.18
836	0.179
836	0.179
837	0.178
837	0.178
838	0.177
838	0.176
839	0.175
839	0.174
839	0.172
840	0.171
840	0.17
841	0.168
841	0.167
842	0.167
842	0.166
842	0.165
843	0.165
843	0.165
844	0.165
844	0.165
845	0.165
845	0.165
845	0.165
846	0.165
846	0.165
847	0.165
847	0.165
848	0.165
848	0.166
848	0.166
849	0.166
849	0.167
850	0.167
850	0.167
851	0.167
851	0.167
851	0.167
852	0.166
852	0.166
853	0.165
853	0.164
854	0.164
854	0.163
854	0.163
855	0.163
855	0.163
856	0.163
856	0.162
857	0.162
857	0.162
857	0.162
858	0.162
858	0.161
859	0.16
859	0.158
860	0.157
860	0.156
860	0.154
861	0.153
861	0.152
862	0.151
862	0.15
863	0.149
863	0.149
863	0.149
864	0.149
864	0.15
865	0.15
865	0.15
866	0.15
866	0.149
866	0.149
867	0.149
867	0.149
868	0.149
868	0.148
869	0.148
869	0.148
869	0.148
870	0.148
870	0.149
871	0.149
871	0.15
872	0.151
872	0.151
872	0.151
873	0.152
873	0.152
874	0.151
874	0.151
875	0.151
875	0.151
875	0.15
876	0.15
876	0.149
877	0.149
877	0.149
878	0.149
878	0.149
878	0.149
879	0.149
879	0.149
880	0.149
880	0.149
881	0.149
881	0.148
881	0.147
882	0.146
882	0.145
883	0.144
883	0.143
884	0.142
884	0.141
884	0.14
885	0.139
885	0.139
886	0.138
886	0.138
887	0.137
887	0.137
887	0.136
888	0.135
888	0.135
889	0.134
889	0.134
890	0.134
890	0.135
890	0.135
891	0.135
891	0.136
892	0.136
892	0.137
893	0.138
893	0.139
893	0.14
894	0.14
894	0.141
895	0.141
895	0.141
895	0.141
896	0.14
896	0.14
897	0.139
897	0.138
898	0.137
898	0.136
898	0.135
899	0.134
899	0.133
900	0.132
900	0.132
901	0.131
901	0.131
901	0.13
902	0.13
902	0.13
903	0.13
903	0.13
904	0.13
904	0.13
904	0.13
905	0.129
905	0.129
906	0.129
906	0.129
907	0.129
907	0.129
907	0.129
908	0.129
908	0.129
909	0.129
909	0.129
910	0.129
910	0.129
910	0.129
911	0.129
911	0.128
912	0.128
912	0.128
913	0.128
913	0.128
913	0.127
914	0.127
914	0.126
915	0.126
915	0.125
916	0.124
916	0.124
916	0.123
917	0.122
917	0.121
918	0.12
918	0.119
918	0.118
919	0.118
919	0.117
920	0.117
920	0.117
921	0.117
921	0.116
921	0.116
922	0.117
922	0.117
923	0.117
923	0.118
924	0.118
924	0.118
924	0.118
925	0.118
925	0.118
926	0.118
926	0.118
927	0.117
927	0.117
927	0.116
928	0.116
928	0.115
929	0.115
929	0.114
930	0.114
930	0.114
930	0.113
931	0.113
931	0.112
932	0.112
932	0.112
933	0.111
933	0.111
933	0.11
934	0.109
934	0.109
935	0.109
935	0.108
935	0.108
936	0.107
936	0.107
937	0.107
937	0.107
938	0.107
938	0.106
938	0.106
939	0.106
939	0.106
940	0.106
940	0.106
941	0.106
941	0.106
941	0.106
942	0.106
942	0.106
943	0.107
943	0.107
944	0.107
944	0.107
944	0.107
945	0.107
945	0.107
946	0.108
946	0.108
946	0.108
947	0.108
947	0.108
948	0.108
948	0.108
949	0.108
949	0.108
949	0.108
950	0.108
950	0.108
951	0.108
951	0.108
952	0.108
952	0.107
952	0.107
953	0.107
953	0.107
954	0.106
954	0.106
955	0.105
955	0.105
955	0.104
956	0.104
956	0.104
957	0.104
957	0.104
957	0.104
958	0.104
958	0.104
959	0.104
959	0.105
960	0.105
960	0.105
960	0.105
961	0.104
961	0.104
962	0.104
962	0.103
963	0.103
963	0.102
963	0.102
964	0.101
964	0.101
965	0.101
965	0.1
966	0.1
966	0.101
966	0.101
967	0.101
967	0.101
968	0.101
968	0.101
968	0.101
969	0.1
969	0.1
970	0.1
970	0.099
971	0.099
971	0.098
971	0.098
972	0.098
972	0.098
973	0.097
973	0.097
974	0.097
974	0.097
974	0.097
975	0.097
975	0.097
976	0.097
976	0.097
976	0.097
977	0.097
977	0.097
978	0.097
978	0.097
979	0.097
979	0.097
979	0.097
980	0.097
980	0.097
981	0.096
981	0.096
982	0.096
982	0.096
982	0.095
983	0.095
983	0.094
984	0.094
984	0.093
984	0.092
985	0.091
985	0.09
986	0.089
986	0.088
987	0.087
987	0.085
987	0.084
988	0.084
988	0.083
989	0.082
989	0.082
990	0.082
990	0.081
990	0.081
991	0.082
991	0.082
992	0.082
992	0.082
992	0.082
993	0.082
993	0.082
994	0.082
994	0.082
995	0.082
995	0.083
995	0.083
996	0.083
996	0.083
997	0.084
997	0.085
997	0.085
998	0.086
998	0.087
999	0.087
999	0.088
1000	0.089
1000	0.09
1000	0.091
1001	0.091
1001	0.092
1002	0.092
1002	0.092
1003	0.093
1003	0.092
1003	0.092
1004	0.091
1004	0.091
1005	0.09
1005	0.089
1005	0.089
1006	0.088
1006	0.087
1007	0.087
1007	0.087
1008	0.086
1008	0.086
1008	0.086
1009	0.086
1009	0.086
1010	0.086
1010	0.086
1010	0.085
1011	0.085
1011	0.085
1012	0.085
1012	0.084
1013	0.084
1013	0.083
1013	0.083
1014	0.083
1014	0.083
1015	0.083
1015	0.083
1016	0.082
1016	0.082
1016	0.082
1017	0.081
1017	0.081
1018	0.081
1018	0.08
1018	0.08
1019	0.08
1019	0.079
1020	0.079
1020	0.079
1021	0.079
1021	0.079
1021	0.079
1022	0.079
1022	0.079
1023	0.079
1023	0.079
1023	0.079
1024	0.079
1024	0.079
1025	0.079
1025	0.079
1026	0.078
1026	0.078
1026	0.077
1027	0.076
1027	0.076
1028	0.076
1028	0.075
1028	0.075
1029	0.075
1029	0.075
1030	0.075
1030	0.075
1031	0.075
1031	0.075
1031	0.075
1032	0.075
1032	0.075
1033	0.076
1033	0.076
1033	0.076
1034	0.076
1034	0.076
1035	0.076
1035	0.076
1036	0.076
1036	0.076
1036	0.076
1037	0.076
1037	0.076
1038	0.076
1038	0.076
1039	0.076
1039	0.076
1039	0.076
1040	0.076
1040	0.076
1041	0.075
1041	0.075
1041	0.075
1042	0.075
1042	0.074
1043	0.074
1043	0.074
1044	0.074
1044	0.074
1044	0.073
1045	0.074
1045	0.074
1046	0.074
1046	0.074
1046	0.075
1047	0.075
1047	0.076
1048	0.076
1048	0.076
1049	0.076
1049	0.076
1049	0.076
1050	0.075
1050	0.075
1051	0.074
1051	0.074
1051	0.073
1052	0.072
1052	0.071
1053	0.07
1053	0.07
1053	0.069
1054	0.069
1054	0.068
1055	0.068
1055	0.067
1056	0.067
1056	0.067
1056	0.066
1057	0.066
1057	0.066
1058	0.065
1058	0.064
1058	0.064
1059	0.063
1059	0.063
1060	0.062
1060	0.062
1061	0.061
1061	0.061
1061	0.061
1062	0.061
1062	0.061
1063	0.061
1063	0.061
1063	0.06
1064	0.06
1064	0.061
1065	0.061
1065	0.061
1066	0.061
1066	0.061
1066	0.061
1067	0.061
1067	0.061
1068	0.061
1068	0.061
1068	0.061
1069	0.06
1069	0.06
1070	0.059
1070	0.058
1071	0.057
1071	0.057
1071	0.056
1072	0.056
1072	0.055
1073	0.054
1073	0.054
1073	0.053
1074	0.053
1074	0.053
1075	0.053
1075	0.053
1076	0.054
1076	0.054
1076	0.054
1077	0.054
1077	0.054
1078	0.054
1078	0.054
1078	0.054
1079	0.054
1079	0.054
1080	0.054
1080	0.054
1080	0.054
1081	0.054
1081	0.055
1082	0.055
1082	0.056
1083	0.056
1083	0.056
1083	0.056
1084	0.056
1084	0.057
1085	0.057
1085	0.056
1085	0.056
1086	0.056
1086	0.054
1087	0.054
1087	0.052
1088	0.052
1088	0.052
1088	0.051
1089	0.051
1089	0.05
1090	0.049
1090	0.048
1090	0.047
1091	0.047
1091	0.047
1092	0.047
1092	0.048
1092	0.047
1093	0.047
1093	0.047
1094	0.047
1094	0.047
1095	0.047
1095	0.046
1095	0.046
1096	0.045
1096	0.045
1097	0.044
1097	0.043
1097	0.043
1098	0.041
1098	0.04
1099	0.039
1099	0.037
1100	0.037
1100	0.036
1100	0.035
1101	0.033
1101	0.032
1102	0.032
1102	0.03
1102	0.029
1103	0.029
1103	0.028
1104	0.027
1104	0.026
1104	0.025
1105	0.025
1105	0.022
1106	0.02
1106	0.018
1107	0.017
1107	0.015
1107	0.014
1108	0.013
1108	0.011
1109	0.009
1109	0.008
1109	0.007
1110	0.009
1110	0.009
1111	0.007
1111	0.006
