Data from reversibility-20sec_Absorbance__26__000000000000026.txt Node

Date: Tue Dec 05 12:21:45 CET 2023
User: Marek
Spectrometer: MAYP115816
Trigger mode: 0
Integration Time (sec): 2.000000E-1
Scans to average: 10
Electric dark correction enabled: true
Nonlinearity correction enabled: true
Boxcar width: 5
XAxis mode: Wavelengths
Number of Pixels in Spectrum: 2068
>>>>>Begin Spectral Data<<<<<
199	-0.184
199	-0.149
200	-0.081
200	-0.029
201	0
201	0.018
202	0.031
202	0.04
203	0.048
203	0.049
204	0.063
204	0.074
205	0.085
205	0.089
205	0.085
206	0.085
206	0.084
207	0.085
207	0.083
208	0.08
208	0.082
209	0.082
209	0.078
210	0.078
210	0.079
211	0.08
211	0.081
212	0.078
212	0.08
213	0.084
213	0.085
213	0.085
214	0.089
214	0.093
215	0.095
215	0.095
216	0.099
216	0.099
217	0.106
217	0.11
218	0.11
218	0.115
219	0.118
219	0.119
220	0.123
220	0.126
221	0.124
221	0.128
221	0.133
222	0.137
222	0.142
223	0.152
223	0.156
224	0.165
224	0.172
225	0.182
225	0.192
226	0.207
226	0.216
227	0.227
227	0.238
228	0.251
228	0.263
229	0.281
229	0.303
229	0.323
230	0.345
230	0.374
231	0.405
231	0.442
232	0.479
232	0.524
233	0.568
233	0.616
234	0.661
234	0.713
235	0.765
235	0.817
236	0.87
236	0.921
236	0.973
237	1.022
237	1.066
238	1.111
238	1.156
239	1.206
239	1.248
240	1.291
240	1.328
241	1.362
241	1.395
242	1.425
242	1.456
243	1.488
243	1.514
243	1.539
244	1.557
244	1.577
245	1.594
245	1.615
246	1.631
246	1.646
247	1.658
247	1.671
248	1.682
248	1.694
249	1.702
249	1.71
250	1.716
250	1.723
250	1.727
251	1.733
251	1.735
252	1.741
252	1.74
253	1.74
253	1.739
254	1.739
254	1.741
255	1.738
255	1.737
256	1.736
256	1.734
257	1.734
257	1.732
258	1.732
258	1.732
258	1.731
259	1.731
259	1.73
260	1.73
260	1.732
261	1.731
261	1.732
262	1.732
262	1.731
263	1.733
263	1.732
264	1.732
264	1.731
265	1.731
265	1.73
265	1.729
266	1.729
266	1.729
267	1.727
267	1.728
268	1.727
268	1.726
269	1.728
269	1.726
270	1.725
270	1.724
271	1.721
271	1.719
272	1.715
272	1.712
272	1.708
273	1.704
273	1.699
274	1.695
274	1.691
275	1.685
275	1.678
276	1.672
276	1.665
277	1.659
277	1.65
278	1.639
278	1.628
278	1.615
279	1.599
279	1.582
280	1.563
280	1.539
281	1.51
281	1.478
282	1.444
282	1.409
283	1.374
283	1.34
284	1.306
284	1.272
285	1.24
285	1.209
285	1.182
286	1.158
286	1.137
287	1.118
287	1.102
288	1.087
288	1.075
289	1.064
289	1.055
290	1.047
290	1.04
291	1.034
291	1.029
292	1.024
292	1.02
292	1.016
293	1.012
293	1.008
294	1.005
294	1.002
295	0.999
295	0.996
296	0.994
296	0.991
297	0.988
297	0.985
298	0.982
298	0.98
298	0.977
299	0.975
299	0.972
300	0.97
300	0.967
301	0.965
301	0.963
302	0.96
302	0.958
303	0.956
303	0.954
304	0.951
304	0.949
305	0.947
305	0.944
305	0.942
306	0.94
306	0.937
307	0.935
307	0.932
308	0.929
308	0.926
309	0.923
309	0.92
310	0.917
310	0.914
311	0.911
311	0.908
311	0.905
312	0.902
312	0.898
313	0.895
313	0.891
314	0.887
314	0.884
315	0.88
315	0.875
316	0.871
316	0.867
317	0.862
317	0.858
318	0.853
318	0.848
318	0.843
319	0.838
319	0.833
320	0.827
320	0.822
321	0.816
321	0.81
322	0.804
322	0.798
323	0.792
323	0.785
324	0.78
324	0.773
324	0.767
325	0.76
325	0.754
326	0.747
326	0.741
327	0.735
327	0.728
328	0.721
328	0.715
329	0.708
329	0.701
330	0.695
330	0.688
330	0.681
331	0.675
331	0.668
332	0.661
332	0.655
333	0.648
333	0.641
334	0.635
334	0.628
335	0.622
335	0.615
336	0.609
336	0.602
336	0.596
337	0.59
337	0.584
338	0.578
338	0.572
339	0.566
339	0.56
340	0.554
340	0.549
341	0.543
341	0.538
342	0.533
342	0.528
342	0.522
343	0.518
343	0.513
344	0.508
344	0.504
345	0.499
345	0.494
346	0.49
346	0.486
347	0.481
347	0.477
348	0.473
348	0.469
348	0.466
349	0.462
349	0.458
350	0.455
350	0.451
351	0.448
351	0.445
352	0.442
352	0.439
353	0.436
353	0.433
354	0.43
354	0.427
354	0.424
355	0.421
355	0.418
356	0.415
356	0.413
357	0.409
357	0.406
358	0.404
358	0.401
359	0.399
359	0.396
360	0.394
360	0.392
360	0.39
361	0.388
361	0.386
362	0.385
362	0.383
363	0.381
363	0.38
364	0.377
364	0.375
365	0.373
365	0.371
366	0.37
366	0.368
366	0.366
367	0.364
367	0.362
368	0.361
368	0.359
369	0.358
369	0.356
370	0.355
370	0.353
371	0.352
371	0.35
372	0.348
372	0.347
372	0.345
373	0.344
373	0.343
374	0.341
374	0.34
375	0.339
375	0.338
376	0.337
376	0.336
377	0.335
377	0.334
378	0.332
378	0.332
378	0.331
379	0.33
379	0.328
380	0.328
380	0.327
381	0.325
381	0.325
382	0.324
382	0.323
383	0.322
383	0.321
383	0.32
384	0.319
384	0.319
385	0.318
385	0.317
386	0.316
386	0.316
387	0.315
387	0.314
388	0.313
388	0.313
389	0.312
389	0.311
389	0.311
390	0.31
390	0.309
391	0.309
391	0.308
392	0.308
392	0.307
393	0.307
393	0.306
394	0.306
394	0.305
394	0.304
395	0.304
395	0.303
396	0.302
396	0.301
397	0.301
397	0.3
398	0.3
398	0.299
399	0.299
399	0.298
400	0.298
400	0.297
400	0.297
401	0.297
401	0.296
402	0.296
402	0.295
403	0.294
403	0.294
404	0.293
404	0.293
405	0.292
405	0.292
405	0.292
406	0.291
406	0.291
407	0.29
407	0.29
408	0.29
408	0.289
409	0.289
409	0.288
410	0.288
410	0.287
411	0.287
411	0.287
411	0.286
412	0.286
412	0.286
413	0.286
413	0.285
414	0.285
414	0.285
415	0.284
415	0.284
416	0.284
416	0.283
416	0.283
417	0.282
417	0.282
418	0.281
418	0.281
419	0.28
419	0.28
420	0.279
420	0.279
421	0.279
421	0.279
421	0.279
422	0.278
422	0.278
423	0.278
423	0.278
424	0.278
424	0.277
425	0.277
425	0.277
426	0.277
426	0.276
427	0.276
427	0.276
427	0.275
428	0.275
428	0.275
429	0.275
429	0.275
430	0.275
430	0.274
431	0.274
431	0.274
432	0.274
432	0.274
432	0.274
433	0.274
433	0.274
434	0.274
434	0.274
435	0.274
435	0.274
436	0.273
436	0.273
437	0.273
437	0.273
437	0.273
438	0.273
438	0.273
439	0.272
439	0.272
440	0.272
440	0.272
441	0.272
441	0.272
442	0.272
442	0.272
442	0.272
443	0.271
443	0.271
444	0.271
444	0.271
445	0.271
445	0.271
446	0.271
446	0.271
447	0.271
447	0.271
447	0.271
448	0.271
448	0.271
449	0.271
449	0.271
450	0.271
450	0.271
451	0.271
451	0.271
452	0.271
452	0.272
452	0.272
453	0.272
453	0.272
454	0.272
454	0.272
455	0.272
455	0.272
456	0.272
456	0.272
457	0.272
457	0.272
458	0.272
458	0.272
458	0.273
459	0.273
459	0.273
460	0.273
460	0.274
461	0.274
461	0.274
462	0.274
462	0.274
463	0.274
463	0.275
463	0.275
464	0.275
464	0.275
465	0.275
465	0.275
466	0.276
466	0.276
467	0.276
467	0.277
467	0.277
468	0.278
468	0.278
469	0.279
469	0.279
470	0.28
470	0.28
471	0.281
471	0.281
472	0.282
472	0.282
472	0.283
473	0.284
473	0.284
474	0.285
474	0.285
475	0.286
475	0.287
476	0.288
476	0.288
477	0.289
477	0.29
477	0.291
478	0.291
478	0.292
479	0.293
479	0.293
480	0.294
480	0.295
481	0.295
481	0.296
482	0.297
482	0.298
482	0.299
483	0.3
483	0.301
484	0.302
484	0.303
485	0.305
485	0.306
486	0.307
486	0.308
487	0.309
487	0.31
487	0.311
488	0.313
488	0.314
489	0.315
489	0.317
490	0.318
490	0.32
491	0.321
491	0.323
492	0.324
492	0.326
492	0.327
493	0.329
493	0.33
494	0.332
494	0.333
495	0.335
495	0.336
496	0.338
496	0.34
496	0.342
497	0.343
497	0.345
498	0.347
498	0.349
499	0.35
499	0.352
500	0.354
500	0.356
501	0.358
501	0.36
501	0.361
502	0.363
502	0.364
503	0.366
503	0.367
504	0.369
504	0.37
505	0.372
505	0.373
506	0.375
506	0.376
506	0.378
507	0.379
507	0.381
508	0.382
508	0.384
509	0.385
509	0.387
510	0.388
510	0.39
511	0.391
511	0.393
511	0.394
512	0.396
512	0.397
513	0.398
513	0.4
514	0.4
514	0.401
515	0.402
515	0.403
515	0.403
516	0.404
516	0.405
517	0.406
517	0.406
518	0.407
518	0.407
519	0.408
519	0.408
520	0.408
520	0.408
520	0.409
521	0.409
521	0.409
522	0.409
522	0.409
523	0.408
523	0.408
524	0.408
524	0.408
524	0.408
525	0.407
525	0.406
526	0.405
526	0.405
527	0.404
527	0.403
528	0.402
528	0.401
529	0.4
529	0.399
529	0.397
530	0.396
530	0.395
531	0.394
531	0.392
532	0.391
532	0.389
533	0.387
533	0.386
533	0.384
534	0.382
534	0.381
535	0.379
535	0.377
536	0.375
536	0.373
537	0.371
537	0.368
538	0.366
538	0.363
538	0.361
539	0.359
539	0.357
540	0.354
540	0.352
541	0.349
541	0.347
542	0.344
542	0.341
542	0.339
543	0.336
543	0.334
544	0.331
544	0.328
545	0.326
545	0.323
546	0.321
546	0.318
547	0.315
547	0.312
547	0.31
548	0.307
548	0.305
549	0.302
549	0.299
550	0.296
550	0.294
551	0.291
551	0.288
551	0.285
552	0.282
552	0.279
553	0.276
553	0.273
554	0.27
554	0.268
555	0.265
555	0.262
556	0.259
556	0.257
556	0.254
557	0.252
557	0.25
558	0.248
558	0.245
559	0.243
559	0.24
560	0.238
560	0.235
560	0.233
561	0.231
561	0.229
562	0.226
562	0.224
563	0.221
563	0.219
564	0.216
564	0.214
564	0.212
565	0.21
565	0.207
566	0.205
566	0.202
567	0.2
567	0.198
568	0.196
568	0.194
568	0.192
569	0.19
569	0.187
570	0.185
570	0.183
571	0.182
571	0.18
572	0.178
572	0.176
573	0.175
573	0.173
573	0.172
574	0.17
574	0.169
575	0.167
575	0.166
576	0.164
576	0.162
577	0.161
577	0.159
577	0.158
578	0.156
578	0.154
579	0.152
579	0.151
580	0.149
580	0.147
581	0.146
581	0.144
581	0.143
582	0.142
582	0.141
583	0.14
583	0.139
584	0.137
584	0.136
585	0.134
585	0.133
585	0.131
586	0.13
586	0.129
587	0.127
587	0.126
588	0.125
588	0.123
589	0.122
589	0.121
590	0.12
590	0.119
590	0.118
591	0.117
591	0.116
592	0.115
592	0.114
593	0.113
593	0.112
594	0.111
594	0.11
594	0.109
595	0.108
595	0.107
596	0.106
596	0.105
597	0.104
597	0.104
598	0.103
598	0.102
598	0.101
599	0.101
599	0.1
600	0.099
600	0.099
601	0.098
601	0.097
602	0.096
602	0.095
602	0.095
603	0.094
603	0.093
604	0.092
604	0.092
605	0.091
605	0.091
606	0.09
606	0.089
606	0.088
607	0.087
607	0.087
608	0.086
608	0.085
609	0.084
609	0.084
610	0.083
610	0.082
610	0.081
611	0.081
611	0.08
612	0.079
612	0.079
613	0.078
613	0.077
614	0.076
614	0.075
614	0.074
615	0.074
615	0.073
616	0.072
616	0.072
617	0.071
617	0.071
618	0.07
618	0.07
618	0.07
619	0.069
619	0.069
620	0.069
620	0.069
621	0.068
621	0.068
622	0.067
622	0.067
622	0.066
623	0.066
623	0.065
624	0.064
624	0.064
625	0.063
625	0.062
626	0.061
626	0.061
626	0.06
627	0.06
627	0.059
628	0.059
628	0.058
629	0.058
629	0.057
630	0.057
630	0.056
630	0.056
631	0.056
631	0.056
632	0.056
632	0.056
633	0.056
633	0.056
634	0.056
634	0.056
634	0.055
635	0.055
635	0.054
636	0.054
636	0.053
637	0.053
637	0.052
638	0.052
638	0.051
638	0.051
639	0.05
639	0.05
640	0.049
640	0.049
641	0.049
641	0.048
642	0.048
642	0.048
642	0.047
643	0.047
643	0.047
644	0.046
644	0.046
645	0.046
645	0.046
646	0.046
646	0.045
646	0.045
647	0.045
647	0.045
648	0.045
648	0.044
649	0.044
649	0.044
650	0.043
650	0.043
650	0.043
651	0.043
651	0.042
652	0.042
652	0.042
653	0.042
653	0.042
653	0.044
654	0.036
654	0.03
655	0.029
655	0.029
656	0.029
656	0.03
657	0.03
657	0.03
657	0.03
658	0.03
658	0.027
659	0.033
659	0.041
660	0.042
660	0.042
661	0.041
661	0.041
661	0.04
662	0.039
662	0.038
663	0.038
663	0.037
664	0.036
664	0.036
665	0.035
665	0.034
665	0.034
666	0.033
666	0.033
667	0.033
667	0.032
668	0.032
668	0.032
669	0.031
669	0.031
669	0.031
670	0.031
670	0.031
671	0.031
671	0.031
672	0.031
672	0.03
672	0.03
673	0.03
673	0.03
674	0.03
674	0.03
675	0.03
675	0.031
676	0.031
676	0.031
676	0.031
677	0.031
677	0.031
678	0.03
678	0.03
679	0.029
679	0.029
680	0.029
680	0.028
680	0.028
681	0.028
681	0.028
682	0.028
682	0.029
683	0.029
683	0.029
684	0.029
684	0.029
684	0.029
685	0.029
685	0.03
686	0.03
686	0.029
687	0.029
687	0.029
687	0.029
688	0.029
688	0.029
689	0.029
689	0.029
690	0.029
690	0.028
691	0.028
691	0.028
691	0.028
692	0.028
692	0.027
693	0.027
693	0.027
694	0.026
694	0.026
695	0.026
695	0.026
695	0.026
696	0.026
696	0.026
697	0.026
697	0.026
698	0.026
698	0.026
698	0.026
699	0.026
699	0.026
700	0.026
700	0.025
701	0.025
701	0.025
702	0.024
702	0.024
702	0.024
703	0.023
703	0.022
704	0.022
704	0.021
705	0.021
705	0.02
705	0.02
706	0.02
706	0.02
707	0.02
707	0.021
708	0.021
708	0.022
709	0.022
709	0.023
709	0.023
710	0.023
710	0.023
711	0.023
711	0.023
712	0.023
712	0.023
713	0.023
713	0.023
713	0.023
714	0.022
714	0.022
715	0.022
715	0.022
716	0.022
716	0.022
716	0.022
717	0.021
717	0.021
718	0.02
718	0.02
719	0.019
719	0.019
720	0.019
720	0.019
720	0.019
721	0.019
721	0.019
722	0.019
722	0.02
723	0.02
723	0.02
723	0.02
724	0.02
724	0.019
725	0.019
725	0.018
726	0.017
726	0.017
727	0.016
727	0.016
727	0.015
728	0.015
728	0.015
729	0.016
729	0.016
730	0.016
730	0.016
730	0.017
731	0.017
731	0.017
732	0.018
732	0.018
733	0.018
733	0.019
734	0.019
734	0.02
734	0.02
735	0.02
735	0.02
736	0.02
736	0.02
737	0.02
737	0.02
737	0.019
738	0.018
738	0.018
739	0.017
739	0.016
740	0.015
740	0.015
741	0.014
741	0.014
741	0.014
742	0.014
742	0.014
743	0.014
743	0.015
744	0.015
744	0.016
744	0.016
745	0.017
745	0.017
746	0.017
746	0.017
747	0.017
747	0.016
748	0.016
748	0.016
748	0.015
749	0.015
749	0.015
750	0.014
750	0.014
751	0.014
751	0.014
751	0.014
752	0.014
752	0.014
753	0.014
753	0.014
754	0.014
754	0.014
754	0.014
755	0.014
755	0.014
756	0.013
756	0.013
757	0.012
757	0.012
758	0.012
758	0.011
758	0.011
759	0.012
759	0.012
760	0.012
760	0.012
761	0.013
761	0.013
761	0.013
762	0.013
762	0.013
763	0.013
763	0.013
764	0.013
764	0.013
764	0.012
765	0.012
765	0.012
766	0.011
766	0.011
767	0.011
767	0.011
768	0.011
768	0.011
768	0.011
769	0.011
769	0.011
770	0.011
770	0.011
771	0.011
771	0.011
771	0.011
772	0.01
772	0.01
773	0.01
773	0.009
774	0.009
774	0.009
775	0.009
775	0.009
775	0.009
776	0.009
776	0.009
777	0.009
777	0.009
778	0.009
778	0.009
778	0.009
779	0.009
779	0.009
780	0.009
780	0.009
781	0.009
781	0.009
781	0.009
782	0.009
782	0.009
783	0.009
783	0.009
784	0.009
784	0.009
784	0.009
785	0.009
785	0.009
786	0.009
786	0.01
787	0.01
787	0.01
788	0.01
788	0.01
788	0.01
789	0.01
789	0.01
790	0.01
790	0.01
791	0.009
791	0.009
791	0.008
792	0.007
792	0.006
793	0.006
793	0.005
794	0.004
794	0.004
794	0.004
795	0.004
795	0.004
796	0.004
796	0.004
797	0.005
797	0.005
797	0.006
798	0.006
798	0.006
799	0.006
799	0.006
800	0.006
800	0.006
801	0.006
801	0.006
801	0.005
802	0.005
802	0.005
803	0.006
803	0.006
804	0.006
804	0.007
804	0.007
805	0.007
805	0.008
806	0.008
806	0.008
807	0.008
807	0.008
807	0.008
808	0.008
808	0.009
809	0.009
809	0.009
810	0.009
810	0.009
810	0.009
811	0.009
811	0.01
812	0.01
812	0.01
813	0.01
813	0.01
813	0.01
814	0.01
814	0.01
815	0.011
815	0.011
816	0.011
816	0.011
817	0.011
817	0.011
817	0.01
818	0.01
818	0.009
819	0.009
819	0.008
820	0.007
820	0.007
820	0.006
821	0.006
821	0.006
822	0.006
822	0.006
823	0.006
823	0.006
823	0.007
824	0.008
824	0.009
825	0.009
825	0.01
826	0.01
826	0.01
826	0.01
827	0.01
827	0.01
828	0.01
828	0.01
829	0.01
829	0.01
829	0.01
830	0.01
830	0.011
831	0.011
831	0.011
832	0.011
832	0.011
832	0.01
833	0.01
833	0.01
834	0.009
834	0.008
835	0.008
835	0.007
835	0.007
836	0.006
836	0.006
837	0.005
837	0.005
838	0.005
838	0.004
839	0.004
839	0.004
839	0.003
840	0.003
840	0.002
841	0.002
841	0.001
842	0.001
842	0
842	-0
843	-0
843	-0.001
844	-0.001
844	-0.001
845	-0.001
845	-0.001
845	-0.001
846	-0.001
846	-0.001
847	-0.001
847	-0.001
848	-0
848	-0
848	0
849	0.001
849	0.001
850	0.002
850	0.002
851	0.002
851	0.003
851	0.003
852	0.003
852	0.002
853	0.002
853	0.002
854	0.002
854	0.003
854	0.003
855	0.004
855	0.005
856	0.005
856	0.006
857	0.007
857	0.008
857	0.008
858	0.009
858	0.009
859	0.008
859	0.008
860	0.008
860	0.007
860	0.007
861	0.006
861	0.005
862	0.004
862	0.003
863	0.003
863	0.002
863	0.002
864	0.001
864	0.001
865	0.001
865	0.001
866	0
866	0
866	-0
867	-0
867	0
868	0
868	0
869	0.001
869	0.001
869	0.001
870	0.001
870	0.002
871	0.002
871	0.003
872	0.004
872	0.005
872	0.005
873	0.005
873	0.005
874	0.005
874	0.006
875	0.006
875	0.006
875	0.006
876	0.007
876	0.006
877	0.007
877	0.007
878	0.007
878	0.007
878	0.008
879	0.007
879	0.007
880	0.007
880	0.006
881	0.006
881	0.005
881	0.004
882	0.003
882	0.002
883	0.002
883	0.001
884	0.001
884	0
884	0
885	-0
885	-0
886	-0.001
886	-0.001
887	-0.001
887	-0.001
887	-0.001
888	-0.001
888	-0.002
889	-0.002
889	-0.002
890	-0.002
890	-0.002
890	-0.002
891	-0.002
891	-0.001
892	-0.001
892	-0.001
893	-0.001
893	-0
893	-0.001
894	-0.001
894	-0.001
895	-0.002
895	-0.002
895	-0.002
896	-0.002
896	-0.003
897	-0.003
897	-0.003
898	-0.003
898	-0.003
898	-0.003
899	-0.002
899	-0.002
900	-0.002
900	-0.002
901	-0.001
901	-0.001
901	-0.001
902	-0.001
902	-0.001
903	-0.001
903	-0.001
904	-0.001
904	-0.001
904	-0.001
905	-0.001
905	-0.001
906	-0.001
906	-0
907	0
907	0.001
907	0.001
908	0.001
908	0.001
909	0.001
909	0.001
910	0.001
910	0.001
910	0.001
911	0.001
911	0.001
912	0.001
912	0.001
913	0
913	0
913	-0
914	-0
914	-0.001
915	-0.001
915	-0.001
916	-0.001
916	-0.001
916	-0.001
917	-0.001
917	-0.001
918	-0.001
918	-0.001
918	-0
919	0
919	0.001
920	0.001
920	0.002
921	0.002
921	0.002
921	0.003
922	0.003
922	0.003
923	0.003
923	0.004
924	0.004
924	0.004
924	0.004
925	0.005
925	0.005
926	0.005
926	0.006
927	0.006
927	0.006
927	0.007
928	0.007
928	0.007
929	0.007
929	0.007
930	0.007
930	0.007
930	0.007
931	0.006
931	0.006
932	0.006
932	0.006
933	0.005
933	0.004
933	0.004
934	0.003
934	0.002
935	0.002
935	0.001
935	0
936	-0
936	-0.001
937	-0.001
937	-0.001
938	-0.001
938	-0.001
938	-0.001
939	-0.001
939	-0
940	0
940	0.001
941	0.002
941	0.002
941	0.003
942	0.004
942	0.004
943	0.004
943	0.005
944	0.005
944	0.005
944	0.005
945	0.005
945	0.005
946	0.005
946	0.005
946	0.005
947	0.005
947	0.005
948	0.005
948	0.005
949	0.005
949	0.005
949	0.005
950	0.005
950	0.005
951	0.005
951	0.005
952	0.005
952	0.005
952	0.005
953	0.005
953	0.004
954	0.004
954	0.004
955	0.004
955	0.003
955	0.003
956	0.003
956	0.004
957	0.004
957	0.004
957	0.004
958	0.004
958	0.004
959	0.004
959	0.004
960	0.004
960	0.004
960	0.003
961	0.003
961	0.002
962	0.002
962	0.002
963	0.001
963	0.001
963	0.001
964	0.002
964	0.002
965	0.002
965	0.003
966	0.004
966	0.004
966	0.005
967	0.005
967	0.006
968	0.007
968	0.007
968	0.007
969	0.007
969	0.007
970	0.007
970	0.007
971	0.006
971	0.006
971	0.005
972	0.005
972	0.004
973	0.003
973	0.002
974	0.002
974	0.002
974	0.002
975	0.002
975	0.002
976	0.002
976	0.002
976	0.002
977	0.002
977	0.002
978	0.002
978	0.001
979	0.001
979	0.001
979	0
980	0
980	-0
981	-0.001
981	-0.001
982	-0.001
982	-0.001
982	-0.001
983	-0.001
983	-0.001
984	-0
984	-0
984	-0
985	-0
985	0
986	0
986	-0
987	-0
987	-0
987	-0
988	-0.001
988	-0.001
989	-0.001
989	-0.001
990	-0.001
990	-0.002
990	-0.002
991	-0.001
991	-0.001
992	-0.001
992	-0.001
992	-0.001
993	-0
993	-0
994	0
994	0.001
995	0.001
995	0.001
995	0.001
996	0.001
996	0.001
997	0.001
997	0.001
997	0.001
998	0.001
998	0.002
999	0.002
999	0.002
1000	0.002
1000	0.002
1000	0.002
1001	0.002
1001	0.002
1002	0.002
1002	0.001
1003	0.001
1003	0
1003	-0
1004	-0.001
1004	-0.001
1005	-0.002
1005	-0.002
1005	-0.002
1006	-0.002
1006	-0.002
1007	-0.002
1007	-0.002
1008	-0.002
1008	-0.002
1008	-0.002
1009	-0.002
1009	-0.002
1010	-0.002
1010	-0.002
1010	-0.002
1011	-0.002
1011	-0.002
1012	-0.003
1012	-0.002
1013	-0.002
1013	-0.002
1013	-0.003
1014	-0.003
1014	-0.003
1015	-0.003
1015	-0.003
1016	-0.003
1016	-0.003
1016	-0.003
1017	-0.003
1017	-0.003
1018	-0.003
1018	-0.002
1018	-0.002
1019	-0.002
1019	-0.002
1020	-0.002
1020	-0.002
1021	-0.002
1021	-0.002
1021	-0.002
1022	-0.002
1022	-0.002
1023	-0.003
1023	-0.003
1023	-0.003
1024	-0.004
1024	-0.004
1025	-0.005
1025	-0.005
1026	-0.006
1026	-0.006
1026	-0.007
1027	-0.007
1027	-0.008
1028	-0.008
1028	-0.009
1028	-0.009
1029	-0.009
1029	-0.01
1030	-0.01
1030	-0.01
1031	-0.01
1031	-0.01
1031	-0.01
1032	-0.01
1032	-0.01
1033	-0.01
1033	-0.009
1033	-0.009
1034	-0.009
1034	-0.009
1035	-0.008
1035	-0.008
1036	-0.008
1036	-0.008
1036	-0.007
1037	-0.007
1037	-0.007
1038	-0.007
1038	-0.006
1039	-0.006
1039	-0.006
1039	-0.006
1040	-0.006
1040	-0.005
1041	-0.005
1041	-0.005
1041	-0.005
1042	-0.005
1042	-0.005
1043	-0.005
1043	-0.004
1044	-0.004
1044	-0.004
1044	-0.003
1045	-0.003
1045	-0.003
1046	-0.002
1046	-0.002
1046	-0.001
1047	-0
1047	0
1048	0.001
1048	0.001
1049	0.001
1049	0.002
1049	0.002
1050	0.002
1050	0.002
1051	0.002
1051	0.002
1051	0.002
1052	0.001
1052	0.001
1053	0
1053	0
1053	-0
1054	-0.001
1054	-0.001
1055	-0.001
1055	-0.001
1056	-0.002
1056	-0.002
1056	-0.002
1057	-0.003
1057	-0.003
1058	-0.004
1058	-0.004
1058	-0.005
1059	-0.005
1059	-0.006
1060	-0.006
1060	-0.007
1061	-0.007
1061	-0.007
1061	-0.007
1062	-0.007
1062	-0.007
1063	-0.007
1063	-0.007
1063	-0.007
1064	-0.007
1064	-0.007
1065	-0.007
1065	-0.007
1066	-0.007
1066	-0.007
1066	-0.007
1067	-0.008
1067	-0.008
1068	-0.008
1068	-0.008
1068	-0.008
1069	-0.009
1069	-0.009
1070	-0.009
1070	-0.009
1071	-0.01
1071	-0.01
1071	-0.01
1072	-0.01
1072	-0.011
1073	-0.011
1073	-0.012
1073	-0.012
1074	-0.012
1074	-0.012
1075	-0.012
1075	-0.011
1076	-0.01
1076	-0.01
1076	-0.009
1077	-0.009
1077	-0.008
1078	-0.008
1078	-0.008
1078	-0.007
1079	-0.007
1079	-0.007
1080	-0.007
1080	-0.006
1080	-0.006
1081	-0.006
1081	-0.006
1082	-0.006
1082	-0.006
1083	-0.006
1083	-0.006
1083	-0.006
1084	-0.007
1084	-0.007
1085	-0.007
1085	-0.007
1085	-0.007
1086	-0.006
1086	-0.007
1087	-0.007
1087	-0.007
1088	-0.007
1088	-0.007
1088	-0.006
1089	-0.006
1089	-0.006
1090	-0.007
1090	-0.008
1090	-0.009
1091	-0.009
1091	-0.009
1092	-0.009
1092	-0.009
1092	-0.009
1093	-0.01
1093	-0.01
1094	-0.01
1094	-0.011
1095	-0.011
1095	-0.01
1095	-0.01
1096	-0.011
1096	-0.012
1097	-0.012
1097	-0.013
1097	-0.013
1098	-0.013
1098	-0.014
1099	-0.014
1099	-0.015
1100	-0.015
1100	-0.016
1100	-0.016
1101	-0.017
1101	-0.018
1102	-0.018
1102	-0.019
1102	-0.02
1103	-0.02
1103	-0.02
1104	-0.02
1104	-0.021
1104	-0.022
1105	-0.023
1105	-0.024
1106	-0.025
1106	-0.027
1107	-0.027
1107	-0.027
1107	-0.028
1108	-0.028
1108	-0.03
1109	-0.03
1109	-0.031
1109	-0.031
1110	-0.029
1110	-0.03
1111	-0.028
1111	-0.027
