Data from reversibility-20sec_Absorbance__6522__000000000006522.txt Node

Date: Thu Dec 07 00:27:06 CET 2023
User: Marek
Spectrometer: MAYP115816
Trigger mode: 0
Integration Time (sec): 2.000000E-1
Scans to average: 10
Electric dark correction enabled: true
Nonlinearity correction enabled: true
Boxcar width: 5
XAxis mode: Wavelengths
Number of Pixels in Spectrum: 2068
>>>>>Begin Spectral Data<<<<<
199	-0.173
199	-0.147
200	-0.08
200	-0.031
201	-0.004
201	0.016
202	0.029
202	0.037
203	0.043
203	0.047
204	0.062
204	0.077
205	0.088
205	0.093
205	0.092
206	0.092
206	0.092
207	0.092
207	0.092
208	0.092
208	0.09
209	0.092
209	0.089
210	0.092
210	0.093
211	0.093
211	0.096
212	0.092
212	0.094
213	0.097
213	0.1
213	0.101
214	0.102
214	0.101
215	0.1
215	0.099
216	0.101
216	0.098
217	0.105
217	0.104
218	0.1
218	0.103
219	0.109
219	0.108
220	0.113
220	0.113
221	0.115
221	0.118
221	0.123
222	0.128
222	0.133
223	0.141
223	0.143
224	0.145
224	0.154
225	0.164
225	0.176
226	0.183
226	0.194
227	0.206
227	0.215
228	0.233
228	0.247
229	0.266
229	0.289
229	0.312
230	0.336
230	0.365
231	0.399
231	0.435
232	0.473
232	0.519
233	0.56
233	0.609
234	0.658
234	0.712
235	0.764
235	0.818
236	0.868
236	0.917
236	0.969
237	1.02
237	1.065
238	1.114
238	1.163
239	1.209
239	1.251
240	1.289
240	1.325
241	1.36
241	1.398
242	1.429
242	1.462
243	1.491
243	1.518
243	1.539
244	1.56
244	1.583
245	1.603
245	1.625
246	1.644
246	1.66
247	1.674
247	1.688
248	1.702
248	1.715
249	1.729
249	1.738
250	1.745
250	1.754
250	1.757
251	1.764
251	1.768
252	1.775
252	1.778
253	1.781
253	1.78
254	1.779
254	1.783
255	1.783
255	1.782
256	1.785
256	1.784
257	1.783
257	1.781
258	1.781
258	1.78
258	1.78
259	1.78
259	1.779
260	1.779
260	1.781
261	1.78
261	1.783
262	1.787
262	1.787
263	1.79
263	1.792
264	1.792
264	1.793
265	1.794
265	1.794
265	1.795
266	1.794
266	1.794
267	1.791
267	1.791
268	1.789
268	1.79
269	1.791
269	1.791
270	1.788
270	1.786
271	1.783
271	1.783
272	1.78
272	1.778
272	1.776
273	1.772
273	1.768
274	1.764
274	1.759
275	1.754
275	1.749
276	1.744
276	1.738
277	1.732
277	1.723
278	1.712
278	1.7
278	1.687
279	1.672
279	1.655
280	1.636
280	1.611
281	1.584
281	1.55
282	1.515
282	1.479
283	1.442
283	1.406
284	1.37
284	1.335
285	1.301
285	1.269
285	1.241
286	1.214
286	1.191
287	1.171
287	1.154
288	1.139
288	1.125
289	1.114
289	1.104
290	1.096
290	1.088
291	1.081
291	1.075
292	1.069
292	1.064
292	1.059
293	1.054
293	1.05
294	1.046
294	1.042
295	1.038
295	1.035
296	1.031
296	1.028
297	1.024
297	1.021
298	1.018
298	1.014
298	1.011
299	1.009
299	1.005
300	1.002
300	0.999
301	0.996
301	0.993
302	0.99
302	0.987
303	0.985
303	0.982
304	0.979
304	0.976
305	0.974
305	0.971
305	0.968
306	0.966
306	0.963
307	0.96
307	0.957
308	0.954
308	0.951
309	0.948
309	0.945
310	0.941
310	0.938
311	0.935
311	0.931
311	0.928
312	0.924
312	0.92
313	0.916
313	0.913
314	0.908
314	0.904
315	0.9
315	0.895
316	0.891
316	0.886
317	0.882
317	0.877
318	0.872
318	0.866
318	0.861
319	0.855
319	0.85
320	0.844
320	0.839
321	0.832
321	0.826
322	0.82
322	0.813
323	0.807
323	0.8
324	0.794
324	0.787
324	0.78
325	0.773
325	0.767
326	0.76
326	0.753
327	0.747
327	0.74
328	0.732
328	0.726
329	0.719
329	0.711
330	0.705
330	0.698
330	0.69
331	0.683
331	0.676
332	0.67
332	0.663
333	0.656
333	0.649
334	0.642
334	0.635
335	0.628
335	0.621
336	0.615
336	0.608
336	0.602
337	0.595
337	0.589
338	0.583
338	0.577
339	0.571
339	0.565
340	0.559
340	0.553
341	0.547
341	0.542
342	0.536
342	0.531
342	0.526
343	0.52
343	0.515
344	0.51
344	0.506
345	0.501
345	0.496
346	0.492
346	0.487
347	0.483
347	0.479
348	0.475
348	0.47
348	0.466
349	0.462
349	0.459
350	0.455
350	0.451
351	0.448
351	0.444
352	0.441
352	0.438
353	0.435
353	0.432
354	0.429
354	0.426
354	0.423
355	0.42
355	0.417
356	0.414
356	0.411
357	0.408
357	0.406
358	0.403
358	0.4
359	0.398
359	0.395
360	0.393
360	0.391
360	0.389
361	0.387
361	0.385
362	0.383
362	0.381
363	0.379
363	0.377
364	0.375
364	0.374
365	0.371
365	0.37
366	0.368
366	0.366
366	0.364
367	0.362
367	0.361
368	0.359
368	0.357
369	0.356
369	0.354
370	0.353
370	0.351
371	0.35
371	0.348
372	0.347
372	0.346
372	0.344
373	0.343
373	0.342
374	0.341
374	0.34
375	0.338
375	0.337
376	0.337
376	0.335
377	0.334
377	0.333
378	0.332
378	0.331
378	0.33
379	0.329
379	0.329
380	0.328
380	0.327
381	0.326
381	0.325
382	0.324
382	0.324
383	0.323
383	0.322
383	0.322
384	0.321
384	0.32
385	0.32
385	0.319
386	0.318
386	0.318
387	0.317
387	0.317
388	0.316
388	0.316
389	0.315
389	0.315
389	0.314
390	0.313
390	0.313
391	0.312
391	0.312
392	0.311
392	0.311
393	0.311
393	0.31
394	0.31
394	0.309
394	0.309
395	0.308
395	0.307
396	0.307
396	0.306
397	0.306
397	0.305
398	0.305
398	0.304
399	0.304
399	0.303
400	0.303
400	0.302
400	0.302
401	0.302
401	0.301
402	0.301
402	0.301
403	0.3
403	0.3
404	0.299
404	0.299
405	0.299
405	0.298
405	0.298
406	0.298
406	0.297
407	0.297
407	0.297
408	0.296
408	0.296
409	0.295
409	0.295
410	0.294
410	0.294
411	0.294
411	0.294
411	0.293
412	0.293
412	0.293
413	0.292
413	0.292
414	0.292
414	0.291
415	0.291
415	0.291
416	0.29
416	0.29
416	0.289
417	0.289
417	0.289
418	0.288
418	0.288
419	0.288
419	0.287
420	0.287
420	0.286
421	0.286
421	0.285
421	0.285
422	0.284
422	0.284
423	0.284
423	0.283
424	0.283
424	0.283
425	0.282
425	0.282
426	0.282
426	0.282
427	0.281
427	0.281
427	0.281
428	0.28
428	0.28
429	0.28
429	0.279
430	0.279
430	0.279
431	0.279
431	0.278
432	0.278
432	0.278
432	0.278
433	0.278
433	0.278
434	0.278
434	0.278
435	0.278
435	0.277
436	0.277
436	0.277
437	0.277
437	0.277
437	0.276
438	0.276
438	0.276
439	0.276
439	0.276
440	0.275
440	0.275
441	0.275
441	0.274
442	0.274
442	0.274
442	0.274
443	0.273
443	0.273
444	0.273
444	0.273
445	0.273
445	0.273
446	0.272
446	0.272
447	0.272
447	0.272
447	0.272
448	0.272
448	0.272
449	0.272
449	0.272
450	0.272
450	0.272
451	0.272
451	0.272
452	0.272
452	0.272
452	0.272
453	0.272
453	0.272
454	0.272
454	0.271
455	0.271
455	0.271
456	0.271
456	0.271
457	0.271
457	0.271
458	0.271
458	0.271
458	0.271
459	0.271
459	0.271
460	0.271
460	0.271
461	0.271
461	0.271
462	0.271
462	0.271
463	0.271
463	0.271
463	0.271
464	0.271
464	0.271
465	0.271
465	0.271
466	0.271
466	0.271
467	0.272
467	0.272
467	0.272
468	0.272
468	0.272
469	0.273
469	0.273
470	0.274
470	0.274
471	0.275
471	0.275
472	0.276
472	0.276
472	0.276
473	0.277
473	0.277
474	0.277
474	0.277
475	0.277
475	0.278
476	0.279
476	0.279
477	0.279
477	0.28
477	0.28
478	0.281
478	0.282
479	0.282
479	0.283
480	0.283
480	0.284
481	0.284
481	0.284
482	0.285
482	0.286
482	0.286
483	0.287
483	0.288
484	0.288
484	0.289
485	0.289
485	0.29
486	0.291
486	0.291
487	0.292
487	0.292
487	0.293
488	0.294
488	0.295
489	0.296
489	0.297
490	0.299
490	0.3
491	0.301
491	0.302
492	0.303
492	0.304
492	0.306
493	0.307
493	0.308
494	0.309
494	0.31
495	0.311
495	0.312
496	0.313
496	0.314
496	0.316
497	0.317
497	0.318
498	0.319
498	0.32
499	0.321
499	0.323
500	0.324
500	0.326
501	0.327
501	0.328
501	0.329
502	0.33
502	0.331
503	0.333
503	0.334
504	0.335
504	0.336
505	0.337
505	0.338
506	0.34
506	0.341
506	0.342
507	0.343
507	0.344
508	0.344
508	0.345
509	0.346
509	0.347
510	0.348
510	0.35
511	0.351
511	0.352
511	0.353
512	0.354
512	0.355
513	0.356
513	0.357
514	0.358
514	0.359
515	0.359
515	0.36
515	0.36
516	0.361
516	0.362
517	0.363
517	0.363
518	0.364
518	0.364
519	0.364
519	0.364
520	0.364
520	0.365
520	0.365
521	0.365
521	0.365
522	0.365
522	0.364
523	0.364
523	0.364
524	0.364
524	0.363
524	0.363
525	0.363
525	0.362
526	0.362
526	0.361
527	0.361
527	0.361
528	0.36
528	0.359
529	0.359
529	0.358
529	0.357
530	0.356
530	0.355
531	0.354
531	0.352
532	0.351
532	0.35
533	0.349
533	0.347
533	0.346
534	0.344
534	0.343
535	0.342
535	0.341
536	0.339
536	0.338
537	0.336
537	0.335
538	0.333
538	0.332
538	0.33
539	0.328
539	0.327
540	0.325
540	0.323
541	0.322
541	0.32
542	0.318
542	0.316
542	0.314
543	0.313
543	0.311
544	0.309
544	0.307
545	0.306
545	0.304
546	0.302
546	0.3
547	0.297
547	0.295
547	0.293
548	0.291
548	0.289
549	0.287
549	0.285
550	0.283
550	0.282
551	0.28
551	0.278
551	0.276
552	0.274
552	0.272
553	0.27
553	0.268
554	0.266
554	0.264
555	0.262
555	0.259
556	0.257
556	0.255
556	0.253
557	0.252
557	0.25
558	0.248
558	0.247
559	0.245
559	0.243
560	0.241
560	0.24
560	0.239
561	0.237
561	0.235
562	0.234
562	0.232
563	0.23
563	0.228
564	0.226
564	0.224
564	0.223
565	0.221
565	0.22
566	0.218
566	0.216
567	0.215
567	0.213
568	0.212
568	0.21
568	0.208
569	0.207
569	0.205
570	0.204
570	0.202
571	0.2
571	0.199
572	0.197
572	0.196
573	0.195
573	0.193
573	0.192
574	0.191
574	0.19
575	0.189
575	0.189
576	0.188
576	0.186
577	0.184
577	0.183
577	0.182
578	0.181
578	0.18
579	0.179
579	0.178
580	0.176
580	0.175
581	0.173
581	0.172
581	0.172
582	0.171
582	0.171
583	0.17
583	0.169
584	0.168
584	0.166
585	0.165
585	0.164
585	0.163
586	0.162
586	0.161
587	0.16
587	0.158
588	0.157
588	0.156
589	0.155
589	0.155
590	0.154
590	0.154
590	0.153
591	0.153
591	0.152
592	0.151
592	0.15
593	0.149
593	0.148
594	0.147
594	0.146
594	0.145
595	0.145
595	0.144
596	0.143
596	0.142
597	0.143
597	0.142
598	0.142
598	0.141
598	0.141
599	0.14
599	0.139
600	0.139
600	0.138
601	0.137
601	0.137
602	0.136
602	0.135
602	0.134
603	0.134
603	0.133
604	0.133
604	0.132
605	0.132
605	0.132
606	0.131
606	0.13
606	0.129
607	0.129
607	0.128
608	0.128
608	0.127
609	0.126
609	0.126
610	0.125
610	0.125
610	0.124
611	0.124
611	0.124
612	0.123
612	0.123
613	0.123
613	0.123
614	0.122
614	0.121
614	0.121
615	0.121
615	0.12
616	0.12
616	0.119
617	0.119
617	0.119
618	0.118
618	0.118
618	0.118
619	0.118
619	0.118
620	0.118
620	0.117
621	0.117
621	0.116
622	0.115
622	0.115
622	0.114
623	0.113
623	0.113
624	0.113
624	0.112
625	0.111
625	0.111
626	0.11
626	0.11
626	0.11
627	0.11
627	0.11
628	0.109
628	0.109
629	0.109
629	0.108
630	0.108
630	0.107
630	0.107
631	0.107
631	0.106
632	0.106
632	0.105
633	0.105
633	0.105
634	0.105
634	0.105
634	0.105
635	0.105
635	0.105
636	0.104
636	0.104
637	0.104
637	0.104
638	0.103
638	0.103
638	0.102
639	0.102
639	0.101
640	0.101
640	0.101
641	0.1
641	0.1
642	0.1
642	0.1
642	0.099
643	0.099
643	0.099
644	0.099
644	0.099
645	0.099
645	0.099
646	0.098
646	0.098
646	0.098
647	0.098
647	0.097
648	0.097
648	0.096
649	0.095
649	0.095
650	0.095
650	0.094
650	0.094
651	0.094
651	0.094
652	0.093
652	0.093
653	0.094
653	0.095
653	0.101
654	0.082
654	0.066
655	0.064
655	0.064
656	0.065
656	0.065
657	0.065
657	0.065
657	0.065
658	0.064
658	0.057
659	0.071
659	0.09
660	0.095
660	0.095
661	0.095
661	0.095
661	0.094
662	0.094
662	0.094
663	0.093
663	0.093
664	0.092
664	0.092
665	0.092
665	0.091
665	0.091
666	0.091
666	0.091
667	0.091
667	0.091
668	0.092
668	0.092
669	0.092
669	0.092
669	0.093
670	0.093
670	0.093
671	0.093
671	0.092
672	0.092
672	0.091
672	0.09
673	0.09
673	0.089
674	0.088
674	0.088
675	0.087
675	0.087
676	0.087
676	0.087
676	0.087
677	0.087
677	0.087
678	0.087
678	0.087
679	0.087
679	0.087
680	0.087
680	0.086
680	0.086
681	0.086
681	0.085
682	0.085
682	0.085
683	0.085
683	0.085
684	0.086
684	0.085
684	0.085
685	0.086
685	0.086
686	0.086
686	0.086
687	0.086
687	0.086
687	0.086
688	0.086
688	0.086
689	0.086
689	0.086
690	0.086
690	0.085
691	0.085
691	0.085
691	0.085
692	0.085
692	0.085
693	0.085
693	0.085
694	0.085
694	0.084
695	0.085
695	0.086
695	0.086
696	0.086
696	0.086
697	0.086
697	0.085
698	0.085
698	0.085
698	0.085
699	0.085
699	0.085
700	0.084
700	0.084
701	0.084
701	0.084
702	0.083
702	0.083
702	0.083
703	0.083
703	0.082
704	0.082
704	0.082
705	0.081
705	0.081
705	0.081
706	0.081
706	0.08
707	0.08
707	0.08
708	0.08
708	0.08
709	0.08
709	0.08
709	0.08
710	0.08
710	0.081
711	0.081
711	0.081
712	0.081
712	0.081
713	0.082
713	0.082
713	0.082
714	0.082
714	0.081
715	0.081
715	0.08
716	0.08
716	0.079
716	0.078
717	0.078
717	0.077
718	0.076
718	0.076
719	0.076
719	0.076
720	0.076
720	0.077
720	0.077
721	0.077
721	0.078
722	0.079
722	0.079
723	0.08
723	0.08
723	0.08
724	0.079
724	0.079
725	0.078
725	0.078
726	0.077
726	0.077
727	0.076
727	0.075
727	0.075
728	0.075
728	0.074
729	0.074
729	0.074
730	0.074
730	0.074
730	0.075
731	0.075
731	0.076
732	0.076
732	0.077
733	0.077
733	0.077
734	0.077
734	0.077
734	0.077
735	0.078
735	0.077
736	0.077
736	0.077
737	0.076
737	0.076
737	0.076
738	0.075
738	0.074
739	0.074
739	0.074
740	0.073
740	0.073
741	0.073
741	0.073
741	0.073
742	0.073
742	0.073
743	0.074
743	0.075
744	0.076
744	0.076
744	0.076
745	0.076
745	0.076
746	0.076
746	0.075
747	0.075
747	0.075
748	0.074
748	0.074
748	0.074
749	0.074
749	0.074
750	0.074
750	0.074
751	0.074
751	0.074
751	0.074
752	0.073
752	0.073
753	0.072
753	0.072
754	0.071
754	0.07
754	0.07
755	0.07
755	0.07
756	0.069
756	0.068
757	0.068
757	0.068
758	0.068
758	0.068
758	0.068
759	0.068
759	0.068
760	0.068
760	0.067
761	0.068
761	0.068
761	0.068
762	0.068
762	0.068
763	0.068
763	0.067
764	0.067
764	0.066
764	0.066
765	0.066
765	0.066
766	0.066
766	0.065
767	0.065
767	0.064
768	0.063
768	0.063
768	0.063
769	0.063
769	0.063
770	0.063
770	0.064
771	0.064
771	0.065
771	0.065
772	0.066
772	0.067
773	0.067
773	0.068
774	0.068
774	0.068
775	0.068
775	0.069
775	0.069
776	0.069
776	0.069
777	0.069
777	0.069
778	0.069
778	0.069
778	0.069
779	0.068
779	0.068
780	0.067
780	0.066
781	0.066
781	0.065
781	0.065
782	0.064
782	0.064
783	0.064
783	0.065
784	0.064
784	0.065
784	0.065
785	0.065
785	0.065
786	0.065
786	0.065
787	0.065
787	0.065
788	0.064
788	0.063
788	0.062
789	0.061
789	0.061
790	0.06
790	0.059
791	0.059
791	0.058
791	0.058
792	0.058
792	0.058
793	0.058
793	0.057
794	0.057
794	0.057
794	0.057
795	0.057
795	0.057
796	0.057
796	0.057
797	0.057
797	0.057
797	0.058
798	0.058
798	0.059
799	0.059
799	0.059
800	0.058
800	0.058
801	0.057
801	0.057
801	0.057
802	0.058
802	0.058
803	0.058
803	0.058
804	0.059
804	0.059
804	0.059
805	0.059
805	0.059
806	0.059
806	0.058
807	0.058
807	0.058
807	0.057
808	0.057
808	0.057
809	0.057
809	0.058
810	0.058
810	0.058
810	0.058
811	0.059
811	0.06
812	0.06
812	0.061
813	0.061
813	0.061
813	0.061
814	0.062
814	0.062
815	0.062
815	0.062
816	0.062
816	0.061
817	0.06
817	0.059
817	0.058
818	0.058
818	0.057
819	0.056
819	0.056
820	0.055
820	0.054
820	0.054
821	0.054
821	0.054
822	0.053
822	0.054
823	0.054
823	0.053
823	0.054
824	0.055
824	0.055
825	0.056
825	0.057
826	0.057
826	0.057
826	0.058
827	0.058
827	0.058
828	0.059
828	0.059
829	0.059
829	0.059
829	0.059
830	0.059
830	0.059
831	0.06
831	0.06
832	0.06
832	0.06
832	0.06
833	0.06
833	0.059
834	0.059
834	0.058
835	0.058
835	0.057
835	0.057
836	0.056
836	0.056
837	0.056
837	0.056
838	0.056
838	0.055
839	0.055
839	0.054
839	0.054
840	0.053
840	0.053
841	0.052
841	0.051
842	0.051
842	0.05
842	0.049
843	0.048
843	0.048
844	0.047
844	0.046
845	0.045
845	0.045
845	0.044
846	0.044
846	0.043
847	0.043
847	0.044
848	0.044
848	0.044
848	0.045
849	0.045
849	0.046
850	0.047
850	0.047
851	0.048
851	0.048
851	0.048
852	0.048
852	0.047
853	0.047
853	0.047
854	0.047
854	0.047
854	0.047
855	0.048
855	0.048
856	0.049
856	0.049
857	0.05
857	0.051
857	0.051
858	0.052
858	0.052
859	0.052
859	0.052
860	0.052
860	0.051
860	0.051
861	0.05
861	0.05
862	0.049
862	0.048
863	0.047
863	0.047
863	0.046
864	0.046
864	0.046
865	0.046
865	0.046
866	0.046
866	0.046
866	0.046
867	0.047
867	0.048
868	0.048
868	0.049
869	0.049
869	0.049
869	0.049
870	0.049
870	0.049
871	0.049
871	0.049
872	0.049
872	0.049
872	0.048
873	0.048
873	0.048
874	0.048
874	0.047
875	0.047
875	0.047
875	0.047
876	0.047
876	0.047
877	0.046
877	0.046
878	0.046
878	0.046
878	0.047
879	0.047
879	0.047
880	0.047
880	0.048
881	0.048
881	0.048
881	0.049
882	0.049
882	0.05
883	0.05
883	0.05
884	0.05
884	0.051
884	0.051
885	0.05
885	0.05
886	0.049
886	0.049
887	0.048
887	0.047
887	0.047
888	0.046
888	0.045
889	0.044
889	0.044
890	0.044
890	0.043
890	0.043
891	0.043
891	0.043
892	0.043
892	0.042
893	0.042
893	0.042
893	0.042
894	0.042
894	0.042
895	0.042
895	0.042
895	0.042
896	0.042
896	0.043
897	0.043
897	0.043
898	0.043
898	0.043
898	0.043
899	0.043
899	0.043
900	0.042
900	0.042
901	0.041
901	0.041
901	0.041
902	0.04
902	0.04
903	0.04
903	0.04
904	0.04
904	0.039
904	0.039
905	0.039
905	0.039
906	0.039
906	0.04
907	0.04
907	0.041
907	0.041
908	0.041
908	0.042
909	0.042
909	0.042
910	0.042
910	0.042
910	0.042
911	0.041
911	0.041
912	0.04
912	0.04
913	0.04
913	0.039
913	0.039
914	0.039
914	0.039
915	0.04
915	0.04
916	0.04
916	0.041
916	0.041
917	0.041
917	0.041
918	0.041
918	0.04
918	0.04
919	0.04
919	0.039
920	0.039
920	0.038
921	0.038
921	0.038
921	0.038
922	0.038
922	0.038
923	0.038
923	0.039
924	0.039
924	0.039
924	0.039
925	0.04
925	0.04
926	0.04
926	0.04
927	0.04
927	0.041
927	0.041
928	0.041
928	0.041
929	0.041
929	0.042
930	0.042
930	0.042
930	0.042
931	0.042
931	0.042
932	0.042
932	0.042
933	0.042
933	0.042
933	0.042
934	0.042
934	0.041
935	0.041
935	0.041
935	0.04
936	0.04
936	0.039
937	0.039
937	0.039
938	0.038
938	0.038
938	0.037
939	0.037
939	0.037
940	0.037
940	0.037
941	0.037
941	0.038
941	0.038
942	0.038
942	0.039
943	0.039
943	0.039
944	0.039
944	0.039
944	0.039
945	0.039
945	0.039
946	0.039
946	0.039
946	0.039
947	0.039
947	0.039
948	0.04
948	0.04
949	0.04
949	0.04
949	0.04
950	0.04
950	0.04
951	0.04
951	0.04
952	0.04
952	0.04
952	0.04
953	0.04
953	0.04
954	0.039
954	0.04
955	0.04
955	0.039
955	0.039
956	0.04
956	0.04
957	0.04
957	0.041
957	0.041
958	0.041
958	0.041
959	0.041
959	0.041
960	0.042
960	0.042
960	0.042
961	0.042
961	0.042
962	0.042
962	0.042
963	0.041
963	0.041
963	0.041
964	0.042
964	0.042
965	0.042
965	0.042
966	0.043
966	0.043
966	0.043
967	0.043
967	0.043
968	0.043
968	0.043
968	0.043
969	0.042
969	0.042
970	0.041
970	0.04
971	0.039
971	0.039
971	0.038
972	0.037
972	0.037
973	0.036
973	0.036
974	0.036
974	0.036
974	0.037
975	0.037
975	0.038
976	0.039
976	0.039
976	0.04
977	0.04
977	0.04
978	0.04
978	0.04
979	0.039
979	0.039
979	0.039
980	0.039
980	0.038
981	0.038
981	0.038
982	0.037
982	0.038
982	0.038
983	0.038
983	0.038
984	0.038
984	0.038
984	0.039
985	0.039
985	0.039
986	0.039
986	0.039
987	0.039
987	0.039
987	0.04
988	0.04
988	0.04
989	0.04
989	0.04
990	0.04
990	0.04
990	0.039
991	0.039
991	0.039
992	0.039
992	0.038
992	0.037
993	0.037
993	0.036
994	0.035
994	0.035
995	0.034
995	0.033
995	0.033
996	0.033
996	0.032
997	0.033
997	0.033
997	0.033
998	0.033
998	0.034
999	0.034
999	0.035
1000	0.036
1000	0.036
1000	0.037
1001	0.037
1001	0.037
1002	0.038
1002	0.038
1003	0.037
1003	0.037
1003	0.036
1004	0.035
1004	0.034
1005	0.033
1005	0.032
1005	0.031
1006	0.03
1006	0.029
1007	0.029
1007	0.028
1008	0.028
1008	0.028
1008	0.028
1009	0.028
1009	0.028
1010	0.028
1010	0.029
1010	0.029
1011	0.029
1011	0.03
1012	0.03
1012	0.03
1013	0.03
1013	0.03
1013	0.03
1014	0.03
1014	0.029
1015	0.029
1015	0.029
1016	0.029
1016	0.029
1016	0.028
1017	0.028
1017	0.028
1018	0.028
1018	0.028
1018	0.028
1019	0.028
1019	0.028
1020	0.028
1020	0.028
1021	0.028
1021	0.029
1021	0.029
1022	0.029
1022	0.03
1023	0.03
1023	0.03
1023	0.031
1024	0.031
1024	0.031
1025	0.031
1025	0.031
1026	0.032
1026	0.032
1026	0.032
1027	0.032
1027	0.032
1028	0.032
1028	0.032
1028	0.032
1029	0.033
1029	0.033
1030	0.033
1030	0.033
1031	0.034
1031	0.034
1031	0.034
1032	0.034
1032	0.034
1033	0.035
1033	0.035
1033	0.035
1034	0.035
1034	0.035
1035	0.035
1035	0.035
1036	0.035
1036	0.035
1036	0.035
1037	0.035
1037	0.035
1038	0.034
1038	0.035
1039	0.034
1039	0.034
1039	0.034
1040	0.034
1040	0.034
1041	0.034
1041	0.034
1041	0.034
1042	0.034
1042	0.034
1043	0.034
1043	0.034
1044	0.033
1044	0.033
1044	0.033
1045	0.033
1045	0.033
1046	0.033
1046	0.033
1046	0.033
1047	0.033
1047	0.033
1048	0.033
1048	0.033
1049	0.033
1049	0.033
1049	0.033
1050	0.033
1050	0.033
1051	0.033
1051	0.033
1051	0.033
1052	0.032
1052	0.032
1053	0.032
1053	0.031
1053	0.031
1054	0.03
1054	0.03
1055	0.03
1055	0.029
1056	0.029
1056	0.028
1056	0.027
1057	0.027
1057	0.026
1058	0.025
1058	0.025
1058	0.024
1059	0.024
1059	0.024
1060	0.023
1060	0.023
1061	0.023
1061	0.023
1061	0.023
1062	0.023
1062	0.023
1063	0.023
1063	0.023
1063	0.023
1064	0.023
1064	0.022
1065	0.022
1065	0.022
1066	0.022
1066	0.022
1066	0.022
1067	0.022
1067	0.022
1068	0.022
1068	0.022
1068	0.022
1069	0.023
1069	0.023
1070	0.023
1070	0.022
1071	0.022
1071	0.022
1071	0.022
1072	0.022
1072	0.021
1073	0.021
1073	0.02
1073	0.02
1074	0.02
1074	0.02
1075	0.021
1075	0.021
1076	0.021
1076	0.022
1076	0.022
1077	0.023
1077	0.023
1078	0.023
1078	0.023
1078	0.022
1079	0.022
1079	0.022
1080	0.021
1080	0.021
1080	0.02
1081	0.019
1081	0.019
1082	0.019
1082	0.02
1083	0.019
1083	0.019
1083	0.019
1084	0.019
1084	0.02
1085	0.02
1085	0.02
1085	0.021
1086	0.021
1086	0.021
1087	0.021
1087	0.021
1088	0.022
1088	0.022
1088	0.022
1089	0.021
1089	0.021
1090	0.02
1090	0.02
1090	0.019
1091	0.019
1091	0.018
1092	0.019
1092	0.019
1092	0.018
1093	0.018
1093	0.018
1094	0.018
1094	0.018
1095	0.017
1095	0.017
1095	0.017
1096	0.017
1096	0.016
1097	0.016
1097	0.015
1097	0.014
1098	0.014
1098	0.013
1099	0.012
1099	0.011
1100	0.01
1100	0.008
1100	0.007
1101	0.005
1101	0.004
1102	0.003
1102	0.003
1102	0.001
1103	0.001
1103	0
1104	-0.001
1104	-0.001
1104	-0.001
1105	-0.003
1105	-0.003
1106	-0.004
1106	-0.005
1107	-0.006
1107	-0.006
1107	-0.007
1108	-0.008
1108	-0.009
1109	-0.011
1109	-0.011
1109	-0.01
1110	-0.01
1110	-0.011
1111	-0.01
1111	-0.012
