Data from reversibility-20sec_Absorbance__3174__000000000003174.txt Node

Date: Wed Dec 06 05:51:05 CET 2023
User: Marek
Spectrometer: MAYP115816
Trigger mode: 0
Integration Time (sec): 2.000000E-1
Scans to average: 10
Electric dark correction enabled: true
Nonlinearity correction enabled: true
Boxcar width: 5
XAxis mode: Wavelengths
Number of Pixels in Spectrum: 2068
>>>>>Begin Spectral Data<<<<<
199	-0.183
199	-0.148
200	-0.085
200	-0.032
201	-0.001
201	0.018
202	0.03
202	0.041
203	0.051
203	0.055
204	0.07
204	0.086
205	0.098
205	0.106
205	0.104
206	0.103
206	0.101
207	0.102
207	0.1
208	0.1
208	0.098
209	0.1
209	0.097
210	0.096
210	0.096
211	0.099
211	0.101
212	0.1
212	0.102
213	0.105
213	0.104
213	0.106
214	0.108
214	0.111
215	0.114
215	0.115
216	0.115
216	0.113
217	0.121
217	0.124
218	0.124
218	0.128
219	0.131
219	0.132
220	0.135
220	0.134
221	0.138
221	0.141
221	0.151
222	0.153
222	0.156
223	0.162
223	0.167
224	0.172
224	0.181
225	0.191
225	0.206
226	0.213
226	0.223
227	0.23
227	0.241
228	0.258
228	0.273
229	0.289
229	0.315
229	0.34
230	0.362
230	0.389
231	0.421
231	0.461
232	0.496
232	0.54
233	0.583
233	0.63
234	0.682
234	0.733
235	0.784
235	0.839
236	0.893
236	0.945
236	0.997
237	1.051
237	1.097
238	1.144
238	1.194
239	1.242
239	1.282
240	1.323
240	1.36
241	1.394
241	1.431
242	1.461
242	1.496
243	1.528
243	1.554
243	1.576
244	1.598
244	1.62
245	1.636
245	1.659
246	1.676
246	1.692
247	1.703
247	1.714
248	1.729
248	1.743
249	1.754
249	1.759
250	1.768
250	1.776
250	1.776
251	1.782
251	1.783
252	1.79
252	1.792
253	1.792
253	1.789
254	1.79
254	1.791
255	1.789
255	1.789
256	1.789
256	1.787
257	1.787
257	1.784
258	1.784
258	1.783
258	1.783
259	1.783
259	1.782
260	1.782
260	1.783
261	1.785
261	1.786
262	1.788
262	1.789
263	1.79
263	1.79
264	1.791
264	1.791
265	1.792
265	1.793
265	1.792
266	1.792
266	1.792
267	1.79
267	1.791
268	1.791
268	1.791
269	1.793
269	1.792
270	1.792
270	1.792
271	1.79
271	1.789
272	1.785
272	1.784
272	1.78
273	1.776
273	1.77
274	1.765
274	1.759
275	1.753
275	1.747
276	1.739
276	1.732
277	1.725
277	1.715
278	1.704
278	1.692
278	1.679
279	1.665
279	1.649
280	1.628
280	1.603
281	1.573
281	1.54
282	1.506
282	1.471
283	1.435
283	1.399
284	1.364
284	1.329
285	1.296
285	1.265
285	1.238
286	1.214
286	1.192
287	1.173
287	1.156
288	1.142
288	1.129
289	1.119
289	1.109
290	1.101
290	1.094
291	1.087
291	1.082
292	1.076
292	1.071
292	1.067
293	1.063
293	1.059
294	1.055
294	1.051
295	1.048
295	1.045
296	1.041
296	1.038
297	1.035
297	1.032
298	1.029
298	1.026
298	1.023
299	1.021
299	1.018
300	1.015
300	1.012
301	1.01
301	1.007
302	1.004
302	1.002
303	0.999
303	0.997
304	0.994
304	0.992
305	0.989
305	0.987
305	0.984
306	0.981
306	0.979
307	0.976
307	0.973
308	0.971
308	0.968
309	0.965
309	0.962
310	0.959
310	0.956
311	0.953
311	0.949
311	0.946
312	0.942
312	0.939
313	0.935
313	0.931
314	0.927
314	0.923
315	0.919
315	0.915
316	0.911
316	0.906
317	0.902
317	0.897
318	0.892
318	0.887
318	0.882
319	0.877
319	0.872
320	0.866
320	0.86
321	0.854
321	0.848
322	0.842
322	0.836
323	0.83
323	0.823
324	0.817
324	0.811
324	0.804
325	0.798
325	0.791
326	0.785
326	0.778
327	0.771
327	0.765
328	0.758
328	0.751
329	0.744
329	0.738
330	0.731
330	0.724
330	0.717
331	0.71
331	0.703
332	0.696
332	0.69
333	0.683
333	0.676
334	0.669
334	0.662
335	0.656
335	0.649
336	0.642
336	0.636
336	0.629
337	0.623
337	0.617
338	0.611
338	0.605
339	0.599
339	0.593
340	0.587
340	0.582
341	0.576
341	0.571
342	0.566
342	0.56
342	0.555
343	0.55
343	0.545
344	0.54
344	0.535
345	0.531
345	0.526
346	0.522
346	0.517
347	0.513
347	0.509
348	0.505
348	0.501
348	0.497
349	0.493
349	0.49
350	0.486
350	0.482
351	0.479
351	0.476
352	0.472
352	0.47
353	0.467
353	0.464
354	0.461
354	0.458
354	0.455
355	0.452
355	0.448
356	0.445
356	0.442
357	0.439
357	0.436
358	0.433
358	0.43
359	0.428
359	0.425
360	0.423
360	0.421
360	0.42
361	0.418
361	0.416
362	0.415
362	0.413
363	0.411
363	0.41
364	0.407
364	0.405
365	0.403
365	0.401
366	0.4
366	0.398
366	0.396
367	0.394
367	0.392
368	0.39
368	0.388
369	0.387
369	0.385
370	0.384
370	0.382
371	0.381
371	0.379
372	0.378
372	0.377
372	0.375
373	0.374
373	0.373
374	0.372
374	0.371
375	0.37
375	0.368
376	0.367
376	0.366
377	0.365
377	0.364
378	0.363
378	0.361
378	0.36
379	0.359
379	0.358
380	0.357
380	0.356
381	0.356
381	0.355
382	0.354
382	0.353
383	0.353
383	0.352
383	0.351
384	0.35
384	0.35
385	0.349
385	0.348
386	0.348
386	0.347
387	0.346
387	0.346
388	0.345
388	0.344
389	0.344
389	0.343
389	0.342
390	0.342
390	0.341
391	0.34
391	0.34
392	0.339
392	0.339
393	0.338
393	0.338
394	0.337
394	0.337
394	0.337
395	0.336
395	0.335
396	0.335
396	0.334
397	0.334
397	0.333
398	0.333
398	0.333
399	0.332
399	0.331
400	0.331
400	0.331
400	0.33
401	0.33
401	0.329
402	0.329
402	0.328
403	0.327
403	0.327
404	0.326
404	0.326
405	0.325
405	0.325
405	0.325
406	0.324
406	0.324
407	0.324
407	0.323
408	0.323
408	0.323
409	0.322
409	0.322
410	0.321
410	0.321
411	0.32
411	0.32
411	0.32
412	0.32
412	0.319
413	0.319
413	0.318
414	0.318
414	0.318
415	0.317
415	0.317
416	0.316
416	0.316
416	0.315
417	0.315
417	0.315
418	0.314
418	0.314
419	0.314
419	0.313
420	0.313
420	0.312
421	0.312
421	0.312
421	0.312
422	0.311
422	0.311
423	0.31
423	0.31
424	0.309
424	0.309
425	0.309
425	0.308
426	0.308
426	0.308
427	0.307
427	0.307
427	0.307
428	0.306
428	0.306
429	0.306
429	0.306
430	0.306
430	0.305
431	0.305
431	0.305
432	0.305
432	0.305
432	0.304
433	0.304
433	0.304
434	0.304
434	0.304
435	0.304
435	0.304
436	0.304
436	0.303
437	0.303
437	0.303
437	0.303
438	0.303
438	0.303
439	0.302
439	0.302
440	0.302
440	0.301
441	0.301
441	0.301
442	0.301
442	0.3
442	0.3
443	0.3
443	0.3
444	0.3
444	0.299
445	0.299
445	0.299
446	0.299
446	0.299
447	0.299
447	0.299
447	0.299
448	0.299
448	0.299
449	0.299
449	0.299
450	0.299
450	0.299
451	0.299
451	0.299
452	0.299
452	0.299
452	0.299
453	0.299
453	0.299
454	0.299
454	0.299
455	0.298
455	0.298
456	0.298
456	0.298
457	0.298
457	0.298
458	0.298
458	0.298
458	0.298
459	0.298
459	0.298
460	0.298
460	0.299
461	0.299
461	0.299
462	0.299
462	0.299
463	0.299
463	0.299
463	0.3
464	0.3
464	0.299
465	0.299
465	0.299
466	0.299
466	0.3
467	0.3
467	0.3
467	0.3
468	0.301
468	0.301
469	0.301
469	0.302
470	0.302
470	0.303
471	0.303
471	0.303
472	0.304
472	0.304
472	0.305
473	0.305
473	0.305
474	0.306
474	0.306
475	0.306
475	0.307
476	0.307
476	0.308
477	0.308
477	0.309
477	0.309
478	0.31
478	0.311
479	0.311
479	0.312
480	0.313
480	0.313
481	0.314
481	0.315
482	0.316
482	0.316
482	0.317
483	0.318
483	0.319
484	0.32
484	0.321
485	0.322
485	0.322
486	0.323
486	0.324
487	0.324
487	0.325
487	0.326
488	0.327
488	0.328
489	0.329
489	0.331
490	0.332
490	0.334
491	0.336
491	0.337
492	0.338
492	0.34
492	0.341
493	0.343
493	0.344
494	0.345
494	0.347
495	0.348
495	0.349
496	0.351
496	0.352
496	0.353
497	0.355
497	0.356
498	0.357
498	0.358
499	0.359
499	0.361
500	0.363
500	0.364
501	0.366
501	0.367
501	0.368
502	0.37
502	0.371
503	0.373
503	0.374
504	0.376
504	0.377
505	0.378
505	0.38
506	0.381
506	0.382
506	0.384
507	0.385
507	0.387
508	0.388
508	0.389
509	0.39
509	0.391
510	0.393
510	0.394
511	0.395
511	0.396
511	0.397
512	0.398
512	0.399
513	0.4
513	0.401
514	0.402
514	0.403
515	0.404
515	0.405
515	0.405
516	0.406
516	0.407
517	0.407
517	0.408
518	0.408
518	0.409
519	0.409
519	0.409
520	0.41
520	0.41
520	0.411
521	0.411
521	0.411
522	0.411
522	0.411
523	0.411
523	0.411
524	0.41
524	0.41
524	0.41
525	0.409
525	0.409
526	0.408
526	0.407
527	0.406
527	0.406
528	0.405
528	0.404
529	0.403
529	0.402
529	0.401
530	0.4
530	0.398
531	0.397
531	0.396
532	0.395
532	0.393
533	0.391
533	0.39
533	0.389
534	0.387
534	0.386
535	0.384
535	0.382
536	0.381
536	0.379
537	0.377
537	0.375
538	0.373
538	0.372
538	0.37
539	0.368
539	0.366
540	0.364
540	0.362
541	0.36
541	0.358
542	0.356
542	0.354
542	0.352
543	0.35
543	0.348
544	0.346
544	0.343
545	0.341
545	0.339
546	0.337
546	0.335
547	0.333
547	0.33
547	0.328
548	0.326
548	0.323
549	0.321
549	0.319
550	0.316
550	0.314
551	0.311
551	0.308
551	0.306
552	0.304
552	0.301
553	0.299
553	0.298
554	0.295
554	0.293
555	0.291
555	0.289
556	0.287
556	0.284
556	0.282
557	0.281
557	0.279
558	0.277
558	0.274
559	0.272
559	0.27
560	0.268
560	0.266
560	0.265
561	0.263
561	0.261
562	0.259
562	0.256
563	0.254
563	0.252
564	0.25
564	0.248
564	0.246
565	0.244
565	0.242
566	0.24
566	0.238
567	0.237
567	0.235
568	0.233
568	0.232
568	0.23
569	0.228
569	0.226
570	0.224
570	0.222
571	0.221
571	0.219
572	0.218
572	0.216
573	0.215
573	0.213
573	0.212
574	0.211
574	0.209
575	0.208
575	0.207
576	0.206
576	0.204
577	0.203
577	0.201
577	0.2
578	0.199
578	0.197
579	0.196
579	0.196
580	0.194
580	0.192
581	0.191
581	0.19
581	0.189
582	0.188
582	0.187
583	0.186
583	0.185
584	0.183
584	0.181
585	0.18
585	0.179
585	0.178
586	0.176
586	0.176
587	0.174
587	0.173
588	0.172
588	0.171
589	0.17
589	0.17
590	0.169
590	0.168
590	0.168
591	0.167
591	0.166
592	0.165
592	0.163
593	0.162
593	0.161
594	0.16
594	0.159
594	0.158
595	0.157
595	0.156
596	0.155
596	0.154
597	0.154
597	0.154
598	0.153
598	0.152
598	0.152
599	0.152
599	0.151
600	0.15
600	0.15
601	0.149
601	0.148
602	0.147
602	0.146
602	0.146
603	0.145
603	0.145
604	0.144
604	0.144
605	0.143
605	0.143
606	0.142
606	0.141
606	0.14
607	0.139
607	0.138
608	0.138
608	0.137
609	0.136
609	0.135
610	0.134
610	0.134
610	0.133
611	0.133
611	0.133
612	0.133
612	0.133
613	0.132
613	0.132
614	0.131
614	0.131
614	0.13
615	0.13
615	0.13
616	0.129
616	0.129
617	0.128
617	0.128
618	0.127
618	0.127
618	0.127
619	0.127
619	0.127
620	0.126
620	0.126
621	0.125
621	0.124
622	0.124
622	0.123
622	0.123
623	0.122
623	0.122
624	0.121
624	0.12
625	0.12
625	0.119
626	0.119
626	0.118
626	0.118
627	0.118
627	0.117
628	0.117
628	0.116
629	0.116
629	0.115
630	0.115
630	0.115
630	0.114
631	0.114
631	0.114
632	0.114
632	0.113
633	0.113
633	0.113
634	0.113
634	0.113
634	0.113
635	0.113
635	0.112
636	0.112
636	0.112
637	0.111
637	0.111
638	0.111
638	0.11
638	0.109
639	0.109
639	0.108
640	0.108
640	0.107
641	0.107
641	0.107
642	0.106
642	0.106
642	0.106
643	0.106
643	0.106
644	0.106
644	0.106
645	0.106
645	0.106
646	0.106
646	0.106
646	0.106
647	0.106
647	0.105
648	0.105
648	0.104
649	0.104
649	0.104
650	0.104
650	0.104
650	0.104
651	0.103
651	0.103
652	0.103
652	0.103
653	0.103
653	0.104
653	0.109
654	0.088
654	0.071
655	0.07
655	0.07
656	0.07
656	0.07
657	0.07
657	0.07
657	0.07
658	0.069
658	0.062
659	0.077
659	0.097
660	0.101
660	0.101
661	0.101
661	0.1
661	0.099
662	0.099
662	0.098
663	0.098
663	0.097
664	0.097
664	0.096
665	0.095
665	0.095
665	0.095
666	0.095
666	0.095
667	0.095
667	0.095
668	0.095
668	0.095
669	0.096
669	0.096
669	0.096
670	0.097
670	0.097
671	0.097
671	0.097
672	0.097
672	0.096
672	0.096
673	0.095
673	0.095
674	0.095
674	0.094
675	0.094
675	0.093
676	0.094
676	0.094
676	0.094
677	0.094
677	0.094
678	0.094
678	0.094
679	0.093
679	0.093
680	0.093
680	0.093
680	0.092
681	0.092
681	0.092
682	0.092
682	0.092
683	0.092
683	0.092
684	0.092
684	0.092
684	0.092
685	0.092
685	0.092
686	0.092
686	0.092
687	0.092
687	0.092
687	0.092
688	0.092
688	0.092
689	0.092
689	0.093
690	0.093
690	0.092
691	0.092
691	0.092
691	0.092
692	0.092
692	0.091
693	0.091
693	0.091
694	0.09
694	0.09
695	0.09
695	0.091
695	0.091
696	0.091
696	0.091
697	0.091
697	0.09
698	0.09
698	0.09
698	0.09
699	0.09
699	0.09
700	0.089
700	0.089
701	0.088
701	0.088
702	0.087
702	0.087
702	0.087
703	0.086
703	0.086
704	0.085
704	0.085
705	0.085
705	0.085
705	0.085
706	0.085
706	0.085
707	0.085
707	0.085
708	0.085
708	0.085
709	0.085
709	0.085
709	0.084
710	0.084
710	0.084
711	0.084
711	0.083
712	0.083
712	0.083
713	0.083
713	0.083
713	0.082
714	0.082
714	0.082
715	0.082
715	0.081
716	0.081
716	0.081
716	0.08
717	0.08
717	0.079
718	0.079
718	0.078
719	0.078
719	0.078
720	0.078
720	0.079
720	0.079
721	0.079
721	0.079
722	0.08
722	0.08
723	0.08
723	0.08
723	0.08
724	0.079
724	0.079
725	0.078
725	0.077
726	0.076
726	0.076
727	0.075
727	0.075
727	0.075
728	0.075
728	0.074
729	0.075
729	0.075
730	0.076
730	0.076
730	0.077
731	0.077
731	0.077
732	0.078
732	0.078
733	0.077
733	0.077
734	0.077
734	0.077
734	0.076
735	0.076
735	0.075
736	0.074
736	0.074
737	0.073
737	0.073
737	0.073
738	0.072
738	0.071
739	0.07
739	0.07
740	0.069
740	0.069
741	0.07
741	0.07
741	0.07
742	0.069
742	0.07
743	0.071
743	0.071
744	0.071
744	0.072
744	0.071
745	0.071
745	0.071
746	0.071
746	0.071
747	0.071
747	0.071
748	0.072
748	0.072
748	0.072
749	0.072
749	0.072
750	0.072
750	0.072
751	0.072
751	0.072
751	0.071
752	0.071
752	0.07
753	0.07
753	0.069
754	0.069
754	0.068
754	0.068
755	0.068
755	0.067
756	0.066
756	0.065
757	0.065
757	0.065
758	0.065
758	0.065
758	0.065
759	0.065
759	0.065
760	0.065
760	0.065
761	0.065
761	0.066
761	0.066
762	0.066
762	0.066
763	0.066
763	0.065
764	0.065
764	0.065
764	0.065
765	0.064
765	0.064
766	0.064
766	0.064
767	0.063
767	0.063
768	0.062
768	0.062
768	0.062
769	0.062
769	0.062
770	0.063
770	0.063
771	0.063
771	0.062
771	0.063
772	0.063
772	0.063
773	0.063
773	0.063
774	0.063
774	0.063
775	0.063
775	0.063
775	0.063
776	0.063
776	0.063
777	0.063
777	0.063
778	0.063
778	0.062
778	0.062
779	0.061
779	0.061
780	0.06
780	0.059
781	0.059
781	0.058
781	0.058
782	0.058
782	0.058
783	0.059
783	0.059
784	0.059
784	0.059
784	0.059
785	0.06
785	0.059
786	0.059
786	0.059
787	0.059
787	0.059
788	0.058
788	0.058
788	0.057
789	0.056
789	0.056
790	0.056
790	0.055
791	0.055
791	0.054
791	0.053
792	0.054
792	0.053
793	0.053
793	0.053
794	0.052
794	0.052
794	0.052
795	0.052
795	0.052
796	0.052
796	0.052
797	0.052
797	0.053
797	0.053
798	0.053
798	0.054
799	0.054
799	0.054
800	0.053
800	0.053
801	0.052
801	0.052
801	0.052
802	0.051
802	0.051
803	0.051
803	0.051
804	0.052
804	0.052
804	0.052
805	0.052
805	0.052
806	0.052
806	0.052
807	0.052
807	0.052
807	0.052
808	0.052
808	0.052
809	0.051
809	0.051
810	0.051
810	0.051
810	0.051
811	0.051
811	0.051
812	0.052
812	0.052
813	0.052
813	0.052
813	0.053
814	0.053
814	0.053
815	0.053
815	0.053
816	0.053
816	0.052
817	0.052
817	0.051
817	0.051
818	0.05
818	0.05
819	0.05
819	0.049
820	0.049
820	0.048
820	0.048
821	0.048
821	0.048
822	0.048
822	0.048
823	0.048
823	0.048
823	0.049
824	0.05
824	0.051
825	0.052
825	0.053
826	0.054
826	0.054
826	0.054
827	0.054
827	0.054
828	0.054
828	0.054
829	0.053
829	0.053
829	0.053
830	0.053
830	0.053
831	0.054
831	0.054
832	0.054
832	0.054
832	0.054
833	0.053
833	0.053
834	0.052
834	0.052
835	0.051
835	0.05
835	0.049
836	0.049
836	0.049
837	0.048
837	0.048
838	0.048
838	0.048
839	0.048
839	0.047
839	0.047
840	0.046
840	0.046
841	0.045
841	0.044
842	0.044
842	0.044
842	0.044
843	0.044
843	0.044
844	0.044
844	0.044
845	0.044
845	0.044
845	0.045
846	0.045
846	0.045
847	0.046
847	0.046
848	0.046
848	0.046
848	0.046
849	0.045
849	0.045
850	0.045
850	0.044
851	0.044
851	0.044
851	0.043
852	0.042
852	0.042
853	0.042
853	0.042
854	0.042
854	0.042
854	0.043
855	0.044
855	0.045
856	0.046
856	0.046
857	0.047
857	0.048
857	0.049
858	0.049
858	0.049
859	0.048
859	0.048
860	0.047
860	0.046
860	0.045
861	0.044
861	0.044
862	0.043
862	0.042
863	0.042
863	0.041
863	0.041
864	0.041
864	0.041
865	0.041
865	0.041
866	0.041
866	0.041
866	0.041
867	0.041
867	0.041
868	0.041
868	0.04
869	0.04
869	0.039
869	0.039
870	0.038
870	0.038
871	0.037
871	0.037
872	0.037
872	0.037
872	0.037
873	0.037
873	0.037
874	0.036
874	0.037
875	0.037
875	0.036
875	0.037
876	0.037
876	0.036
877	0.036
877	0.037
878	0.037
878	0.037
878	0.038
879	0.039
879	0.039
880	0.04
880	0.04
881	0.041
881	0.041
881	0.041
882	0.041
882	0.042
883	0.041
883	0.041
884	0.041
884	0.041
884	0.041
885	0.041
885	0.041
886	0.04
886	0.04
887	0.039
887	0.039
887	0.038
888	0.038
888	0.037
889	0.037
889	0.037
890	0.036
890	0.036
890	0.036
891	0.036
891	0.036
892	0.036
892	0.036
893	0.036
893	0.036
893	0.035
894	0.035
894	0.035
895	0.034
895	0.034
895	0.034
896	0.034
896	0.033
897	0.033
897	0.033
898	0.032
898	0.032
898	0.032
899	0.032
899	0.032
900	0.032
900	0.032
901	0.032
901	0.032
901	0.032
902	0.033
902	0.033
903	0.033
903	0.033
904	0.033
904	0.033
904	0.033
905	0.033
905	0.033
906	0.034
906	0.034
907	0.035
907	0.036
907	0.037
908	0.037
908	0.038
909	0.038
909	0.039
910	0.039
910	0.039
910	0.039
911	0.039
911	0.039
912	0.039
912	0.039
913	0.038
913	0.038
913	0.038
914	0.038
914	0.038
915	0.038
915	0.037
916	0.037
916	0.037
916	0.036
917	0.036
917	0.036
918	0.035
918	0.035
918	0.034
919	0.034
919	0.034
920	0.034
920	0.033
921	0.033
921	0.033
921	0.033
922	0.033
922	0.033
923	0.034
923	0.034
924	0.034
924	0.035
924	0.035
925	0.036
925	0.036
926	0.036
926	0.036
927	0.036
927	0.037
927	0.037
928	0.037
928	0.037
929	0.037
929	0.037
930	0.037
930	0.038
930	0.038
931	0.038
931	0.039
932	0.039
932	0.039
933	0.039
933	0.04
933	0.039
934	0.039
934	0.039
935	0.039
935	0.039
935	0.038
936	0.038
936	0.038
937	0.037
937	0.037
938	0.036
938	0.036
938	0.035
939	0.035
939	0.034
940	0.034
940	0.033
941	0.033
941	0.033
941	0.033
942	0.033
942	0.033
943	0.033
943	0.033
944	0.033
944	0.034
944	0.034
945	0.034
945	0.035
946	0.035
946	0.035
946	0.036
947	0.036
947	0.036
948	0.036
948	0.037
949	0.037
949	0.037
949	0.037
950	0.037
950	0.037
951	0.037
951	0.037
952	0.036
952	0.035
952	0.035
953	0.034
953	0.034
954	0.033
954	0.032
955	0.032
955	0.031
955	0.031
956	0.031
956	0.031
957	0.031
957	0.031
957	0.031
958	0.032
958	0.032
959	0.032
959	0.033
960	0.033
960	0.033
960	0.033
961	0.033
961	0.033
962	0.033
962	0.033
963	0.033
963	0.033
963	0.033
964	0.033
964	0.033
965	0.033
965	0.034
966	0.034
966	0.035
966	0.035
967	0.036
967	0.037
968	0.037
968	0.038
968	0.038
969	0.038
969	0.038
970	0.037
970	0.037
971	0.037
971	0.037
971	0.036
972	0.036
972	0.035
973	0.035
973	0.035
974	0.035
974	0.035
974	0.035
975	0.035
975	0.035
976	0.035
976	0.035
976	0.035
977	0.035
977	0.035
978	0.035
978	0.035
979	0.035
979	0.035
979	0.035
980	0.035
980	0.035
981	0.035
981	0.036
982	0.036
982	0.036
982	0.036
983	0.036
983	0.036
984	0.036
984	0.036
984	0.036
985	0.036
985	0.036
986	0.036
986	0.036
987	0.035
987	0.035
987	0.035
988	0.035
988	0.034
989	0.034
989	0.033
990	0.033
990	0.033
990	0.032
991	0.032
991	0.031
992	0.031
992	0.03
992	0.03
993	0.029
993	0.029
994	0.028
994	0.028
995	0.028
995	0.028
995	0.028
996	0.029
996	0.029
997	0.029
997	0.03
997	0.031
998	0.031
998	0.032
999	0.033
999	0.033
1000	0.034
1000	0.034
1000	0.034
1001	0.034
1001	0.034
1002	0.034
1002	0.033
1003	0.033
1003	0.032
1003	0.031
1004	0.03
1004	0.029
1005	0.028
1005	0.027
1005	0.026
1006	0.025
1006	0.025
1007	0.025
1007	0.025
1008	0.025
1008	0.025
1008	0.025
1009	0.026
1009	0.026
1010	0.026
1010	0.027
1010	0.027
1011	0.027
1011	0.027
1012	0.028
1012	0.028
1013	0.028
1013	0.028
1013	0.028
1014	0.027
1014	0.027
1015	0.027
1015	0.027
1016	0.027
1016	0.027
1016	0.026
1017	0.026
1017	0.025
1018	0.025
1018	0.025
1018	0.024
1019	0.024
1019	0.024
1020	0.024
1020	0.024
1021	0.024
1021	0.025
1021	0.025
1022	0.025
1022	0.025
1023	0.025
1023	0.025
1023	0.026
1024	0.026
1024	0.026
1025	0.026
1025	0.026
1026	0.026
1026	0.025
1026	0.025
1027	0.025
1027	0.025
1028	0.025
1028	0.025
1028	0.025
1029	0.025
1029	0.026
1030	0.026
1030	0.026
1031	0.026
1031	0.027
1031	0.027
1032	0.027
1032	0.027
1033	0.028
1033	0.028
1033	0.028
1034	0.027
1034	0.027
1035	0.027
1035	0.027
1036	0.026
1036	0.026
1036	0.025
1037	0.025
1037	0.025
1038	0.024
1038	0.024
1039	0.024
1039	0.024
1039	0.024
1040	0.024
1040	0.024
1041	0.025
1041	0.025
1041	0.025
1042	0.026
1042	0.026
1043	0.027
1043	0.027
1044	0.028
1044	0.028
1044	0.028
1045	0.029
1045	0.029
1046	0.03
1046	0.03
1046	0.031
1047	0.031
1047	0.032
1048	0.033
1048	0.033
1049	0.034
1049	0.034
1049	0.035
1050	0.035
1050	0.035
1051	0.035
1051	0.035
1051	0.035
1052	0.034
1052	0.034
1053	0.033
1053	0.033
1053	0.032
1054	0.031
1054	0.031
1055	0.031
1055	0.03
1056	0.03
1056	0.029
1056	0.028
1057	0.028
1057	0.027
1058	0.027
1058	0.026
1058	0.025
1059	0.024
1059	0.024
1060	0.023
1060	0.023
1061	0.023
1061	0.023
1061	0.022
1062	0.022
1062	0.022
1063	0.022
1063	0.022
1063	0.022
1064	0.022
1064	0.022
1065	0.022
1065	0.022
1066	0.022
1066	0.022
1066	0.022
1067	0.022
1067	0.022
1068	0.022
1068	0.022
1068	0.022
1069	0.022
1069	0.021
1070	0.021
1070	0.021
1071	0.02
1071	0.02
1071	0.019
1072	0.019
1072	0.018
1073	0.018
1073	0.017
1073	0.017
1074	0.018
1074	0.018
1075	0.018
1075	0.018
1076	0.019
1076	0.02
1076	0.02
1077	0.02
1077	0.02
1078	0.021
1078	0.021
1078	0.02
1079	0.02
1079	0.02
1080	0.019
1080	0.018
1080	0.018
1081	0.018
1081	0.018
1082	0.019
1082	0.019
1083	0.019
1083	0.019
1083	0.019
1084	0.019
1084	0.02
1085	0.02
1085	0.02
1085	0.02
1086	0.02
1086	0.019
1087	0.018
1087	0.018
1088	0.018
1088	0.018
1088	0.017
1089	0.017
1089	0.016
1090	0.015
1090	0.015
1090	0.014
1091	0.013
1091	0.013
1092	0.013
1092	0.013
1092	0.013
1093	0.012
1093	0.013
1094	0.013
1094	0.013
1095	0.012
1095	0.012
1095	0.012
1096	0.012
1096	0.011
1097	0.01
1097	0.01
1097	0.01
1098	0.01
1098	0.009
1099	0.009
1099	0.008
1100	0.008
1100	0.007
1100	0.007
1101	0.007
1101	0.006
1102	0.006
1102	0.005
1102	0.004
1103	0.004
1103	0.003
1104	0.004
1104	0.003
1104	0.002
1105	0
1105	-0.001
1106	-0.002
1106	-0.004
1107	-0.005
1107	-0.006
1107	-0.007
1108	-0.008
1108	-0.01
1109	-0.012
1109	-0.013
1109	-0.012
1110	-0.011
1110	-0.013
1111	-0.013
1111	-0.017
