Data from reversibility-20sec_Absorbance__1154__000000000001154.txt Node

Date: Tue Dec 05 18:37:46 CET 2023
User: Marek
Spectrometer: MAYP115816
Trigger mode: 0
Integration Time (sec): 2.000000E-1
Scans to average: 10
Electric dark correction enabled: true
Nonlinearity correction enabled: true
Boxcar width: 5
XAxis mode: Wavelengths
Number of Pixels in Spectrum: 2068
>>>>>Begin Spectral Data<<<<<
199	-0.22
199	-0.203
200	-0.125
200	-0.072
201	-0.038
201	-0.019
202	-0.007
202	0.002
203	0.009
203	0.012
204	0.024
204	0.038
205	0.054
205	0.058
205	0.056
206	0.054
206	0.055
207	0.059
207	0.056
208	0.059
208	0.06
209	0.063
209	0.06
210	0.059
210	0.06
211	0.062
211	0.065
212	0.06
212	0.063
213	0.068
213	0.066
213	0.068
214	0.073
214	0.076
215	0.081
215	0.08
216	0.081
216	0.08
217	0.084
217	0.084
218	0.083
218	0.088
219	0.091
219	0.091
220	0.093
220	0.092
221	0.094
221	0.097
221	0.103
222	0.107
222	0.111
223	0.117
223	0.12
224	0.125
224	0.131
225	0.14
225	0.147
226	0.156
226	0.166
227	0.179
227	0.191
228	0.206
228	0.221
229	0.238
229	0.262
229	0.287
230	0.31
230	0.342
231	0.375
231	0.413
232	0.45
232	0.494
233	0.539
233	0.589
234	0.637
234	0.689
235	0.737
235	0.795
236	0.85
236	0.901
236	0.956
237	1.009
237	1.058
238	1.106
238	1.155
239	1.208
239	1.254
240	1.301
240	1.339
241	1.378
241	1.417
242	1.453
242	1.488
243	1.522
243	1.553
243	1.583
244	1.608
244	1.635
245	1.657
245	1.685
246	1.709
246	1.732
247	1.747
247	1.767
248	1.787
248	1.806
249	1.82
249	1.833
250	1.843
250	1.856
250	1.864
251	1.872
251	1.878
252	1.887
252	1.893
253	1.898
253	1.899
254	1.902
254	1.907
255	1.907
255	1.912
256	1.914
256	1.916
257	1.918
257	1.92
258	1.922
258	1.926
258	1.93
259	1.934
259	1.935
260	1.938
260	1.941
261	1.943
261	1.945
262	1.949
262	1.953
263	1.958
263	1.958
264	1.958
264	1.963
265	1.965
265	1.968
265	1.971
266	1.974
266	1.981
267	1.981
267	1.984
268	1.985
268	1.988
269	1.994
269	1.992
270	1.994
270	1.994
271	1.993
271	1.994
272	1.989
272	1.99
272	1.988
273	1.981
273	1.975
274	1.97
274	1.966
275	1.958
275	1.954
276	1.946
276	1.94
277	1.932
277	1.922
278	1.913
278	1.903
278	1.892
279	1.874
279	1.855
280	1.831
280	1.802
281	1.767
281	1.727
282	1.686
282	1.643
283	1.601
283	1.559
284	1.519
284	1.48
285	1.443
285	1.408
285	1.378
286	1.35
286	1.327
287	1.305
287	1.287
288	1.271
288	1.257
289	1.245
289	1.234
290	1.225
290	1.217
291	1.21
291	1.204
292	1.198
292	1.193
292	1.188
293	1.183
293	1.179
294	1.175
294	1.171
295	1.168
295	1.164
296	1.16
296	1.157
297	1.153
297	1.15
298	1.147
298	1.143
298	1.14
299	1.137
299	1.134
300	1.131
300	1.128
301	1.125
301	1.122
302	1.119
302	1.117
303	1.114
303	1.111
304	1.108
304	1.106
305	1.103
305	1.101
305	1.098
306	1.095
306	1.092
307	1.089
307	1.086
308	1.083
308	1.08
309	1.077
309	1.074
310	1.07
310	1.067
311	1.064
311	1.06
311	1.056
312	1.052
312	1.049
313	1.045
313	1.041
314	1.036
314	1.031
315	1.027
315	1.022
316	1.018
316	1.013
317	1.008
317	1.003
318	0.997
318	0.992
318	0.986
319	0.98
319	0.975
320	0.969
320	0.963
321	0.957
321	0.95
322	0.944
322	0.937
323	0.93
323	0.924
324	0.917
324	0.911
324	0.904
325	0.897
325	0.89
326	0.883
326	0.876
327	0.869
327	0.862
328	0.855
328	0.847
329	0.84
329	0.833
330	0.825
330	0.818
330	0.811
331	0.804
331	0.797
332	0.79
332	0.782
333	0.775
333	0.768
334	0.761
334	0.754
335	0.747
335	0.74
336	0.733
336	0.726
336	0.719
337	0.713
337	0.707
338	0.7
338	0.693
339	0.687
339	0.681
340	0.675
340	0.669
341	0.663
341	0.657
342	0.652
342	0.646
342	0.64
343	0.635
343	0.63
344	0.625
344	0.62
345	0.615
345	0.61
346	0.606
346	0.601
347	0.596
347	0.592
348	0.588
348	0.583
348	0.579
349	0.575
349	0.571
350	0.568
350	0.564
351	0.56
351	0.556
352	0.553
352	0.549
353	0.546
353	0.543
354	0.54
354	0.536
354	0.533
355	0.53
355	0.527
356	0.524
356	0.521
357	0.517
357	0.514
358	0.511
358	0.508
359	0.505
359	0.503
360	0.5
360	0.498
360	0.495
361	0.493
361	0.491
362	0.49
362	0.488
363	0.486
363	0.484
364	0.481
364	0.479
365	0.477
365	0.475
366	0.473
366	0.471
366	0.469
367	0.467
367	0.465
368	0.463
368	0.461
369	0.459
369	0.458
370	0.456
370	0.454
371	0.452
371	0.451
372	0.449
372	0.447
372	0.446
373	0.445
373	0.443
374	0.442
374	0.44
375	0.439
375	0.438
376	0.437
376	0.436
377	0.434
377	0.433
378	0.432
378	0.431
378	0.43
379	0.428
379	0.427
380	0.426
380	0.425
381	0.424
381	0.422
382	0.421
382	0.421
383	0.42
383	0.419
383	0.418
384	0.417
384	0.416
385	0.415
385	0.414
386	0.413
386	0.412
387	0.412
387	0.411
388	0.41
388	0.409
389	0.408
389	0.408
389	0.407
390	0.406
390	0.405
391	0.405
391	0.404
392	0.403
392	0.403
393	0.402
393	0.401
394	0.401
394	0.4
394	0.399
395	0.399
395	0.398
396	0.397
396	0.396
397	0.395
397	0.394
398	0.394
398	0.393
399	0.392
399	0.391
400	0.391
400	0.39
400	0.39
401	0.389
401	0.389
402	0.388
402	0.388
403	0.387
403	0.386
404	0.386
404	0.386
405	0.385
405	0.385
405	0.384
406	0.384
406	0.383
407	0.383
407	0.382
408	0.381
408	0.381
409	0.381
409	0.38
410	0.38
410	0.379
411	0.379
411	0.378
411	0.378
412	0.377
412	0.377
413	0.376
413	0.376
414	0.375
414	0.375
415	0.374
415	0.374
416	0.374
416	0.373
416	0.372
417	0.372
417	0.372
418	0.372
418	0.371
419	0.371
419	0.37
420	0.37
420	0.369
421	0.369
421	0.368
421	0.368
422	0.367
422	0.367
423	0.366
423	0.366
424	0.365
424	0.365
425	0.365
425	0.364
426	0.364
426	0.364
427	0.364
427	0.363
427	0.363
428	0.363
428	0.362
429	0.362
429	0.361
430	0.361
430	0.361
431	0.361
431	0.36
432	0.36
432	0.36
432	0.359
433	0.359
433	0.359
434	0.359
434	0.359
435	0.358
435	0.358
436	0.358
436	0.358
437	0.358
437	0.357
437	0.357
438	0.357
438	0.357
439	0.356
439	0.356
440	0.356
440	0.356
441	0.355
441	0.355
442	0.355
442	0.355
442	0.355
443	0.355
443	0.355
444	0.355
444	0.355
445	0.355
445	0.354
446	0.354
446	0.354
447	0.354
447	0.354
447	0.354
448	0.354
448	0.354
449	0.353
449	0.353
450	0.353
450	0.353
451	0.353
451	0.353
452	0.353
452	0.353
452	0.353
453	0.353
453	0.353
454	0.353
454	0.352
455	0.353
455	0.352
456	0.353
456	0.353
457	0.353
457	0.353
458	0.353
458	0.353
458	0.353
459	0.353
459	0.353
460	0.353
460	0.353
461	0.353
461	0.353
462	0.353
462	0.353
463	0.353
463	0.353
463	0.354
464	0.354
464	0.354
465	0.354
465	0.354
466	0.355
466	0.355
467	0.355
467	0.355
467	0.355
468	0.356
468	0.356
469	0.356
469	0.357
470	0.357
470	0.357
471	0.358
471	0.358
472	0.359
472	0.36
472	0.36
473	0.361
473	0.361
474	0.361
474	0.361
475	0.362
475	0.363
476	0.363
476	0.364
477	0.364
477	0.365
477	0.365
478	0.366
478	0.367
479	0.368
479	0.369
480	0.369
480	0.37
481	0.371
481	0.371
482	0.372
482	0.373
482	0.374
483	0.375
483	0.376
484	0.377
484	0.378
485	0.379
485	0.38
486	0.38
486	0.381
487	0.382
487	0.383
487	0.384
488	0.385
488	0.386
489	0.388
489	0.39
490	0.391
490	0.393
491	0.395
491	0.396
492	0.398
492	0.399
492	0.4
493	0.402
493	0.403
494	0.405
494	0.407
495	0.408
495	0.41
496	0.412
496	0.413
496	0.415
497	0.416
497	0.418
498	0.419
498	0.421
499	0.422
499	0.424
500	0.426
500	0.428
501	0.429
501	0.431
501	0.432
502	0.433
502	0.435
503	0.436
503	0.438
504	0.439
504	0.441
505	0.442
505	0.443
506	0.444
506	0.446
506	0.447
507	0.449
507	0.45
508	0.451
508	0.453
509	0.454
509	0.456
510	0.457
510	0.459
511	0.46
511	0.462
511	0.463
512	0.464
512	0.465
513	0.466
513	0.467
514	0.468
514	0.469
515	0.47
515	0.471
515	0.471
516	0.472
516	0.472
517	0.473
517	0.474
518	0.474
518	0.475
519	0.475
519	0.475
520	0.475
520	0.475
520	0.475
521	0.475
521	0.475
522	0.475
522	0.475
523	0.475
523	0.474
524	0.474
524	0.474
524	0.474
525	0.473
525	0.473
526	0.472
526	0.472
527	0.471
527	0.47
528	0.469
528	0.468
529	0.466
529	0.465
529	0.463
530	0.462
530	0.46
531	0.459
531	0.457
532	0.456
532	0.454
533	0.453
533	0.451
533	0.449
534	0.447
534	0.446
535	0.444
535	0.442
536	0.44
536	0.438
537	0.436
537	0.434
538	0.431
538	0.429
538	0.427
539	0.424
539	0.422
540	0.42
540	0.418
541	0.415
541	0.412
542	0.41
542	0.407
542	0.405
543	0.402
543	0.399
544	0.397
544	0.394
545	0.391
545	0.389
546	0.386
546	0.383
547	0.38
547	0.377
547	0.375
548	0.372
548	0.37
549	0.367
549	0.364
550	0.361
550	0.358
551	0.355
551	0.352
551	0.349
552	0.346
552	0.344
553	0.341
553	0.339
554	0.336
554	0.333
555	0.33
555	0.327
556	0.325
556	0.322
556	0.32
557	0.317
557	0.315
558	0.313
558	0.31
559	0.308
559	0.305
560	0.303
560	0.301
560	0.298
561	0.296
561	0.293
562	0.291
562	0.288
563	0.286
563	0.283
564	0.281
564	0.278
564	0.276
565	0.274
565	0.272
566	0.27
566	0.268
567	0.266
567	0.264
568	0.262
568	0.26
568	0.258
569	0.256
569	0.254
570	0.252
570	0.25
571	0.248
571	0.246
572	0.244
572	0.242
573	0.24
573	0.238
573	0.236
574	0.235
574	0.233
575	0.231
575	0.23
576	0.229
576	0.226
577	0.225
577	0.223
577	0.222
578	0.22
578	0.219
579	0.218
579	0.217
580	0.215
580	0.213
581	0.211
581	0.21
581	0.209
582	0.208
582	0.207
583	0.206
583	0.204
584	0.202
584	0.2
585	0.198
585	0.197
585	0.195
586	0.194
586	0.192
587	0.19
587	0.189
588	0.187
588	0.186
589	0.185
589	0.184
590	0.184
590	0.183
590	0.183
591	0.182
591	0.181
592	0.179
592	0.178
593	0.177
593	0.176
594	0.175
594	0.174
594	0.172
595	0.171
595	0.17
596	0.168
596	0.168
597	0.168
597	0.167
598	0.166
598	0.166
598	0.165
599	0.164
599	0.163
600	0.162
600	0.161
601	0.161
601	0.16
602	0.159
602	0.157
602	0.156
603	0.155
603	0.155
604	0.154
604	0.154
605	0.153
605	0.153
606	0.152
606	0.151
606	0.15
607	0.149
607	0.149
608	0.148
608	0.146
609	0.145
609	0.145
610	0.144
610	0.143
610	0.142
611	0.142
611	0.141
612	0.14
612	0.14
613	0.14
613	0.139
614	0.139
614	0.138
614	0.137
615	0.136
615	0.136
616	0.135
616	0.134
617	0.134
617	0.133
618	0.133
618	0.132
618	0.132
619	0.132
619	0.132
620	0.132
620	0.131
621	0.13
621	0.13
622	0.129
622	0.128
622	0.127
623	0.126
623	0.125
624	0.125
624	0.123
625	0.123
625	0.122
626	0.122
626	0.121
626	0.121
627	0.12
627	0.12
628	0.119
628	0.119
629	0.118
629	0.118
630	0.117
630	0.117
630	0.117
631	0.116
631	0.116
632	0.116
632	0.115
633	0.115
633	0.115
634	0.115
634	0.115
634	0.114
635	0.114
635	0.113
636	0.113
636	0.112
637	0.112
637	0.111
638	0.111
638	0.11
638	0.109
639	0.109
639	0.108
640	0.108
640	0.107
641	0.107
641	0.107
642	0.106
642	0.106
642	0.106
643	0.106
643	0.105
644	0.105
644	0.105
645	0.105
645	0.105
646	0.104
646	0.104
646	0.104
647	0.103
647	0.103
648	0.102
648	0.101
649	0.1
649	0.1
650	0.099
650	0.099
650	0.099
651	0.098
651	0.098
652	0.098
652	0.098
653	0.099
653	0.101
653	0.108
654	0.087
654	0.071
655	0.069
655	0.069
656	0.069
656	0.07
657	0.07
657	0.07
657	0.07
658	0.068
658	0.06
659	0.074
659	0.093
660	0.098
660	0.097
661	0.096
661	0.096
661	0.095
662	0.094
662	0.093
663	0.093
663	0.092
664	0.091
664	0.091
665	0.09
665	0.09
665	0.09
666	0.089
666	0.089
667	0.089
667	0.089
668	0.089
668	0.089
669	0.089
669	0.089
669	0.09
670	0.09
670	0.09
671	0.089
671	0.089
672	0.089
672	0.088
672	0.088
673	0.087
673	0.087
674	0.087
674	0.087
675	0.086
675	0.086
676	0.086
676	0.086
676	0.086
677	0.085
677	0.085
678	0.085
678	0.084
679	0.084
679	0.084
680	0.084
680	0.083
680	0.083
681	0.083
681	0.083
682	0.083
682	0.083
683	0.083
683	0.084
684	0.084
684	0.084
684	0.083
685	0.083
685	0.083
686	0.083
686	0.082
687	0.082
687	0.081
687	0.081
688	0.081
688	0.081
689	0.081
689	0.081
690	0.081
690	0.081
691	0.081
691	0.081
691	0.082
692	0.082
692	0.082
693	0.082
693	0.082
694	0.081
694	0.081
695	0.081
695	0.082
695	0.082
696	0.081
696	0.081
697	0.081
697	0.08
698	0.08
698	0.08
698	0.08
699	0.08
699	0.08
700	0.079
700	0.079
701	0.079
701	0.079
702	0.079
702	0.078
702	0.078
703	0.078
703	0.077
704	0.076
704	0.076
705	0.076
705	0.075
705	0.075
706	0.074
706	0.074
707	0.074
707	0.074
708	0.074
708	0.073
709	0.073
709	0.073
709	0.073
710	0.072
710	0.072
711	0.072
711	0.072
712	0.072
712	0.072
713	0.072
713	0.072
713	0.072
714	0.072
714	0.071
715	0.071
715	0.071
716	0.071
716	0.071
716	0.07
717	0.07
717	0.07
718	0.069
718	0.069
719	0.069
719	0.069
720	0.069
720	0.07
720	0.07
721	0.07
721	0.07
722	0.07
722	0.07
723	0.07
723	0.07
723	0.07
724	0.07
724	0.07
725	0.07
725	0.069
726	0.069
726	0.068
727	0.068
727	0.067
727	0.067
728	0.066
728	0.066
729	0.066
729	0.065
730	0.065
730	0.065
730	0.065
731	0.065
731	0.065
732	0.066
732	0.066
733	0.066
733	0.066
734	0.066
734	0.066
734	0.066
735	0.067
735	0.067
736	0.067
736	0.067
737	0.066
737	0.066
737	0.066
738	0.065
738	0.065
739	0.064
739	0.064
740	0.063
740	0.063
741	0.063
741	0.062
741	0.061
742	0.061
742	0.061
743	0.062
743	0.062
744	0.062
744	0.062
744	0.062
745	0.062
745	0.062
746	0.062
746	0.062
747	0.062
747	0.063
748	0.063
748	0.063
748	0.063
749	0.063
749	0.064
750	0.064
750	0.064
751	0.064
751	0.064
751	0.063
752	0.063
752	0.062
753	0.062
753	0.062
754	0.061
754	0.061
754	0.061
755	0.061
755	0.061
756	0.06
756	0.059
757	0.058
757	0.058
758	0.057
758	0.057
758	0.057
759	0.057
759	0.056
760	0.056
760	0.056
761	0.056
761	0.057
761	0.058
762	0.058
762	0.058
763	0.059
763	0.058
764	0.058
764	0.058
764	0.058
765	0.057
765	0.057
766	0.056
766	0.056
767	0.056
767	0.055
768	0.054
768	0.054
768	0.054
769	0.053
769	0.053
770	0.053
770	0.054
771	0.054
771	0.054
771	0.054
772	0.054
772	0.055
773	0.055
773	0.055
774	0.055
774	0.056
775	0.056
775	0.056
775	0.056
776	0.056
776	0.056
777	0.056
777	0.055
778	0.055
778	0.054
778	0.054
779	0.054
779	0.053
780	0.053
780	0.052
781	0.052
781	0.051
781	0.051
782	0.051
782	0.051
783	0.052
783	0.052
784	0.052
784	0.052
784	0.052
785	0.053
785	0.053
786	0.053
786	0.053
787	0.053
787	0.053
788	0.052
788	0.052
788	0.051
789	0.051
789	0.051
790	0.051
790	0.051
791	0.051
791	0.05
791	0.05
792	0.051
792	0.051
793	0.051
793	0.051
794	0.05
794	0.05
794	0.05
795	0.05
795	0.05
796	0.05
796	0.05
797	0.049
797	0.049
797	0.049
798	0.049
798	0.048
799	0.048
799	0.048
800	0.047
800	0.046
801	0.046
801	0.045
801	0.045
802	0.045
802	0.045
803	0.045
803	0.046
804	0.047
804	0.048
804	0.048
805	0.049
805	0.049
806	0.05
806	0.05
807	0.05
807	0.05
807	0.05
808	0.05
808	0.049
809	0.049
809	0.049
810	0.049
810	0.049
810	0.049
811	0.049
811	0.049
812	0.049
812	0.049
813	0.049
813	0.049
813	0.049
814	0.049
814	0.049
815	0.049
815	0.049
816	0.049
816	0.049
817	0.048
817	0.048
817	0.048
818	0.047
818	0.047
819	0.047
819	0.046
820	0.046
820	0.045
820	0.045
821	0.045
821	0.045
822	0.045
822	0.045
823	0.045
823	0.045
823	0.045
824	0.046
824	0.046
825	0.047
825	0.047
826	0.047
826	0.047
826	0.047
827	0.047
827	0.047
828	0.047
828	0.047
829	0.047
829	0.047
829	0.047
830	0.048
830	0.048
831	0.049
831	0.049
832	0.049
832	0.049
832	0.049
833	0.049
833	0.049
834	0.049
834	0.049
835	0.049
835	0.049
835	0.049
836	0.049
836	0.049
837	0.049
837	0.049
838	0.049
838	0.048
839	0.048
839	0.047
839	0.046
840	0.045
840	0.044
841	0.043
841	0.042
842	0.041
842	0.04
842	0.04
843	0.04
843	0.039
844	0.039
844	0.039
845	0.039
845	0.039
845	0.039
846	0.039
846	0.039
847	0.04
847	0.04
848	0.04
848	0.041
848	0.042
849	0.042
849	0.043
850	0.043
850	0.044
851	0.044
851	0.045
851	0.044
852	0.044
852	0.043
853	0.043
853	0.042
854	0.042
854	0.042
854	0.042
855	0.042
855	0.042
856	0.043
856	0.043
857	0.043
857	0.044
857	0.044
858	0.044
858	0.043
859	0.042
859	0.042
860	0.041
860	0.04
860	0.039
861	0.038
861	0.037
862	0.036
862	0.035
863	0.034
863	0.034
863	0.033
864	0.033
864	0.033
865	0.033
865	0.033
866	0.033
866	0.033
866	0.033
867	0.034
867	0.034
868	0.034
868	0.034
869	0.035
869	0.035
869	0.035
870	0.035
870	0.036
871	0.036
871	0.037
872	0.037
872	0.038
872	0.038
873	0.038
873	0.038
874	0.038
874	0.038
875	0.038
875	0.038
875	0.038
876	0.038
876	0.038
877	0.038
877	0.038
878	0.038
878	0.039
878	0.04
879	0.041
879	0.042
880	0.042
880	0.043
881	0.043
881	0.044
881	0.044
882	0.044
882	0.043
883	0.042
883	0.042
884	0.041
884	0.041
884	0.04
885	0.039
885	0.039
886	0.038
886	0.037
887	0.037
887	0.036
887	0.036
888	0.035
888	0.035
889	0.034
889	0.034
890	0.034
890	0.034
890	0.034
891	0.035
891	0.035
892	0.035
892	0.036
893	0.037
893	0.037
893	0.038
894	0.038
894	0.038
895	0.038
895	0.038
895	0.038
896	0.038
896	0.037
897	0.037
897	0.036
898	0.035
898	0.035
898	0.035
899	0.034
899	0.034
900	0.034
900	0.034
901	0.034
901	0.034
901	0.035
902	0.035
902	0.035
903	0.034
903	0.034
904	0.034
904	0.034
904	0.033
905	0.033
905	0.033
906	0.033
906	0.033
907	0.033
907	0.034
907	0.034
908	0.035
908	0.035
909	0.036
909	0.036
910	0.037
910	0.037
910	0.037
911	0.037
911	0.037
912	0.037
912	0.037
913	0.037
913	0.037
913	0.037
914	0.037
914	0.037
915	0.036
915	0.036
916	0.036
916	0.036
916	0.035
917	0.035
917	0.034
918	0.033
918	0.033
918	0.032
919	0.032
919	0.032
920	0.032
920	0.032
921	0.032
921	0.033
921	0.033
922	0.033
922	0.034
923	0.034
923	0.035
924	0.036
924	0.036
924	0.037
925	0.037
925	0.037
926	0.037
926	0.037
927	0.037
927	0.037
927	0.037
928	0.037
928	0.037
929	0.036
929	0.036
930	0.036
930	0.036
930	0.036
931	0.036
931	0.036
932	0.036
932	0.037
933	0.037
933	0.036
933	0.036
934	0.036
934	0.036
935	0.036
935	0.036
935	0.035
936	0.035
936	0.035
937	0.035
937	0.035
938	0.035
938	0.035
938	0.035
939	0.035
939	0.035
940	0.036
940	0.036
941	0.037
941	0.037
941	0.038
942	0.038
942	0.038
943	0.039
943	0.039
944	0.039
944	0.039
944	0.039
945	0.039
945	0.039
946	0.039
946	0.039
946	0.039
947	0.039
947	0.039
948	0.039
948	0.039
949	0.039
949	0.039
949	0.039
950	0.039
950	0.039
951	0.039
951	0.039
952	0.038
952	0.038
952	0.038
953	0.037
953	0.037
954	0.036
954	0.036
955	0.035
955	0.034
955	0.034
956	0.034
956	0.034
957	0.034
957	0.035
957	0.035
958	0.036
958	0.036
959	0.036
959	0.037
960	0.037
960	0.037
960	0.037
961	0.037
961	0.037
962	0.037
962	0.037
963	0.036
963	0.036
963	0.037
964	0.037
964	0.037
965	0.037
965	0.037
966	0.038
966	0.038
966	0.039
967	0.039
967	0.04
968	0.04
968	0.04
968	0.041
969	0.041
969	0.04
970	0.04
970	0.04
971	0.04
971	0.04
971	0.039
972	0.039
972	0.039
973	0.038
973	0.038
974	0.038
974	0.038
974	0.038
975	0.038
975	0.038
976	0.039
976	0.039
976	0.039
977	0.039
977	0.039
978	0.039
978	0.04
979	0.04
979	0.04
979	0.04
980	0.04
980	0.039
981	0.039
981	0.039
982	0.039
982	0.039
982	0.038
983	0.038
983	0.037
984	0.037
984	0.036
984	0.035
985	0.034
985	0.034
986	0.033
986	0.033
987	0.032
987	0.032
987	0.031
988	0.031
988	0.031
989	0.031
989	0.03
990	0.03
990	0.03
990	0.029
991	0.029
991	0.029
992	0.028
992	0.028
992	0.027
993	0.027
993	0.027
994	0.027
994	0.027
995	0.027
995	0.027
995	0.027
996	0.028
996	0.028
997	0.029
997	0.03
997	0.03
998	0.031
998	0.032
999	0.033
999	0.034
1000	0.035
1000	0.035
1000	0.036
1001	0.036
1001	0.037
1002	0.037
1002	0.037
1003	0.037
1003	0.037
1003	0.036
1004	0.036
1004	0.035
1005	0.035
1005	0.034
1005	0.033
1006	0.033
1006	0.033
1007	0.033
1007	0.032
1008	0.032
1008	0.032
1008	0.032
1009	0.032
1009	0.032
1010	0.032
1010	0.032
1010	0.032
1011	0.032
1011	0.031
1012	0.031
1012	0.031
1013	0.031
1013	0.03
1013	0.03
1014	0.03
1014	0.03
1015	0.029
1015	0.029
1016	0.029
1016	0.029
1016	0.029
1017	0.028
1017	0.028
1018	0.028
1018	0.028
1018	0.028
1019	0.028
1019	0.027
1020	0.027
1020	0.027
1021	0.027
1021	0.027
1021	0.027
1022	0.027
1022	0.027
1023	0.027
1023	0.027
1023	0.027
1024	0.027
1024	0.027
1025	0.027
1025	0.026
1026	0.026
1026	0.025
1026	0.025
1027	0.024
1027	0.024
1028	0.023
1028	0.023
1028	0.023
1029	0.023
1029	0.023
1030	0.023
1030	0.023
1031	0.023
1031	0.023
1031	0.023
1032	0.024
1032	0.024
1033	0.024
1033	0.024
1033	0.024
1034	0.024
1034	0.024
1035	0.024
1035	0.023
1036	0.023
1036	0.023
1036	0.023
1037	0.023
1037	0.023
1038	0.023
1038	0.023
1039	0.023
1039	0.024
1039	0.024
1040	0.025
1040	0.026
1041	0.027
1041	0.027
1041	0.028
1042	0.028
1042	0.029
1043	0.029
1043	0.029
1044	0.03
1044	0.03
1044	0.03
1045	0.03
1045	0.031
1046	0.031
1046	0.031
1046	0.032
1047	0.032
1047	0.032
1048	0.033
1048	0.033
1049	0.034
1049	0.034
1049	0.034
1050	0.034
1050	0.034
1051	0.033
1051	0.033
1051	0.033
1052	0.032
1052	0.032
1053	0.031
1053	0.03
1053	0.03
1054	0.029
1054	0.029
1055	0.029
1055	0.029
1056	0.028
1056	0.028
1056	0.028
1057	0.027
1057	0.027
1058	0.026
1058	0.025
1058	0.024
1059	0.024
1059	0.023
1060	0.022
1060	0.022
1061	0.021
1061	0.021
1061	0.021
1062	0.02
1062	0.02
1063	0.02
1063	0.02
1063	0.02
1064	0.02
1064	0.02
1065	0.02
1065	0.02
1066	0.02
1066	0.02
1066	0.02
1067	0.02
1067	0.02
1068	0.02
1068	0.02
1068	0.019
1069	0.019
1069	0.019
1070	0.018
1070	0.018
1071	0.018
1071	0.017
1071	0.016
1072	0.016
1072	0.015
1073	0.014
1073	0.014
1073	0.013
1074	0.013
1074	0.013
1075	0.013
1075	0.013
1076	0.013
1076	0.014
1076	0.014
1077	0.014
1077	0.015
1078	0.015
1078	0.015
1078	0.015
1079	0.016
1079	0.016
1080	0.016
1080	0.017
1080	0.017
1081	0.017
1081	0.017
1082	0.018
1082	0.018
1083	0.018
1083	0.018
1083	0.018
1084	0.019
1084	0.019
1085	0.018
1085	0.018
1085	0.018
1086	0.017
1086	0.017
1087	0.017
1087	0.016
1088	0.016
1088	0.016
1088	0.015
1089	0.015
1089	0.015
1090	0.014
1090	0.014
1090	0.013
1091	0.012
1091	0.012
1092	0.012
1092	0.013
1092	0.012
1093	0.011
1093	0.011
1094	0.011
1094	0.01
1095	0.01
1095	0.009
1095	0.009
1096	0.008
1096	0.007
1097	0.006
1097	0.006
1097	0.006
1098	0.005
1098	0.005
1099	0.005
1099	0.003
1100	0.003
1100	0.003
1100	0.001
1101	0.001
1101	0
1102	-0
1102	-0.002
1102	-0.003
1103	-0.003
1103	-0.004
1104	-0.004
1104	-0.005
1104	-0.005
1105	-0.006
1105	-0.008
1106	-0.01
1106	-0.011
1107	-0.013
1107	-0.014
1107	-0.015
1108	-0.016
1108	-0.017
1109	-0.019
1109	-0.02
1109	-0.02
1110	-0.02
1110	-0.02
1111	-0.02
1111	-0.019
