Data from reversibility-20sec_Absorbance__5960__000000000005960.txt Node

Date: Wed Dec 06 21:19:45 CET 2023
User: Marek
Spectrometer: MAYP115816
Trigger mode: 0
Integration Time (sec): 2.000000E-1
Scans to average: 10
Electric dark correction enabled: true
Nonlinearity correction enabled: true
Boxcar width: 5
XAxis mode: Wavelengths
Number of Pixels in Spectrum: 2068
>>>>>Begin Spectral Data<<<<<
199	-0.159
199	-0.132
200	-0.061
200	-0.012
201	0.014
201	0.035
202	0.044
202	0.054
203	0.06
203	0.064
204	0.076
204	0.088
205	0.102
205	0.106
205	0.103
206	0.103
206	0.101
207	0.103
207	0.101
208	0.101
208	0.1
209	0.102
209	0.103
210	0.101
210	0.101
211	0.104
211	0.105
212	0.102
212	0.105
213	0.108
213	0.11
213	0.109
214	0.113
214	0.113
215	0.116
215	0.12
216	0.12
216	0.117
217	0.122
217	0.124
218	0.123
218	0.127
219	0.134
219	0.132
220	0.135
220	0.133
221	0.132
221	0.135
221	0.143
222	0.148
222	0.152
223	0.158
223	0.157
224	0.163
224	0.172
225	0.181
225	0.192
226	0.2
226	0.212
227	0.222
227	0.23
228	0.245
228	0.262
229	0.281
229	0.303
229	0.325
230	0.348
230	0.379
231	0.413
231	0.449
232	0.484
232	0.528
233	0.571
233	0.618
234	0.667
234	0.72
235	0.772
235	0.824
236	0.874
236	0.922
236	0.971
237	1.023
237	1.074
238	1.121
238	1.168
239	1.215
239	1.255
240	1.292
240	1.331
241	1.367
241	1.403
242	1.436
242	1.469
243	1.496
243	1.521
243	1.545
244	1.567
244	1.588
245	1.607
245	1.627
246	1.645
246	1.661
247	1.674
247	1.687
248	1.702
248	1.715
249	1.724
249	1.733
250	1.74
250	1.75
250	1.755
251	1.758
251	1.76
252	1.765
252	1.768
253	1.767
253	1.764
254	1.763
254	1.764
255	1.764
255	1.762
256	1.76
256	1.759
257	1.759
257	1.758
258	1.757
258	1.758
258	1.76
259	1.76
259	1.761
260	1.76
260	1.76
261	1.76
261	1.763
262	1.767
262	1.767
263	1.769
263	1.77
264	1.77
264	1.772
265	1.772
265	1.772
265	1.773
266	1.774
266	1.773
267	1.772
267	1.773
268	1.773
268	1.773
269	1.775
269	1.772
270	1.772
270	1.77
271	1.767
271	1.767
272	1.766
272	1.764
272	1.761
273	1.756
273	1.751
274	1.745
274	1.739
275	1.732
275	1.727
276	1.721
276	1.713
277	1.704
277	1.693
278	1.681
278	1.668
278	1.655
279	1.638
279	1.618
280	1.594
280	1.565
281	1.53
281	1.492
282	1.451
282	1.41
283	1.369
283	1.329
284	1.289
284	1.251
285	1.215
285	1.182
285	1.153
286	1.128
286	1.105
287	1.085
287	1.068
288	1.054
288	1.041
289	1.031
289	1.022
290	1.014
290	1.007
291	1.001
291	0.996
292	0.991
292	0.986
292	0.982
293	0.979
293	0.975
294	0.971
294	0.968
295	0.965
295	0.962
296	0.958
296	0.955
297	0.952
297	0.95
298	0.947
298	0.944
298	0.941
299	0.938
299	0.936
300	0.933
300	0.93
301	0.928
301	0.925
302	0.923
302	0.92
303	0.918
303	0.915
304	0.913
304	0.911
305	0.909
305	0.906
305	0.904
306	0.902
306	0.899
307	0.897
307	0.894
308	0.892
308	0.889
309	0.886
309	0.884
310	0.881
310	0.878
311	0.875
311	0.872
311	0.869
312	0.865
312	0.862
313	0.859
313	0.855
314	0.851
314	0.847
315	0.843
315	0.839
316	0.834
316	0.83
317	0.826
317	0.821
318	0.816
318	0.811
318	0.806
319	0.8
319	0.795
320	0.789
320	0.784
321	0.778
321	0.772
322	0.766
322	0.76
323	0.753
323	0.747
324	0.74
324	0.734
324	0.727
325	0.721
325	0.714
326	0.707
326	0.7
327	0.693
327	0.686
328	0.68
328	0.673
329	0.666
329	0.659
330	0.652
330	0.645
330	0.638
331	0.632
331	0.625
332	0.618
332	0.611
333	0.604
333	0.597
334	0.59
334	0.583
335	0.577
335	0.57
336	0.563
336	0.556
336	0.55
337	0.544
337	0.537
338	0.531
338	0.525
339	0.519
339	0.513
340	0.507
340	0.502
341	0.496
341	0.491
342	0.485
342	0.48
342	0.474
343	0.469
343	0.464
344	0.459
344	0.454
345	0.45
345	0.445
346	0.441
346	0.436
347	0.432
347	0.428
348	0.424
348	0.42
348	0.416
349	0.412
349	0.408
350	0.405
350	0.401
351	0.398
351	0.395
352	0.392
352	0.389
353	0.385
353	0.383
354	0.38
354	0.377
354	0.374
355	0.371
355	0.368
356	0.366
356	0.363
357	0.36
357	0.357
358	0.355
358	0.352
359	0.35
359	0.348
360	0.345
360	0.344
360	0.342
361	0.34
361	0.338
362	0.337
362	0.335
363	0.333
363	0.332
364	0.33
364	0.328
365	0.326
365	0.324
366	0.322
366	0.321
366	0.319
367	0.317
367	0.316
368	0.314
368	0.313
369	0.311
369	0.31
370	0.309
370	0.307
371	0.306
371	0.305
372	0.304
372	0.302
372	0.301
373	0.3
373	0.299
374	0.299
374	0.297
375	0.297
375	0.296
376	0.295
376	0.294
377	0.293
377	0.292
378	0.291
378	0.29
378	0.289
379	0.289
379	0.288
380	0.287
380	0.286
381	0.286
381	0.285
382	0.285
382	0.284
383	0.284
383	0.283
383	0.283
384	0.282
384	0.281
385	0.281
385	0.28
386	0.28
386	0.28
387	0.279
387	0.278
388	0.278
388	0.277
389	0.277
389	0.277
389	0.276
390	0.276
390	0.275
391	0.275
391	0.275
392	0.275
392	0.274
393	0.274
393	0.274
394	0.273
394	0.273
394	0.273
395	0.272
395	0.272
396	0.272
396	0.271
397	0.271
397	0.27
398	0.27
398	0.27
399	0.269
399	0.269
400	0.269
400	0.269
400	0.268
401	0.268
401	0.268
402	0.268
402	0.267
403	0.267
403	0.267
404	0.267
404	0.266
405	0.266
405	0.266
405	0.266
406	0.265
406	0.265
407	0.265
407	0.264
408	0.264
408	0.264
409	0.264
409	0.263
410	0.263
410	0.263
411	0.263
411	0.263
411	0.262
412	0.262
412	0.262
413	0.261
413	0.261
414	0.261
414	0.26
415	0.26
415	0.259
416	0.259
416	0.259
416	0.258
417	0.258
417	0.258
418	0.258
418	0.257
419	0.257
419	0.256
420	0.256
420	0.256
421	0.255
421	0.255
421	0.254
422	0.254
422	0.254
423	0.253
423	0.253
424	0.253
424	0.253
425	0.252
425	0.252
426	0.252
426	0.252
427	0.251
427	0.251
427	0.251
428	0.25
428	0.25
429	0.25
429	0.249
430	0.249
430	0.249
431	0.249
431	0.248
432	0.248
432	0.248
432	0.248
433	0.248
433	0.248
434	0.248
434	0.247
435	0.247
435	0.247
436	0.247
436	0.247
437	0.246
437	0.246
437	0.245
438	0.245
438	0.245
439	0.245
439	0.245
440	0.244
440	0.244
441	0.244
441	0.244
442	0.243
442	0.243
442	0.243
443	0.243
443	0.243
444	0.243
444	0.242
445	0.242
445	0.242
446	0.242
446	0.242
447	0.241
447	0.241
447	0.241
448	0.241
448	0.241
449	0.241
449	0.241
450	0.24
450	0.241
451	0.24
451	0.24
452	0.24
452	0.24
452	0.24
453	0.24
453	0.24
454	0.24
454	0.239
455	0.239
455	0.238
456	0.238
456	0.238
457	0.238
457	0.238
458	0.238
458	0.238
458	0.237
459	0.237
459	0.237
460	0.237
460	0.237
461	0.237
461	0.237
462	0.236
462	0.236
463	0.236
463	0.236
463	0.236
464	0.235
464	0.235
465	0.235
465	0.235
466	0.235
466	0.235
467	0.235
467	0.235
467	0.235
468	0.234
468	0.234
469	0.235
469	0.235
470	0.235
470	0.235
471	0.235
471	0.235
472	0.235
472	0.236
472	0.236
473	0.236
473	0.236
474	0.236
474	0.236
475	0.236
475	0.236
476	0.236
476	0.236
477	0.236
477	0.236
477	0.236
478	0.236
478	0.236
479	0.237
479	0.237
480	0.237
480	0.237
481	0.237
481	0.237
482	0.237
482	0.237
482	0.238
483	0.238
483	0.238
484	0.238
484	0.238
485	0.238
485	0.238
486	0.238
486	0.239
487	0.239
487	0.239
487	0.24
488	0.24
488	0.24
489	0.241
489	0.242
490	0.242
490	0.243
491	0.244
491	0.244
492	0.245
492	0.245
492	0.246
493	0.247
493	0.247
494	0.247
494	0.248
495	0.248
495	0.249
496	0.249
496	0.25
496	0.25
497	0.251
497	0.251
498	0.252
498	0.252
499	0.253
499	0.253
500	0.254
500	0.255
501	0.255
501	0.255
501	0.256
502	0.257
502	0.257
503	0.258
503	0.258
504	0.259
504	0.26
505	0.26
505	0.261
506	0.261
506	0.262
506	0.263
507	0.263
507	0.264
508	0.264
508	0.265
509	0.265
509	0.266
510	0.266
510	0.267
511	0.268
511	0.268
511	0.269
512	0.269
512	0.27
513	0.27
513	0.271
514	0.271
514	0.272
515	0.272
515	0.273
515	0.273
516	0.274
516	0.274
517	0.275
517	0.275
518	0.276
518	0.276
519	0.277
519	0.277
520	0.277
520	0.277
520	0.277
521	0.277
521	0.277
522	0.277
522	0.277
523	0.277
523	0.277
524	0.277
524	0.277
524	0.277
525	0.277
525	0.277
526	0.277
526	0.277
527	0.277
527	0.277
528	0.277
528	0.277
529	0.277
529	0.277
529	0.276
530	0.276
530	0.276
531	0.276
531	0.275
532	0.275
532	0.274
533	0.274
533	0.274
533	0.273
534	0.273
534	0.273
535	0.272
535	0.272
536	0.272
536	0.271
537	0.271
537	0.271
538	0.271
538	0.27
538	0.27
539	0.269
539	0.269
540	0.268
540	0.267
541	0.267
541	0.266
542	0.266
542	0.265
542	0.265
543	0.264
543	0.263
544	0.263
544	0.262
545	0.262
545	0.261
546	0.26
546	0.26
547	0.258
547	0.258
547	0.257
548	0.256
548	0.255
549	0.255
549	0.254
550	0.253
550	0.253
551	0.252
551	0.251
551	0.251
552	0.25
552	0.249
553	0.248
553	0.248
554	0.247
554	0.246
555	0.245
555	0.244
556	0.243
556	0.243
556	0.242
557	0.242
557	0.242
558	0.241
558	0.241
559	0.24
559	0.24
560	0.239
560	0.239
560	0.238
561	0.238
561	0.237
562	0.236
562	0.235
563	0.234
563	0.234
564	0.233
564	0.232
564	0.232
565	0.231
565	0.231
566	0.23
566	0.229
567	0.229
567	0.229
568	0.228
568	0.228
568	0.227
569	0.227
569	0.226
570	0.225
570	0.224
571	0.223
571	0.222
572	0.222
572	0.221
573	0.22
573	0.219
573	0.218
574	0.218
574	0.218
575	0.217
575	0.217
576	0.217
576	0.217
577	0.216
577	0.215
577	0.215
578	0.214
578	0.214
579	0.214
579	0.213
580	0.212
580	0.211
581	0.21
581	0.21
581	0.209
582	0.21
582	0.209
583	0.21
583	0.209
584	0.208
584	0.207
585	0.207
585	0.207
585	0.206
586	0.206
586	0.205
587	0.204
587	0.203
588	0.203
588	0.202
589	0.202
589	0.201
590	0.201
590	0.201
590	0.202
591	0.202
591	0.201
592	0.201
592	0.2
593	0.2
593	0.2
594	0.199
594	0.199
594	0.198
595	0.198
595	0.197
596	0.196
596	0.196
597	0.197
597	0.197
598	0.196
598	0.196
598	0.196
599	0.196
599	0.195
600	0.195
600	0.194
601	0.194
601	0.193
602	0.193
602	0.192
602	0.192
603	0.192
603	0.192
604	0.192
604	0.191
605	0.191
605	0.191
606	0.191
606	0.19
606	0.19
607	0.189
607	0.189
608	0.189
608	0.188
609	0.188
609	0.188
610	0.187
610	0.187
610	0.187
611	0.187
611	0.187
612	0.187
612	0.187
613	0.187
613	0.187
614	0.187
614	0.186
614	0.186
615	0.186
615	0.186
616	0.186
616	0.185
617	0.185
617	0.185
618	0.184
618	0.184
618	0.184
619	0.185
619	0.185
620	0.185
620	0.185
621	0.184
621	0.184
622	0.184
622	0.183
622	0.182
623	0.182
623	0.181
624	0.181
624	0.18
625	0.179
625	0.179
626	0.179
626	0.178
626	0.178
627	0.178
627	0.178
628	0.177
628	0.177
629	0.177
629	0.177
630	0.176
630	0.176
630	0.176
631	0.176
631	0.176
632	0.176
632	0.175
633	0.175
633	0.176
634	0.176
634	0.176
634	0.177
635	0.177
635	0.176
636	0.176
636	0.176
637	0.176
637	0.176
638	0.176
638	0.175
638	0.175
639	0.175
639	0.174
640	0.174
640	0.174
641	0.174
641	0.173
642	0.173
642	0.174
642	0.174
643	0.174
643	0.174
644	0.174
644	0.173
645	0.173
645	0.173
646	0.173
646	0.173
646	0.173
647	0.173
647	0.172
648	0.172
648	0.171
649	0.171
649	0.171
650	0.171
650	0.171
650	0.171
651	0.171
651	0.171
652	0.171
652	0.171
653	0.171
653	0.173
653	0.179
654	0.141
654	0.113
655	0.113
655	0.113
656	0.114
656	0.114
657	0.114
657	0.115
657	0.115
658	0.114
658	0.104
659	0.131
659	0.168
660	0.173
660	0.174
661	0.173
661	0.173
661	0.172
662	0.172
662	0.172
663	0.171
663	0.171
664	0.171
664	0.17
665	0.17
665	0.17
665	0.17
666	0.171
666	0.171
667	0.172
667	0.172
668	0.173
668	0.173
669	0.173
669	0.173
669	0.174
670	0.174
670	0.174
671	0.173
671	0.173
672	0.172
672	0.172
672	0.171
673	0.171
673	0.171
674	0.171
674	0.17
675	0.17
675	0.17
676	0.17
676	0.17
676	0.17
677	0.17
677	0.169
678	0.169
678	0.169
679	0.168
679	0.168
680	0.168
680	0.168
680	0.167
681	0.168
681	0.168
682	0.168
682	0.169
683	0.169
683	0.17
684	0.171
684	0.171
684	0.171
685	0.171
685	0.171
686	0.171
686	0.171
687	0.17
687	0.17
687	0.17
688	0.17
688	0.17
689	0.17
689	0.17
690	0.17
690	0.169
691	0.169
691	0.17
691	0.17
692	0.17
692	0.171
693	0.171
693	0.171
694	0.171
694	0.171
695	0.172
695	0.173
695	0.173
696	0.173
696	0.173
697	0.173
697	0.173
698	0.172
698	0.172
698	0.172
699	0.172
699	0.172
700	0.172
700	0.172
701	0.172
701	0.173
702	0.173
702	0.173
702	0.173
703	0.173
703	0.173
704	0.173
704	0.173
705	0.173
705	0.173
705	0.172
706	0.172
706	0.173
707	0.172
707	0.172
708	0.173
708	0.173
709	0.173
709	0.173
709	0.172
710	0.172
710	0.172
711	0.172
711	0.172
712	0.172
712	0.172
713	0.172
713	0.172
713	0.171
714	0.171
714	0.172
715	0.172
715	0.171
716	0.171
716	0.171
716	0.171
717	0.171
717	0.17
718	0.17
718	0.169
719	0.17
719	0.17
720	0.17
720	0.171
720	0.171
721	0.171
721	0.172
722	0.173
722	0.173
723	0.174
723	0.174
723	0.174
724	0.174
724	0.174
725	0.173
725	0.172
726	0.172
726	0.171
727	0.171
727	0.171
727	0.171
728	0.17
728	0.17
729	0.171
729	0.171
730	0.171
730	0.172
730	0.172
731	0.173
731	0.173
732	0.174
732	0.174
733	0.175
733	0.175
734	0.175
734	0.176
734	0.176
735	0.176
735	0.176
736	0.176
736	0.176
737	0.176
737	0.176
737	0.176
738	0.175
738	0.175
739	0.174
739	0.174
740	0.174
740	0.174
741	0.175
741	0.175
741	0.175
742	0.175
742	0.176
743	0.177
743	0.177
744	0.178
744	0.179
744	0.179
745	0.179
745	0.18
746	0.18
746	0.18
747	0.18
747	0.181
748	0.181
748	0.181
748	0.181
749	0.18
749	0.18
750	0.18
750	0.179
751	0.179
751	0.178
751	0.178
752	0.177
752	0.176
753	0.176
753	0.176
754	0.176
754	0.176
754	0.177
755	0.177
755	0.178
756	0.178
756	0.177
757	0.177
757	0.178
758	0.178
758	0.179
758	0.179
759	0.18
759	0.18
760	0.18
760	0.18
761	0.18
761	0.181
761	0.181
762	0.181
762	0.181
763	0.181
763	0.18
764	0.18
764	0.179
764	0.179
765	0.179
765	0.179
766	0.179
766	0.179
767	0.178
767	0.178
768	0.177
768	0.178
768	0.178
769	0.178
769	0.179
770	0.179
770	0.18
771	0.18
771	0.181
771	0.182
772	0.183
772	0.184
773	0.184
773	0.184
774	0.184
774	0.185
775	0.185
775	0.185
775	0.184
776	0.184
776	0.184
777	0.184
777	0.184
778	0.184
778	0.184
778	0.184
779	0.184
779	0.184
780	0.184
780	0.184
781	0.184
781	0.184
781	0.184
782	0.184
782	0.184
783	0.184
783	0.185
784	0.185
784	0.185
784	0.185
785	0.185
785	0.186
786	0.186
786	0.186
787	0.186
787	0.186
788	0.185
788	0.185
788	0.184
789	0.183
789	0.183
790	0.183
790	0.182
791	0.182
791	0.181
791	0.181
792	0.182
792	0.182
793	0.182
793	0.182
794	0.182
794	0.182
794	0.182
795	0.182
795	0.182
796	0.182
796	0.182
797	0.182
797	0.182
797	0.183
798	0.183
798	0.183
799	0.183
799	0.183
800	0.183
800	0.183
801	0.182
801	0.182
801	0.182
802	0.182
802	0.183
803	0.183
803	0.183
804	0.183
804	0.183
804	0.183
805	0.183
805	0.183
806	0.183
806	0.182
807	0.182
807	0.182
807	0.181
808	0.181
808	0.181
809	0.181
809	0.181
810	0.182
810	0.182
810	0.182
811	0.182
811	0.183
812	0.184
812	0.185
813	0.185
813	0.186
813	0.186
814	0.187
814	0.187
815	0.187
815	0.187
816	0.187
816	0.187
817	0.186
817	0.186
817	0.185
818	0.185
818	0.185
819	0.185
819	0.184
820	0.183
820	0.183
820	0.183
821	0.183
821	0.184
822	0.184
822	0.184
823	0.184
823	0.183
823	0.183
824	0.184
824	0.185
825	0.185
825	0.186
826	0.186
826	0.186
826	0.186
827	0.186
827	0.186
828	0.187
828	0.186
829	0.187
829	0.187
829	0.187
830	0.187
830	0.187
831	0.188
831	0.188
832	0.188
832	0.189
832	0.189
833	0.188
833	0.188
834	0.188
834	0.188
835	0.187
835	0.187
835	0.187
836	0.186
836	0.186
837	0.186
837	0.186
838	0.185
838	0.185
839	0.184
839	0.183
839	0.182
840	0.181
840	0.18
841	0.179
841	0.179
842	0.178
842	0.177
842	0.176
843	0.175
843	0.174
844	0.174
844	0.173
845	0.172
845	0.172
845	0.171
846	0.171
846	0.171
847	0.171
847	0.171
848	0.171
848	0.172
848	0.172
849	0.173
849	0.174
850	0.174
850	0.175
851	0.175
851	0.175
851	0.175
852	0.175
852	0.175
853	0.175
853	0.174
854	0.175
854	0.175
854	0.175
855	0.176
855	0.176
856	0.176
856	0.176
857	0.177
857	0.177
857	0.177
858	0.177
858	0.176
859	0.175
859	0.173
860	0.172
860	0.171
860	0.17
861	0.17
861	0.169
862	0.168
862	0.167
863	0.167
863	0.167
863	0.167
864	0.168
864	0.168
865	0.169
865	0.169
866	0.169
866	0.169
866	0.169
867	0.17
867	0.17
868	0.17
868	0.171
869	0.171
869	0.171
869	0.17
870	0.171
870	0.171
871	0.171
871	0.171
872	0.171
872	0.17
872	0.17
873	0.169
873	0.169
874	0.168
874	0.167
875	0.167
875	0.166
875	0.166
876	0.166
876	0.165
877	0.165
877	0.165
878	0.165
878	0.165
878	0.165
879	0.165
879	0.165
880	0.165
880	0.165
881	0.165
881	0.165
881	0.165
882	0.165
882	0.165
883	0.164
883	0.164
884	0.165
884	0.165
884	0.164
885	0.164
885	0.164
886	0.164
886	0.163
887	0.163
887	0.162
887	0.161
888	0.16
888	0.16
889	0.159
889	0.159
890	0.159
890	0.159
890	0.159
891	0.159
891	0.159
892	0.159
892	0.159
893	0.159
893	0.158
893	0.158
894	0.158
894	0.157
895	0.157
895	0.157
895	0.157
896	0.157
896	0.158
897	0.158
897	0.158
898	0.158
898	0.158
898	0.158
899	0.158
899	0.158
900	0.157
900	0.157
901	0.156
901	0.156
901	0.155
902	0.155
902	0.154
903	0.153
903	0.153
904	0.152
904	0.152
904	0.151
905	0.151
905	0.151
906	0.15
906	0.15
907	0.15
907	0.15
907	0.15
908	0.15
908	0.15
909	0.149
909	0.149
910	0.149
910	0.148
910	0.147
911	0.147
911	0.146
912	0.145
912	0.145
913	0.145
913	0.145
913	0.144
914	0.144
914	0.144
915	0.144
915	0.144
916	0.145
916	0.144
916	0.144
917	0.144
917	0.143
918	0.142
918	0.142
918	0.141
919	0.141
919	0.14
920	0.14
920	0.14
921	0.139
921	0.139
921	0.139
922	0.139
922	0.139
923	0.139
923	0.14
924	0.14
924	0.141
924	0.142
925	0.142
925	0.143
926	0.144
926	0.145
927	0.145
927	0.145
927	0.146
928	0.146
928	0.145
929	0.145
929	0.144
930	0.144
930	0.143
930	0.142
931	0.141
931	0.141
932	0.14
932	0.139
933	0.139
933	0.138
933	0.138
934	0.137
934	0.137
935	0.136
935	0.135
935	0.135
936	0.134
936	0.134
937	0.133
937	0.133
938	0.133
938	0.132
938	0.132
939	0.132
939	0.132
940	0.131
940	0.131
941	0.131
941	0.132
941	0.132
942	0.132
942	0.132
943	0.132
943	0.131
944	0.131
944	0.131
944	0.131
945	0.131
945	0.131
946	0.131
946	0.13
946	0.13
947	0.13
947	0.13
948	0.129
948	0.129
949	0.129
949	0.128
949	0.128
950	0.127
950	0.127
951	0.127
951	0.126
952	0.126
952	0.125
952	0.125
953	0.124
953	0.124
954	0.123
954	0.123
955	0.122
955	0.122
955	0.121
956	0.121
956	0.121
957	0.121
957	0.121
957	0.121
958	0.121
958	0.121
959	0.121
959	0.121
960	0.121
960	0.12
960	0.12
961	0.12
961	0.12
962	0.12
962	0.12
963	0.12
963	0.121
963	0.121
964	0.121
964	0.122
965	0.122
965	0.122
966	0.122
966	0.122
966	0.122
967	0.122
967	0.122
968	0.122
968	0.122
968	0.121
969	0.121
969	0.12
970	0.119
970	0.118
971	0.118
971	0.117
971	0.117
972	0.116
972	0.116
973	0.116
973	0.116
974	0.116
974	0.116
974	0.117
975	0.117
975	0.118
976	0.119
976	0.119
976	0.12
977	0.12
977	0.12
978	0.12
978	0.119
979	0.119
979	0.119
979	0.118
980	0.118
980	0.117
981	0.115
981	0.115
982	0.114
982	0.113
982	0.112
983	0.111
983	0.111
984	0.11
984	0.109
984	0.109
985	0.109
985	0.108
986	0.108
986	0.108
987	0.108
987	0.108
987	0.107
988	0.107
988	0.107
989	0.107
989	0.106
990	0.106
990	0.105
990	0.105
991	0.104
991	0.104
992	0.104
992	0.103
992	0.102
993	0.101
993	0.101
994	0.1
994	0.099
995	0.099
995	0.098
995	0.098
996	0.097
996	0.097
997	0.098
997	0.098
997	0.098
998	0.099
998	0.1
999	0.1
999	0.102
1000	0.103
1000	0.103
1000	0.104
1001	0.104
1001	0.104
1002	0.104
1002	0.104
1003	0.104
1003	0.103
1003	0.102
1004	0.101
1004	0.1
1005	0.099
1005	0.098
1005	0.097
1006	0.096
1006	0.096
1007	0.095
1007	0.095
1008	0.095
1008	0.095
1008	0.095
1009	0.096
1009	0.096
1010	0.096
1010	0.097
1010	0.097
1011	0.097
1011	0.097
1012	0.097
1012	0.097
1013	0.096
1013	0.096
1013	0.095
1014	0.095
1014	0.095
1015	0.094
1015	0.094
1016	0.094
1016	0.094
1016	0.094
1017	0.094
1017	0.094
1018	0.094
1018	0.094
1018	0.094
1019	0.095
1019	0.095
1020	0.095
1020	0.096
1021	0.096
1021	0.096
1021	0.097
1022	0.097
1022	0.097
1023	0.097
1023	0.098
1023	0.098
1024	0.098
1024	0.098
1025	0.097
1025	0.097
1026	0.097
1026	0.096
1026	0.096
1027	0.096
1027	0.095
1028	0.095
1028	0.095
1028	0.094
1029	0.094
1029	0.094
1030	0.094
1030	0.094
1031	0.094
1031	0.094
1031	0.094
1032	0.094
1032	0.094
1033	0.094
1033	0.094
1033	0.094
1034	0.094
1034	0.094
1035	0.094
1035	0.093
1036	0.093
1036	0.093
1036	0.092
1037	0.092
1037	0.092
1038	0.091
1038	0.091
1039	0.091
1039	0.091
1039	0.091
1040	0.091
1040	0.09
1041	0.09
1041	0.09
1041	0.09
1042	0.09
1042	0.089
1043	0.089
1043	0.089
1044	0.089
1044	0.089
1044	0.089
1045	0.089
1045	0.089
1046	0.089
1046	0.089
1046	0.089
1047	0.09
1047	0.09
1048	0.09
1048	0.09
1049	0.09
1049	0.09
1049	0.091
1050	0.09
1050	0.09
1051	0.09
1051	0.089
1051	0.089
1052	0.088
1052	0.088
1053	0.087
1053	0.086
1053	0.085
1054	0.084
1054	0.084
1055	0.083
1055	0.083
1056	0.082
1056	0.081
1056	0.081
1057	0.08
1057	0.08
1058	0.079
1058	0.079
1058	0.078
1059	0.077
1059	0.077
1060	0.076
1060	0.076
1061	0.075
1061	0.075
1061	0.075
1062	0.074
1062	0.074
1063	0.074
1063	0.074
1063	0.074
1064	0.073
1064	0.073
1065	0.073
1065	0.073
1066	0.073
1066	0.073
1066	0.073
1067	0.072
1067	0.072
1068	0.072
1068	0.072
1068	0.071
1069	0.071
1069	0.07
1070	0.07
1070	0.069
1071	0.069
1071	0.068
1071	0.068
1072	0.068
1072	0.067
1073	0.067
1073	0.066
1073	0.066
1074	0.066
1074	0.066
1075	0.067
1075	0.067
1076	0.068
1076	0.068
1076	0.068
1077	0.068
1077	0.068
1078	0.068
1078	0.068
1078	0.068
1079	0.067
1079	0.067
1080	0.066
1080	0.066
1080	0.066
1081	0.066
1081	0.066
1082	0.066
1082	0.066
1083	0.066
1083	0.066
1083	0.066
1084	0.066
1084	0.066
1085	0.066
1085	0.066
1085	0.066
1086	0.066
1086	0.066
1087	0.066
1087	0.065
1088	0.065
1088	0.065
1088	0.065
1089	0.064
1089	0.064
1090	0.063
1090	0.062
1090	0.061
1091	0.061
1091	0.061
1092	0.061
1092	0.062
1092	0.062
1093	0.061
1093	0.061
1094	0.062
1094	0.062
1095	0.062
1095	0.061
1095	0.06
1096	0.06
1096	0.059
1097	0.057
1097	0.057
1097	0.056
1098	0.055
1098	0.053
1099	0.052
1099	0.05
1100	0.05
1100	0.048
1100	0.047
1101	0.047
1101	0.045
1102	0.044
1102	0.042
1102	0.041
1103	0.041
1103	0.04
1104	0.039
1104	0.039
1104	0.038
1105	0.036
1105	0.034
1106	0.032
1106	0.032
1107	0.031
1107	0.031
1107	0.029
1108	0.028
1108	0.027
1109	0.025
1109	0.024
1109	0.025
1110	0.026
1110	0.025
1111	0.023
1111	0.024
