Data from reversibility-20sec_Absorbance__3320__000000000003320.txt Node

Date: Wed Dec 06 06:39:45 CET 2023
User: Marek
Spectrometer: MAYP115816
Trigger mode: 0
Integration Time (sec): 2.000000E-1
Scans to average: 10
Electric dark correction enabled: true
Nonlinearity correction enabled: true
Boxcar width: 5
XAxis mode: Wavelengths
Number of Pixels in Spectrum: 2068
>>>>>Begin Spectral Data<<<<<
199	-0.166
199	-0.132
200	-0.067
200	-0.018
201	0.015
201	0.029
202	0.046
202	0.058
203	0.066
203	0.069
204	0.083
204	0.095
205	0.107
205	0.115
205	0.115
206	0.116
206	0.119
207	0.118
207	0.114
208	0.113
208	0.115
209	0.118
209	0.118
210	0.117
210	0.116
211	0.116
211	0.116
212	0.114
212	0.116
213	0.121
213	0.122
213	0.122
214	0.125
214	0.128
215	0.129
215	0.129
216	0.131
216	0.13
217	0.131
217	0.135
218	0.135
218	0.142
219	0.145
219	0.145
220	0.147
220	0.148
221	0.151
221	0.155
221	0.161
222	0.169
222	0.171
223	0.176
223	0.178
224	0.183
224	0.194
225	0.204
225	0.217
226	0.226
226	0.237
227	0.247
227	0.257
228	0.272
228	0.289
229	0.305
229	0.329
229	0.348
230	0.373
230	0.402
231	0.434
231	0.472
232	0.509
232	0.554
233	0.597
233	0.644
234	0.695
234	0.747
235	0.799
235	0.852
236	0.903
236	0.955
236	1.009
237	1.061
237	1.109
238	1.157
238	1.205
239	1.253
239	1.293
240	1.335
240	1.37
241	1.404
241	1.438
242	1.468
242	1.502
243	1.531
243	1.555
243	1.579
244	1.599
244	1.622
245	1.64
245	1.663
246	1.682
246	1.698
247	1.709
247	1.721
248	1.735
248	1.75
249	1.758
249	1.765
250	1.774
250	1.783
250	1.786
251	1.791
251	1.795
252	1.803
252	1.803
253	1.806
253	1.804
254	1.805
254	1.806
255	1.804
255	1.803
256	1.803
256	1.803
257	1.802
257	1.801
258	1.801
258	1.799
258	1.798
259	1.798
259	1.797
260	1.796
260	1.796
261	1.796
261	1.797
262	1.797
262	1.797
263	1.798
263	1.8
264	1.801
264	1.801
265	1.802
265	1.803
265	1.803
266	1.803
266	1.802
267	1.801
267	1.802
268	1.802
268	1.802
269	1.803
269	1.804
270	1.803
270	1.802
271	1.8
271	1.8
272	1.798
272	1.796
272	1.793
273	1.788
273	1.782
274	1.778
274	1.771
275	1.765
275	1.759
276	1.753
276	1.744
277	1.737
277	1.728
278	1.716
278	1.705
278	1.691
279	1.675
279	1.658
280	1.637
280	1.61
281	1.579
281	1.544
282	1.507
282	1.469
283	1.433
283	1.395
284	1.359
284	1.324
285	1.29
285	1.259
285	1.231
286	1.206
286	1.184
287	1.165
287	1.148
288	1.134
288	1.121
289	1.11
289	1.101
290	1.093
290	1.086
291	1.08
291	1.075
292	1.069
292	1.065
292	1.06
293	1.056
293	1.052
294	1.049
294	1.046
295	1.042
295	1.039
296	1.036
296	1.032
297	1.03
297	1.026
298	1.023
298	1.021
298	1.018
299	1.015
299	1.012
300	1.009
300	1.007
301	1.004
301	1.002
302	0.999
302	0.996
303	0.994
303	0.991
304	0.988
304	0.986
305	0.984
305	0.981
305	0.978
306	0.976
306	0.973
307	0.971
307	0.968
308	0.966
308	0.963
309	0.96
309	0.958
310	0.955
310	0.952
311	0.948
311	0.945
311	0.942
312	0.938
312	0.935
313	0.931
313	0.928
314	0.924
314	0.919
315	0.915
315	0.911
316	0.907
316	0.902
317	0.898
317	0.893
318	0.888
318	0.883
318	0.878
319	0.872
319	0.867
320	0.861
320	0.855
321	0.849
321	0.844
322	0.837
322	0.831
323	0.825
323	0.818
324	0.812
324	0.806
324	0.799
325	0.792
325	0.786
326	0.779
326	0.772
327	0.766
327	0.759
328	0.752
328	0.746
329	0.739
329	0.732
330	0.725
330	0.718
330	0.711
331	0.705
331	0.698
332	0.691
332	0.684
333	0.677
333	0.67
334	0.663
334	0.657
335	0.65
335	0.644
336	0.637
336	0.631
336	0.625
337	0.618
337	0.612
338	0.606
338	0.6
339	0.594
339	0.588
340	0.582
340	0.577
341	0.571
341	0.566
342	0.56
342	0.555
342	0.55
343	0.545
343	0.54
344	0.535
344	0.53
345	0.525
345	0.521
346	0.516
346	0.512
347	0.507
347	0.503
348	0.499
348	0.495
348	0.491
349	0.487
349	0.484
350	0.481
350	0.477
351	0.474
351	0.471
352	0.468
352	0.465
353	0.462
353	0.459
354	0.456
354	0.453
354	0.45
355	0.447
355	0.443
356	0.44
356	0.437
357	0.434
357	0.431
358	0.428
358	0.425
359	0.423
359	0.421
360	0.419
360	0.417
360	0.415
361	0.413
361	0.411
362	0.41
362	0.408
363	0.407
363	0.405
364	0.403
364	0.401
365	0.399
365	0.397
366	0.395
366	0.393
366	0.392
367	0.39
367	0.388
368	0.386
368	0.385
369	0.383
369	0.382
370	0.38
370	0.379
371	0.377
371	0.376
372	0.374
372	0.373
372	0.372
373	0.371
373	0.369
374	0.368
374	0.367
375	0.366
375	0.365
376	0.364
376	0.363
377	0.362
377	0.361
378	0.36
378	0.359
378	0.358
379	0.357
379	0.356
380	0.355
380	0.354
381	0.353
381	0.352
382	0.351
382	0.351
383	0.35
383	0.349
383	0.348
384	0.348
384	0.347
385	0.346
385	0.346
386	0.345
386	0.345
387	0.344
387	0.343
388	0.343
388	0.342
389	0.342
389	0.341
389	0.34
390	0.34
390	0.339
391	0.339
391	0.338
392	0.338
392	0.337
393	0.337
393	0.336
394	0.336
394	0.335
394	0.335
395	0.335
395	0.334
396	0.334
396	0.333
397	0.332
397	0.332
398	0.332
398	0.331
399	0.331
399	0.33
400	0.33
400	0.329
400	0.329
401	0.329
401	0.328
402	0.328
402	0.327
403	0.327
403	0.326
404	0.326
404	0.325
405	0.325
405	0.324
405	0.324
406	0.324
406	0.323
407	0.323
407	0.323
408	0.322
408	0.322
409	0.321
409	0.321
410	0.321
410	0.32
411	0.32
411	0.32
411	0.319
412	0.319
412	0.319
413	0.318
413	0.318
414	0.318
414	0.318
415	0.317
415	0.317
416	0.317
416	0.316
416	0.316
417	0.315
417	0.315
418	0.315
418	0.314
419	0.314
419	0.313
420	0.313
420	0.312
421	0.312
421	0.312
421	0.311
422	0.311
422	0.311
423	0.31
423	0.31
424	0.309
424	0.309
425	0.309
425	0.309
426	0.308
426	0.308
427	0.308
427	0.307
427	0.307
428	0.307
428	0.307
429	0.306
429	0.306
430	0.305
430	0.305
431	0.305
431	0.305
432	0.305
432	0.305
432	0.304
433	0.304
433	0.304
434	0.304
434	0.304
435	0.304
435	0.304
436	0.303
436	0.303
437	0.303
437	0.303
437	0.303
438	0.303
438	0.303
439	0.303
439	0.303
440	0.302
440	0.302
441	0.302
441	0.301
442	0.301
442	0.301
442	0.3
443	0.3
443	0.3
444	0.3
444	0.3
445	0.299
445	0.299
446	0.299
446	0.299
447	0.299
447	0.299
447	0.299
448	0.299
448	0.299
449	0.299
449	0.299
450	0.299
450	0.299
451	0.299
451	0.299
452	0.299
452	0.299
452	0.299
453	0.299
453	0.299
454	0.299
454	0.298
455	0.298
455	0.298
456	0.298
456	0.298
457	0.298
457	0.298
458	0.298
458	0.298
458	0.298
459	0.298
459	0.298
460	0.298
460	0.298
461	0.298
461	0.298
462	0.298
462	0.298
463	0.298
463	0.298
463	0.298
464	0.298
464	0.297
465	0.297
465	0.297
466	0.297
466	0.298
467	0.298
467	0.298
467	0.298
468	0.299
468	0.299
469	0.3
469	0.3
470	0.301
470	0.302
471	0.302
471	0.302
472	0.302
472	0.303
472	0.303
473	0.303
473	0.304
474	0.304
474	0.304
475	0.304
475	0.304
476	0.305
476	0.305
477	0.305
477	0.306
477	0.306
478	0.307
478	0.307
479	0.308
479	0.309
480	0.309
480	0.31
481	0.31
481	0.311
482	0.311
482	0.312
482	0.313
483	0.314
483	0.314
484	0.315
484	0.316
485	0.317
485	0.317
486	0.318
486	0.319
487	0.319
487	0.32
487	0.321
488	0.322
488	0.323
489	0.324
489	0.325
490	0.327
490	0.328
491	0.329
491	0.33
492	0.331
492	0.332
492	0.334
493	0.335
493	0.336
494	0.338
494	0.339
495	0.34
495	0.341
496	0.342
496	0.344
496	0.345
497	0.346
497	0.347
498	0.348
498	0.35
499	0.351
499	0.352
500	0.354
500	0.355
501	0.357
501	0.358
501	0.359
502	0.36
502	0.362
503	0.363
503	0.364
504	0.365
504	0.367
505	0.368
505	0.369
506	0.37
506	0.371
506	0.372
507	0.374
507	0.375
508	0.376
508	0.377
509	0.378
509	0.379
510	0.38
510	0.381
511	0.382
511	0.384
511	0.385
512	0.385
512	0.386
513	0.387
513	0.388
514	0.389
514	0.39
515	0.391
515	0.391
515	0.391
516	0.392
516	0.393
517	0.394
517	0.394
518	0.395
518	0.395
519	0.395
519	0.396
520	0.396
520	0.396
520	0.397
521	0.397
521	0.397
522	0.397
522	0.397
523	0.397
523	0.397
524	0.397
524	0.397
524	0.397
525	0.397
525	0.396
526	0.396
526	0.395
527	0.395
527	0.394
528	0.393
528	0.392
529	0.391
529	0.39
529	0.389
530	0.388
530	0.387
531	0.386
531	0.385
532	0.384
532	0.383
533	0.381
533	0.38
533	0.379
534	0.377
534	0.376
535	0.374
535	0.373
536	0.371
536	0.37
537	0.369
537	0.367
538	0.366
538	0.364
538	0.362
539	0.361
539	0.36
540	0.358
540	0.357
541	0.355
541	0.353
542	0.351
542	0.35
542	0.348
543	0.346
543	0.345
544	0.343
544	0.341
545	0.339
545	0.337
546	0.336
546	0.334
547	0.332
547	0.33
547	0.328
548	0.326
548	0.324
549	0.322
549	0.32
550	0.318
550	0.316
551	0.314
551	0.311
551	0.31
552	0.308
552	0.306
553	0.304
553	0.302
554	0.3
554	0.299
555	0.296
555	0.294
556	0.292
556	0.291
556	0.289
557	0.288
557	0.286
558	0.285
558	0.283
559	0.281
559	0.279
560	0.278
560	0.276
560	0.275
561	0.273
561	0.272
562	0.27
562	0.267
563	0.265
563	0.264
564	0.262
564	0.26
564	0.259
565	0.257
565	0.255
566	0.253
566	0.252
567	0.25
567	0.249
568	0.247
568	0.246
568	0.245
569	0.243
569	0.242
570	0.24
570	0.238
571	0.237
571	0.236
572	0.234
572	0.233
573	0.232
573	0.231
573	0.229
574	0.228
574	0.227
575	0.226
575	0.225
576	0.224
576	0.223
577	0.221
577	0.22
577	0.219
578	0.218
578	0.217
579	0.216
579	0.215
580	0.214
580	0.212
581	0.211
581	0.21
581	0.209
582	0.209
582	0.208
583	0.207
583	0.206
584	0.204
584	0.202
585	0.201
585	0.2
585	0.199
586	0.199
586	0.198
587	0.196
587	0.196
588	0.195
588	0.194
589	0.193
589	0.193
590	0.192
590	0.191
590	0.191
591	0.19
591	0.189
592	0.188
592	0.187
593	0.186
593	0.185
594	0.184
594	0.183
594	0.182
595	0.181
595	0.18
596	0.179
596	0.178
597	0.179
597	0.179
598	0.178
598	0.178
598	0.177
599	0.177
599	0.176
600	0.176
600	0.175
601	0.175
601	0.174
602	0.173
602	0.172
602	0.172
603	0.171
603	0.171
604	0.17
604	0.17
605	0.169
605	0.169
606	0.168
606	0.167
606	0.166
607	0.166
607	0.165
608	0.164
608	0.163
609	0.163
609	0.162
610	0.162
610	0.161
610	0.161
611	0.16
611	0.16
612	0.16
612	0.16
613	0.16
613	0.16
614	0.159
614	0.159
614	0.159
615	0.159
615	0.158
616	0.158
616	0.157
617	0.157
617	0.156
618	0.156
618	0.156
618	0.155
619	0.155
619	0.155
620	0.155
620	0.155
621	0.154
621	0.154
622	0.153
622	0.153
622	0.152
623	0.151
623	0.151
624	0.151
624	0.15
625	0.149
625	0.149
626	0.148
626	0.148
626	0.148
627	0.148
627	0.147
628	0.147
628	0.146
629	0.146
629	0.146
630	0.145
630	0.145
630	0.145
631	0.145
631	0.144
632	0.144
632	0.144
633	0.143
633	0.143
634	0.143
634	0.144
634	0.144
635	0.143
635	0.143
636	0.143
636	0.143
637	0.142
637	0.142
638	0.141
638	0.141
638	0.141
639	0.14
639	0.14
640	0.139
640	0.139
641	0.139
641	0.139
642	0.138
642	0.138
642	0.138
643	0.138
643	0.138
644	0.138
644	0.138
645	0.138
645	0.138
646	0.138
646	0.138
646	0.138
647	0.138
647	0.138
648	0.138
648	0.137
649	0.137
649	0.137
650	0.137
650	0.137
650	0.137
651	0.136
651	0.136
652	0.136
652	0.136
653	0.136
653	0.138
653	0.143
654	0.114
654	0.092
655	0.091
655	0.091
656	0.091
656	0.091
657	0.092
657	0.092
657	0.092
658	0.09
658	0.082
659	0.103
659	0.13
660	0.135
660	0.135
661	0.134
661	0.133
661	0.133
662	0.132
662	0.131
663	0.131
663	0.13
664	0.13
664	0.13
665	0.129
665	0.129
665	0.129
666	0.129
666	0.13
667	0.13
667	0.13
668	0.131
668	0.131
669	0.131
669	0.131
669	0.132
670	0.133
670	0.132
671	0.132
671	0.132
672	0.132
672	0.131
672	0.13
673	0.13
673	0.13
674	0.129
674	0.129
675	0.128
675	0.128
676	0.129
676	0.129
676	0.129
677	0.13
677	0.13
678	0.13
678	0.13
679	0.129
679	0.129
680	0.129
680	0.128
680	0.128
681	0.127
681	0.127
682	0.127
682	0.128
683	0.128
683	0.128
684	0.129
684	0.129
684	0.128
685	0.129
685	0.129
686	0.129
686	0.129
687	0.129
687	0.129
687	0.129
688	0.129
688	0.129
689	0.13
689	0.13
690	0.13
690	0.13
691	0.13
691	0.13
691	0.13
692	0.13
692	0.13
693	0.13
693	0.13
694	0.13
694	0.13
695	0.13
695	0.131
695	0.131
696	0.131
696	0.13
697	0.13
697	0.13
698	0.13
698	0.13
698	0.13
699	0.13
699	0.129
700	0.128
700	0.128
701	0.128
701	0.127
702	0.127
702	0.126
702	0.126
703	0.125
703	0.125
704	0.124
704	0.124
705	0.124
705	0.124
705	0.124
706	0.124
706	0.125
707	0.125
707	0.125
708	0.125
708	0.125
709	0.125
709	0.125
709	0.124
710	0.124
710	0.124
711	0.124
711	0.123
712	0.123
712	0.123
713	0.123
713	0.123
713	0.123
714	0.123
714	0.123
715	0.123
715	0.123
716	0.123
716	0.122
716	0.122
717	0.122
717	0.122
718	0.121
718	0.121
719	0.122
719	0.122
720	0.122
720	0.123
720	0.123
721	0.123
721	0.124
722	0.124
722	0.124
723	0.124
723	0.124
723	0.123
724	0.123
724	0.122
725	0.121
725	0.12
726	0.119
726	0.119
727	0.118
727	0.118
727	0.118
728	0.118
728	0.118
729	0.119
729	0.119
730	0.12
730	0.12
730	0.121
731	0.121
731	0.121
732	0.122
732	0.122
733	0.122
733	0.122
734	0.122
734	0.121
734	0.121
735	0.121
735	0.121
736	0.12
736	0.12
737	0.119
737	0.119
737	0.119
738	0.118
738	0.117
739	0.117
739	0.117
740	0.117
740	0.117
741	0.117
741	0.117
741	0.117
742	0.117
742	0.117
743	0.118
743	0.118
744	0.118
744	0.118
744	0.118
745	0.117
745	0.117
746	0.117
746	0.117
747	0.117
747	0.117
748	0.117
748	0.117
748	0.117
749	0.117
749	0.117
750	0.117
750	0.117
751	0.117
751	0.117
751	0.118
752	0.117
752	0.117
753	0.116
753	0.116
754	0.116
754	0.115
754	0.115
755	0.114
755	0.114
756	0.113
756	0.112
757	0.111
757	0.111
758	0.111
758	0.111
758	0.111
759	0.111
759	0.11
760	0.11
760	0.109
761	0.109
761	0.11
761	0.11
762	0.11
762	0.11
763	0.11
763	0.11
764	0.109
764	0.109
764	0.109
765	0.109
765	0.108
766	0.108
766	0.108
767	0.108
767	0.107
768	0.107
768	0.107
768	0.108
769	0.108
769	0.108
770	0.108
770	0.108
771	0.108
771	0.108
771	0.108
772	0.108
772	0.108
773	0.107
773	0.107
774	0.107
774	0.107
775	0.107
775	0.107
775	0.107
776	0.107
776	0.107
777	0.107
777	0.107
778	0.107
778	0.106
778	0.106
779	0.105
779	0.104
780	0.103
780	0.102
781	0.102
781	0.101
781	0.101
782	0.1
782	0.1
783	0.1
783	0.101
784	0.1
784	0.101
784	0.101
785	0.101
785	0.101
786	0.101
786	0.101
787	0.101
787	0.101
788	0.1
788	0.1
788	0.099
789	0.099
789	0.099
790	0.098
790	0.098
791	0.097
791	0.096
791	0.096
792	0.096
792	0.096
793	0.096
793	0.095
794	0.095
794	0.094
794	0.094
795	0.094
795	0.094
796	0.095
796	0.095
797	0.094
797	0.094
797	0.095
798	0.095
798	0.095
799	0.095
799	0.095
800	0.095
800	0.094
801	0.094
801	0.093
801	0.093
802	0.092
802	0.092
803	0.092
803	0.091
804	0.091
804	0.092
804	0.092
805	0.092
805	0.092
806	0.092
806	0.092
807	0.092
807	0.092
807	0.092
808	0.092
808	0.092
809	0.091
809	0.091
810	0.091
810	0.091
810	0.09
811	0.09
811	0.09
812	0.09
812	0.09
813	0.09
813	0.09
813	0.09
814	0.091
814	0.091
815	0.091
815	0.091
816	0.091
816	0.09
817	0.089
817	0.089
817	0.088
818	0.088
818	0.088
819	0.088
819	0.087
820	0.086
820	0.086
820	0.085
821	0.085
821	0.086
822	0.086
822	0.086
823	0.086
823	0.086
823	0.087
824	0.088
824	0.089
825	0.09
825	0.09
826	0.091
826	0.091
826	0.091
827	0.091
827	0.091
828	0.09
828	0.09
829	0.089
829	0.089
829	0.088
830	0.088
830	0.089
831	0.089
831	0.089
832	0.089
832	0.09
832	0.09
833	0.09
833	0.089
834	0.089
834	0.088
835	0.088
835	0.087
835	0.086
836	0.085
836	0.084
837	0.084
837	0.083
838	0.082
838	0.082
839	0.081
839	0.081
839	0.08
840	0.079
840	0.078
841	0.077
841	0.076
842	0.076
842	0.075
842	0.075
843	0.075
843	0.075
844	0.075
844	0.075
845	0.075
845	0.076
845	0.077
846	0.077
846	0.078
847	0.078
847	0.078
848	0.078
848	0.078
848	0.077
849	0.077
849	0.076
850	0.075
850	0.075
851	0.074
851	0.073
851	0.073
852	0.072
852	0.072
853	0.071
853	0.071
854	0.071
854	0.072
854	0.073
855	0.073
855	0.074
856	0.074
856	0.075
857	0.076
857	0.077
857	0.077
858	0.077
858	0.077
859	0.077
859	0.076
860	0.075
860	0.074
860	0.073
861	0.073
861	0.072
862	0.071
862	0.07
863	0.069
863	0.068
863	0.068
864	0.068
864	0.068
865	0.068
865	0.069
866	0.069
866	0.069
866	0.069
867	0.069
867	0.069
868	0.069
868	0.069
869	0.068
869	0.067
869	0.066
870	0.065
870	0.065
871	0.064
871	0.064
872	0.063
872	0.063
872	0.062
873	0.062
873	0.062
874	0.062
874	0.062
875	0.062
875	0.062
875	0.062
876	0.062
876	0.063
877	0.063
877	0.063
878	0.063
878	0.064
878	0.064
879	0.065
879	0.065
880	0.065
880	0.065
881	0.065
881	0.065
881	0.065
882	0.065
882	0.065
883	0.065
883	0.065
884	0.064
884	0.064
884	0.065
885	0.064
885	0.064
886	0.064
886	0.064
887	0.063
887	0.062
887	0.062
888	0.061
888	0.06
889	0.06
889	0.06
890	0.06
890	0.059
890	0.059
891	0.059
891	0.059
892	0.059
892	0.059
893	0.06
893	0.06
893	0.06
894	0.06
894	0.06
895	0.06
895	0.06
895	0.06
896	0.06
896	0.06
897	0.059
897	0.059
898	0.058
898	0.058
898	0.058
899	0.057
899	0.057
900	0.056
900	0.056
901	0.056
901	0.056
901	0.055
902	0.055
902	0.055
903	0.054
903	0.054
904	0.054
904	0.054
904	0.054
905	0.054
905	0.054
906	0.054
906	0.055
907	0.055
907	0.056
907	0.057
908	0.058
908	0.059
909	0.059
909	0.06
910	0.061
910	0.061
910	0.062
911	0.062
911	0.062
912	0.062
912	0.063
913	0.062
913	0.062
913	0.062
914	0.061
914	0.061
915	0.061
915	0.061
916	0.06
916	0.06
916	0.06
917	0.059
917	0.059
918	0.059
918	0.058
918	0.058
919	0.057
919	0.057
920	0.056
920	0.056
921	0.056
921	0.056
921	0.056
922	0.055
922	0.056
923	0.056
923	0.056
924	0.056
924	0.057
924	0.057
925	0.057
925	0.057
926	0.057
926	0.057
927	0.056
927	0.056
927	0.056
928	0.056
928	0.056
929	0.056
929	0.056
930	0.056
930	0.056
930	0.056
931	0.056
931	0.056
932	0.057
932	0.057
933	0.057
933	0.057
933	0.056
934	0.056
934	0.056
935	0.056
935	0.055
935	0.055
936	0.055
936	0.055
937	0.054
937	0.054
938	0.054
938	0.053
938	0.053
939	0.052
939	0.052
940	0.051
940	0.051
941	0.05
941	0.05
941	0.05
942	0.05
942	0.049
943	0.05
943	0.05
944	0.05
944	0.05
944	0.051
945	0.051
945	0.052
946	0.052
946	0.053
946	0.053
947	0.054
947	0.055
948	0.055
948	0.056
949	0.056
949	0.056
949	0.056
950	0.056
950	0.056
951	0.055
951	0.055
952	0.054
952	0.053
952	0.052
953	0.051
953	0.051
954	0.05
954	0.049
955	0.049
955	0.048
955	0.048
956	0.047
956	0.047
957	0.048
957	0.048
957	0.048
958	0.048
958	0.048
959	0.048
959	0.049
960	0.049
960	0.049
960	0.049
961	0.049
961	0.048
962	0.048
962	0.048
963	0.047
963	0.047
963	0.047
964	0.047
964	0.047
965	0.047
965	0.047
966	0.047
966	0.048
966	0.048
967	0.049
967	0.049
968	0.05
968	0.05
968	0.05
969	0.05
969	0.05
970	0.05
970	0.05
971	0.05
971	0.049
971	0.049
972	0.049
972	0.048
973	0.048
973	0.048
974	0.048
974	0.048
974	0.048
975	0.048
975	0.048
976	0.048
976	0.048
976	0.048
977	0.048
977	0.048
978	0.048
978	0.048
979	0.048
979	0.048
979	0.048
980	0.048
980	0.048
981	0.048
981	0.048
982	0.048
982	0.048
982	0.049
983	0.049
983	0.049
984	0.049
984	0.049
984	0.049
985	0.049
985	0.049
986	0.049
986	0.049
987	0.048
987	0.048
987	0.048
988	0.048
988	0.047
989	0.047
989	0.046
990	0.045
990	0.045
990	0.044
991	0.044
991	0.044
992	0.043
992	0.042
992	0.042
993	0.041
993	0.041
994	0.041
994	0.04
995	0.04
995	0.04
995	0.04
996	0.041
996	0.041
997	0.042
997	0.042
997	0.043
998	0.044
998	0.045
999	0.045
999	0.046
1000	0.047
1000	0.048
1000	0.048
1001	0.048
1001	0.048
1002	0.048
1002	0.047
1003	0.047
1003	0.046
1003	0.044
1004	0.043
1004	0.042
1005	0.041
1005	0.04
1005	0.039
1006	0.038
1006	0.037
1007	0.037
1007	0.036
1008	0.036
1008	0.037
1008	0.037
1009	0.037
1009	0.038
1010	0.038
1010	0.039
1010	0.039
1011	0.039
1011	0.04
1012	0.04
1012	0.04
1013	0.04
1013	0.04
1013	0.039
1014	0.039
1014	0.039
1015	0.039
1015	0.039
1016	0.039
1016	0.039
1016	0.038
1017	0.038
1017	0.038
1018	0.038
1018	0.037
1018	0.037
1019	0.037
1019	0.037
1020	0.036
1020	0.036
1021	0.037
1021	0.037
1021	0.037
1022	0.037
1022	0.037
1023	0.037
1023	0.037
1023	0.037
1024	0.037
1024	0.037
1025	0.037
1025	0.037
1026	0.037
1026	0.037
1026	0.037
1027	0.037
1027	0.037
1028	0.037
1028	0.037
1028	0.037
1029	0.037
1029	0.037
1030	0.037
1030	0.038
1031	0.038
1031	0.038
1031	0.039
1032	0.039
1032	0.04
1033	0.04
1033	0.04
1033	0.04
1034	0.04
1034	0.04
1035	0.04
1035	0.04
1036	0.04
1036	0.039
1036	0.039
1037	0.039
1037	0.038
1038	0.038
1038	0.038
1039	0.038
1039	0.038
1039	0.038
1040	0.038
1040	0.038
1041	0.038
1041	0.038
1041	0.038
1042	0.038
1042	0.038
1043	0.039
1043	0.039
1044	0.039
1044	0.039
1044	0.04
1045	0.04
1045	0.04
1046	0.04
1046	0.041
1046	0.041
1047	0.042
1047	0.042
1048	0.043
1048	0.043
1049	0.043
1049	0.043
1049	0.043
1050	0.043
1050	0.043
1051	0.043
1051	0.042
1051	0.042
1052	0.041
1052	0.041
1053	0.04
1053	0.04
1053	0.039
1054	0.038
1054	0.038
1055	0.038
1055	0.037
1056	0.036
1056	0.036
1056	0.035
1057	0.035
1057	0.034
1058	0.034
1058	0.033
1058	0.033
1059	0.033
1059	0.032
1060	0.032
1060	0.032
1061	0.032
1061	0.032
1061	0.032
1062	0.032
1062	0.032
1063	0.032
1063	0.032
1063	0.032
1064	0.031
1064	0.031
1065	0.031
1065	0.031
1066	0.031
1066	0.031
1066	0.031
1067	0.031
1067	0.03
1068	0.03
1068	0.03
1068	0.03
1069	0.03
1069	0.03
1070	0.03
1070	0.029
1071	0.029
1071	0.029
1071	0.028
1072	0.028
1072	0.028
1073	0.027
1073	0.027
1073	0.026
1074	0.027
1074	0.027
1075	0.026
1075	0.026
1076	0.027
1076	0.027
1076	0.027
1077	0.028
1077	0.028
1078	0.028
1078	0.028
1078	0.028
1079	0.028
1079	0.028
1080	0.028
1080	0.028
1080	0.028
1081	0.028
1081	0.027
1082	0.028
1082	0.028
1083	0.028
1083	0.028
1083	0.028
1084	0.028
1084	0.029
1085	0.029
1085	0.029
1085	0.029
1086	0.029
1086	0.028
1087	0.028
1087	0.027
1088	0.027
1088	0.026
1088	0.026
1089	0.025
1089	0.024
1090	0.023
1090	0.023
1090	0.022
1091	0.022
1091	0.023
1092	0.023
1092	0.023
1092	0.023
1093	0.023
1093	0.023
1094	0.023
1094	0.023
1095	0.024
1095	0.023
1095	0.023
1096	0.022
1096	0.022
1097	0.022
1097	0.022
1097	0.022
1098	0.022
1098	0.021
1099	0.021
1099	0.02
1100	0.019
1100	0.019
1100	0.019
1101	0.018
1101	0.017
1102	0.017
1102	0.016
1102	0.015
1103	0.015
1103	0.016
1104	0.015
1104	0.016
1104	0.015
1105	0.014
1105	0.012
1106	0.011
1106	0.011
1107	0.01
1107	0.01
1107	0.009
1108	0.007
1108	0.006
1109	0.005
1109	0.004
1109	0.004
1110	0.005
1110	0.004
1111	0.003
1111	0.004
