Data from reversibility-20sec_Absorbance__4552__000000000004552.txt Node

Date: Wed Dec 06 13:30:25 CET 2023
User: Marek
Spectrometer: MAYP115816
Trigger mode: 0
Integration Time (sec): 2.000000E-1
Scans to average: 10
Electric dark correction enabled: true
Nonlinearity correction enabled: true
Boxcar width: 5
XAxis mode: Wavelengths
Number of Pixels in Spectrum: 2068
>>>>>Begin Spectral Data<<<<<
199	-0.21
199	-0.18
200	-0.117
200	-0.062
201	-0.031
201	-0.011
202	0.001
202	0.013
203	0.018
203	0.021
204	0.036
204	0.05
205	0.062
205	0.068
205	0.066
206	0.064
206	0.064
207	0.064
207	0.063
208	0.064
208	0.063
209	0.065
209	0.061
210	0.061
210	0.06
211	0.059
211	0.061
212	0.059
212	0.062
213	0.063
213	0.063
213	0.064
214	0.067
214	0.07
215	0.073
215	0.074
216	0.077
216	0.075
217	0.078
217	0.077
218	0.077
218	0.081
219	0.085
219	0.086
220	0.087
220	0.086
221	0.086
221	0.089
221	0.097
222	0.103
222	0.109
223	0.116
223	0.119
224	0.124
224	0.13
225	0.141
225	0.152
226	0.161
226	0.17
227	0.181
227	0.191
228	0.205
228	0.218
229	0.237
229	0.262
229	0.285
230	0.31
230	0.338
231	0.371
231	0.411
232	0.445
232	0.487
233	0.533
233	0.582
234	0.631
234	0.683
235	0.736
235	0.787
236	0.838
236	0.892
236	0.944
237	1
237	1.048
238	1.093
238	1.139
239	1.186
239	1.228
240	1.27
240	1.308
241	1.345
241	1.379
242	1.412
242	1.445
243	1.475
243	1.503
243	1.528
244	1.549
244	1.569
245	1.589
245	1.612
246	1.632
246	1.649
247	1.661
247	1.675
248	1.69
248	1.703
249	1.715
249	1.722
250	1.73
250	1.738
250	1.742
251	1.746
251	1.75
252	1.756
252	1.758
253	1.759
253	1.76
254	1.76
254	1.763
255	1.765
255	1.765
256	1.764
256	1.765
257	1.766
257	1.765
258	1.764
258	1.764
258	1.763
259	1.763
259	1.763
260	1.761
260	1.763
261	1.763
261	1.766
262	1.768
262	1.77
263	1.772
263	1.772
264	1.774
264	1.775
265	1.776
265	1.776
265	1.775
266	1.775
266	1.774
267	1.772
267	1.772
268	1.771
268	1.772
269	1.773
269	1.771
270	1.771
270	1.77
271	1.768
271	1.767
272	1.765
272	1.764
272	1.763
273	1.758
273	1.755
274	1.75
274	1.745
275	1.739
275	1.735
276	1.729
276	1.723
277	1.716
277	1.707
278	1.695
278	1.685
278	1.671
279	1.658
279	1.641
280	1.623
280	1.6
281	1.572
281	1.541
282	1.508
282	1.474
283	1.439
283	1.405
284	1.371
284	1.337
285	1.304
285	1.274
285	1.246
286	1.221
286	1.2
287	1.18
287	1.163
288	1.148
288	1.135
289	1.124
289	1.114
290	1.105
290	1.097
291	1.09
291	1.084
292	1.079
292	1.074
292	1.069
293	1.065
293	1.06
294	1.056
294	1.053
295	1.049
295	1.046
296	1.043
296	1.039
297	1.036
297	1.032
298	1.029
298	1.026
298	1.023
299	1.02
299	1.017
300	1.014
300	1.011
301	1.008
301	1.005
302	1.002
302	1
303	0.997
303	0.994
304	0.992
304	0.989
305	0.986
305	0.983
305	0.98
306	0.978
306	0.975
307	0.972
307	0.969
308	0.966
308	0.963
309	0.96
309	0.956
310	0.953
310	0.95
311	0.947
311	0.943
311	0.94
312	0.936
312	0.932
313	0.928
313	0.925
314	0.921
314	0.917
315	0.913
315	0.908
316	0.904
316	0.9
317	0.895
317	0.89
318	0.886
318	0.881
318	0.875
319	0.87
319	0.865
320	0.859
320	0.853
321	0.847
321	0.841
322	0.835
322	0.829
323	0.822
323	0.816
324	0.81
324	0.803
324	0.797
325	0.79
325	0.784
326	0.777
326	0.77
327	0.763
327	0.757
328	0.75
328	0.743
329	0.737
329	0.729
330	0.723
330	0.716
330	0.709
331	0.702
331	0.696
332	0.689
332	0.682
333	0.675
333	0.669
334	0.662
334	0.655
335	0.649
335	0.642
336	0.635
336	0.629
336	0.622
337	0.616
337	0.61
338	0.603
338	0.597
339	0.592
339	0.586
340	0.58
340	0.575
341	0.569
341	0.564
342	0.559
342	0.553
342	0.548
343	0.543
343	0.538
344	0.533
344	0.528
345	0.524
345	0.519
346	0.515
346	0.51
347	0.506
347	0.502
348	0.498
348	0.494
348	0.491
349	0.487
349	0.483
350	0.479
350	0.476
351	0.472
351	0.469
352	0.466
352	0.463
353	0.459
353	0.456
354	0.454
354	0.451
354	0.448
355	0.445
355	0.442
356	0.439
356	0.436
357	0.432
357	0.429
358	0.427
358	0.424
359	0.421
359	0.419
360	0.417
360	0.415
360	0.413
361	0.411
361	0.409
362	0.408
362	0.406
363	0.404
363	0.402
364	0.4
364	0.398
365	0.396
365	0.394
366	0.392
366	0.39
366	0.388
367	0.386
367	0.385
368	0.383
368	0.381
369	0.38
369	0.378
370	0.377
370	0.375
371	0.374
371	0.372
372	0.371
372	0.37
372	0.369
373	0.367
373	0.366
374	0.365
374	0.364
375	0.363
375	0.362
376	0.36
376	0.359
377	0.358
377	0.357
378	0.356
378	0.355
378	0.354
379	0.354
379	0.353
380	0.352
380	0.351
381	0.35
381	0.349
382	0.348
382	0.348
383	0.347
383	0.346
383	0.345
384	0.344
384	0.343
385	0.342
385	0.342
386	0.341
386	0.34
387	0.34
387	0.339
388	0.339
388	0.338
389	0.337
389	0.337
389	0.336
390	0.336
390	0.335
391	0.335
391	0.334
392	0.334
392	0.333
393	0.333
393	0.332
394	0.332
394	0.331
394	0.331
395	0.33
395	0.33
396	0.329
396	0.328
397	0.328
397	0.327
398	0.327
398	0.326
399	0.326
399	0.325
400	0.325
400	0.324
400	0.324
401	0.324
401	0.323
402	0.323
402	0.323
403	0.322
403	0.322
404	0.321
404	0.321
405	0.32
405	0.32
405	0.319
406	0.319
406	0.318
407	0.318
407	0.318
408	0.317
408	0.317
409	0.317
409	0.316
410	0.316
410	0.316
411	0.315
411	0.315
411	0.315
412	0.314
412	0.314
413	0.314
413	0.313
414	0.313
414	0.312
415	0.312
415	0.311
416	0.311
416	0.311
416	0.31
417	0.31
417	0.309
418	0.309
418	0.309
419	0.308
419	0.308
420	0.307
420	0.307
421	0.306
421	0.306
421	0.306
422	0.306
422	0.305
423	0.305
423	0.305
424	0.304
424	0.304
425	0.304
425	0.304
426	0.303
426	0.303
427	0.303
427	0.302
427	0.302
428	0.302
428	0.301
429	0.301
429	0.301
430	0.3
430	0.3
431	0.3
431	0.3
432	0.3
432	0.3
432	0.299
433	0.299
433	0.299
434	0.299
434	0.299
435	0.298
435	0.298
436	0.298
436	0.298
437	0.298
437	0.297
437	0.298
438	0.297
438	0.297
439	0.297
439	0.297
440	0.297
440	0.297
441	0.296
441	0.296
442	0.296
442	0.296
442	0.296
443	0.296
443	0.296
444	0.296
444	0.296
445	0.296
445	0.296
446	0.295
446	0.295
447	0.295
447	0.295
447	0.295
448	0.295
448	0.295
449	0.295
449	0.295
450	0.295
450	0.295
451	0.294
451	0.294
452	0.295
452	0.295
452	0.294
453	0.295
453	0.295
454	0.295
454	0.294
455	0.294
455	0.294
456	0.295
456	0.295
457	0.295
457	0.295
458	0.295
458	0.295
458	0.295
459	0.295
459	0.295
460	0.295
460	0.295
461	0.295
461	0.295
462	0.295
462	0.295
463	0.295
463	0.296
463	0.296
464	0.296
464	0.296
465	0.296
465	0.296
466	0.296
466	0.296
467	0.296
467	0.296
467	0.296
468	0.296
468	0.297
469	0.297
469	0.298
470	0.298
470	0.298
471	0.299
471	0.299
472	0.3
472	0.3
472	0.301
473	0.302
473	0.302
474	0.302
474	0.303
475	0.303
475	0.304
476	0.304
476	0.305
477	0.305
477	0.306
477	0.307
478	0.307
478	0.308
479	0.308
479	0.309
480	0.31
480	0.31
481	0.311
481	0.312
482	0.312
482	0.313
482	0.314
483	0.315
483	0.316
484	0.317
484	0.317
485	0.318
485	0.319
486	0.319
486	0.32
487	0.321
487	0.322
487	0.323
488	0.324
488	0.325
489	0.326
489	0.328
490	0.329
490	0.33
491	0.332
491	0.333
492	0.335
492	0.336
492	0.337
493	0.338
493	0.339
494	0.341
494	0.342
495	0.343
495	0.345
496	0.346
496	0.348
496	0.349
497	0.351
497	0.352
498	0.353
498	0.355
499	0.356
499	0.357
500	0.359
500	0.36
501	0.362
501	0.363
501	0.364
502	0.365
502	0.367
503	0.368
503	0.369
504	0.37
504	0.372
505	0.373
505	0.374
506	0.375
506	0.377
506	0.378
507	0.379
507	0.38
508	0.382
508	0.383
509	0.384
509	0.386
510	0.387
510	0.388
511	0.389
511	0.391
511	0.392
512	0.393
512	0.394
513	0.395
513	0.396
514	0.397
514	0.397
515	0.398
515	0.399
515	0.4
516	0.4
516	0.401
517	0.402
517	0.403
518	0.403
518	0.404
519	0.404
519	0.404
520	0.405
520	0.405
520	0.405
521	0.404
521	0.404
522	0.404
522	0.403
523	0.403
523	0.403
524	0.403
524	0.402
524	0.402
525	0.402
525	0.401
526	0.401
526	0.4
527	0.4
527	0.399
528	0.398
528	0.397
529	0.396
529	0.395
529	0.394
530	0.393
530	0.391
531	0.39
531	0.389
532	0.388
532	0.387
533	0.385
533	0.384
533	0.382
534	0.381
534	0.379
535	0.377
535	0.376
536	0.374
536	0.373
537	0.371
537	0.369
538	0.367
538	0.365
538	0.363
539	0.361
539	0.36
540	0.358
540	0.356
541	0.354
541	0.351
542	0.349
542	0.347
542	0.345
543	0.343
543	0.341
544	0.339
544	0.336
545	0.334
545	0.332
546	0.329
546	0.327
547	0.324
547	0.322
547	0.32
548	0.318
548	0.315
549	0.313
549	0.311
550	0.308
550	0.306
551	0.303
551	0.301
551	0.298
552	0.296
552	0.294
553	0.291
553	0.289
554	0.287
554	0.284
555	0.282
555	0.279
556	0.277
556	0.275
556	0.273
557	0.272
557	0.27
558	0.268
558	0.266
559	0.264
559	0.263
560	0.26
560	0.259
560	0.256
561	0.255
561	0.252
562	0.25
562	0.248
563	0.245
563	0.243
564	0.241
564	0.238
564	0.237
565	0.235
565	0.233
566	0.231
566	0.229
567	0.228
567	0.226
568	0.224
568	0.223
568	0.221
569	0.22
569	0.218
570	0.216
570	0.214
571	0.212
571	0.211
572	0.209
572	0.207
573	0.206
573	0.204
573	0.202
574	0.201
574	0.199
575	0.198
575	0.198
576	0.197
576	0.195
577	0.193
577	0.192
577	0.191
578	0.189
578	0.188
579	0.187
579	0.186
580	0.184
580	0.182
581	0.18
581	0.179
581	0.178
582	0.178
582	0.177
583	0.176
583	0.175
584	0.173
584	0.171
585	0.17
585	0.169
585	0.168
586	0.167
586	0.166
587	0.164
587	0.163
588	0.161
588	0.16
589	0.159
589	0.158
590	0.158
590	0.157
590	0.157
591	0.156
591	0.155
592	0.154
592	0.153
593	0.152
593	0.152
594	0.151
594	0.149
594	0.148
595	0.147
595	0.146
596	0.145
596	0.145
597	0.145
597	0.145
598	0.144
598	0.144
598	0.143
599	0.143
599	0.142
600	0.141
600	0.14
601	0.139
601	0.138
602	0.137
602	0.136
602	0.135
603	0.134
603	0.134
604	0.134
604	0.133
605	0.133
605	0.133
606	0.132
606	0.131
606	0.13
607	0.129
607	0.128
608	0.128
608	0.126
609	0.125
609	0.125
610	0.124
610	0.123
610	0.123
611	0.123
611	0.122
612	0.122
612	0.122
613	0.121
613	0.121
614	0.12
614	0.119
614	0.119
615	0.118
615	0.118
616	0.117
616	0.117
617	0.116
617	0.116
618	0.115
618	0.115
618	0.114
619	0.114
619	0.114
620	0.115
620	0.114
621	0.114
621	0.113
622	0.112
622	0.112
622	0.111
623	0.11
623	0.11
624	0.109
624	0.108
625	0.107
625	0.107
626	0.106
626	0.106
626	0.106
627	0.106
627	0.105
628	0.105
628	0.104
629	0.104
629	0.103
630	0.103
630	0.103
630	0.103
631	0.103
631	0.102
632	0.102
632	0.101
633	0.101
633	0.1
634	0.1
634	0.1
634	0.1
635	0.099
635	0.099
636	0.098
636	0.098
637	0.098
637	0.098
638	0.097
638	0.097
638	0.096
639	0.096
639	0.095
640	0.095
640	0.095
641	0.095
641	0.094
642	0.094
642	0.094
642	0.094
643	0.094
643	0.094
644	0.094
644	0.093
645	0.093
645	0.092
646	0.092
646	0.092
646	0.092
647	0.091
647	0.091
648	0.09
648	0.089
649	0.089
649	0.089
650	0.089
650	0.089
650	0.089
651	0.088
651	0.088
652	0.087
652	0.087
653	0.087
653	0.088
653	0.095
654	0.077
654	0.063
655	0.06
655	0.06
656	0.06
656	0.06
657	0.061
657	0.061
657	0.061
658	0.06
658	0.052
659	0.064
659	0.081
660	0.086
660	0.087
661	0.086
661	0.086
661	0.085
662	0.085
662	0.084
663	0.084
663	0.084
664	0.084
664	0.083
665	0.083
665	0.083
665	0.083
666	0.083
666	0.083
667	0.083
667	0.083
668	0.083
668	0.082
669	0.082
669	0.082
669	0.083
670	0.083
670	0.083
671	0.082
671	0.082
672	0.082
672	0.081
672	0.081
673	0.081
673	0.08
674	0.08
674	0.079
675	0.079
675	0.078
676	0.078
676	0.078
676	0.077
677	0.077
677	0.077
678	0.076
678	0.075
679	0.075
679	0.075
680	0.075
680	0.075
680	0.074
681	0.074
681	0.075
682	0.075
682	0.075
683	0.076
683	0.076
684	0.077
684	0.077
684	0.076
685	0.077
685	0.077
686	0.077
686	0.077
687	0.077
687	0.077
687	0.077
688	0.076
688	0.076
689	0.076
689	0.076
690	0.076
690	0.075
691	0.075
691	0.074
691	0.074
692	0.073
692	0.073
693	0.073
693	0.073
694	0.073
694	0.073
695	0.074
695	0.076
695	0.076
696	0.076
696	0.076
697	0.077
697	0.076
698	0.076
698	0.076
698	0.076
699	0.076
699	0.075
700	0.074
700	0.074
701	0.074
701	0.073
702	0.072
702	0.072
702	0.071
703	0.071
703	0.07
704	0.069
704	0.069
705	0.069
705	0.069
705	0.069
706	0.069
706	0.07
707	0.07
707	0.07
708	0.071
708	0.071
709	0.071
709	0.07
709	0.07
710	0.069
710	0.069
711	0.069
711	0.069
712	0.069
712	0.068
713	0.068
713	0.068
713	0.068
714	0.068
714	0.068
715	0.067
715	0.067
716	0.066
716	0.066
716	0.065
717	0.065
717	0.064
718	0.064
718	0.064
719	0.064
719	0.064
720	0.065
720	0.065
720	0.066
721	0.066
721	0.066
722	0.067
722	0.067
723	0.067
723	0.067
723	0.067
724	0.067
724	0.066
725	0.065
725	0.065
726	0.064
726	0.064
727	0.063
727	0.062
727	0.062
728	0.062
728	0.062
729	0.062
729	0.062
730	0.062
730	0.062
730	0.062
731	0.063
731	0.063
732	0.064
732	0.064
733	0.064
733	0.064
734	0.064
734	0.064
734	0.064
735	0.065
735	0.064
736	0.064
736	0.064
737	0.063
737	0.063
737	0.063
738	0.062
738	0.061
739	0.06
739	0.059
740	0.059
740	0.058
741	0.058
741	0.058
741	0.058
742	0.058
742	0.058
743	0.059
743	0.06
744	0.061
744	0.061
744	0.062
745	0.062
745	0.062
746	0.062
746	0.062
747	0.062
747	0.062
748	0.061
748	0.061
748	0.06
749	0.06
749	0.06
750	0.059
750	0.059
751	0.058
751	0.058
751	0.058
752	0.057
752	0.056
753	0.055
753	0.055
754	0.054
754	0.054
754	0.054
755	0.054
755	0.054
756	0.054
756	0.053
757	0.053
757	0.053
758	0.054
758	0.054
758	0.054
759	0.054
759	0.054
760	0.053
760	0.053
761	0.053
761	0.054
761	0.054
762	0.054
762	0.054
763	0.054
763	0.053
764	0.053
764	0.053
764	0.053
765	0.052
765	0.052
766	0.051
766	0.051
767	0.05
767	0.05
768	0.049
768	0.049
768	0.05
769	0.05
769	0.05
770	0.051
770	0.052
771	0.052
771	0.053
771	0.053
772	0.054
772	0.054
773	0.054
773	0.054
774	0.054
774	0.053
775	0.053
775	0.053
775	0.052
776	0.052
776	0.051
777	0.051
777	0.051
778	0.05
778	0.05
778	0.049
779	0.049
779	0.048
780	0.047
780	0.047
781	0.046
781	0.046
781	0.046
782	0.046
782	0.046
783	0.047
783	0.047
784	0.047
784	0.048
784	0.049
785	0.05
785	0.05
786	0.05
786	0.051
787	0.051
787	0.051
788	0.05
788	0.049
788	0.049
789	0.048
789	0.047
790	0.047
790	0.046
791	0.045
791	0.045
791	0.044
792	0.045
792	0.044
793	0.044
793	0.044
794	0.044
794	0.044
794	0.044
795	0.045
795	0.045
796	0.045
796	0.045
797	0.044
797	0.044
797	0.045
798	0.045
798	0.045
799	0.045
799	0.045
800	0.045
800	0.045
801	0.045
801	0.045
801	0.045
802	0.046
802	0.046
803	0.046
803	0.046
804	0.046
804	0.047
804	0.047
805	0.046
805	0.046
806	0.046
806	0.046
807	0.046
807	0.047
807	0.047
808	0.048
808	0.048
809	0.048
809	0.049
810	0.049
810	0.049
810	0.049
811	0.049
811	0.049
812	0.049
812	0.049
813	0.048
813	0.048
813	0.047
814	0.047
814	0.047
815	0.048
815	0.048
816	0.047
816	0.047
817	0.046
817	0.046
817	0.046
818	0.046
818	0.046
819	0.046
819	0.045
820	0.044
820	0.044
820	0.044
821	0.044
821	0.044
822	0.044
822	0.044
823	0.043
823	0.043
823	0.043
824	0.043
824	0.044
825	0.045
825	0.045
826	0.045
826	0.045
826	0.046
827	0.046
827	0.046
828	0.046
828	0.046
829	0.046
829	0.046
829	0.045
830	0.045
830	0.045
831	0.046
831	0.046
832	0.045
832	0.045
832	0.045
833	0.045
833	0.045
834	0.044
834	0.044
835	0.044
835	0.044
835	0.044
836	0.044
836	0.044
837	0.044
837	0.045
838	0.045
838	0.045
839	0.045
839	0.045
839	0.045
840	0.044
840	0.044
841	0.043
841	0.043
842	0.042
842	0.042
842	0.041
843	0.04
843	0.04
844	0.04
844	0.039
845	0.039
845	0.038
845	0.038
846	0.038
846	0.037
847	0.037
847	0.037
848	0.038
848	0.038
848	0.038
849	0.039
849	0.039
850	0.039
850	0.04
851	0.04
851	0.04
851	0.04
852	0.04
852	0.039
853	0.039
853	0.038
854	0.038
854	0.038
854	0.037
855	0.037
855	0.037
856	0.037
856	0.037
857	0.038
857	0.038
857	0.039
858	0.039
858	0.039
859	0.038
859	0.038
860	0.038
860	0.038
860	0.038
861	0.037
861	0.037
862	0.037
862	0.036
863	0.036
863	0.035
863	0.035
864	0.035
864	0.035
865	0.035
865	0.035
866	0.035
866	0.035
866	0.036
867	0.036
867	0.037
868	0.038
868	0.039
869	0.04
869	0.04
869	0.04
870	0.04
870	0.04
871	0.04
871	0.04
872	0.04
872	0.04
872	0.04
873	0.04
873	0.039
874	0.039
874	0.039
875	0.039
875	0.038
875	0.038
876	0.038
876	0.038
877	0.039
877	0.039
878	0.039
878	0.039
878	0.039
879	0.04
879	0.04
880	0.04
880	0.039
881	0.039
881	0.039
881	0.039
882	0.039
882	0.038
883	0.038
883	0.038
884	0.038
884	0.038
884	0.039
885	0.038
885	0.038
886	0.038
886	0.038
887	0.037
887	0.036
887	0.036
888	0.035
888	0.034
889	0.034
889	0.033
890	0.033
890	0.033
890	0.033
891	0.032
891	0.033
892	0.033
892	0.033
893	0.033
893	0.034
893	0.034
894	0.034
894	0.034
895	0.035
895	0.035
895	0.036
896	0.037
896	0.038
897	0.038
897	0.039
898	0.04
898	0.04
898	0.041
899	0.041
899	0.041
900	0.042
900	0.042
901	0.041
901	0.041
901	0.041
902	0.041
902	0.04
903	0.039
903	0.039
904	0.038
904	0.038
904	0.037
905	0.036
905	0.035
906	0.035
906	0.034
907	0.034
907	0.034
907	0.034
908	0.034
908	0.034
909	0.033
909	0.033
910	0.033
910	0.032
910	0.032
911	0.032
911	0.031
912	0.031
912	0.031
913	0.031
913	0.031
913	0.032
914	0.032
914	0.033
915	0.033
915	0.033
916	0.034
916	0.034
916	0.034
917	0.034
917	0.034
918	0.034
918	0.034
918	0.034
919	0.034
919	0.034
920	0.034
920	0.034
921	0.034
921	0.034
921	0.034
922	0.034
922	0.034
923	0.034
923	0.035
924	0.035
924	0.036
924	0.036
925	0.036
925	0.037
926	0.037
926	0.038
927	0.038
927	0.038
927	0.038
928	0.038
928	0.038
929	0.038
929	0.038
930	0.037
930	0.037
930	0.037
931	0.037
931	0.037
932	0.037
932	0.036
933	0.036
933	0.036
933	0.035
934	0.034
934	0.034
935	0.033
935	0.032
935	0.032
936	0.031
936	0.03
937	0.03
937	0.03
938	0.03
938	0.03
938	0.03
939	0.031
939	0.031
940	0.032
940	0.033
941	0.033
941	0.034
941	0.035
942	0.036
942	0.036
943	0.036
943	0.036
944	0.036
944	0.036
944	0.036
945	0.036
945	0.036
946	0.036
946	0.036
946	0.036
947	0.036
947	0.036
948	0.036
948	0.036
949	0.035
949	0.035
949	0.035
950	0.035
950	0.035
951	0.035
951	0.035
952	0.034
952	0.034
952	0.034
953	0.034
953	0.034
954	0.034
954	0.033
955	0.033
955	0.032
955	0.032
956	0.031
956	0.031
957	0.031
957	0.032
957	0.032
958	0.032
958	0.032
959	0.033
959	0.033
960	0.034
960	0.035
960	0.035
961	0.035
961	0.036
962	0.036
962	0.036
963	0.036
963	0.036
963	0.036
964	0.036
964	0.036
965	0.036
965	0.037
966	0.037
966	0.037
966	0.036
967	0.036
967	0.036
968	0.036
968	0.036
968	0.036
969	0.036
969	0.035
970	0.035
970	0.034
971	0.034
971	0.033
971	0.033
972	0.032
972	0.031
973	0.031
973	0.031
974	0.03
974	0.03
974	0.031
975	0.031
975	0.031
976	0.032
976	0.032
976	0.033
977	0.033
977	0.033
978	0.034
978	0.034
979	0.034
979	0.035
979	0.035
980	0.035
980	0.034
981	0.034
981	0.033
982	0.033
982	0.033
982	0.032
983	0.032
983	0.031
984	0.03
984	0.03
984	0.029
985	0.029
985	0.029
986	0.028
986	0.028
987	0.027
987	0.027
987	0.027
988	0.027
988	0.027
989	0.027
989	0.027
990	0.027
990	0.027
990	0.028
991	0.028
991	0.028
992	0.028
992	0.028
992	0.028
993	0.027
993	0.027
994	0.027
994	0.026
995	0.026
995	0.025
995	0.025
996	0.025
996	0.025
997	0.025
997	0.026
997	0.026
998	0.027
998	0.028
999	0.029
999	0.03
1000	0.031
1000	0.031
1000	0.032
1001	0.032
1001	0.032
1002	0.032
1002	0.032
1003	0.032
1003	0.031
1003	0.03
1004	0.03
1004	0.029
1005	0.028
1005	0.027
1005	0.026
1006	0.026
1006	0.025
1007	0.025
1007	0.024
1008	0.024
1008	0.024
1008	0.024
1009	0.024
1009	0.024
1010	0.024
1010	0.024
1010	0.024
1011	0.024
1011	0.023
1012	0.023
1012	0.023
1013	0.023
1013	0.023
1013	0.023
1014	0.023
1014	0.022
1015	0.023
1015	0.023
1016	0.023
1016	0.024
1016	0.024
1017	0.024
1017	0.024
1018	0.024
1018	0.024
1018	0.025
1019	0.025
1019	0.024
1020	0.024
1020	0.024
1021	0.024
1021	0.024
1021	0.024
1022	0.024
1022	0.024
1023	0.024
1023	0.024
1023	0.025
1024	0.025
1024	0.025
1025	0.025
1025	0.026
1026	0.026
1026	0.026
1026	0.027
1027	0.027
1027	0.027
1028	0.028
1028	0.028
1028	0.028
1029	0.029
1029	0.029
1030	0.029
1030	0.029
1031	0.03
1031	0.03
1031	0.03
1032	0.031
1032	0.031
1033	0.031
1033	0.031
1033	0.031
1034	0.03
1034	0.03
1035	0.03
1035	0.029
1036	0.029
1036	0.029
1036	0.029
1037	0.029
1037	0.028
1038	0.028
1038	0.028
1039	0.028
1039	0.028
1039	0.028
1040	0.028
1040	0.028
1041	0.028
1041	0.028
1041	0.028
1042	0.029
1042	0.028
1043	0.029
1043	0.029
1044	0.029
1044	0.029
1044	0.029
1045	0.029
1045	0.028
1046	0.028
1046	0.028
1046	0.029
1047	0.029
1047	0.029
1048	0.029
1048	0.029
1049	0.029
1049	0.029
1049	0.029
1050	0.029
1050	0.028
1051	0.027
1051	0.027
1051	0.026
1052	0.025
1052	0.024
1053	0.023
1053	0.023
1053	0.022
1054	0.021
1054	0.021
1055	0.021
1055	0.021
1056	0.02
1056	0.02
1056	0.02
1057	0.019
1057	0.018
1058	0.018
1058	0.017
1058	0.016
1059	0.015
1059	0.015
1060	0.014
1060	0.014
1061	0.013
1061	0.013
1061	0.013
1062	0.013
1062	0.013
1063	0.013
1063	0.013
1063	0.013
1064	0.013
1064	0.013
1065	0.014
1065	0.013
1066	0.014
1066	0.014
1066	0.013
1067	0.013
1067	0.013
1068	0.013
1068	0.013
1068	0.013
1069	0.013
1069	0.013
1070	0.013
1070	0.012
1071	0.012
1071	0.012
1071	0.011
1072	0.011
1072	0.01
1073	0.01
1073	0.01
1073	0.01
1074	0.01
1074	0.01
1075	0.009
1075	0.01
1076	0.01
1076	0.011
1076	0.011
1077	0.011
1077	0.011
1078	0.01
1078	0.01
1078	0.01
1079	0.01
1079	0.01
1080	0.009
1080	0.01
1080	0.01
1081	0.01
1081	0.01
1082	0.011
1082	0.011
1083	0.011
1083	0.012
1083	0.012
1084	0.012
1084	0.013
1085	0.014
1085	0.014
1085	0.014
1086	0.015
1086	0.015
1087	0.015
1087	0.015
1088	0.015
1088	0.015
1088	0.016
1089	0.016
1089	0.015
1090	0.015
1090	0.015
1090	0.014
1091	0.014
1091	0.014
1092	0.014
1092	0.014
1092	0.014
1093	0.013
1093	0.014
1094	0.014
1094	0.014
1095	0.014
1095	0.014
1095	0.014
1096	0.013
1096	0.012
1097	0.011
1097	0.011
1097	0.011
1098	0.01
1098	0.009
1099	0.008
1099	0.006
1100	0.005
1100	0.003
1100	0.002
1101	0.001
1101	0
1102	-0.001
1102	-0.003
1102	-0.004
1103	-0.004
1103	-0.005
1104	-0.006
1104	-0.005
1104	-0.006
1105	-0.007
1105	-0.008
1106	-0.009
1106	-0.01
1107	-0.01
1107	-0.011
1107	-0.012
1108	-0.013
1108	-0.014
1109	-0.015
1109	-0.016
1109	-0.017
1110	-0.016
1110	-0.018
1111	-0.018
1111	-0.024
