Data from reversibility-20sec_Absorbance__768__000000000000768.txt Node

Date: Tue Dec 05 16:29:07 CET 2023
User: Marek
Spectrometer: MAYP115816
Trigger mode: 0
Integration Time (sec): 2.000000E-1
Scans to average: 10
Electric dark correction enabled: true
Nonlinearity correction enabled: true
Boxcar width: 5
XAxis mode: Wavelengths
Number of Pixels in Spectrum: 2068
>>>>>Begin Spectral Data<<<<<
199	-0.249
199	-0.215
200	-0.144
200	-0.094
201	-0.063
201	-0.047
202	-0.035
202	-0.026
203	-0.02
203	-0.015
204	-0.002
204	0.011
205	0.025
205	0.031
205	0.03
206	0.03
206	0.031
207	0.032
207	0.032
208	0.031
208	0.029
209	0.033
209	0.03
210	0.029
210	0.03
211	0.03
211	0.033
212	0.032
212	0.035
213	0.038
213	0.042
213	0.043
214	0.046
214	0.05
215	0.051
215	0.049
216	0.052
216	0.05
217	0.054
217	0.054
218	0.054
218	0.057
219	0.062
219	0.064
220	0.065
220	0.067
221	0.071
221	0.073
221	0.076
222	0.08
222	0.084
223	0.089
223	0.091
224	0.097
224	0.104
225	0.113
225	0.122
226	0.13
226	0.141
227	0.156
227	0.167
228	0.181
228	0.198
229	0.215
229	0.238
229	0.262
230	0.285
230	0.314
231	0.347
231	0.385
232	0.418
232	0.461
233	0.506
233	0.553
234	0.602
234	0.652
235	0.701
235	0.752
236	0.802
236	0.853
236	0.903
237	0.957
237	1.003
238	1.048
238	1.094
239	1.142
239	1.184
240	1.225
240	1.261
241	1.297
241	1.333
242	1.365
242	1.396
243	1.426
243	1.453
243	1.477
244	1.499
244	1.52
245	1.538
245	1.562
246	1.58
246	1.596
247	1.608
247	1.621
248	1.638
248	1.65
249	1.661
249	1.668
250	1.677
250	1.685
250	1.688
251	1.693
251	1.696
252	1.704
252	1.704
253	1.704
253	1.704
254	1.704
254	1.705
255	1.702
255	1.702
256	1.703
256	1.702
257	1.701
257	1.699
258	1.699
258	1.699
258	1.699
259	1.698
259	1.698
260	1.699
260	1.701
261	1.701
261	1.703
262	1.704
262	1.704
263	1.706
263	1.705
264	1.706
264	1.706
265	1.706
265	1.705
265	1.704
266	1.704
266	1.703
267	1.7
267	1.7
268	1.699
268	1.699
269	1.699
269	1.699
270	1.698
270	1.697
271	1.695
271	1.694
272	1.691
272	1.69
272	1.688
273	1.683
273	1.679
274	1.675
274	1.67
275	1.665
275	1.661
276	1.654
276	1.647
277	1.64
277	1.631
278	1.621
278	1.61
278	1.598
279	1.583
279	1.567
280	1.548
280	1.524
281	1.497
281	1.467
282	1.434
282	1.4
283	1.365
283	1.331
284	1.298
284	1.265
285	1.233
285	1.203
285	1.176
286	1.151
286	1.13
287	1.111
287	1.095
288	1.081
288	1.069
289	1.058
289	1.049
290	1.041
290	1.034
291	1.028
291	1.022
292	1.017
292	1.013
292	1.009
293	1.005
293	1.001
294	0.998
294	0.994
295	0.991
295	0.988
296	0.985
296	0.982
297	0.979
297	0.977
298	0.974
298	0.972
298	0.969
299	0.966
299	0.963
300	0.961
300	0.958
301	0.956
301	0.954
302	0.951
302	0.949
303	0.947
303	0.944
304	0.942
304	0.94
305	0.937
305	0.935
305	0.932
306	0.93
306	0.928
307	0.925
307	0.922
308	0.92
308	0.917
309	0.914
309	0.911
310	0.908
310	0.906
311	0.903
311	0.9
311	0.896
312	0.893
312	0.89
313	0.886
313	0.882
314	0.878
314	0.874
315	0.871
315	0.866
316	0.862
316	0.858
317	0.853
317	0.849
318	0.844
318	0.839
318	0.834
319	0.829
319	0.824
320	0.819
320	0.813
321	0.807
321	0.801
322	0.795
322	0.789
323	0.783
323	0.777
324	0.77
324	0.764
324	0.758
325	0.751
325	0.745
326	0.738
326	0.732
327	0.725
327	0.719
328	0.712
328	0.706
329	0.699
329	0.692
330	0.685
330	0.678
330	0.672
331	0.665
331	0.658
332	0.651
332	0.644
333	0.638
333	0.631
334	0.624
334	0.618
335	0.611
335	0.605
336	0.598
336	0.592
336	0.586
337	0.58
337	0.574
338	0.568
338	0.562
339	0.556
339	0.551
340	0.545
340	0.54
341	0.534
341	0.529
342	0.524
342	0.519
342	0.514
343	0.509
343	0.504
344	0.499
344	0.494
345	0.49
345	0.485
346	0.481
346	0.477
347	0.473
347	0.468
348	0.464
348	0.461
348	0.457
349	0.453
349	0.45
350	0.446
350	0.443
351	0.439
351	0.436
352	0.433
352	0.43
353	0.427
353	0.424
354	0.421
354	0.418
354	0.415
355	0.412
355	0.409
356	0.406
356	0.404
357	0.4
357	0.398
358	0.395
358	0.392
359	0.39
359	0.387
360	0.385
360	0.383
360	0.381
361	0.38
361	0.378
362	0.377
362	0.375
363	0.373
363	0.371
364	0.369
364	0.367
365	0.365
365	0.363
366	0.361
366	0.36
366	0.358
367	0.356
367	0.354
368	0.352
368	0.351
369	0.349
369	0.347
370	0.346
370	0.344
371	0.343
371	0.341
372	0.34
372	0.338
372	0.337
373	0.336
373	0.335
374	0.334
374	0.332
375	0.331
375	0.33
376	0.329
376	0.328
377	0.327
377	0.326
378	0.325
378	0.324
378	0.323
379	0.322
379	0.321
380	0.32
380	0.319
381	0.318
381	0.317
382	0.316
382	0.315
383	0.314
383	0.313
383	0.313
384	0.312
384	0.311
385	0.31
385	0.31
386	0.309
386	0.308
387	0.307
387	0.307
388	0.306
388	0.306
389	0.305
389	0.304
389	0.304
390	0.303
390	0.303
391	0.302
391	0.302
392	0.301
392	0.301
393	0.3
393	0.299
394	0.299
394	0.298
394	0.298
395	0.297
395	0.297
396	0.296
396	0.295
397	0.295
397	0.294
398	0.293
398	0.293
399	0.292
399	0.292
400	0.291
400	0.291
400	0.29
401	0.29
401	0.289
402	0.289
402	0.289
403	0.288
403	0.288
404	0.287
404	0.287
405	0.287
405	0.287
405	0.286
406	0.285
406	0.285
407	0.284
407	0.284
408	0.284
408	0.283
409	0.283
409	0.282
410	0.282
410	0.281
411	0.281
411	0.281
411	0.281
412	0.28
412	0.28
413	0.28
413	0.279
414	0.279
414	0.279
415	0.279
415	0.278
416	0.278
416	0.277
416	0.277
417	0.277
417	0.276
418	0.276
418	0.276
419	0.275
419	0.275
420	0.275
420	0.274
421	0.274
421	0.274
421	0.274
422	0.273
422	0.273
423	0.273
423	0.273
424	0.272
424	0.272
425	0.272
425	0.271
426	0.271
426	0.271
427	0.27
427	0.27
427	0.27
428	0.27
428	0.269
429	0.269
429	0.269
430	0.269
430	0.269
431	0.269
431	0.269
432	0.269
432	0.268
432	0.268
433	0.268
433	0.268
434	0.268
434	0.268
435	0.268
435	0.268
436	0.267
436	0.267
437	0.267
437	0.267
437	0.267
438	0.267
438	0.267
439	0.267
439	0.267
440	0.266
440	0.266
441	0.266
441	0.266
442	0.266
442	0.266
442	0.266
443	0.266
443	0.266
444	0.266
444	0.266
445	0.266
445	0.266
446	0.266
446	0.266
447	0.266
447	0.266
447	0.266
448	0.266
448	0.266
449	0.266
449	0.266
450	0.266
450	0.265
451	0.265
451	0.265
452	0.265
452	0.265
452	0.265
453	0.265
453	0.265
454	0.265
454	0.265
455	0.265
455	0.266
456	0.266
456	0.266
457	0.266
457	0.266
458	0.266
458	0.267
458	0.267
459	0.267
459	0.267
460	0.267
460	0.268
461	0.268
461	0.268
462	0.268
462	0.268
463	0.268
463	0.268
463	0.269
464	0.269
464	0.269
465	0.269
465	0.269
466	0.269
466	0.27
467	0.27
467	0.27
467	0.271
468	0.271
468	0.271
469	0.272
469	0.272
470	0.272
470	0.273
471	0.273
471	0.274
472	0.274
472	0.275
472	0.275
473	0.276
473	0.277
474	0.277
474	0.278
475	0.278
475	0.279
476	0.28
476	0.28
477	0.281
477	0.282
477	0.283
478	0.284
478	0.284
479	0.285
479	0.286
480	0.287
480	0.288
481	0.288
481	0.289
482	0.29
482	0.291
482	0.292
483	0.293
483	0.294
484	0.296
484	0.296
485	0.297
485	0.298
486	0.299
486	0.3
487	0.301
487	0.302
487	0.303
488	0.304
488	0.305
489	0.306
489	0.308
490	0.31
490	0.311
491	0.313
491	0.315
492	0.316
492	0.318
492	0.319
493	0.321
493	0.322
494	0.324
494	0.326
495	0.327
495	0.329
496	0.33
496	0.332
496	0.334
497	0.335
497	0.337
498	0.339
498	0.34
499	0.342
499	0.344
500	0.345
500	0.347
501	0.349
501	0.35
501	0.352
502	0.353
502	0.355
503	0.357
503	0.358
504	0.36
504	0.361
505	0.363
505	0.364
506	0.366
506	0.367
506	0.368
507	0.37
507	0.372
508	0.373
508	0.375
509	0.376
509	0.377
510	0.378
510	0.38
511	0.381
511	0.383
511	0.385
512	0.386
512	0.387
513	0.388
513	0.39
514	0.391
514	0.392
515	0.393
515	0.394
515	0.394
516	0.395
516	0.396
517	0.397
517	0.397
518	0.397
518	0.398
519	0.398
519	0.398
520	0.398
520	0.398
520	0.398
521	0.398
521	0.398
522	0.398
522	0.398
523	0.398
523	0.398
524	0.398
524	0.398
524	0.398
525	0.398
525	0.397
526	0.396
526	0.396
527	0.395
527	0.394
528	0.393
528	0.391
529	0.39
529	0.389
529	0.387
530	0.386
530	0.385
531	0.384
531	0.382
532	0.38
532	0.379
533	0.377
533	0.376
533	0.374
534	0.373
534	0.371
535	0.369
535	0.368
536	0.366
536	0.364
537	0.362
537	0.36
538	0.358
538	0.355
538	0.353
539	0.351
539	0.349
540	0.346
540	0.344
541	0.341
541	0.339
542	0.337
542	0.334
542	0.331
543	0.329
543	0.326
544	0.324
544	0.321
545	0.319
545	0.316
546	0.313
546	0.311
547	0.308
547	0.305
547	0.303
548	0.3
548	0.298
549	0.295
549	0.293
550	0.29
550	0.287
551	0.284
551	0.281
551	0.278
552	0.276
552	0.273
553	0.27
553	0.268
554	0.265
554	0.262
555	0.26
555	0.257
556	0.255
556	0.252
556	0.25
557	0.248
557	0.246
558	0.244
558	0.241
559	0.239
559	0.237
560	0.234
560	0.232
560	0.23
561	0.228
561	0.225
562	0.223
562	0.22
563	0.217
563	0.215
564	0.212
564	0.21
564	0.208
565	0.206
565	0.204
566	0.201
566	0.199
567	0.197
567	0.196
568	0.194
568	0.192
568	0.19
569	0.188
569	0.186
570	0.184
570	0.182
571	0.181
571	0.179
572	0.177
572	0.175
573	0.174
573	0.172
573	0.17
574	0.169
574	0.167
575	0.166
575	0.164
576	0.163
576	0.161
577	0.159
577	0.157
577	0.156
578	0.154
578	0.153
579	0.152
579	0.151
580	0.149
580	0.147
581	0.145
581	0.143
581	0.142
582	0.142
582	0.141
583	0.14
583	0.138
584	0.136
584	0.134
585	0.133
585	0.132
585	0.13
586	0.129
586	0.128
587	0.126
587	0.125
588	0.123
588	0.122
589	0.121
589	0.12
590	0.12
590	0.119
590	0.119
591	0.118
591	0.116
592	0.115
592	0.114
593	0.113
593	0.112
594	0.111
594	0.109
594	0.108
595	0.107
595	0.106
596	0.105
596	0.104
597	0.104
597	0.104
598	0.103
598	0.102
598	0.102
599	0.101
599	0.1
600	0.099
600	0.098
601	0.097
601	0.097
602	0.095
602	0.094
602	0.093
603	0.093
603	0.092
604	0.092
604	0.091
605	0.091
605	0.09
606	0.089
606	0.088
606	0.088
607	0.087
607	0.087
608	0.086
608	0.084
609	0.083
609	0.083
610	0.082
610	0.081
610	0.08
611	0.08
611	0.079
612	0.079
612	0.078
613	0.078
613	0.077
614	0.077
614	0.076
614	0.076
615	0.075
615	0.075
616	0.074
616	0.074
617	0.073
617	0.073
618	0.072
618	0.072
618	0.072
619	0.072
619	0.071
620	0.071
620	0.071
621	0.07
621	0.07
622	0.069
622	0.068
622	0.067
623	0.066
623	0.066
624	0.066
624	0.065
625	0.064
625	0.064
626	0.063
626	0.062
626	0.062
627	0.062
627	0.061
628	0.061
628	0.06
629	0.059
629	0.059
630	0.058
630	0.057
630	0.057
631	0.057
631	0.057
632	0.056
632	0.056
633	0.056
633	0.055
634	0.055
634	0.055
634	0.055
635	0.055
635	0.054
636	0.054
636	0.053
637	0.053
637	0.053
638	0.052
638	0.052
638	0.052
639	0.051
639	0.051
640	0.051
640	0.051
641	0.05
641	0.05
642	0.05
642	0.05
642	0.049
643	0.049
643	0.049
644	0.049
644	0.049
645	0.048
645	0.048
646	0.048
646	0.048
646	0.048
647	0.047
647	0.047
648	0.046
648	0.045
649	0.045
649	0.044
650	0.044
650	0.044
650	0.044
651	0.044
651	0.043
652	0.043
652	0.043
653	0.043
653	0.045
653	0.051
654	0.042
654	0.034
655	0.032
655	0.032
656	0.032
656	0.032
657	0.032
657	0.032
657	0.032
658	0.031
658	0.025
659	0.031
659	0.038
660	0.042
660	0.042
661	0.041
661	0.041
661	0.04
662	0.04
662	0.039
663	0.039
663	0.038
664	0.038
664	0.037
665	0.037
665	0.037
665	0.037
666	0.036
666	0.036
667	0.036
667	0.036
668	0.036
668	0.035
669	0.035
669	0.035
669	0.036
670	0.036
670	0.035
671	0.035
671	0.035
672	0.035
672	0.034
672	0.034
673	0.034
673	0.034
674	0.034
674	0.033
675	0.032
675	0.032
676	0.033
676	0.033
676	0.032
677	0.032
677	0.032
678	0.032
678	0.031
679	0.031
679	0.031
680	0.031
680	0.03
680	0.03
681	0.03
681	0.031
682	0.031
682	0.031
683	0.031
683	0.032
684	0.032
684	0.032
684	0.032
685	0.032
685	0.032
686	0.032
686	0.031
687	0.031
687	0.031
687	0.03
688	0.03
688	0.03
689	0.03
689	0.03
690	0.03
690	0.03
691	0.03
691	0.03
691	0.03
692	0.03
692	0.031
693	0.031
693	0.031
694	0.031
694	0.031
695	0.031
695	0.032
695	0.032
696	0.032
696	0.031
697	0.031
697	0.031
698	0.03
698	0.03
698	0.029
699	0.029
699	0.029
700	0.028
700	0.029
701	0.029
701	0.028
702	0.028
702	0.028
702	0.027
703	0.027
703	0.026
704	0.026
704	0.025
705	0.025
705	0.025
705	0.024
706	0.024
706	0.024
707	0.024
707	0.024
708	0.025
708	0.025
709	0.024
709	0.024
709	0.023
710	0.023
710	0.023
711	0.023
711	0.023
712	0.023
712	0.023
713	0.023
713	0.023
713	0.023
714	0.023
714	0.023
715	0.023
715	0.022
716	0.022
716	0.022
716	0.021
717	0.021
717	0.02
718	0.02
718	0.019
719	0.02
719	0.02
720	0.02
720	0.02
720	0.02
721	0.021
721	0.021
722	0.022
722	0.022
723	0.022
723	0.022
723	0.022
724	0.022
724	0.022
725	0.021
725	0.02
726	0.02
726	0.019
727	0.019
727	0.018
727	0.018
728	0.018
728	0.017
729	0.017
729	0.017
730	0.017
730	0.017
730	0.017
731	0.017
731	0.017
732	0.017
732	0.017
733	0.017
733	0.017
734	0.017
734	0.017
734	0.017
735	0.017
735	0.017
736	0.016
736	0.016
737	0.016
737	0.016
737	0.016
738	0.015
738	0.014
739	0.014
739	0.013
740	0.013
740	0.013
741	0.013
741	0.012
741	0.012
742	0.012
742	0.012
743	0.013
743	0.014
744	0.015
744	0.015
744	0.015
745	0.016
745	0.016
746	0.016
746	0.016
747	0.017
747	0.017
748	0.017
748	0.017
748	0.017
749	0.016
749	0.016
750	0.016
750	0.016
751	0.015
751	0.015
751	0.015
752	0.014
752	0.013
753	0.013
753	0.012
754	0.012
754	0.012
754	0.012
755	0.012
755	0.012
756	0.012
756	0.011
757	0.01
757	0.01
758	0.01
758	0.009
758	0.009
759	0.009
759	0.008
760	0.008
760	0.008
761	0.008
761	0.009
761	0.009
762	0.01
762	0.011
763	0.011
763	0.011
764	0.011
764	0.012
764	0.012
765	0.011
765	0.011
766	0.011
766	0.01
767	0.01
767	0.009
768	0.008
768	0.008
768	0.008
769	0.008
769	0.008
770	0.008
770	0.008
771	0.008
771	0.008
771	0.008
772	0.009
772	0.009
773	0.01
773	0.01
774	0.01
774	0.01
775	0.011
775	0.011
775	0.011
776	0.011
776	0.011
777	0.01
777	0.01
778	0.009
778	0.009
778	0.008
779	0.008
779	0.008
780	0.008
780	0.008
781	0.008
781	0.008
781	0.008
782	0.008
782	0.008
783	0.009
783	0.009
784	0.009
784	0.009
784	0.009
785	0.009
785	0.009
786	0.009
786	0.009
787	0.009
787	0.009
788	0.008
788	0.008
788	0.008
789	0.008
789	0.008
790	0.008
790	0.008
791	0.008
791	0.008
791	0.008
792	0.009
792	0.008
793	0.008
793	0.008
794	0.007
794	0.006
794	0.006
795	0.006
795	0.005
796	0.005
796	0.005
797	0.004
797	0.004
797	0.004
798	0.004
798	0.004
799	0.004
799	0.004
800	0.004
800	0.004
801	0.004
801	0.004
801	0.004
802	0.004
802	0.004
803	0.004
803	0.005
804	0.005
804	0.006
804	0.006
805	0.006
805	0.006
806	0.006
806	0.006
807	0.007
807	0.007
807	0.007
808	0.007
808	0.007
809	0.007
809	0.007
810	0.007
810	0.007
810	0.007
811	0.007
811	0.007
812	0.007
812	0.007
813	0.007
813	0.007
813	0.008
814	0.008
814	0.008
815	0.008
815	0.009
816	0.009
816	0.008
817	0.008
817	0.008
817	0.008
818	0.008
818	0.008
819	0.007
819	0.007
820	0.006
820	0.006
820	0.006
821	0.006
821	0.005
822	0.005
822	0.005
823	0.005
823	0.005
823	0.006
824	0.007
824	0.007
825	0.008
825	0.008
826	0.008
826	0.008
826	0.008
827	0.008
827	0.007
828	0.007
828	0.007
829	0.006
829	0.006
829	0.006
830	0.006
830	0.006
831	0.007
831	0.007
832	0.007
832	0.007
832	0.007
833	0.007
833	0.006
834	0.006
834	0.006
835	0.006
835	0.006
835	0.006
836	0.006
836	0.007
837	0.007
837	0.007
838	0.007
838	0.007
839	0.006
839	0.006
839	0.005
840	0.004
840	0.003
841	0.002
841	0.001
842	-0
842	-0.001
842	-0.002
843	-0.002
843	-0.003
844	-0.003
844	-0.003
845	-0.003
845	-0.003
845	-0.003
846	-0.003
846	-0.003
847	-0.002
847	-0.002
848	-0.001
848	-0
848	0.001
849	0.002
849	0.002
850	0.003
850	0.004
851	0.004
851	0.005
851	0.004
852	0.004
852	0.003
853	0.003
853	0.002
854	0.002
854	0.002
854	0.002
855	0.002
855	0.002
856	0.002
856	0.002
857	0.002
857	0.002
857	0.002
858	0.002
858	0.001
859	0
859	-0
860	-0.001
860	-0.002
860	-0.003
861	-0.003
861	-0.004
862	-0.005
862	-0.005
863	-0.006
863	-0.006
863	-0.006
864	-0.006
864	-0.006
865	-0.006
865	-0.006
866	-0.007
866	-0.007
866	-0.007
867	-0.007
867	-0.006
868	-0.006
868	-0.006
869	-0.006
869	-0.006
869	-0.006
870	-0.006
870	-0.005
871	-0.005
871	-0.004
872	-0.003
872	-0.003
872	-0.002
873	-0.002
873	-0.001
874	-0.001
874	-0.001
875	-0.001
875	-0.002
875	-0.002
876	-0.002
876	-0.003
877	-0.003
877	-0.003
878	-0.003
878	-0.002
878	-0.001
879	-0.001
879	0
880	0.001
880	0.001
881	0.001
881	0.002
881	0.002
882	0.001
882	0.001
883	-0
883	-0.001
884	-0.002
884	-0.003
884	-0.003
885	-0.004
885	-0.005
886	-0.005
886	-0.005
887	-0.006
887	-0.006
887	-0.006
888	-0.006
888	-0.006
889	-0.006
889	-0.006
890	-0.006
890	-0.006
890	-0.006
891	-0.005
891	-0.005
892	-0.004
892	-0.004
893	-0.003
893	-0.002
893	-0.002
894	-0.001
894	-0
895	-0
895	0
895	0
896	0
896	-0
897	-0.001
897	-0.001
898	-0.002
898	-0.003
898	-0.003
899	-0.004
899	-0.004
900	-0.005
900	-0.005
901	-0.006
901	-0.006
901	-0.006
902	-0.007
902	-0.007
903	-0.007
903	-0.007
904	-0.007
904	-0.007
904	-0.007
905	-0.007
905	-0.007
906	-0.007
906	-0.006
907	-0.006
907	-0.005
907	-0.005
908	-0.005
908	-0.005
909	-0.004
909	-0.004
910	-0.004
910	-0.004
910	-0.004
911	-0.003
911	-0.003
912	-0.003
912	-0.003
913	-0.003
913	-0.002
913	-0.002
914	-0.002
914	-0.002
915	-0.002
915	-0.002
916	-0.002
916	-0.003
916	-0.003
917	-0.004
917	-0.004
918	-0.005
918	-0.006
918	-0.006
919	-0.006
919	-0.006
920	-0.006
920	-0.005
921	-0.005
921	-0.004
921	-0.003
922	-0.003
922	-0.002
923	-0.001
923	-0
924	0
924	0.001
924	0.001
925	0.001
925	0.001
926	0.001
926	0.001
927	0.001
927	0
927	0
928	0
928	0
929	0
929	0
930	-0
930	-0
930	-0.001
931	-0.001
931	-0.001
932	-0.001
932	-0.002
933	-0.002
933	-0.003
933	-0.003
934	-0.004
934	-0.005
935	-0.005
935	-0.005
935	-0.006
936	-0.006
936	-0.007
937	-0.007
937	-0.007
938	-0.007
938	-0.006
938	-0.006
939	-0.006
939	-0.005
940	-0.005
940	-0.004
941	-0.003
941	-0.003
941	-0.002
942	-0.002
942	-0.001
943	-0.001
943	-0.001
944	-0
944	-0
944	0
945	0
945	0.001
946	0.001
946	0.001
946	0.001
947	0.002
947	0.002
948	0.002
948	0.003
949	0.003
949	0.003
949	0.003
950	0.003
950	0.003
951	0.003
951	0.003
952	0.002
952	0.002
952	0.001
953	0.001
953	0.001
954	-0
954	-0.001
955	-0.002
955	-0.003
955	-0.003
956	-0.003
956	-0.003
957	-0.002
957	-0.002
957	-0.002
958	-0.002
958	-0.001
959	-0.001
959	-0
960	0
960	0
960	0
961	0
961	0
962	-0
962	-0
963	-0
963	-0
963	-0
964	-0
964	-0
965	0
965	0
966	0.001
966	0.001
966	0.002
967	0.003
967	0.003
968	0.003
968	0.004
968	0.004
969	0.004
969	0.004
970	0.003
970	0.003
971	0.002
971	0.002
971	0.001
972	0.001
972	0
973	0
973	-0
974	-0
974	-0
974	0
975	0
975	0.001
976	0.001
976	0.001
976	0.001
977	0.001
977	0.001
978	0.001
978	0.001
979	0.001
979	0
979	0
980	-0
980	-0.001
981	-0.001
981	-0.001
982	-0.002
982	-0.002
982	-0.002
983	-0.003
983	-0.003
984	-0.004
984	-0.005
984	-0.006
985	-0.007
985	-0.007
986	-0.008
986	-0.009
987	-0.01
987	-0.01
987	-0.011
988	-0.011
988	-0.012
989	-0.012
989	-0.012
990	-0.013
990	-0.013
990	-0.013
991	-0.013
991	-0.013
992	-0.013
992	-0.013
992	-0.013
993	-0.013
993	-0.013
994	-0.013
994	-0.013
995	-0.013
995	-0.012
995	-0.012
996	-0.011
996	-0.01
997	-0.01
997	-0.009
997	-0.008
998	-0.007
998	-0.006
999	-0.005
999	-0.004
1000	-0.002
1000	-0.002
1000	-0.001
1001	-0.001
1001	-0
1002	-0
1002	-0
1003	-0
1003	-0
1003	-0.001
1004	-0.001
1004	-0.001
1005	-0.002
1005	-0.002
1005	-0.003
1006	-0.003
1006	-0.003
1007	-0.004
1007	-0.004
1008	-0.004
1008	-0.004
1008	-0.005
1009	-0.005
1009	-0.005
1010	-0.005
1010	-0.005
1010	-0.006
1011	-0.006
1011	-0.006
1012	-0.006
1012	-0.006
1013	-0.006
1013	-0.006
1013	-0.006
1014	-0.006
1014	-0.006
1015	-0.006
1015	-0.006
1016	-0.006
1016	-0.007
1016	-0.007
1017	-0.007
1017	-0.007
1018	-0.007
1018	-0.007
1018	-0.007
1019	-0.007
1019	-0.007
1020	-0.008
1020	-0.008
1021	-0.008
1021	-0.008
1021	-0.008
1022	-0.008
1022	-0.008
1023	-0.008
1023	-0.008
1023	-0.008
1024	-0.009
1024	-0.009
1025	-0.009
1025	-0.01
1026	-0.01
1026	-0.011
1026	-0.012
1027	-0.012
1027	-0.013
1028	-0.013
1028	-0.014
1028	-0.014
1029	-0.014
1029	-0.014
1030	-0.014
1030	-0.014
1031	-0.014
1031	-0.014
1031	-0.014
1032	-0.013
1032	-0.013
1033	-0.013
1033	-0.013
1033	-0.012
1034	-0.012
1034	-0.012
1035	-0.013
1035	-0.013
1036	-0.013
1036	-0.013
1036	-0.013
1037	-0.013
1037	-0.013
1038	-0.013
1038	-0.013
1039	-0.013
1039	-0.013
1039	-0.013
1040	-0.012
1040	-0.012
1041	-0.012
1041	-0.012
1041	-0.012
1042	-0.011
1042	-0.011
1043	-0.011
1043	-0.01
1044	-0.01
1044	-0.01
1044	-0.009
1045	-0.009
1045	-0.008
1046	-0.008
1046	-0.007
1046	-0.007
1047	-0.006
1047	-0.006
1048	-0.006
1048	-0.005
1049	-0.005
1049	-0.005
1049	-0.005
1050	-0.005
1050	-0.005
1051	-0.006
1051	-0.006
1051	-0.006
1052	-0.007
1052	-0.008
1053	-0.008
1053	-0.009
1053	-0.01
1054	-0.01
1054	-0.011
1055	-0.011
1055	-0.011
1056	-0.012
1056	-0.012
1056	-0.013
1057	-0.013
1057	-0.014
1058	-0.014
1058	-0.015
1058	-0.016
1059	-0.016
1059	-0.017
1060	-0.017
1060	-0.017
1061	-0.018
1061	-0.018
1061	-0.018
1062	-0.018
1062	-0.018
1063	-0.018
1063	-0.018
1063	-0.019
1064	-0.019
1064	-0.019
1065	-0.019
1065	-0.019
1066	-0.019
1066	-0.02
1066	-0.02
1067	-0.02
1067	-0.02
1068	-0.02
1068	-0.02
1068	-0.02
1069	-0.021
1069	-0.021
1070	-0.021
1070	-0.021
1071	-0.022
1071	-0.022
1071	-0.022
1072	-0.023
1072	-0.023
1073	-0.024
1073	-0.024
1073	-0.024
1074	-0.024
1074	-0.024
1075	-0.024
1075	-0.024
1076	-0.024
1076	-0.023
1076	-0.023
1077	-0.022
1077	-0.022
1078	-0.022
1078	-0.021
1078	-0.021
1079	-0.02
1079	-0.019
1080	-0.019
1080	-0.019
1080	-0.019
1081	-0.018
1081	-0.018
1082	-0.017
1082	-0.017
1083	-0.017
1083	-0.018
1083	-0.018
1084	-0.018
1084	-0.017
1085	-0.018
1085	-0.018
1085	-0.019
1086	-0.019
1086	-0.02
1087	-0.02
1087	-0.021
1088	-0.021
1088	-0.021
1088	-0.022
1089	-0.023
1089	-0.023
1090	-0.024
1090	-0.024
1090	-0.025
1091	-0.025
1091	-0.025
1092	-0.025
1092	-0.025
1092	-0.025
1093	-0.025
1093	-0.024
1094	-0.024
1094	-0.024
1095	-0.024
1095	-0.024
1095	-0.024
1096	-0.024
1096	-0.025
1097	-0.025
1097	-0.025
1097	-0.025
1098	-0.026
1098	-0.027
1099	-0.027
1099	-0.028
1100	-0.028
1100	-0.029
1100	-0.03
1101	-0.031
1101	-0.031
1102	-0.032
1102	-0.033
1102	-0.034
1103	-0.034
1103	-0.034
1104	-0.035
1104	-0.036
1104	-0.036
1105	-0.037
1105	-0.039
1106	-0.04
1106	-0.042
1107	-0.042
1107	-0.042
1107	-0.043
1108	-0.044
1108	-0.045
1109	-0.045
1109	-0.046
1109	-0.046
1110	-0.045
1110	-0.046
1111	-0.047
1111	-0.049
