Data from reversibility-20sec_Absorbance__521__000000000000521.txt Node

Date: Tue Dec 05 15:06:45 CET 2023
User: Marek
Spectrometer: MAYP115816
Trigger mode: 0
Integration Time (sec): 2.000000E-1
Scans to average: 10
Electric dark correction enabled: true
Nonlinearity correction enabled: true
Boxcar width: 5
XAxis mode: Wavelengths
Number of Pixels in Spectrum: 2068
>>>>>Begin Spectral Data<<<<<
199	-0.194
199	-0.162
200	-0.096
200	-0.044
201	-0.008
201	0.011
202	0.026
202	0.033
203	0.037
203	0.039
204	0.051
204	0.062
205	0.075
205	0.081
205	0.082
206	0.079
206	0.078
207	0.075
207	0.075
208	0.075
208	0.074
209	0.08
209	0.079
210	0.08
210	0.08
211	0.079
211	0.081
212	0.079
212	0.082
213	0.084
213	0.086
213	0.088
214	0.089
214	0.093
215	0.094
215	0.093
216	0.096
216	0.093
217	0.097
217	0.1
218	0.1
218	0.103
219	0.107
219	0.107
220	0.106
220	0.105
221	0.108
221	0.109
221	0.116
222	0.12
222	0.122
223	0.129
223	0.134
224	0.138
224	0.147
225	0.158
225	0.168
226	0.177
226	0.187
227	0.198
227	0.205
228	0.219
228	0.234
229	0.251
229	0.274
229	0.298
230	0.321
230	0.353
231	0.382
231	0.42
232	0.455
232	0.5
233	0.544
233	0.592
234	0.64
234	0.688
235	0.737
235	0.788
236	0.84
236	0.893
236	0.946
237	0.996
237	1.041
238	1.089
238	1.134
239	1.183
239	1.226
240	1.269
240	1.304
241	1.337
241	1.373
242	1.402
242	1.434
243	1.463
243	1.49
243	1.515
244	1.535
244	1.557
245	1.573
245	1.594
246	1.613
246	1.629
247	1.641
247	1.656
248	1.67
248	1.681
249	1.688
249	1.694
250	1.7
250	1.707
250	1.711
251	1.711
251	1.71
252	1.713
252	1.711
253	1.71
253	1.706
254	1.706
254	1.708
255	1.705
255	1.704
256	1.702
256	1.702
257	1.701
257	1.699
258	1.699
258	1.698
258	1.696
259	1.696
259	1.695
260	1.694
260	1.694
261	1.694
261	1.695
262	1.698
262	1.701
263	1.703
263	1.705
264	1.709
264	1.71
265	1.711
265	1.712
265	1.712
266	1.713
266	1.713
267	1.711
267	1.711
268	1.709
268	1.708
269	1.709
269	1.707
270	1.706
270	1.706
271	1.704
271	1.701
272	1.698
272	1.694
272	1.69
273	1.684
273	1.678
274	1.672
274	1.666
275	1.657
275	1.649
276	1.642
276	1.635
277	1.627
277	1.618
278	1.607
278	1.596
278	1.581
279	1.564
279	1.542
280	1.517
280	1.486
281	1.45
281	1.409
282	1.367
282	1.325
283	1.284
283	1.243
284	1.205
284	1.168
285	1.133
285	1.101
285	1.073
286	1.048
286	1.028
287	1.009
287	0.994
288	0.98
288	0.969
289	0.96
289	0.952
290	0.945
290	0.94
291	0.935
291	0.931
292	0.927
292	0.923
292	0.92
293	0.917
293	0.915
294	0.912
294	0.909
295	0.907
295	0.905
296	0.903
296	0.901
297	0.899
297	0.896
298	0.894
298	0.892
298	0.89
299	0.888
299	0.886
300	0.884
300	0.882
301	0.88
301	0.879
302	0.877
302	0.875
303	0.873
303	0.871
304	0.87
304	0.868
305	0.866
305	0.864
305	0.862
306	0.86
306	0.858
307	0.856
307	0.855
308	0.852
308	0.85
309	0.848
309	0.845
310	0.843
310	0.84
311	0.838
311	0.835
311	0.832
312	0.829
312	0.825
313	0.822
313	0.819
314	0.815
314	0.811
315	0.808
315	0.804
316	0.8
316	0.796
317	0.791
317	0.787
318	0.782
318	0.777
318	0.773
319	0.767
319	0.762
320	0.757
320	0.752
321	0.746
321	0.74
322	0.734
322	0.728
323	0.722
323	0.716
324	0.711
324	0.704
324	0.698
325	0.692
325	0.685
326	0.679
326	0.672
327	0.666
327	0.659
328	0.653
328	0.646
329	0.64
329	0.633
330	0.626
330	0.62
330	0.613
331	0.606
331	0.599
332	0.592
332	0.586
333	0.579
333	0.572
334	0.565
334	0.559
335	0.552
335	0.546
336	0.539
336	0.533
336	0.527
337	0.521
337	0.514
338	0.508
338	0.503
339	0.497
339	0.491
340	0.485
340	0.48
341	0.475
341	0.469
342	0.464
342	0.459
342	0.454
343	0.449
343	0.444
344	0.44
344	0.435
345	0.43
345	0.426
346	0.422
346	0.417
347	0.413
347	0.409
348	0.405
348	0.401
348	0.397
349	0.394
349	0.39
350	0.387
350	0.383
351	0.38
351	0.377
352	0.374
352	0.371
353	0.368
353	0.365
354	0.363
354	0.36
354	0.357
355	0.354
355	0.351
356	0.349
356	0.346
357	0.343
357	0.341
358	0.338
358	0.335
359	0.333
359	0.331
360	0.329
360	0.327
360	0.326
361	0.324
361	0.322
362	0.321
362	0.319
363	0.318
363	0.316
364	0.314
364	0.312
365	0.311
365	0.309
366	0.307
366	0.306
366	0.304
367	0.303
367	0.301
368	0.299
368	0.298
369	0.296
369	0.295
370	0.294
370	0.292
371	0.291
371	0.29
372	0.288
372	0.287
372	0.286
373	0.285
373	0.284
374	0.283
374	0.282
375	0.281
375	0.28
376	0.279
376	0.278
377	0.277
377	0.276
378	0.276
378	0.275
378	0.274
379	0.273
379	0.272
380	0.271
380	0.27
381	0.27
381	0.269
382	0.268
382	0.268
383	0.267
383	0.267
383	0.266
384	0.266
384	0.265
385	0.265
385	0.264
386	0.264
386	0.263
387	0.263
387	0.262
388	0.262
388	0.261
389	0.261
389	0.26
389	0.26
390	0.259
390	0.259
391	0.258
391	0.258
392	0.258
392	0.257
393	0.257
393	0.256
394	0.256
394	0.256
394	0.255
395	0.255
395	0.254
396	0.254
396	0.254
397	0.253
397	0.253
398	0.253
398	0.252
399	0.252
399	0.252
400	0.251
400	0.251
400	0.251
401	0.25
401	0.25
402	0.25
402	0.249
403	0.249
403	0.249
404	0.248
404	0.248
405	0.248
405	0.247
405	0.247
406	0.247
406	0.246
407	0.246
407	0.246
408	0.245
408	0.245
409	0.245
409	0.244
410	0.244
410	0.244
411	0.244
411	0.243
411	0.243
412	0.243
412	0.242
413	0.242
413	0.242
414	0.242
414	0.241
415	0.241
415	0.241
416	0.24
416	0.24
416	0.24
417	0.24
417	0.24
418	0.24
418	0.239
419	0.239
419	0.239
420	0.238
420	0.238
421	0.238
421	0.238
421	0.237
422	0.237
422	0.237
423	0.236
423	0.236
424	0.236
424	0.236
425	0.235
425	0.235
426	0.235
426	0.235
427	0.235
427	0.234
427	0.234
428	0.234
428	0.234
429	0.234
429	0.233
430	0.233
430	0.233
431	0.233
431	0.233
432	0.233
432	0.233
432	0.233
433	0.232
433	0.232
434	0.232
434	0.232
435	0.231
435	0.231
436	0.231
436	0.231
437	0.231
437	0.231
437	0.231
438	0.23
438	0.23
439	0.23
439	0.23
440	0.23
440	0.23
441	0.23
441	0.229
442	0.229
442	0.229
442	0.229
443	0.229
443	0.229
444	0.229
444	0.229
445	0.228
445	0.228
446	0.228
446	0.228
447	0.228
447	0.227
447	0.227
448	0.227
448	0.227
449	0.227
449	0.227
450	0.227
450	0.227
451	0.226
451	0.226
452	0.226
452	0.226
452	0.226
453	0.226
453	0.226
454	0.226
454	0.226
455	0.226
455	0.226
456	0.226
456	0.225
457	0.225
457	0.225
458	0.225
458	0.225
458	0.225
459	0.225
459	0.225
460	0.225
460	0.225
461	0.225
461	0.225
462	0.224
462	0.224
463	0.224
463	0.224
463	0.224
464	0.224
464	0.223
465	0.223
465	0.223
466	0.223
466	0.223
467	0.223
467	0.223
467	0.223
468	0.223
468	0.223
469	0.223
469	0.223
470	0.224
470	0.224
471	0.224
471	0.224
472	0.224
472	0.224
472	0.224
473	0.224
473	0.224
474	0.224
474	0.224
475	0.225
475	0.225
476	0.225
476	0.225
477	0.225
477	0.226
477	0.226
478	0.226
478	0.227
479	0.227
479	0.227
480	0.227
480	0.228
481	0.228
481	0.228
482	0.228
482	0.229
482	0.229
483	0.229
483	0.23
484	0.23
484	0.231
485	0.231
485	0.231
486	0.232
486	0.232
487	0.232
487	0.233
487	0.233
488	0.233
488	0.234
489	0.234
489	0.235
490	0.236
490	0.236
491	0.237
491	0.238
492	0.239
492	0.239
492	0.24
493	0.241
493	0.242
494	0.242
494	0.243
495	0.244
495	0.245
496	0.245
496	0.246
496	0.247
497	0.247
497	0.248
498	0.249
498	0.25
499	0.25
499	0.251
500	0.252
500	0.253
501	0.254
501	0.255
501	0.255
502	0.256
502	0.257
503	0.257
503	0.258
504	0.259
504	0.26
505	0.26
505	0.261
506	0.262
506	0.262
506	0.263
507	0.264
507	0.265
508	0.266
508	0.266
509	0.267
509	0.267
510	0.268
510	0.269
511	0.27
511	0.271
511	0.271
512	0.272
512	0.272
513	0.273
513	0.274
514	0.275
514	0.275
515	0.276
515	0.276
515	0.277
516	0.277
516	0.278
517	0.279
517	0.279
518	0.28
518	0.28
519	0.28
519	0.281
520	0.281
520	0.281
520	0.281
521	0.281
521	0.281
522	0.282
522	0.282
523	0.282
523	0.282
524	0.282
524	0.282
524	0.282
525	0.283
525	0.283
526	0.283
526	0.283
527	0.283
527	0.283
528	0.282
528	0.282
529	0.282
529	0.281
529	0.281
530	0.281
530	0.281
531	0.28
531	0.28
532	0.28
532	0.28
533	0.28
533	0.279
533	0.28
534	0.279
534	0.279
535	0.278
535	0.278
536	0.277
536	0.277
537	0.276
537	0.275
538	0.274
538	0.274
538	0.273
539	0.272
539	0.272
540	0.271
540	0.27
541	0.269
541	0.269
542	0.268
542	0.267
542	0.267
543	0.266
543	0.265
544	0.265
544	0.264
545	0.264
545	0.263
546	0.262
546	0.261
547	0.261
547	0.26
547	0.259
548	0.258
548	0.257
549	0.256
549	0.255
550	0.254
550	0.254
551	0.253
551	0.252
551	0.251
552	0.25
552	0.249
553	0.249
553	0.248
554	0.247
554	0.246
555	0.246
555	0.244
556	0.244
556	0.243
556	0.242
557	0.242
557	0.242
558	0.241
558	0.241
559	0.24
559	0.24
560	0.239
560	0.238
560	0.238
561	0.237
561	0.237
562	0.235
562	0.234
563	0.233
563	0.232
564	0.231
564	0.23
564	0.229
565	0.229
565	0.228
566	0.227
566	0.226
567	0.226
567	0.226
568	0.225
568	0.224
568	0.224
569	0.224
569	0.223
570	0.222
570	0.221
571	0.221
571	0.22
572	0.219
572	0.218
573	0.218
573	0.217
573	0.216
574	0.216
574	0.215
575	0.215
575	0.215
576	0.214
576	0.214
577	0.213
577	0.212
577	0.212
578	0.212
578	0.211
579	0.211
579	0.211
580	0.21
580	0.209
581	0.208
581	0.207
581	0.207
582	0.207
582	0.207
583	0.206
583	0.206
584	0.205
584	0.203
585	0.203
585	0.202
585	0.202
586	0.201
586	0.2
587	0.199
587	0.198
588	0.197
588	0.197
589	0.196
589	0.196
590	0.196
590	0.196
590	0.196
591	0.196
591	0.196
592	0.195
592	0.195
593	0.194
593	0.194
594	0.193
594	0.193
594	0.192
595	0.192
595	0.191
596	0.19
596	0.191
597	0.191
597	0.191
598	0.191
598	0.191
598	0.19
599	0.19
599	0.19
600	0.189
600	0.188
601	0.188
601	0.187
602	0.187
602	0.186
602	0.185
603	0.185
603	0.185
604	0.185
604	0.185
605	0.185
605	0.185
606	0.184
606	0.184
606	0.183
607	0.183
607	0.183
608	0.182
608	0.181
609	0.181
609	0.181
610	0.18
610	0.18
610	0.18
611	0.179
611	0.179
612	0.179
612	0.179
613	0.179
613	0.178
614	0.178
614	0.177
614	0.177
615	0.177
615	0.176
616	0.176
616	0.176
617	0.175
617	0.175
618	0.174
618	0.174
618	0.174
619	0.175
619	0.175
620	0.175
620	0.175
621	0.174
621	0.174
622	0.174
622	0.174
622	0.173
623	0.173
623	0.173
624	0.173
624	0.172
625	0.172
625	0.171
626	0.171
626	0.17
626	0.17
627	0.17
627	0.17
628	0.169
628	0.169
629	0.168
629	0.168
630	0.168
630	0.168
630	0.168
631	0.168
631	0.168
632	0.168
632	0.168
633	0.168
633	0.168
634	0.169
634	0.17
634	0.17
635	0.17
635	0.17
636	0.17
636	0.17
637	0.169
637	0.169
638	0.168
638	0.168
638	0.167
639	0.166
639	0.166
640	0.165
640	0.165
641	0.165
641	0.164
642	0.164
642	0.164
642	0.163
643	0.163
643	0.163
644	0.163
644	0.163
645	0.163
645	0.163
646	0.163
646	0.164
646	0.164
647	0.164
647	0.164
648	0.163
648	0.163
649	0.163
649	0.163
650	0.163
650	0.163
650	0.163
651	0.163
651	0.162
652	0.162
652	0.162
653	0.163
653	0.164
653	0.17
654	0.134
654	0.108
655	0.109
655	0.109
656	0.109
656	0.11
657	0.11
657	0.11
657	0.11
658	0.109
658	0.1
659	0.126
659	0.161
660	0.165
660	0.165
661	0.164
661	0.164
661	0.164
662	0.164
662	0.164
663	0.163
663	0.163
664	0.163
664	0.163
665	0.163
665	0.162
665	0.163
666	0.163
666	0.163
667	0.163
667	0.163
668	0.163
668	0.163
669	0.163
669	0.163
669	0.163
670	0.163
670	0.163
671	0.162
671	0.162
672	0.161
672	0.161
672	0.161
673	0.161
673	0.161
674	0.161
674	0.161
675	0.161
675	0.161
676	0.162
676	0.162
676	0.162
677	0.163
677	0.163
678	0.163
678	0.163
679	0.163
679	0.163
680	0.163
680	0.163
680	0.163
681	0.164
681	0.164
682	0.165
682	0.165
683	0.166
683	0.166
684	0.166
684	0.166
684	0.166
685	0.166
685	0.166
686	0.166
686	0.166
687	0.166
687	0.166
687	0.165
688	0.165
688	0.165
689	0.166
689	0.166
690	0.166
690	0.165
691	0.165
691	0.166
691	0.166
692	0.166
692	0.167
693	0.167
693	0.168
694	0.167
694	0.167
695	0.168
695	0.169
695	0.17
696	0.17
696	0.169
697	0.169
697	0.169
698	0.169
698	0.169
698	0.169
699	0.17
699	0.17
700	0.169
700	0.17
701	0.17
701	0.169
702	0.169
702	0.169
702	0.169
703	0.168
703	0.168
704	0.168
704	0.167
705	0.167
705	0.167
705	0.167
706	0.167
706	0.167
707	0.167
707	0.168
708	0.168
708	0.169
709	0.169
709	0.169
709	0.169
710	0.169
710	0.17
711	0.17
711	0.17
712	0.17
712	0.17
713	0.17
713	0.171
713	0.171
714	0.171
714	0.171
715	0.17
715	0.17
716	0.17
716	0.17
716	0.17
717	0.17
717	0.169
718	0.169
718	0.169
719	0.169
719	0.169
720	0.17
720	0.17
720	0.171
721	0.171
721	0.172
722	0.173
722	0.173
723	0.173
723	0.173
723	0.173
724	0.173
724	0.172
725	0.171
725	0.17
726	0.17
726	0.169
727	0.169
727	0.169
727	0.169
728	0.168
728	0.168
729	0.169
729	0.169
730	0.17
730	0.17
730	0.171
731	0.171
731	0.172
732	0.172
732	0.172
733	0.172
733	0.172
734	0.172
734	0.172
734	0.172
735	0.172
735	0.172
736	0.172
736	0.172
737	0.171
737	0.171
737	0.171
738	0.171
738	0.17
739	0.17
739	0.17
740	0.17
740	0.17
741	0.17
741	0.17
741	0.17
742	0.17
742	0.171
743	0.172
743	0.172
744	0.173
744	0.173
744	0.173
745	0.173
745	0.173
746	0.174
746	0.174
747	0.174
747	0.174
748	0.174
748	0.174
748	0.174
749	0.174
749	0.173
750	0.173
750	0.173
751	0.172
751	0.172
751	0.172
752	0.172
752	0.171
753	0.171
753	0.171
754	0.172
754	0.172
754	0.173
755	0.174
755	0.174
756	0.174
756	0.173
757	0.172
757	0.172
758	0.172
758	0.172
758	0.172
759	0.172
759	0.172
760	0.172
760	0.172
761	0.173
761	0.174
761	0.175
762	0.176
762	0.176
763	0.177
763	0.177
764	0.177
764	0.177
764	0.176
765	0.176
765	0.175
766	0.175
766	0.174
767	0.174
767	0.173
768	0.172
768	0.172
768	0.172
769	0.171
769	0.171
770	0.172
770	0.172
771	0.172
771	0.172
771	0.173
772	0.173
772	0.173
773	0.173
773	0.174
774	0.174
774	0.174
775	0.174
775	0.174
775	0.174
776	0.175
776	0.175
777	0.175
777	0.176
778	0.176
778	0.176
778	0.176
779	0.176
779	0.175
780	0.175
780	0.175
781	0.175
781	0.175
781	0.175
782	0.175
782	0.175
783	0.175
783	0.176
784	0.176
784	0.176
784	0.177
785	0.177
785	0.177
786	0.177
786	0.178
787	0.178
787	0.178
788	0.177
788	0.177
788	0.177
789	0.177
789	0.177
790	0.177
790	0.176
791	0.176
791	0.175
791	0.175
792	0.175
792	0.174
793	0.174
793	0.174
794	0.173
794	0.173
794	0.172
795	0.172
795	0.172
796	0.172
796	0.172
797	0.172
797	0.172
797	0.173
798	0.173
798	0.174
799	0.174
799	0.174
800	0.174
800	0.174
801	0.174
801	0.174
801	0.174
802	0.174
802	0.174
803	0.174
803	0.174
804	0.175
804	0.175
804	0.176
805	0.176
805	0.176
806	0.177
806	0.177
807	0.177
807	0.177
807	0.177
808	0.178
808	0.178
809	0.178
809	0.178
810	0.178
810	0.178
810	0.178
811	0.178
811	0.179
812	0.179
812	0.18
813	0.18
813	0.18
813	0.18
814	0.181
814	0.181
815	0.181
815	0.181
816	0.182
816	0.181
817	0.181
817	0.181
817	0.18
818	0.18
818	0.18
819	0.179
819	0.179
820	0.178
820	0.177
820	0.177
821	0.177
821	0.176
822	0.176
822	0.176
823	0.176
823	0.176
823	0.176
824	0.177
824	0.177
825	0.178
825	0.178
826	0.178
826	0.178
826	0.178
827	0.178
827	0.178
828	0.178
828	0.177
829	0.177
829	0.177
829	0.176
830	0.176
830	0.176
831	0.176
831	0.177
832	0.177
832	0.177
832	0.177
833	0.177
833	0.177
834	0.176
834	0.176
835	0.176
835	0.176
835	0.176
836	0.176
836	0.176
837	0.176
837	0.176
838	0.176
838	0.175
839	0.174
839	0.173
839	0.172
840	0.171
840	0.17
841	0.168
841	0.167
842	0.166
842	0.165
842	0.165
843	0.164
843	0.164
844	0.164
844	0.164
845	0.164
845	0.164
845	0.164
846	0.164
846	0.164
847	0.164
847	0.164
848	0.165
848	0.165
848	0.166
849	0.166
849	0.167
850	0.167
850	0.167
851	0.167
851	0.168
851	0.167
852	0.167
852	0.166
853	0.165
853	0.165
854	0.164
854	0.164
854	0.164
855	0.164
855	0.164
856	0.164
856	0.164
857	0.164
857	0.164
857	0.164
858	0.164
858	0.163
859	0.162
859	0.161
860	0.16
860	0.159
860	0.158
861	0.157
861	0.156
862	0.154
862	0.153
863	0.153
863	0.152
863	0.151
864	0.151
864	0.151
865	0.151
865	0.151
866	0.151
866	0.151
866	0.151
867	0.151
867	0.152
868	0.152
868	0.152
869	0.152
869	0.152
869	0.152
870	0.152
870	0.152
871	0.152
871	0.152
872	0.152
872	0.152
872	0.152
873	0.151
873	0.151
874	0.15
874	0.15
875	0.149
875	0.149
875	0.149
876	0.148
876	0.148
877	0.148
877	0.148
878	0.148
878	0.148
878	0.149
879	0.15
879	0.15
880	0.15
880	0.151
881	0.15
881	0.15
881	0.15
882	0.149
882	0.148
883	0.147
883	0.146
884	0.144
884	0.143
884	0.142
885	0.14
885	0.139
886	0.138
886	0.137
887	0.136
887	0.135
887	0.134
888	0.134
888	0.133
889	0.133
889	0.133
890	0.133
890	0.133
890	0.134
891	0.134
891	0.134
892	0.135
892	0.135
893	0.136
893	0.137
893	0.137
894	0.137
894	0.137
895	0.137
895	0.137
895	0.136
896	0.136
896	0.135
897	0.134
897	0.133
898	0.132
898	0.131
898	0.13
899	0.13
899	0.129
900	0.129
900	0.128
901	0.128
901	0.128
901	0.128
902	0.127
902	0.127
903	0.127
903	0.127
904	0.126
904	0.125
904	0.125
905	0.124
905	0.123
906	0.123
906	0.122
907	0.122
907	0.122
907	0.122
908	0.121
908	0.122
909	0.122
909	0.122
910	0.122
910	0.122
910	0.122
911	0.121
911	0.121
912	0.121
912	0.121
913	0.121
913	0.121
913	0.121
914	0.12
914	0.12
915	0.12
915	0.119
916	0.119
916	0.118
916	0.117
917	0.116
917	0.116
918	0.115
918	0.114
918	0.113
919	0.113
919	0.113
920	0.113
920	0.113
921	0.113
921	0.113
921	0.114
922	0.114
922	0.114
923	0.114
923	0.114
924	0.115
924	0.115
924	0.115
925	0.115
925	0.115
926	0.115
926	0.115
927	0.115
927	0.115
927	0.114
928	0.114
928	0.114
929	0.113
929	0.113
930	0.112
930	0.111
930	0.111
931	0.11
931	0.11
932	0.109
932	0.109
933	0.109
933	0.108
933	0.107
934	0.107
934	0.106
935	0.106
935	0.105
935	0.105
936	0.104
936	0.104
937	0.103
937	0.103
938	0.102
938	0.102
938	0.101
939	0.101
939	0.1
940	0.1
940	0.1
941	0.1
941	0.1
941	0.101
942	0.101
942	0.101
943	0.101
943	0.101
944	0.102
944	0.102
944	0.102
945	0.102
945	0.102
946	0.102
946	0.101
946	0.101
947	0.101
947	0.101
948	0.101
948	0.1
949	0.1
949	0.099
949	0.099
950	0.099
950	0.098
951	0.098
951	0.097
952	0.097
952	0.096
952	0.095
953	0.094
953	0.093
954	0.092
954	0.091
955	0.09
955	0.089
955	0.089
956	0.088
956	0.088
957	0.087
957	0.087
957	0.087
958	0.087
958	0.087
959	0.087
959	0.087
960	0.087
960	0.087
960	0.087
961	0.086
961	0.086
962	0.086
962	0.085
963	0.085
963	0.085
963	0.084
964	0.084
964	0.084
965	0.084
965	0.084
966	0.084
966	0.084
966	0.085
967	0.085
967	0.086
968	0.086
968	0.087
968	0.087
969	0.087
969	0.087
970	0.087
970	0.086
971	0.086
971	0.086
971	0.085
972	0.085
972	0.084
973	0.083
973	0.083
974	0.083
974	0.083
974	0.083
975	0.084
975	0.084
976	0.085
976	0.085
976	0.085
977	0.085
977	0.085
978	0.084
978	0.084
979	0.083
979	0.083
979	0.082
980	0.081
980	0.08
981	0.079
981	0.078
982	0.077
982	0.076
982	0.076
983	0.075
983	0.074
984	0.074
984	0.073
984	0.072
985	0.072
985	0.071
986	0.071
986	0.07
987	0.07
987	0.069
987	0.069
988	0.069
988	0.068
989	0.068
989	0.068
990	0.067
990	0.067
990	0.067
991	0.067
991	0.066
992	0.066
992	0.066
992	0.065
993	0.065
993	0.065
994	0.064
994	0.064
995	0.064
995	0.064
995	0.064
996	0.065
996	0.065
997	0.066
997	0.066
997	0.067
998	0.068
998	0.068
999	0.069
999	0.07
1000	0.071
1000	0.072
1000	0.072
1001	0.072
1001	0.073
1002	0.073
1002	0.073
1003	0.073
1003	0.073
1003	0.072
1004	0.072
1004	0.072
1005	0.071
1005	0.071
1005	0.071
1006	0.07
1006	0.07
1007	0.07
1007	0.069
1008	0.069
1008	0.069
1008	0.068
1009	0.068
1009	0.068
1010	0.068
1010	0.068
1010	0.068
1011	0.068
1011	0.067
1012	0.067
1012	0.067
1013	0.067
1013	0.067
1013	0.067
1014	0.067
1014	0.066
1015	0.066
1015	0.066
1016	0.066
1016	0.066
1016	0.065
1017	0.065
1017	0.065
1018	0.065
1018	0.064
1018	0.064
1019	0.064
1019	0.064
1020	0.063
1020	0.063
1021	0.063
1021	0.063
1021	0.063
1022	0.063
1022	0.062
1023	0.062
1023	0.062
1023	0.062
1024	0.061
1024	0.061
1025	0.06
1025	0.06
1026	0.059
1026	0.058
1026	0.058
1027	0.057
1027	0.057
1028	0.056
1028	0.056
1028	0.055
1029	0.055
1029	0.055
1030	0.054
1030	0.054
1031	0.054
1031	0.054
1031	0.054
1032	0.054
1032	0.054
1033	0.054
1033	0.054
1033	0.053
1034	0.053
1034	0.053
1035	0.053
1035	0.053
1036	0.053
1036	0.053
1036	0.053
1037	0.053
1037	0.053
1038	0.053
1038	0.053
1039	0.052
1039	0.052
1039	0.052
1040	0.052
1040	0.053
1041	0.053
1041	0.053
1041	0.053
1042	0.053
1042	0.053
1043	0.053
1043	0.053
1044	0.053
1044	0.054
1044	0.054
1045	0.054
1045	0.055
1046	0.055
1046	0.055
1046	0.056
1047	0.057
1047	0.057
1048	0.058
1048	0.058
1049	0.058
1049	0.058
1049	0.058
1050	0.058
1050	0.058
1051	0.057
1051	0.057
1051	0.056
1052	0.056
1052	0.055
1053	0.054
1053	0.053
1053	0.052
1054	0.052
1054	0.051
1055	0.051
1055	0.05
1056	0.05
1056	0.049
1056	0.048
1057	0.048
1057	0.048
1058	0.047
1058	0.046
1058	0.045
1059	0.045
1059	0.044
1060	0.044
1060	0.043
1061	0.042
1061	0.042
1061	0.042
1062	0.041
1062	0.041
1063	0.041
1063	0.04
1063	0.04
1064	0.039
1064	0.039
1065	0.038
1065	0.038
1066	0.038
1066	0.038
1066	0.037
1067	0.037
1067	0.037
1068	0.036
1068	0.036
1068	0.036
1069	0.035
1069	0.035
1070	0.034
1070	0.034
1071	0.033
1071	0.033
1071	0.032
1072	0.032
1072	0.031
1073	0.031
1073	0.03
1073	0.03
1074	0.03
1074	0.03
1075	0.03
1075	0.03
1076	0.03
1076	0.031
1076	0.031
1077	0.031
1077	0.032
1078	0.032
1078	0.032
1078	0.033
1079	0.033
1079	0.033
1080	0.033
1080	0.034
1080	0.034
1081	0.034
1081	0.034
1082	0.035
1082	0.035
1083	0.035
1083	0.035
1083	0.035
1084	0.035
1084	0.034
1085	0.034
1085	0.034
1085	0.033
1086	0.033
1086	0.032
1087	0.031
1087	0.03
1088	0.031
1088	0.03
1088	0.03
1089	0.029
1089	0.029
1090	0.028
1090	0.028
1090	0.027
1091	0.026
1091	0.026
1092	0.026
1092	0.026
1092	0.025
1093	0.025
1093	0.025
1094	0.025
1094	0.025
1095	0.025
1095	0.025
1095	0.025
1096	0.024
1096	0.024
1097	0.024
1097	0.023
1097	0.023
1098	0.022
1098	0.021
1099	0.02
1099	0.019
1100	0.018
1100	0.018
1100	0.017
1101	0.016
1101	0.015
1102	0.015
1102	0.014
1102	0.013
1103	0.013
1103	0.013
1104	0.012
1104	0.012
1104	0.012
1105	0.01
1105	0.008
1106	0.007
1106	0.006
1107	0.005
1107	0.005
1107	0.005
1108	0.003
1108	0.003
1109	0.001
1109	-0.001
1109	0.001
1110	0.003
1110	0.002
1111	0.001
1111	0.002
