Data from reversibility-20sec_Absorbance__2333__000000000002333.txt Node

Date: Wed Dec 06 01:10:46 CET 2023
User: Marek
Spectrometer: MAYP115816
Trigger mode: 0
Integration Time (sec): 2.000000E-1
Scans to average: 10
Electric dark correction enabled: true
Nonlinearity correction enabled: true
Boxcar width: 5
XAxis mode: Wavelengths
Number of Pixels in Spectrum: 2068
>>>>>Begin Spectral Data<<<<<
199	-0.183
199	-0.144
200	-0.07
200	-0.012
201	0.019
201	0.031
202	0.046
202	0.058
203	0.063
203	0.067
204	0.081
204	0.093
205	0.107
205	0.11
205	0.108
206	0.107
206	0.109
207	0.108
207	0.106
208	0.107
208	0.106
209	0.109
209	0.109
210	0.104
210	0.104
211	0.103
211	0.106
212	0.103
212	0.107
213	0.111
213	0.113
213	0.114
214	0.115
214	0.116
215	0.12
215	0.12
216	0.123
216	0.121
217	0.127
217	0.128
218	0.126
218	0.13
219	0.136
219	0.137
220	0.136
220	0.135
221	0.138
221	0.141
221	0.147
222	0.15
222	0.152
223	0.157
223	0.158
224	0.162
224	0.172
225	0.184
225	0.196
226	0.203
226	0.211
227	0.22
227	0.232
228	0.25
228	0.268
229	0.284
229	0.306
229	0.329
230	0.353
230	0.38
231	0.414
231	0.455
232	0.492
232	0.535
233	0.577
233	0.624
234	0.676
234	0.73
235	0.783
235	0.839
236	0.892
236	0.947
236	1
237	1.054
237	1.103
238	1.154
238	1.203
239	1.257
239	1.3
240	1.342
240	1.378
241	1.421
241	1.458
242	1.494
242	1.531
243	1.562
243	1.592
243	1.621
244	1.64
244	1.669
245	1.69
245	1.718
246	1.738
246	1.758
247	1.772
247	1.788
248	1.807
248	1.823
249	1.837
249	1.85
250	1.859
250	1.87
250	1.878
251	1.883
251	1.888
252	1.897
252	1.9
253	1.904
253	1.902
254	1.902
254	1.904
255	1.903
255	1.905
256	1.906
256	1.907
257	1.909
257	1.908
258	1.91
258	1.91
258	1.912
259	1.912
259	1.913
260	1.913
260	1.914
261	1.913
261	1.918
262	1.921
262	1.925
263	1.93
263	1.933
264	1.936
264	1.939
265	1.943
265	1.945
265	1.949
266	1.952
266	1.953
267	1.955
267	1.958
268	1.959
268	1.96
269	1.963
269	1.965
270	1.965
270	1.965
271	1.961
271	1.962
272	1.959
272	1.956
272	1.951
273	1.944
273	1.937
274	1.929
274	1.921
275	1.914
275	1.907
276	1.9
276	1.893
277	1.887
277	1.876
278	1.864
278	1.851
278	1.836
279	1.819
279	1.796
280	1.766
280	1.73
281	1.689
281	1.641
282	1.594
282	1.547
283	1.502
283	1.457
284	1.414
284	1.373
285	1.335
285	1.301
285	1.27
286	1.244
286	1.22
287	1.2
287	1.183
288	1.167
288	1.155
289	1.144
289	1.135
290	1.127
290	1.12
291	1.114
291	1.109
292	1.104
292	1.1
292	1.095
293	1.092
293	1.087
294	1.084
294	1.081
295	1.077
295	1.074
296	1.071
296	1.069
297	1.065
297	1.063
298	1.06
298	1.057
298	1.054
299	1.052
299	1.049
300	1.046
300	1.043
301	1.041
301	1.039
302	1.036
302	1.034
303	1.032
303	1.029
304	1.027
304	1.024
305	1.022
305	1.02
305	1.017
306	1.015
306	1.012
307	1.009
307	1.007
308	1.004
308	1.001
309	0.998
309	0.996
310	0.993
310	0.99
311	0.987
311	0.983
311	0.98
312	0.977
312	0.973
313	0.969
313	0.966
314	0.962
314	0.957
315	0.953
315	0.949
316	0.944
316	0.94
317	0.935
317	0.93
318	0.925
318	0.919
318	0.914
319	0.909
319	0.903
320	0.898
320	0.892
321	0.886
321	0.879
322	0.873
322	0.867
323	0.86
323	0.854
324	0.847
324	0.841
324	0.833
325	0.826
325	0.82
326	0.812
326	0.806
327	0.799
327	0.791
328	0.784
328	0.777
329	0.77
329	0.763
330	0.756
330	0.749
330	0.742
331	0.735
331	0.728
332	0.72
332	0.714
333	0.706
333	0.7
334	0.693
334	0.686
335	0.679
335	0.672
336	0.665
336	0.658
336	0.652
337	0.645
337	0.639
338	0.632
338	0.626
339	0.62
339	0.614
340	0.608
340	0.602
341	0.596
341	0.59
342	0.585
342	0.58
342	0.574
343	0.569
343	0.564
344	0.559
344	0.554
345	0.549
345	0.544
346	0.54
346	0.535
347	0.531
347	0.526
348	0.522
348	0.518
348	0.514
349	0.51
349	0.506
350	0.502
350	0.499
351	0.495
351	0.492
352	0.488
352	0.485
353	0.482
353	0.48
354	0.477
354	0.474
354	0.471
355	0.468
355	0.465
356	0.462
356	0.459
357	0.457
357	0.454
358	0.451
358	0.448
359	0.446
359	0.443
360	0.441
360	0.439
360	0.437
361	0.435
361	0.433
362	0.431
362	0.429
363	0.427
363	0.425
364	0.423
364	0.421
365	0.419
365	0.417
366	0.415
366	0.414
366	0.412
367	0.41
367	0.409
368	0.407
368	0.405
369	0.404
369	0.402
370	0.4
370	0.399
371	0.398
371	0.396
372	0.395
372	0.393
372	0.392
373	0.391
373	0.389
374	0.388
374	0.387
375	0.386
375	0.385
376	0.384
376	0.383
377	0.382
377	0.381
378	0.38
378	0.379
378	0.378
379	0.377
379	0.376
380	0.375
380	0.374
381	0.373
381	0.372
382	0.372
382	0.371
383	0.37
383	0.37
383	0.369
384	0.368
384	0.367
385	0.367
385	0.366
386	0.365
386	0.364
387	0.364
387	0.363
388	0.362
388	0.362
389	0.361
389	0.361
389	0.36
390	0.36
390	0.359
391	0.359
391	0.358
392	0.358
392	0.358
393	0.357
393	0.356
394	0.356
394	0.355
394	0.355
395	0.354
395	0.354
396	0.353
396	0.353
397	0.352
397	0.352
398	0.351
398	0.351
399	0.35
399	0.35
400	0.349
400	0.349
400	0.349
401	0.348
401	0.348
402	0.347
402	0.347
403	0.346
403	0.346
404	0.346
404	0.345
405	0.345
405	0.344
405	0.344
406	0.344
406	0.343
407	0.342
407	0.342
408	0.342
408	0.341
409	0.341
409	0.341
410	0.34
410	0.34
411	0.34
411	0.339
411	0.339
412	0.339
412	0.338
413	0.338
413	0.338
414	0.337
414	0.337
415	0.336
415	0.336
416	0.335
416	0.335
416	0.335
417	0.334
417	0.334
418	0.334
418	0.333
419	0.333
419	0.333
420	0.332
420	0.332
421	0.332
421	0.331
421	0.331
422	0.33
422	0.33
423	0.33
423	0.329
424	0.329
424	0.328
425	0.328
425	0.328
426	0.327
426	0.327
427	0.327
427	0.326
427	0.326
428	0.326
428	0.325
429	0.325
429	0.325
430	0.325
430	0.324
431	0.324
431	0.324
432	0.324
432	0.323
432	0.323
433	0.323
433	0.322
434	0.322
434	0.322
435	0.322
435	0.322
436	0.321
436	0.321
437	0.321
437	0.321
437	0.321
438	0.32
438	0.32
439	0.32
439	0.32
440	0.32
440	0.32
441	0.319
441	0.319
442	0.319
442	0.319
442	0.318
443	0.318
443	0.318
444	0.318
444	0.317
445	0.317
445	0.317
446	0.317
446	0.316
447	0.316
447	0.316
447	0.316
448	0.316
448	0.315
449	0.315
449	0.315
450	0.315
450	0.315
451	0.315
451	0.315
452	0.315
452	0.315
452	0.315
453	0.315
453	0.315
454	0.314
454	0.314
455	0.314
455	0.314
456	0.313
456	0.313
457	0.313
457	0.313
458	0.313
458	0.313
458	0.313
459	0.312
459	0.312
460	0.312
460	0.312
461	0.312
461	0.312
462	0.312
462	0.312
463	0.312
463	0.312
463	0.312
464	0.312
464	0.312
465	0.311
465	0.311
466	0.311
466	0.311
467	0.311
467	0.311
467	0.311
468	0.311
468	0.312
469	0.312
469	0.312
470	0.313
470	0.313
471	0.313
471	0.313
472	0.313
472	0.314
472	0.314
473	0.314
473	0.314
474	0.314
474	0.314
475	0.314
475	0.314
476	0.315
476	0.315
477	0.315
477	0.315
477	0.316
478	0.316
478	0.316
479	0.316
479	0.317
480	0.317
480	0.317
481	0.318
481	0.318
482	0.318
482	0.319
482	0.319
483	0.32
483	0.321
484	0.322
484	0.322
485	0.322
485	0.322
486	0.323
486	0.324
487	0.324
487	0.325
487	0.325
488	0.326
488	0.326
489	0.327
489	0.328
490	0.329
490	0.33
491	0.331
491	0.332
492	0.333
492	0.334
492	0.335
493	0.336
493	0.337
494	0.338
494	0.339
495	0.34
495	0.34
496	0.341
496	0.343
496	0.344
497	0.344
497	0.345
498	0.346
498	0.347
499	0.347
499	0.349
500	0.35
500	0.351
501	0.352
501	0.353
501	0.353
502	0.354
502	0.355
503	0.356
503	0.357
504	0.359
504	0.359
505	0.36
505	0.361
506	0.362
506	0.363
506	0.364
507	0.365
507	0.366
508	0.367
508	0.368
509	0.368
509	0.369
510	0.37
510	0.371
511	0.372
511	0.373
511	0.374
512	0.375
512	0.376
513	0.376
513	0.377
514	0.378
514	0.379
515	0.379
515	0.38
515	0.38
516	0.381
516	0.381
517	0.382
517	0.382
518	0.383
518	0.383
519	0.384
519	0.384
520	0.384
520	0.385
520	0.385
521	0.385
521	0.385
522	0.385
522	0.385
523	0.385
523	0.385
524	0.385
524	0.385
524	0.385
525	0.385
525	0.385
526	0.384
526	0.384
527	0.384
527	0.384
528	0.383
528	0.383
529	0.383
529	0.382
529	0.381
530	0.38
530	0.38
531	0.379
531	0.378
532	0.377
532	0.376
533	0.375
533	0.375
533	0.374
534	0.373
534	0.372
535	0.371
535	0.371
536	0.37
536	0.369
537	0.368
537	0.367
538	0.366
538	0.365
538	0.363
539	0.362
539	0.361
540	0.36
540	0.359
541	0.358
541	0.356
542	0.355
542	0.354
542	0.353
543	0.352
543	0.35
544	0.349
544	0.348
545	0.346
545	0.345
546	0.344
546	0.343
547	0.341
547	0.339
547	0.338
548	0.337
548	0.335
549	0.334
549	0.333
550	0.331
550	0.33
551	0.329
551	0.327
551	0.326
552	0.325
552	0.324
553	0.323
553	0.322
554	0.32
554	0.319
555	0.317
555	0.316
556	0.314
556	0.313
556	0.311
557	0.31
557	0.309
558	0.308
558	0.307
559	0.306
559	0.304
560	0.303
560	0.302
560	0.301
561	0.301
561	0.3
562	0.298
562	0.297
563	0.295
563	0.293
564	0.292
564	0.291
564	0.29
565	0.289
565	0.288
566	0.286
566	0.285
567	0.284
567	0.283
568	0.282
568	0.281
568	0.28
569	0.279
569	0.278
570	0.277
570	0.276
571	0.275
571	0.274
572	0.272
572	0.271
573	0.271
573	0.27
573	0.268
574	0.267
574	0.267
575	0.266
575	0.265
576	0.265
576	0.263
577	0.262
577	0.261
577	0.261
578	0.26
578	0.259
579	0.259
579	0.259
580	0.257
580	0.256
581	0.255
581	0.254
581	0.253
582	0.253
582	0.252
583	0.252
583	0.251
584	0.249
584	0.248
585	0.247
585	0.246
585	0.246
586	0.245
586	0.244
587	0.243
587	0.242
588	0.241
588	0.24
589	0.24
589	0.239
590	0.239
590	0.238
590	0.238
591	0.238
591	0.237
592	0.236
592	0.235
593	0.235
593	0.234
594	0.233
594	0.233
594	0.232
595	0.231
595	0.231
596	0.23
596	0.23
597	0.23
597	0.23
598	0.23
598	0.229
598	0.229
599	0.228
599	0.228
600	0.227
600	0.226
601	0.226
601	0.225
602	0.224
602	0.223
602	0.222
603	0.222
603	0.221
604	0.221
604	0.221
605	0.221
605	0.221
606	0.22
606	0.219
606	0.219
607	0.219
607	0.218
608	0.218
608	0.217
609	0.216
609	0.216
610	0.215
610	0.214
610	0.214
611	0.214
611	0.214
612	0.214
612	0.214
613	0.214
613	0.214
614	0.214
614	0.213
614	0.213
615	0.212
615	0.212
616	0.212
616	0.211
617	0.211
617	0.211
618	0.21
618	0.21
618	0.21
619	0.211
619	0.211
620	0.211
620	0.211
621	0.21
621	0.209
622	0.208
622	0.208
622	0.207
623	0.206
623	0.205
624	0.205
624	0.204
625	0.203
625	0.202
626	0.202
626	0.202
626	0.202
627	0.202
627	0.201
628	0.201
628	0.201
629	0.201
629	0.2
630	0.2
630	0.2
630	0.2
631	0.2
631	0.2
632	0.199
632	0.199
633	0.199
633	0.199
634	0.199
634	0.199
634	0.199
635	0.198
635	0.198
636	0.198
636	0.198
637	0.197
637	0.197
638	0.197
638	0.196
638	0.196
639	0.195
639	0.195
640	0.195
640	0.194
641	0.194
641	0.193
642	0.193
642	0.193
642	0.193
643	0.193
643	0.193
644	0.193
644	0.193
645	0.193
645	0.193
646	0.193
646	0.193
646	0.192
647	0.192
647	0.192
648	0.191
648	0.191
649	0.191
649	0.19
650	0.191
650	0.191
650	0.191
651	0.191
651	0.19
652	0.19
652	0.19
653	0.191
653	0.193
653	0.199
654	0.156
654	0.124
655	0.125
655	0.125
656	0.125
656	0.126
657	0.126
657	0.126
657	0.127
658	0.125
658	0.115
659	0.145
659	0.186
660	0.191
660	0.191
661	0.191
661	0.19
661	0.19
662	0.189
662	0.188
663	0.188
663	0.187
664	0.187
664	0.187
665	0.187
665	0.186
665	0.187
666	0.187
666	0.187
667	0.188
667	0.188
668	0.189
668	0.189
669	0.189
669	0.189
669	0.19
670	0.19
670	0.19
671	0.19
671	0.189
672	0.189
672	0.188
672	0.188
673	0.188
673	0.188
674	0.187
674	0.187
675	0.186
675	0.186
676	0.186
676	0.186
676	0.186
677	0.186
677	0.186
678	0.186
678	0.185
679	0.185
679	0.185
680	0.185
680	0.185
680	0.185
681	0.186
681	0.186
682	0.186
682	0.187
683	0.187
683	0.187
684	0.188
684	0.188
684	0.187
685	0.187
685	0.187
686	0.187
686	0.187
687	0.186
687	0.186
687	0.186
688	0.185
688	0.185
689	0.185
689	0.185
690	0.185
690	0.185
691	0.185
691	0.185
691	0.185
692	0.186
692	0.186
693	0.186
693	0.187
694	0.187
694	0.187
695	0.187
695	0.188
695	0.188
696	0.188
696	0.187
697	0.187
697	0.187
698	0.186
698	0.186
698	0.186
699	0.186
699	0.186
700	0.185
700	0.185
701	0.186
701	0.186
702	0.186
702	0.186
702	0.187
703	0.187
703	0.187
704	0.186
704	0.186
705	0.186
705	0.186
705	0.185
706	0.185
706	0.185
707	0.185
707	0.184
708	0.184
708	0.184
709	0.184
709	0.184
709	0.183
710	0.183
710	0.183
711	0.183
711	0.183
712	0.183
712	0.183
713	0.183
713	0.183
713	0.183
714	0.183
714	0.183
715	0.183
715	0.183
716	0.183
716	0.183
716	0.182
717	0.182
717	0.182
718	0.182
718	0.181
719	0.182
719	0.182
720	0.182
720	0.182
720	0.182
721	0.182
721	0.183
722	0.183
722	0.183
723	0.184
723	0.184
723	0.184
724	0.184
724	0.185
725	0.184
725	0.184
726	0.184
726	0.183
727	0.183
727	0.183
727	0.183
728	0.182
728	0.182
729	0.183
729	0.183
730	0.183
730	0.183
730	0.184
731	0.184
731	0.185
732	0.185
732	0.186
733	0.186
733	0.186
734	0.186
734	0.186
734	0.186
735	0.186
735	0.185
736	0.184
736	0.184
737	0.183
737	0.183
737	0.182
738	0.181
738	0.181
739	0.18
739	0.18
740	0.18
740	0.18
741	0.181
741	0.181
741	0.181
742	0.181
742	0.182
743	0.182
743	0.183
744	0.183
744	0.184
744	0.184
745	0.184
745	0.183
746	0.184
746	0.184
747	0.184
747	0.184
748	0.184
748	0.185
748	0.185
749	0.186
749	0.186
750	0.187
750	0.187
751	0.187
751	0.188
751	0.188
752	0.187
752	0.187
753	0.187
753	0.186
754	0.186
754	0.185
754	0.185
755	0.185
755	0.185
756	0.184
756	0.183
757	0.182
757	0.182
758	0.182
758	0.182
758	0.182
759	0.182
759	0.182
760	0.182
760	0.182
761	0.182
761	0.183
761	0.184
762	0.184
762	0.185
763	0.186
763	0.186
764	0.186
764	0.186
764	0.186
765	0.186
765	0.186
766	0.186
766	0.186
767	0.186
767	0.185
768	0.184
768	0.184
768	0.184
769	0.184
769	0.183
770	0.183
770	0.183
771	0.182
771	0.182
771	0.182
772	0.182
772	0.182
773	0.182
773	0.182
774	0.182
774	0.183
775	0.183
775	0.183
775	0.183
776	0.183
776	0.183
777	0.184
777	0.184
778	0.184
778	0.183
778	0.183
779	0.183
779	0.183
780	0.182
780	0.182
781	0.181
781	0.181
781	0.181
782	0.18
782	0.18
783	0.18
783	0.18
784	0.179
784	0.179
784	0.179
785	0.179
785	0.179
786	0.179
786	0.179
787	0.179
787	0.179
788	0.178
788	0.178
788	0.178
789	0.178
789	0.178
790	0.178
790	0.178
791	0.178
791	0.178
791	0.178
792	0.179
792	0.179
793	0.179
793	0.179
794	0.179
794	0.179
794	0.179
795	0.179
795	0.179
796	0.179
796	0.179
797	0.179
797	0.179
797	0.179
798	0.178
798	0.178
799	0.178
799	0.177
800	0.176
800	0.175
801	0.175
801	0.174
801	0.174
802	0.173
802	0.173
803	0.173
803	0.173
804	0.173
804	0.174
804	0.174
805	0.174
805	0.174
806	0.174
806	0.174
807	0.174
807	0.174
807	0.174
808	0.174
808	0.173
809	0.173
809	0.173
810	0.173
810	0.173
810	0.173
811	0.173
811	0.173
812	0.173
812	0.173
813	0.174
813	0.174
813	0.174
814	0.174
814	0.174
815	0.174
815	0.173
816	0.173
816	0.172
817	0.171
817	0.171
817	0.17
818	0.17
818	0.169
819	0.169
819	0.168
820	0.167
820	0.167
820	0.167
821	0.167
821	0.166
822	0.166
822	0.166
823	0.165
823	0.165
823	0.165
824	0.165
824	0.166
825	0.167
825	0.167
826	0.167
826	0.167
826	0.167
827	0.167
827	0.166
828	0.166
828	0.165
829	0.165
829	0.164
829	0.164
830	0.164
830	0.164
831	0.164
831	0.164
832	0.164
832	0.164
832	0.164
833	0.164
833	0.164
834	0.164
834	0.164
835	0.163
835	0.163
835	0.163
836	0.163
836	0.163
837	0.163
837	0.163
838	0.162
838	0.162
839	0.162
839	0.161
839	0.16
840	0.159
840	0.158
841	0.156
841	0.155
842	0.153
842	0.152
842	0.151
843	0.151
843	0.15
844	0.149
844	0.149
845	0.149
845	0.148
845	0.148
846	0.148
846	0.148
847	0.149
847	0.149
848	0.149
848	0.149
848	0.149
849	0.15
849	0.149
850	0.15
850	0.15
851	0.15
851	0.15
851	0.149
852	0.148
852	0.148
853	0.147
853	0.147
854	0.146
854	0.146
854	0.146
855	0.146
855	0.147
856	0.147
856	0.147
857	0.148
857	0.149
857	0.149
858	0.149
858	0.149
859	0.148
859	0.148
860	0.147
860	0.146
860	0.145
861	0.144
861	0.143
862	0.141
862	0.14
863	0.139
863	0.138
863	0.138
864	0.137
864	0.137
865	0.137
865	0.136
866	0.136
866	0.136
866	0.135
867	0.135
867	0.135
868	0.135
868	0.135
869	0.135
869	0.135
869	0.134
870	0.134
870	0.134
871	0.133
871	0.133
872	0.133
872	0.133
872	0.133
873	0.133
873	0.132
874	0.132
874	0.131
875	0.131
875	0.13
875	0.13
876	0.13
876	0.13
877	0.129
877	0.129
878	0.13
878	0.13
878	0.131
879	0.131
879	0.132
880	0.133
880	0.133
881	0.134
881	0.134
881	0.134
882	0.134
882	0.133
883	0.133
883	0.132
884	0.131
884	0.131
884	0.13
885	0.129
885	0.128
886	0.127
886	0.126
887	0.126
887	0.125
887	0.124
888	0.123
888	0.122
889	0.122
889	0.122
890	0.121
890	0.121
890	0.121
891	0.121
891	0.121
892	0.121
892	0.122
893	0.122
893	0.122
893	0.123
894	0.123
894	0.123
895	0.123
895	0.123
895	0.122
896	0.122
896	0.121
897	0.121
897	0.12
898	0.119
898	0.119
898	0.118
899	0.117
899	0.117
900	0.117
900	0.116
901	0.116
901	0.116
901	0.116
902	0.116
902	0.116
903	0.116
903	0.116
904	0.116
904	0.115
904	0.115
905	0.115
905	0.114
906	0.114
906	0.114
907	0.114
907	0.114
907	0.114
908	0.114
908	0.114
909	0.114
909	0.114
910	0.114
910	0.114
910	0.114
911	0.114
911	0.113
912	0.113
912	0.113
913	0.113
913	0.113
913	0.112
914	0.112
914	0.112
915	0.111
915	0.111
916	0.111
916	0.11
916	0.11
917	0.109
917	0.108
918	0.107
918	0.107
918	0.106
919	0.105
919	0.105
920	0.105
920	0.104
921	0.104
921	0.103
921	0.102
922	0.102
922	0.101
923	0.101
923	0.101
924	0.101
924	0.1
924	0.1
925	0.1
925	0.1
926	0.1
926	0.101
927	0.101
927	0.101
927	0.101
928	0.101
928	0.101
929	0.101
929	0.101
930	0.101
930	0.101
930	0.101
931	0.101
931	0.102
932	0.102
932	0.102
933	0.102
933	0.101
933	0.101
934	0.101
934	0.1
935	0.1
935	0.099
935	0.099
936	0.098
936	0.098
937	0.098
937	0.097
938	0.097
938	0.097
938	0.097
939	0.097
939	0.097
940	0.097
940	0.097
941	0.097
941	0.097
941	0.098
942	0.098
942	0.098
943	0.099
943	0.099
944	0.099
944	0.099
944	0.099
945	0.099
945	0.1
946	0.1
946	0.1
946	0.1
947	0.1
947	0.1
948	0.1
948	0.1
949	0.1
949	0.099
949	0.099
950	0.098
950	0.097
951	0.097
951	0.095
952	0.094
952	0.093
952	0.092
953	0.091
953	0.091
954	0.09
954	0.089
955	0.088
955	0.087
955	0.087
956	0.087
956	0.087
957	0.087
957	0.087
957	0.087
958	0.087
958	0.087
959	0.087
959	0.087
960	0.087
960	0.087
960	0.087
961	0.087
961	0.087
962	0.087
962	0.087
963	0.087
963	0.087
963	0.088
964	0.088
964	0.088
965	0.088
965	0.088
966	0.089
966	0.089
966	0.09
967	0.09
967	0.09
968	0.091
968	0.091
968	0.091
969	0.092
969	0.092
970	0.092
970	0.091
971	0.091
971	0.091
971	0.091
972	0.091
972	0.09
973	0.09
973	0.09
974	0.09
974	0.09
974	0.09
975	0.09
975	0.091
976	0.091
976	0.091
976	0.091
977	0.091
977	0.091
978	0.092
978	0.092
979	0.092
979	0.092
979	0.092
980	0.092
980	0.091
981	0.091
981	0.09
982	0.09
982	0.089
982	0.089
983	0.088
983	0.087
984	0.086
984	0.086
984	0.085
985	0.084
985	0.083
986	0.082
986	0.082
987	0.081
987	0.081
987	0.08
988	0.08
988	0.08
989	0.08
989	0.079
990	0.079
990	0.079
990	0.079
991	0.078
991	0.078
992	0.077
992	0.077
992	0.076
993	0.076
993	0.075
994	0.075
994	0.075
995	0.075
995	0.075
995	0.075
996	0.076
996	0.077
997	0.077
997	0.078
997	0.079
998	0.08
998	0.081
999	0.081
999	0.082
1000	0.083
1000	0.083
1000	0.083
1001	0.084
1001	0.084
1002	0.083
1002	0.083
1003	0.082
1003	0.082
1003	0.081
1004	0.08
1004	0.079
1005	0.078
1005	0.077
1005	0.076
1006	0.075
1006	0.074
1007	0.074
1007	0.073
1008	0.073
1008	0.073
1008	0.073
1009	0.073
1009	0.073
1010	0.073
1010	0.073
1010	0.074
1011	0.074
1011	0.074
1012	0.074
1012	0.074
1013	0.074
1013	0.074
1013	0.074
1014	0.074
1014	0.074
1015	0.074
1015	0.074
1016	0.074
1016	0.074
1016	0.074
1017	0.073
1017	0.073
1018	0.074
1018	0.074
1018	0.073
1019	0.073
1019	0.073
1020	0.073
1020	0.073
1021	0.074
1021	0.074
1021	0.074
1022	0.074
1022	0.074
1023	0.074
1023	0.074
1023	0.074
1024	0.074
1024	0.073
1025	0.073
1025	0.073
1026	0.072
1026	0.072
1026	0.071
1027	0.071
1027	0.07
1028	0.07
1028	0.069
1028	0.069
1029	0.069
1029	0.069
1030	0.068
1030	0.068
1031	0.068
1031	0.069
1031	0.069
1032	0.069
1032	0.069
1033	0.069
1033	0.069
1033	0.069
1034	0.069
1034	0.069
1035	0.069
1035	0.069
1036	0.069
1036	0.069
1036	0.069
1037	0.069
1037	0.069
1038	0.069
1038	0.069
1039	0.069
1039	0.069
1039	0.07
1040	0.07
1040	0.071
1041	0.071
1041	0.071
1041	0.071
1042	0.072
1042	0.072
1043	0.072
1043	0.072
1044	0.072
1044	0.072
1044	0.072
1045	0.073
1045	0.073
1046	0.073
1046	0.073
1046	0.074
1047	0.074
1047	0.074
1048	0.075
1048	0.075
1049	0.076
1049	0.076
1049	0.076
1050	0.076
1050	0.075
1051	0.075
1051	0.075
1051	0.075
1052	0.074
1052	0.074
1053	0.073
1053	0.072
1053	0.071
1054	0.07
1054	0.07
1055	0.07
1055	0.069
1056	0.068
1056	0.067
1056	0.067
1057	0.066
1057	0.065
1058	0.064
1058	0.063
1058	0.063
1059	0.062
1059	0.061
1060	0.06
1060	0.06
1061	0.059
1061	0.059
1061	0.059
1062	0.058
1062	0.058
1063	0.058
1063	0.057
1063	0.057
1064	0.057
1064	0.057
1065	0.056
1065	0.056
1066	0.056
1066	0.056
1066	0.056
1067	0.055
1067	0.055
1068	0.055
1068	0.055
1068	0.054
1069	0.054
1069	0.053
1070	0.053
1070	0.053
1071	0.052
1071	0.052
1071	0.051
1072	0.05
1072	0.05
1073	0.049
1073	0.048
1073	0.048
1074	0.048
1074	0.048
1075	0.048
1075	0.048
1076	0.049
1076	0.049
1076	0.05
1077	0.05
1077	0.051
1078	0.051
1078	0.052
1078	0.052
1079	0.052
1079	0.052
1080	0.052
1080	0.052
1080	0.052
1081	0.053
1081	0.053
1082	0.053
1082	0.054
1083	0.054
1083	0.053
1083	0.054
1084	0.054
1084	0.054
1085	0.054
1085	0.053
1085	0.053
1086	0.052
1086	0.051
1087	0.05
1087	0.05
1088	0.05
1088	0.049
1088	0.049
1089	0.048
1089	0.047
1090	0.047
1090	0.046
1090	0.045
1091	0.045
1091	0.045
1092	0.045
1092	0.045
1092	0.045
1093	0.044
1093	0.044
1094	0.044
1094	0.044
1095	0.044
1095	0.044
1095	0.044
1096	0.044
1096	0.043
1097	0.043
1097	0.042
1097	0.042
1098	0.042
1098	0.041
1099	0.04
1099	0.039
1100	0.038
1100	0.037
1100	0.036
1101	0.035
1101	0.035
1102	0.034
1102	0.033
1102	0.031
1103	0.031
1103	0.031
1104	0.03
1104	0.03
1104	0.029
1105	0.028
1105	0.026
1106	0.024
1106	0.023
1107	0.022
1107	0.022
1107	0.021
1108	0.02
1108	0.019
1109	0.018
1109	0.017
1109	0.018
1110	0.02
1110	0.021
1111	0.024
1111	0.026
