Data from reversibility-20sec_Absorbance__6583__000000000006583.txt Node

Date: Thu Dec 07 00:47:26 CET 2023
User: Marek
Spectrometer: MAYP115816
Trigger mode: 0
Integration Time (sec): 2.000000E-1
Scans to average: 10
Electric dark correction enabled: true
Nonlinearity correction enabled: true
Boxcar width: 5
XAxis mode: Wavelengths
Number of Pixels in Spectrum: 2068
>>>>>Begin Spectral Data<<<<<
199	-0.205
199	-0.159
200	-0.091
200	-0.04
201	-0.013
201	0.005
202	0.016
202	0.029
203	0.039
203	0.043
204	0.059
204	0.074
205	0.083
205	0.086
205	0.084
206	0.087
206	0.088
207	0.089
207	0.087
208	0.088
208	0.086
209	0.088
209	0.086
210	0.087
210	0.09
211	0.095
211	0.095
212	0.091
212	0.092
213	0.094
213	0.094
213	0.094
214	0.098
214	0.101
215	0.103
215	0.103
216	0.102
216	0.101
217	0.108
217	0.113
218	0.11
218	0.113
219	0.117
219	0.117
220	0.12
220	0.122
221	0.125
221	0.127
221	0.133
222	0.136
222	0.137
223	0.147
223	0.152
224	0.159
224	0.165
225	0.174
225	0.183
226	0.191
226	0.203
227	0.213
227	0.223
228	0.242
228	0.254
229	0.27
229	0.291
229	0.314
230	0.342
230	0.37
231	0.403
231	0.441
232	0.477
232	0.522
233	0.561
233	0.611
234	0.661
234	0.712
235	0.766
235	0.814
236	0.867
236	0.917
236	0.969
237	1.022
237	1.071
238	1.12
238	1.165
239	1.213
239	1.257
240	1.294
240	1.333
241	1.369
241	1.405
242	1.435
242	1.467
243	1.497
243	1.521
243	1.546
244	1.567
244	1.588
245	1.607
245	1.629
246	1.646
246	1.661
247	1.676
247	1.691
248	1.702
248	1.717
249	1.727
249	1.736
250	1.741
250	1.75
250	1.756
251	1.761
251	1.765
252	1.771
252	1.773
253	1.775
253	1.775
254	1.776
254	1.778
255	1.779
255	1.78
256	1.778
256	1.777
257	1.776
257	1.775
258	1.775
258	1.774
258	1.772
259	1.772
259	1.772
260	1.771
260	1.773
261	1.773
261	1.777
262	1.779
262	1.78
263	1.782
263	1.783
264	1.783
264	1.784
265	1.785
265	1.785
265	1.783
266	1.783
266	1.782
267	1.78
267	1.782
268	1.781
268	1.783
269	1.786
269	1.785
270	1.785
270	1.784
271	1.782
271	1.781
272	1.777
272	1.776
272	1.773
273	1.769
273	1.763
274	1.758
274	1.753
275	1.746
275	1.741
276	1.735
276	1.729
277	1.723
277	1.713
278	1.702
278	1.691
278	1.679
279	1.665
279	1.649
280	1.63
280	1.606
281	1.579
281	1.546
282	1.512
282	1.476
283	1.44
283	1.404
284	1.368
284	1.332
285	1.298
285	1.267
285	1.238
286	1.212
286	1.189
287	1.169
287	1.152
288	1.136
288	1.123
289	1.112
289	1.101
290	1.093
290	1.085
291	1.078
291	1.072
292	1.066
292	1.061
292	1.056
293	1.051
293	1.047
294	1.043
294	1.04
295	1.036
295	1.033
296	1.029
296	1.025
297	1.022
297	1.018
298	1.015
298	1.012
298	1.008
299	1.004
299	1.001
300	0.998
300	0.995
301	0.992
301	0.99
302	0.987
302	0.984
303	0.981
303	0.979
304	0.976
304	0.973
305	0.97
305	0.967
305	0.964
306	0.961
306	0.958
307	0.955
307	0.952
308	0.95
308	0.947
309	0.943
309	0.94
310	0.937
310	0.934
311	0.931
311	0.928
311	0.924
312	0.92
312	0.917
313	0.913
313	0.909
314	0.905
314	0.901
315	0.896
315	0.892
316	0.888
316	0.883
317	0.878
317	0.873
318	0.868
318	0.863
318	0.857
319	0.852
319	0.847
320	0.841
320	0.835
321	0.828
321	0.822
322	0.816
322	0.81
323	0.804
323	0.797
324	0.791
324	0.784
324	0.778
325	0.771
325	0.764
326	0.757
326	0.75
327	0.744
327	0.737
328	0.73
328	0.723
329	0.716
329	0.709
330	0.701
330	0.695
330	0.688
331	0.681
331	0.674
332	0.667
332	0.66
333	0.653
333	0.646
334	0.639
334	0.633
335	0.626
335	0.619
336	0.613
336	0.606
336	0.599
337	0.593
337	0.587
338	0.58
338	0.574
339	0.568
339	0.562
340	0.556
340	0.55
341	0.545
341	0.539
342	0.534
342	0.528
342	0.523
343	0.518
343	0.513
344	0.508
344	0.503
345	0.498
345	0.493
346	0.489
346	0.485
347	0.48
347	0.476
348	0.472
348	0.468
348	0.464
349	0.46
349	0.456
350	0.452
350	0.449
351	0.445
351	0.442
352	0.438
352	0.435
353	0.432
353	0.429
354	0.427
354	0.424
354	0.42
355	0.417
355	0.414
356	0.412
356	0.409
357	0.405
357	0.402
358	0.399
358	0.397
359	0.394
359	0.392
360	0.39
360	0.388
360	0.386
361	0.384
361	0.382
362	0.38
362	0.379
363	0.377
363	0.375
364	0.373
364	0.371
365	0.369
365	0.367
366	0.365
366	0.364
366	0.362
367	0.36
367	0.358
368	0.356
368	0.354
369	0.353
369	0.351
370	0.35
370	0.348
371	0.347
371	0.345
372	0.344
372	0.343
372	0.342
373	0.341
373	0.34
374	0.339
374	0.337
375	0.336
375	0.335
376	0.334
376	0.333
377	0.332
377	0.331
378	0.33
378	0.328
378	0.327
379	0.327
379	0.326
380	0.325
380	0.324
381	0.323
381	0.322
382	0.322
382	0.321
383	0.32
383	0.32
383	0.319
384	0.318
384	0.318
385	0.317
385	0.316
386	0.316
386	0.315
387	0.314
387	0.314
388	0.313
388	0.313
389	0.312
389	0.311
389	0.311
390	0.31
390	0.31
391	0.309
391	0.309
392	0.309
392	0.308
393	0.308
393	0.307
394	0.307
394	0.307
394	0.306
395	0.306
395	0.305
396	0.305
396	0.304
397	0.304
397	0.303
398	0.303
398	0.302
399	0.302
399	0.301
400	0.301
400	0.3
400	0.3
401	0.3
401	0.299
402	0.298
402	0.298
403	0.298
403	0.297
404	0.297
404	0.296
405	0.296
405	0.296
405	0.296
406	0.295
406	0.295
407	0.295
407	0.294
408	0.294
408	0.294
409	0.293
409	0.293
410	0.293
410	0.292
411	0.292
411	0.291
411	0.291
412	0.291
412	0.29
413	0.29
413	0.289
414	0.289
414	0.289
415	0.288
415	0.288
416	0.288
416	0.288
416	0.287
417	0.287
417	0.286
418	0.286
418	0.286
419	0.285
419	0.285
420	0.284
420	0.284
421	0.283
421	0.283
421	0.283
422	0.282
422	0.282
423	0.282
423	0.281
424	0.281
424	0.281
425	0.28
425	0.28
426	0.28
426	0.28
427	0.279
427	0.279
427	0.279
428	0.278
428	0.278
429	0.278
429	0.277
430	0.277
430	0.277
431	0.277
431	0.277
432	0.277
432	0.276
432	0.276
433	0.276
433	0.275
434	0.275
434	0.275
435	0.275
435	0.275
436	0.275
436	0.275
437	0.274
437	0.274
437	0.274
438	0.274
438	0.274
439	0.274
439	0.274
440	0.273
440	0.273
441	0.273
441	0.272
442	0.272
442	0.272
442	0.272
443	0.271
443	0.271
444	0.271
444	0.271
445	0.271
445	0.271
446	0.271
446	0.27
447	0.27
447	0.27
447	0.27
448	0.27
448	0.27
449	0.27
449	0.27
450	0.27
450	0.27
451	0.27
451	0.27
452	0.27
452	0.27
452	0.27
453	0.27
453	0.27
454	0.27
454	0.269
455	0.269
455	0.269
456	0.269
456	0.269
457	0.269
457	0.269
458	0.269
458	0.269
458	0.269
459	0.269
459	0.269
460	0.269
460	0.27
461	0.27
461	0.27
462	0.27
462	0.27
463	0.27
463	0.27
463	0.27
464	0.27
464	0.27
465	0.27
465	0.27
466	0.27
466	0.27
467	0.27
467	0.27
467	0.271
468	0.271
468	0.271
469	0.272
469	0.272
470	0.273
470	0.273
471	0.273
471	0.274
472	0.274
472	0.275
472	0.275
473	0.275
473	0.276
474	0.276
474	0.276
475	0.276
475	0.277
476	0.277
476	0.277
477	0.278
477	0.278
477	0.279
478	0.279
478	0.279
479	0.28
479	0.281
480	0.281
480	0.282
481	0.282
481	0.282
482	0.283
482	0.284
482	0.285
483	0.285
483	0.286
484	0.287
484	0.287
485	0.287
485	0.288
486	0.288
486	0.289
487	0.289
487	0.29
487	0.291
488	0.292
488	0.292
489	0.294
489	0.295
490	0.297
490	0.298
491	0.299
491	0.301
492	0.302
492	0.303
492	0.304
493	0.305
493	0.307
494	0.308
494	0.309
495	0.31
495	0.311
496	0.312
496	0.313
496	0.314
497	0.315
497	0.316
498	0.317
498	0.318
499	0.32
499	0.321
500	0.323
500	0.324
501	0.325
501	0.326
501	0.327
502	0.328
502	0.329
503	0.33
503	0.332
504	0.333
504	0.334
505	0.335
505	0.336
506	0.337
506	0.338
506	0.339
507	0.34
507	0.341
508	0.342
508	0.343
509	0.344
509	0.345
510	0.346
510	0.347
511	0.348
511	0.349
511	0.35
512	0.351
512	0.352
513	0.353
513	0.354
514	0.355
514	0.356
515	0.356
515	0.357
515	0.357
516	0.358
516	0.359
517	0.36
517	0.36
518	0.361
518	0.361
519	0.361
519	0.362
520	0.362
520	0.362
520	0.362
521	0.362
521	0.362
522	0.362
522	0.362
523	0.362
523	0.361
524	0.361
524	0.361
524	0.361
525	0.361
525	0.36
526	0.359
526	0.359
527	0.359
527	0.358
528	0.357
528	0.357
529	0.356
529	0.355
529	0.354
530	0.353
530	0.352
531	0.351
531	0.35
532	0.348
532	0.347
533	0.346
533	0.345
533	0.344
534	0.342
534	0.341
535	0.34
535	0.339
536	0.337
536	0.336
537	0.334
537	0.333
538	0.331
538	0.329
538	0.328
539	0.326
539	0.325
540	0.323
540	0.322
541	0.32
541	0.318
542	0.316
542	0.314
542	0.313
543	0.311
543	0.309
544	0.307
544	0.305
545	0.304
545	0.302
546	0.3
546	0.298
547	0.296
547	0.294
547	0.292
548	0.29
548	0.288
549	0.286
549	0.284
550	0.282
550	0.28
551	0.278
551	0.276
551	0.274
552	0.272
552	0.27
553	0.268
553	0.267
554	0.265
554	0.263
555	0.261
555	0.258
556	0.256
556	0.254
556	0.253
557	0.251
557	0.25
558	0.248
558	0.247
559	0.245
559	0.243
560	0.242
560	0.24
560	0.239
561	0.237
561	0.235
562	0.233
562	0.231
563	0.229
563	0.228
564	0.226
564	0.224
564	0.223
565	0.221
565	0.219
566	0.218
566	0.216
567	0.214
567	0.213
568	0.211
568	0.21
568	0.208
569	0.207
569	0.205
570	0.203
570	0.201
571	0.2
571	0.199
572	0.197
572	0.196
573	0.195
573	0.193
573	0.192
574	0.191
574	0.19
575	0.189
575	0.188
576	0.187
576	0.186
577	0.184
577	0.183
577	0.182
578	0.18
578	0.179
579	0.179
579	0.178
580	0.176
580	0.174
581	0.173
581	0.172
581	0.171
582	0.171
582	0.17
583	0.169
583	0.168
584	0.167
584	0.165
585	0.164
585	0.164
585	0.163
586	0.162
586	0.161
587	0.159
587	0.158
588	0.157
588	0.157
589	0.156
589	0.155
590	0.155
590	0.154
590	0.154
591	0.154
591	0.153
592	0.152
592	0.151
593	0.15
593	0.149
594	0.148
594	0.147
594	0.146
595	0.145
595	0.144
596	0.143
596	0.142
597	0.143
597	0.142
598	0.142
598	0.141
598	0.141
599	0.14
599	0.139
600	0.139
600	0.138
601	0.137
601	0.137
602	0.136
602	0.135
602	0.134
603	0.134
603	0.133
604	0.133
604	0.133
605	0.132
605	0.132
606	0.131
606	0.131
606	0.13
607	0.13
607	0.129
608	0.129
608	0.128
609	0.127
609	0.127
610	0.126
610	0.125
610	0.125
611	0.125
611	0.124
612	0.124
612	0.124
613	0.124
613	0.124
614	0.123
614	0.122
614	0.122
615	0.122
615	0.121
616	0.121
616	0.121
617	0.12
617	0.12
618	0.119
618	0.119
618	0.119
619	0.119
619	0.119
620	0.119
620	0.118
621	0.118
621	0.117
622	0.116
622	0.116
622	0.115
623	0.114
623	0.114
624	0.114
624	0.113
625	0.112
625	0.112
626	0.112
626	0.111
626	0.111
627	0.111
627	0.111
628	0.11
628	0.11
629	0.11
629	0.109
630	0.109
630	0.108
630	0.108
631	0.108
631	0.107
632	0.107
632	0.106
633	0.106
633	0.106
634	0.106
634	0.106
634	0.106
635	0.106
635	0.106
636	0.106
636	0.106
637	0.106
637	0.106
638	0.106
638	0.105
638	0.105
639	0.104
639	0.104
640	0.103
640	0.103
641	0.103
641	0.102
642	0.102
642	0.102
642	0.101
643	0.101
643	0.101
644	0.101
644	0.101
645	0.1
645	0.1
646	0.1
646	0.099
646	0.099
647	0.099
647	0.098
648	0.097
648	0.097
649	0.096
649	0.096
650	0.096
650	0.096
650	0.096
651	0.096
651	0.096
652	0.096
652	0.096
653	0.096
653	0.098
653	0.104
654	0.084
654	0.068
655	0.066
655	0.066
656	0.066
656	0.066
657	0.067
657	0.067
657	0.067
658	0.066
658	0.058
659	0.073
659	0.092
660	0.098
660	0.098
661	0.098
661	0.097
661	0.097
662	0.096
662	0.096
663	0.095
663	0.095
664	0.094
664	0.094
665	0.094
665	0.093
665	0.093
666	0.093
666	0.093
667	0.093
667	0.093
668	0.094
668	0.094
669	0.094
669	0.094
669	0.094
670	0.094
670	0.094
671	0.094
671	0.093
672	0.093
672	0.092
672	0.091
673	0.091
673	0.09
674	0.09
674	0.089
675	0.089
675	0.089
676	0.09
676	0.09
676	0.09
677	0.09
677	0.09
678	0.09
678	0.089
679	0.089
679	0.088
680	0.088
680	0.088
680	0.087
681	0.087
681	0.087
682	0.088
682	0.088
683	0.088
683	0.089
684	0.089
684	0.089
684	0.089
685	0.089
685	0.09
686	0.089
686	0.089
687	0.089
687	0.088
687	0.088
688	0.088
688	0.087
689	0.088
689	0.088
690	0.088
690	0.087
691	0.087
691	0.087
691	0.087
692	0.087
692	0.087
693	0.088
693	0.088
694	0.088
694	0.087
695	0.088
695	0.089
695	0.089
696	0.089
696	0.089
697	0.089
697	0.089
698	0.089
698	0.089
698	0.089
699	0.089
699	0.089
700	0.088
700	0.088
701	0.088
701	0.087
702	0.087
702	0.087
702	0.086
703	0.086
703	0.086
704	0.085
704	0.085
705	0.085
705	0.085
705	0.085
706	0.085
706	0.085
707	0.085
707	0.085
708	0.085
708	0.085
709	0.085
709	0.085
709	0.084
710	0.084
710	0.085
711	0.085
711	0.085
712	0.085
712	0.085
713	0.085
713	0.085
713	0.085
714	0.084
714	0.084
715	0.084
715	0.083
716	0.082
716	0.082
716	0.081
717	0.081
717	0.08
718	0.08
718	0.08
719	0.08
719	0.08
720	0.081
720	0.081
720	0.081
721	0.082
721	0.082
722	0.083
722	0.083
723	0.083
723	0.083
723	0.082
724	0.082
724	0.081
725	0.081
725	0.08
726	0.079
726	0.079
727	0.078
727	0.078
727	0.078
728	0.077
728	0.077
729	0.078
729	0.077
730	0.077
730	0.077
730	0.078
731	0.078
731	0.079
732	0.079
732	0.08
733	0.08
733	0.08
734	0.08
734	0.08
734	0.08
735	0.08
735	0.08
736	0.079
736	0.079
737	0.079
737	0.078
737	0.078
738	0.077
738	0.076
739	0.076
739	0.076
740	0.075
740	0.075
741	0.075
741	0.075
741	0.075
742	0.075
742	0.076
743	0.077
743	0.077
744	0.078
744	0.078
744	0.078
745	0.078
745	0.078
746	0.078
746	0.077
747	0.077
747	0.076
748	0.076
748	0.076
748	0.075
749	0.075
749	0.075
750	0.075
750	0.075
751	0.075
751	0.075
751	0.075
752	0.075
752	0.074
753	0.074
753	0.074
754	0.074
754	0.073
754	0.073
755	0.073
755	0.073
756	0.073
756	0.072
757	0.071
757	0.072
758	0.072
758	0.072
758	0.072
759	0.072
759	0.071
760	0.071
760	0.071
761	0.071
761	0.071
761	0.071
762	0.071
762	0.071
763	0.071
763	0.07
764	0.069
764	0.069
764	0.069
765	0.068
765	0.068
766	0.068
766	0.067
767	0.067
767	0.066
768	0.065
768	0.066
768	0.066
769	0.067
769	0.067
770	0.068
770	0.069
771	0.069
771	0.07
771	0.071
772	0.072
772	0.073
773	0.073
773	0.073
774	0.073
774	0.074
775	0.074
775	0.074
775	0.074
776	0.074
776	0.074
777	0.074
777	0.074
778	0.074
778	0.074
778	0.073
779	0.073
779	0.072
780	0.071
780	0.07
781	0.07
781	0.069
781	0.069
782	0.068
782	0.068
783	0.068
783	0.068
784	0.068
784	0.068
784	0.068
785	0.068
785	0.068
786	0.068
786	0.068
787	0.068
787	0.067
788	0.066
788	0.065
788	0.065
789	0.064
789	0.064
790	0.063
790	0.063
791	0.063
791	0.062
791	0.062
792	0.063
792	0.063
793	0.063
793	0.063
794	0.062
794	0.062
794	0.062
795	0.062
795	0.062
796	0.062
796	0.062
797	0.062
797	0.062
797	0.062
798	0.063
798	0.063
799	0.063
799	0.063
800	0.063
800	0.062
801	0.062
801	0.062
801	0.062
802	0.062
802	0.062
803	0.062
803	0.062
804	0.063
804	0.063
804	0.063
805	0.063
805	0.063
806	0.062
806	0.062
807	0.061
807	0.061
807	0.061
808	0.061
808	0.06
809	0.06
809	0.06
810	0.061
810	0.06
810	0.06
811	0.06
811	0.061
812	0.061
812	0.061
813	0.061
813	0.061
813	0.061
814	0.06
814	0.061
815	0.061
815	0.06
816	0.06
816	0.059
817	0.059
817	0.059
817	0.058
818	0.058
818	0.058
819	0.058
819	0.058
820	0.057
820	0.058
820	0.058
821	0.058
821	0.058
822	0.058
822	0.058
823	0.058
823	0.058
823	0.058
824	0.059
824	0.06
825	0.061
825	0.061
826	0.062
826	0.062
826	0.062
827	0.062
827	0.063
828	0.063
828	0.063
829	0.063
829	0.063
829	0.063
830	0.063
830	0.063
831	0.064
831	0.064
832	0.064
832	0.064
832	0.064
833	0.064
833	0.064
834	0.064
834	0.063
835	0.062
835	0.062
835	0.061
836	0.061
836	0.061
837	0.06
837	0.06
838	0.059
838	0.058
839	0.058
839	0.057
839	0.056
840	0.055
840	0.054
841	0.053
841	0.052
842	0.051
842	0.05
842	0.05
843	0.049
843	0.048
844	0.048
844	0.048
845	0.047
845	0.047
845	0.047
846	0.047
846	0.047
847	0.047
847	0.047
848	0.048
848	0.048
848	0.049
849	0.05
849	0.051
850	0.051
850	0.052
851	0.052
851	0.052
851	0.052
852	0.052
852	0.052
853	0.052
853	0.051
854	0.051
854	0.052
854	0.052
855	0.053
855	0.053
856	0.053
856	0.054
857	0.054
857	0.055
857	0.055
858	0.055
858	0.055
859	0.055
859	0.055
860	0.054
860	0.054
860	0.053
861	0.053
861	0.052
862	0.052
862	0.051
863	0.05
863	0.049
863	0.049
864	0.049
864	0.049
865	0.049
865	0.049
866	0.049
866	0.049
866	0.049
867	0.05
867	0.05
868	0.051
868	0.051
869	0.052
869	0.052
869	0.051
870	0.051
870	0.051
871	0.051
871	0.051
872	0.05
872	0.05
872	0.049
873	0.049
873	0.048
874	0.048
874	0.047
875	0.047
875	0.047
875	0.047
876	0.047
876	0.047
877	0.047
877	0.048
878	0.048
878	0.048
878	0.048
879	0.048
879	0.049
880	0.049
880	0.049
881	0.049
881	0.049
881	0.049
882	0.049
882	0.049
883	0.049
883	0.049
884	0.049
884	0.049
884	0.049
885	0.049
885	0.049
886	0.049
886	0.048
887	0.048
887	0.048
887	0.047
888	0.046
888	0.046
889	0.046
889	0.045
890	0.045
890	0.045
890	0.045
891	0.045
891	0.045
892	0.045
892	0.045
893	0.045
893	0.045
893	0.045
894	0.044
894	0.044
895	0.044
895	0.044
895	0.044
896	0.044
896	0.044
897	0.044
897	0.045
898	0.045
898	0.045
898	0.045
899	0.045
899	0.045
900	0.045
900	0.045
901	0.045
901	0.045
901	0.045
902	0.044
902	0.044
903	0.044
903	0.044
904	0.044
904	0.044
904	0.043
905	0.043
905	0.043
906	0.043
906	0.043
907	0.043
907	0.044
907	0.044
908	0.044
908	0.044
909	0.044
909	0.045
910	0.045
910	0.045
910	0.044
911	0.044
911	0.044
912	0.043
912	0.043
913	0.043
913	0.043
913	0.043
914	0.042
914	0.042
915	0.042
915	0.042
916	0.042
916	0.041
916	0.041
917	0.041
917	0.04
918	0.04
918	0.039
918	0.039
919	0.038
919	0.038
920	0.038
920	0.037
921	0.037
921	0.037
921	0.036
922	0.036
922	0.036
923	0.037
923	0.037
924	0.037
924	0.038
924	0.039
925	0.039
925	0.04
926	0.041
926	0.041
927	0.042
927	0.043
927	0.043
928	0.043
928	0.044
929	0.044
929	0.045
930	0.045
930	0.045
930	0.045
931	0.046
931	0.046
932	0.046
932	0.047
933	0.047
933	0.047
933	0.047
934	0.047
934	0.046
935	0.046
935	0.046
935	0.045
936	0.045
936	0.044
937	0.043
937	0.042
938	0.041
938	0.041
938	0.04
939	0.039
939	0.039
940	0.039
940	0.038
941	0.039
941	0.039
941	0.039
942	0.04
942	0.04
943	0.04
943	0.041
944	0.041
944	0.041
944	0.041
945	0.041
945	0.042
946	0.042
946	0.042
946	0.042
947	0.042
947	0.042
948	0.042
948	0.042
949	0.041
949	0.041
949	0.041
950	0.041
950	0.041
951	0.041
951	0.041
952	0.04
952	0.04
952	0.04
953	0.041
953	0.041
954	0.041
954	0.041
955	0.041
955	0.041
955	0.041
956	0.042
956	0.042
957	0.042
957	0.042
957	0.043
958	0.043
958	0.043
959	0.043
959	0.043
960	0.043
960	0.043
960	0.042
961	0.042
961	0.042
962	0.042
962	0.042
963	0.041
963	0.041
963	0.042
964	0.042
964	0.042
965	0.042
965	0.043
966	0.043
966	0.043
966	0.043
967	0.043
967	0.043
968	0.043
968	0.043
968	0.042
969	0.042
969	0.041
970	0.04
970	0.039
971	0.038
971	0.038
971	0.037
972	0.036
972	0.036
973	0.035
973	0.035
974	0.035
974	0.036
974	0.036
975	0.037
975	0.037
976	0.038
976	0.039
976	0.04
977	0.04
977	0.04
978	0.04
978	0.04
979	0.04
979	0.04
979	0.039
980	0.039
980	0.038
981	0.038
981	0.037
982	0.037
982	0.037
982	0.037
983	0.036
983	0.036
984	0.036
984	0.036
984	0.036
985	0.037
985	0.037
986	0.037
986	0.037
987	0.038
987	0.038
987	0.038
988	0.038
988	0.038
989	0.038
989	0.038
990	0.038
990	0.038
990	0.038
991	0.037
991	0.037
992	0.037
992	0.036
992	0.035
993	0.034
993	0.034
994	0.033
994	0.032
995	0.031
995	0.03
995	0.03
996	0.03
996	0.03
997	0.03
997	0.03
997	0.03
998	0.031
998	0.031
999	0.032
999	0.033
1000	0.034
1000	0.034
1000	0.035
1001	0.035
1001	0.035
1002	0.035
1002	0.034
1003	0.034
1003	0.034
1003	0.033
1004	0.032
1004	0.031
1005	0.03
1005	0.029
1005	0.028
1006	0.027
1006	0.027
1007	0.026
1007	0.025
1008	0.025
1008	0.025
1008	0.025
1009	0.025
1009	0.025
1010	0.026
1010	0.026
1010	0.026
1011	0.026
1011	0.026
1012	0.026
1012	0.026
1013	0.026
1013	0.026
1013	0.026
1014	0.026
1014	0.025
1015	0.025
1015	0.025
1016	0.026
1016	0.026
1016	0.026
1017	0.026
1017	0.026
1018	0.026
1018	0.027
1018	0.027
1019	0.027
1019	0.028
1020	0.028
1020	0.029
1021	0.029
1021	0.029
1021	0.03
1022	0.03
1022	0.03
1023	0.031
1023	0.031
1023	0.031
1024	0.031
1024	0.031
1025	0.031
1025	0.031
1026	0.031
1026	0.031
1026	0.031
1027	0.031
1027	0.031
1028	0.031
1028	0.031
1028	0.031
1029	0.031
1029	0.031
1030	0.031
1030	0.032
1031	0.032
1031	0.032
1031	0.033
1032	0.033
1032	0.033
1033	0.034
1033	0.034
1033	0.035
1034	0.035
1034	0.035
1035	0.035
1035	0.035
1036	0.035
1036	0.036
1036	0.036
1037	0.036
1037	0.036
1038	0.035
1038	0.035
1039	0.035
1039	0.035
1039	0.035
1040	0.035
1040	0.035
1041	0.035
1041	0.035
1041	0.035
1042	0.035
1042	0.035
1043	0.034
1043	0.034
1044	0.034
1044	0.034
1044	0.034
1045	0.033
1045	0.033
1046	0.033
1046	0.033
1046	0.033
1047	0.033
1047	0.033
1048	0.033
1048	0.034
1049	0.034
1049	0.034
1049	0.035
1050	0.035
1050	0.034
1051	0.034
1051	0.034
1051	0.034
1052	0.033
1052	0.033
1053	0.032
1053	0.032
1053	0.031
1054	0.03
1054	0.03
1055	0.03
1055	0.029
1056	0.029
1056	0.028
1056	0.028
1057	0.027
1057	0.027
1058	0.026
1058	0.025
1058	0.025
1059	0.025
1059	0.024
1060	0.024
1060	0.023
1061	0.023
1061	0.023
1061	0.023
1062	0.022
1062	0.022
1063	0.023
1063	0.022
1063	0.022
1064	0.022
1064	0.021
1065	0.021
1065	0.021
1066	0.021
1066	0.021
1066	0.021
1067	0.021
1067	0.021
1068	0.021
1068	0.02
1068	0.021
1069	0.02
1069	0.02
1070	0.02
1070	0.02
1071	0.02
1071	0.02
1071	0.02
1072	0.02
1072	0.019
1073	0.019
1073	0.019
1073	0.019
1074	0.019
1074	0.02
1075	0.02
1075	0.02
1076	0.02
1076	0.021
1076	0.022
1077	0.022
1077	0.023
1078	0.022
1078	0.023
1078	0.023
1079	0.022
1079	0.022
1080	0.022
1080	0.021
1080	0.021
1081	0.021
1081	0.02
1082	0.02
1082	0.021
1083	0.02
1083	0.02
1083	0.02
1084	0.02
1084	0.021
1085	0.021
1085	0.022
1085	0.023
1086	0.023
1086	0.023
1087	0.023
1087	0.023
1088	0.023
1088	0.023
1088	0.023
1089	0.023
1089	0.022
1090	0.021
1090	0.02
1090	0.019
1091	0.019
1091	0.018
1092	0.018
1092	0.018
1092	0.017
1093	0.016
1093	0.016
1094	0.015
1094	0.015
1095	0.014
1095	0.014
1095	0.013
1096	0.012
1096	0.011
1097	0.011
1097	0.011
1097	0.01
1098	0.01
1098	0.009
1099	0.008
1099	0.007
1100	0.007
1100	0.005
1100	0.004
1101	0.004
1101	0.003
1102	0.002
1102	0
1102	-0
1103	-0
1103	-0.001
1104	-0.001
1104	-0.001
1104	-0.001
1105	-0.002
1105	-0.004
1106	-0.005
1106	-0.005
1107	-0.006
1107	-0.006
1107	-0.008
1108	-0.008
1108	-0.01
1109	-0.011
1109	-0.013
1109	-0.012
1110	-0.01
1110	-0.01
1111	-0.011
1111	-0.011
