Data from reversibility-20sec_Absorbance__1494__000000000001494.txt Node

Date: Tue Dec 05 20:31:06 CET 2023
User: Marek
Spectrometer: MAYP115816
Trigger mode: 0
Integration Time (sec): 2.000000E-1
Scans to average: 10
Electric dark correction enabled: true
Nonlinearity correction enabled: true
Boxcar width: 5
XAxis mode: Wavelengths
Number of Pixels in Spectrum: 2068
>>>>>Begin Spectral Data<<<<<
199	-0.184
199	-0.154
200	-0.079
200	-0.023
201	0.005
201	0.021
202	0.036
202	0.041
203	0.049
203	0.053
204	0.066
204	0.08
205	0.092
205	0.098
205	0.097
206	0.099
206	0.101
207	0.1
207	0.103
208	0.102
208	0.102
209	0.105
209	0.103
210	0.102
210	0.102
211	0.101
211	0.104
212	0.1
212	0.106
213	0.107
213	0.109
213	0.108
214	0.111
214	0.113
215	0.118
215	0.116
216	0.116
216	0.112
217	0.115
217	0.112
218	0.112
218	0.116
219	0.121
219	0.122
220	0.124
220	0.123
221	0.123
221	0.125
221	0.13
222	0.135
222	0.139
223	0.143
223	0.142
224	0.146
224	0.151
225	0.159
225	0.169
226	0.179
226	0.19
227	0.201
227	0.211
228	0.228
228	0.244
229	0.265
229	0.289
229	0.313
230	0.339
230	0.367
231	0.4
231	0.438
232	0.473
232	0.517
233	0.562
233	0.611
234	0.661
234	0.713
235	0.768
235	0.822
236	0.875
236	0.931
236	0.983
237	1.042
237	1.093
238	1.141
238	1.192
239	1.245
239	1.289
240	1.331
240	1.37
241	1.409
241	1.446
242	1.483
242	1.519
243	1.552
243	1.581
243	1.609
244	1.63
244	1.656
245	1.676
245	1.702
246	1.726
246	1.747
247	1.761
247	1.776
248	1.797
248	1.816
249	1.828
249	1.837
250	1.847
250	1.859
250	1.869
251	1.875
251	1.876
252	1.885
252	1.887
253	1.889
253	1.887
254	1.89
254	1.895
255	1.891
255	1.893
256	1.892
256	1.89
257	1.894
257	1.892
258	1.895
258	1.894
258	1.895
259	1.896
259	1.897
260	1.9
260	1.903
261	1.904
261	1.911
262	1.915
262	1.92
263	1.925
263	1.93
264	1.936
264	1.94
265	1.944
265	1.946
265	1.949
266	1.953
266	1.955
267	1.954
267	1.956
268	1.957
268	1.959
269	1.963
269	1.965
270	1.965
270	1.968
271	1.966
271	1.966
272	1.962
272	1.962
272	1.957
273	1.947
273	1.936
274	1.926
274	1.916
275	1.908
275	1.9
276	1.892
276	1.883
277	1.875
277	1.864
278	1.851
278	1.838
278	1.823
279	1.802
279	1.775
280	1.739
280	1.698
281	1.651
281	1.6
282	1.547
282	1.496
283	1.447
283	1.399
284	1.354
284	1.312
285	1.272
285	1.237
285	1.206
286	1.179
286	1.155
287	1.135
287	1.118
288	1.103
288	1.091
289	1.08
289	1.071
290	1.064
290	1.057
291	1.052
291	1.047
292	1.043
292	1.039
292	1.035
293	1.032
293	1.029
294	1.026
294	1.024
295	1.021
295	1.019
296	1.016
296	1.014
297	1.011
297	1.009
298	1.007
298	1.004
298	1.002
299	1
299	0.997
300	0.995
300	0.993
301	0.99
301	0.988
302	0.986
302	0.984
303	0.982
303	0.98
304	0.978
304	0.976
305	0.974
305	0.972
305	0.97
306	0.968
306	0.966
307	0.964
307	0.962
308	0.959
308	0.957
309	0.954
309	0.952
310	0.949
310	0.947
311	0.944
311	0.94
311	0.937
312	0.933
312	0.93
313	0.927
313	0.923
314	0.919
314	0.915
315	0.911
315	0.907
316	0.902
316	0.897
317	0.893
317	0.888
318	0.884
318	0.878
318	0.873
319	0.868
319	0.862
320	0.856
320	0.851
321	0.845
321	0.839
322	0.832
322	0.826
323	0.819
323	0.813
324	0.807
324	0.8
324	0.793
325	0.786
325	0.779
326	0.772
326	0.765
327	0.758
327	0.752
328	0.745
328	0.738
329	0.73
329	0.723
330	0.716
330	0.709
330	0.701
331	0.694
331	0.687
332	0.68
332	0.672
333	0.665
333	0.658
334	0.651
334	0.644
335	0.637
335	0.63
336	0.624
336	0.617
336	0.61
337	0.604
337	0.597
338	0.591
338	0.584
339	0.578
339	0.572
340	0.566
340	0.56
341	0.554
341	0.549
342	0.543
342	0.537
342	0.532
343	0.526
343	0.521
344	0.516
344	0.511
345	0.506
345	0.501
346	0.497
346	0.492
347	0.488
347	0.483
348	0.479
348	0.475
348	0.471
349	0.467
349	0.463
350	0.46
350	0.456
351	0.452
351	0.449
352	0.445
352	0.442
353	0.439
353	0.436
354	0.433
354	0.43
354	0.428
355	0.425
355	0.422
356	0.419
356	0.416
357	0.413
357	0.411
358	0.408
358	0.405
359	0.403
359	0.4
360	0.398
360	0.396
360	0.394
361	0.392
361	0.39
362	0.388
362	0.386
363	0.384
363	0.383
364	0.381
364	0.379
365	0.377
365	0.375
366	0.373
366	0.371
366	0.37
367	0.368
367	0.366
368	0.364
368	0.362
369	0.361
369	0.359
370	0.358
370	0.357
371	0.355
371	0.354
372	0.352
372	0.351
372	0.35
373	0.349
373	0.347
374	0.346
374	0.345
375	0.344
375	0.343
376	0.342
376	0.341
377	0.34
377	0.339
378	0.338
378	0.337
378	0.337
379	0.336
379	0.335
380	0.334
380	0.333
381	0.332
381	0.331
382	0.331
382	0.33
383	0.33
383	0.329
383	0.328
384	0.327
384	0.327
385	0.326
385	0.326
386	0.326
386	0.325
387	0.325
387	0.324
388	0.323
388	0.323
389	0.322
389	0.322
389	0.321
390	0.321
390	0.32
391	0.32
391	0.319
392	0.319
392	0.319
393	0.318
393	0.318
394	0.317
394	0.317
394	0.316
395	0.316
395	0.315
396	0.315
396	0.314
397	0.314
397	0.313
398	0.313
398	0.312
399	0.312
399	0.311
400	0.311
400	0.311
400	0.31
401	0.31
401	0.31
402	0.31
402	0.309
403	0.309
403	0.309
404	0.308
404	0.308
405	0.308
405	0.307
405	0.307
406	0.307
406	0.306
407	0.306
407	0.305
408	0.305
408	0.305
409	0.305
409	0.304
410	0.304
410	0.303
411	0.303
411	0.303
411	0.303
412	0.302
412	0.302
413	0.301
413	0.301
414	0.301
414	0.3
415	0.3
415	0.3
416	0.299
416	0.299
416	0.298
417	0.298
417	0.298
418	0.298
418	0.297
419	0.297
419	0.296
420	0.296
420	0.295
421	0.295
421	0.295
421	0.294
422	0.294
422	0.293
423	0.293
423	0.293
424	0.292
424	0.292
425	0.292
425	0.291
426	0.291
426	0.29
427	0.29
427	0.29
427	0.29
428	0.29
428	0.289
429	0.289
429	0.288
430	0.288
430	0.288
431	0.288
431	0.287
432	0.287
432	0.287
432	0.286
433	0.286
433	0.286
434	0.285
434	0.286
435	0.285
435	0.285
436	0.285
436	0.285
437	0.284
437	0.284
437	0.284
438	0.283
438	0.283
439	0.283
439	0.283
440	0.283
440	0.282
441	0.282
441	0.282
442	0.282
442	0.282
442	0.282
443	0.281
443	0.281
444	0.281
444	0.28
445	0.28
445	0.28
446	0.28
446	0.279
447	0.279
447	0.279
447	0.279
448	0.278
448	0.278
449	0.278
449	0.278
450	0.278
450	0.277
451	0.277
451	0.277
452	0.276
452	0.276
452	0.276
453	0.276
453	0.276
454	0.275
454	0.275
455	0.274
455	0.274
456	0.274
456	0.274
457	0.273
457	0.273
458	0.273
458	0.273
458	0.272
459	0.272
459	0.272
460	0.272
460	0.272
461	0.272
461	0.272
462	0.272
462	0.271
463	0.271
463	0.271
463	0.27
464	0.27
464	0.269
465	0.269
465	0.269
466	0.268
466	0.268
467	0.268
467	0.268
467	0.268
468	0.267
468	0.267
469	0.267
469	0.268
470	0.268
470	0.267
471	0.267
471	0.267
472	0.267
472	0.267
472	0.267
473	0.267
473	0.267
474	0.267
474	0.266
475	0.266
475	0.266
476	0.266
476	0.267
477	0.267
477	0.267
477	0.267
478	0.267
478	0.267
479	0.267
479	0.267
480	0.267
480	0.268
481	0.267
481	0.267
482	0.267
482	0.268
482	0.268
483	0.268
483	0.268
484	0.268
484	0.268
485	0.268
485	0.268
486	0.268
486	0.268
487	0.269
487	0.269
487	0.269
488	0.27
488	0.27
489	0.27
489	0.271
490	0.271
490	0.272
491	0.272
491	0.273
492	0.273
492	0.273
492	0.274
493	0.274
493	0.274
494	0.275
494	0.275
495	0.276
495	0.276
496	0.276
496	0.277
496	0.278
497	0.278
497	0.278
498	0.279
498	0.279
499	0.28
499	0.28
500	0.281
500	0.281
501	0.282
501	0.282
501	0.282
502	0.283
502	0.283
503	0.283
503	0.284
504	0.284
504	0.285
505	0.285
505	0.286
506	0.286
506	0.286
506	0.286
507	0.287
507	0.288
508	0.288
508	0.289
509	0.289
509	0.29
510	0.29
510	0.291
511	0.292
511	0.293
511	0.293
512	0.294
512	0.294
513	0.295
513	0.295
514	0.296
514	0.296
515	0.297
515	0.297
515	0.297
516	0.297
516	0.298
517	0.299
517	0.299
518	0.299
518	0.3
519	0.3
519	0.3
520	0.3
520	0.3
520	0.301
521	0.301
521	0.301
522	0.301
522	0.301
523	0.301
523	0.302
524	0.302
524	0.302
524	0.302
525	0.303
525	0.303
526	0.303
526	0.303
527	0.303
527	0.303
528	0.303
528	0.303
529	0.303
529	0.303
529	0.303
530	0.302
530	0.302
531	0.302
531	0.302
532	0.302
532	0.302
533	0.301
533	0.301
533	0.301
534	0.301
534	0.301
535	0.301
535	0.301
536	0.301
536	0.301
537	0.301
537	0.301
538	0.301
538	0.3
538	0.3
539	0.3
539	0.3
540	0.299
540	0.299
541	0.298
541	0.298
542	0.297
542	0.297
542	0.297
543	0.296
543	0.296
544	0.296
544	0.295
545	0.295
545	0.295
546	0.294
546	0.294
547	0.293
547	0.293
547	0.292
548	0.292
548	0.292
549	0.291
549	0.291
550	0.29
550	0.29
551	0.289
551	0.289
551	0.288
552	0.288
552	0.287
553	0.287
553	0.286
554	0.286
554	0.285
555	0.284
555	0.284
556	0.283
556	0.283
556	0.282
557	0.282
557	0.282
558	0.282
558	0.282
559	0.282
559	0.282
560	0.282
560	0.281
560	0.281
561	0.281
561	0.281
562	0.28
562	0.279
563	0.278
563	0.277
564	0.276
564	0.276
564	0.275
565	0.275
565	0.275
566	0.274
566	0.274
567	0.274
567	0.274
568	0.274
568	0.274
568	0.274
569	0.273
569	0.273
570	0.272
570	0.271
571	0.271
571	0.271
572	0.27
572	0.269
573	0.269
573	0.268
573	0.267
574	0.267
574	0.267
575	0.267
575	0.267
576	0.266
576	0.266
577	0.265
577	0.264
577	0.264
578	0.263
578	0.263
579	0.263
579	0.263
580	0.263
580	0.261
581	0.261
581	0.26
581	0.26
582	0.261
582	0.261
583	0.261
583	0.26
584	0.259
584	0.258
585	0.258
585	0.258
585	0.257
586	0.257
586	0.256
587	0.255
587	0.254
588	0.253
588	0.252
589	0.252
589	0.252
590	0.252
590	0.252
590	0.252
591	0.253
591	0.252
592	0.252
592	0.251
593	0.251
593	0.251
594	0.25
594	0.25
594	0.249
595	0.249
595	0.248
596	0.247
596	0.247
597	0.248
597	0.248
598	0.248
598	0.247
598	0.247
599	0.247
599	0.247
600	0.246
600	0.245
601	0.245
601	0.245
602	0.244
602	0.243
602	0.243
603	0.243
603	0.243
604	0.243
604	0.243
605	0.243
605	0.243
606	0.242
606	0.241
606	0.241
607	0.241
607	0.24
608	0.24
608	0.239
609	0.238
609	0.238
610	0.238
610	0.237
610	0.237
611	0.237
611	0.237
612	0.237
612	0.237
613	0.237
613	0.237
614	0.237
614	0.236
614	0.236
615	0.236
615	0.236
616	0.236
616	0.235
617	0.235
617	0.235
618	0.234
618	0.234
618	0.234
619	0.234
619	0.234
620	0.235
620	0.234
621	0.233
621	0.233
622	0.233
622	0.232
622	0.232
623	0.231
623	0.231
624	0.231
624	0.23
625	0.23
625	0.23
626	0.23
626	0.23
626	0.23
627	0.23
627	0.229
628	0.229
628	0.229
629	0.229
629	0.228
630	0.228
630	0.227
630	0.227
631	0.227
631	0.227
632	0.226
632	0.226
633	0.226
633	0.226
634	0.227
634	0.227
634	0.227
635	0.227
635	0.226
636	0.226
636	0.226
637	0.226
637	0.226
638	0.225
638	0.225
638	0.225
639	0.224
639	0.224
640	0.224
640	0.224
641	0.224
641	0.224
642	0.224
642	0.224
642	0.224
643	0.224
643	0.224
644	0.223
644	0.223
645	0.223
645	0.223
646	0.223
646	0.223
646	0.223
647	0.223
647	0.222
648	0.222
648	0.222
649	0.222
649	0.222
650	0.222
650	0.222
650	0.222
651	0.221
651	0.221
652	0.221
652	0.221
653	0.222
653	0.224
653	0.231
654	0.18
654	0.143
655	0.144
655	0.145
656	0.145
656	0.146
657	0.146
657	0.146
657	0.146
658	0.144
658	0.132
659	0.167
659	0.217
660	0.221
660	0.22
661	0.22
661	0.219
661	0.219
662	0.219
662	0.218
663	0.218
663	0.218
664	0.218
664	0.218
665	0.218
665	0.217
665	0.218
666	0.218
666	0.218
667	0.218
667	0.218
668	0.218
668	0.218
669	0.218
669	0.219
669	0.219
670	0.219
670	0.219
671	0.219
671	0.219
672	0.219
672	0.219
672	0.218
673	0.218
673	0.218
674	0.218
674	0.217
675	0.217
675	0.217
676	0.217
676	0.218
676	0.217
677	0.218
677	0.218
678	0.218
678	0.217
679	0.217
679	0.217
680	0.218
680	0.217
680	0.217
681	0.217
681	0.218
682	0.218
682	0.219
683	0.22
683	0.221
684	0.221
684	0.221
684	0.221
685	0.222
685	0.222
686	0.222
686	0.222
687	0.222
687	0.222
687	0.221
688	0.221
688	0.221
689	0.222
689	0.222
690	0.222
690	0.221
691	0.221
691	0.222
691	0.222
692	0.222
692	0.223
693	0.223
693	0.224
694	0.224
694	0.224
695	0.225
695	0.226
695	0.226
696	0.226
696	0.226
697	0.226
697	0.226
698	0.225
698	0.225
698	0.225
699	0.225
699	0.225
700	0.224
700	0.224
701	0.224
701	0.224
702	0.224
702	0.225
702	0.225
703	0.225
703	0.224
704	0.224
704	0.224
705	0.224
705	0.224
705	0.224
706	0.224
706	0.224
707	0.224
707	0.225
708	0.225
708	0.225
709	0.225
709	0.225
709	0.224
710	0.224
710	0.225
711	0.225
711	0.225
712	0.225
712	0.225
713	0.225
713	0.226
713	0.226
714	0.226
714	0.227
715	0.227
715	0.227
716	0.227
716	0.227
716	0.226
717	0.226
717	0.226
718	0.225
718	0.225
719	0.226
719	0.226
720	0.227
720	0.227
720	0.228
721	0.228
721	0.229
722	0.23
722	0.23
723	0.231
723	0.231
723	0.231
724	0.231
724	0.231
725	0.23
725	0.23
726	0.229
726	0.228
727	0.228
727	0.227
727	0.227
728	0.227
728	0.227
729	0.227
729	0.227
730	0.227
730	0.228
730	0.228
731	0.229
731	0.229
732	0.229
732	0.229
733	0.229
733	0.229
734	0.229
734	0.229
734	0.229
735	0.229
735	0.229
736	0.229
736	0.229
737	0.229
737	0.23
737	0.23
738	0.23
738	0.229
739	0.229
739	0.229
740	0.228
740	0.228
741	0.228
741	0.228
741	0.228
742	0.228
742	0.228
743	0.229
743	0.229
744	0.23
744	0.231
744	0.231
745	0.231
745	0.232
746	0.232
746	0.233
747	0.233
747	0.233
748	0.234
748	0.234
748	0.234
749	0.234
749	0.234
750	0.233
750	0.233
751	0.233
751	0.233
751	0.233
752	0.232
752	0.232
753	0.231
753	0.231
754	0.232
754	0.231
754	0.232
755	0.232
755	0.232
756	0.232
756	0.231
757	0.23
757	0.23
758	0.23
758	0.229
758	0.229
759	0.229
759	0.229
760	0.229
760	0.229
761	0.229
761	0.23
761	0.231
762	0.231
762	0.232
763	0.233
763	0.233
764	0.233
764	0.233
764	0.233
765	0.232
765	0.232
766	0.232
766	0.231
767	0.231
767	0.229
768	0.228
768	0.228
768	0.228
769	0.227
769	0.227
770	0.227
770	0.228
771	0.228
771	0.228
771	0.228
772	0.229
772	0.23
773	0.23
773	0.231
774	0.231
774	0.232
775	0.232
775	0.233
775	0.233
776	0.233
776	0.233
777	0.233
777	0.233
778	0.232
778	0.231
778	0.231
779	0.231
779	0.231
780	0.23
780	0.23
781	0.229
781	0.229
781	0.229
782	0.229
782	0.23
783	0.23
783	0.231
784	0.231
784	0.231
784	0.231
785	0.231
785	0.231
786	0.231
786	0.231
787	0.232
787	0.232
788	0.231
788	0.231
788	0.231
789	0.231
789	0.232
790	0.232
790	0.232
791	0.232
791	0.232
791	0.232
792	0.233
792	0.233
793	0.233
793	0.233
794	0.233
794	0.232
794	0.232
795	0.232
795	0.232
796	0.232
796	0.232
797	0.231
797	0.231
797	0.232
798	0.232
798	0.232
799	0.232
799	0.232
800	0.232
800	0.231
801	0.232
801	0.232
801	0.232
802	0.233
802	0.233
803	0.234
803	0.234
804	0.235
804	0.235
804	0.236
805	0.236
805	0.235
806	0.235
806	0.235
807	0.235
807	0.234
807	0.234
808	0.234
808	0.234
809	0.233
809	0.234
810	0.234
810	0.234
810	0.234
811	0.234
811	0.235
812	0.235
812	0.236
813	0.236
813	0.236
813	0.236
814	0.237
814	0.238
815	0.238
815	0.239
816	0.239
816	0.239
817	0.239
817	0.239
817	0.239
818	0.239
818	0.239
819	0.238
819	0.238
820	0.237
820	0.236
820	0.236
821	0.235
821	0.235
822	0.235
822	0.235
823	0.235
823	0.234
823	0.235
824	0.236
824	0.236
825	0.237
825	0.238
826	0.239
826	0.239
826	0.239
827	0.239
827	0.239
828	0.239
828	0.239
829	0.238
829	0.238
829	0.238
830	0.237
830	0.237
831	0.238
831	0.238
832	0.238
832	0.238
832	0.238
833	0.238
833	0.238
834	0.237
834	0.237
835	0.237
835	0.237
835	0.237
836	0.237
836	0.238
837	0.238
837	0.238
838	0.238
838	0.238
839	0.238
839	0.237
839	0.236
840	0.236
840	0.235
841	0.234
841	0.233
842	0.233
842	0.232
842	0.232
843	0.231
843	0.231
844	0.231
844	0.231
845	0.231
845	0.231
845	0.231
846	0.231
846	0.231
847	0.231
847	0.231
848	0.232
848	0.232
848	0.233
849	0.233
849	0.234
850	0.234
850	0.234
851	0.234
851	0.235
851	0.234
852	0.234
852	0.233
853	0.233
853	0.232
854	0.231
854	0.231
854	0.231
855	0.231
855	0.231
856	0.231
856	0.231
857	0.231
857	0.232
857	0.232
858	0.232
858	0.231
859	0.23
859	0.229
860	0.228
860	0.227
860	0.225
861	0.224
861	0.223
862	0.222
862	0.221
863	0.22
863	0.22
863	0.22
864	0.219
864	0.219
865	0.22
865	0.22
866	0.22
866	0.22
866	0.221
867	0.221
867	0.222
868	0.222
868	0.222
869	0.222
869	0.223
869	0.222
870	0.222
870	0.222
871	0.222
871	0.223
872	0.223
872	0.223
872	0.223
873	0.223
873	0.223
874	0.222
874	0.222
875	0.222
875	0.222
875	0.222
876	0.222
876	0.222
877	0.222
877	0.222
878	0.223
878	0.223
878	0.224
879	0.225
879	0.225
880	0.225
880	0.225
881	0.225
881	0.224
881	0.223
882	0.222
882	0.221
883	0.22
883	0.219
884	0.217
884	0.216
884	0.215
885	0.215
885	0.214
886	0.213
886	0.212
887	0.212
887	0.211
887	0.211
888	0.21
888	0.21
889	0.209
889	0.209
890	0.209
890	0.209
890	0.209
891	0.209
891	0.209
892	0.21
892	0.21
893	0.211
893	0.211
893	0.212
894	0.212
894	0.212
895	0.212
895	0.212
895	0.212
896	0.212
896	0.211
897	0.21
897	0.209
898	0.209
898	0.208
898	0.207
899	0.207
899	0.206
900	0.206
900	0.205
901	0.205
901	0.204
901	0.204
902	0.204
902	0.204
903	0.204
903	0.204
904	0.203
904	0.203
904	0.203
905	0.202
905	0.202
906	0.202
906	0.202
907	0.202
907	0.202
907	0.202
908	0.203
908	0.203
909	0.203
909	0.204
910	0.204
910	0.204
910	0.204
911	0.204
911	0.203
912	0.203
912	0.202
913	0.201
913	0.201
913	0.2
914	0.2
914	0.199
915	0.198
915	0.198
916	0.197
916	0.197
916	0.196
917	0.195
917	0.195
918	0.194
918	0.193
918	0.192
919	0.192
919	0.191
920	0.191
920	0.19
921	0.19
921	0.19
921	0.19
922	0.189
922	0.189
923	0.189
923	0.189
924	0.19
924	0.19
924	0.189
925	0.189
925	0.189
926	0.189
926	0.188
927	0.188
927	0.187
927	0.186
928	0.186
928	0.185
929	0.185
929	0.184
930	0.183
930	0.183
930	0.182
931	0.182
931	0.181
932	0.181
932	0.181
933	0.181
933	0.18
933	0.18
934	0.18
934	0.179
935	0.179
935	0.179
935	0.178
936	0.178
936	0.178
937	0.177
937	0.177
938	0.177
938	0.176
938	0.176
939	0.176
939	0.175
940	0.175
940	0.175
941	0.175
941	0.175
941	0.175
942	0.175
942	0.175
943	0.174
943	0.174
944	0.174
944	0.173
944	0.173
945	0.173
945	0.173
946	0.173
946	0.172
946	0.172
947	0.173
947	0.173
948	0.173
948	0.173
949	0.173
949	0.172
949	0.172
950	0.172
950	0.172
951	0.172
951	0.171
952	0.17
952	0.169
952	0.169
953	0.168
953	0.167
954	0.167
954	0.166
955	0.165
955	0.165
955	0.164
956	0.164
956	0.164
957	0.165
957	0.165
957	0.165
958	0.165
958	0.165
959	0.165
959	0.165
960	0.164
960	0.164
960	0.164
961	0.163
961	0.162
962	0.162
962	0.161
963	0.161
963	0.161
963	0.16
964	0.16
964	0.16
965	0.159
965	0.159
966	0.159
966	0.159
966	0.159
967	0.159
967	0.159
968	0.159
968	0.159
968	0.158
969	0.158
969	0.158
970	0.157
970	0.157
971	0.157
971	0.156
971	0.156
972	0.156
972	0.156
973	0.156
973	0.156
974	0.156
974	0.156
974	0.156
975	0.156
975	0.156
976	0.157
976	0.157
976	0.157
977	0.156
977	0.156
978	0.156
978	0.155
979	0.155
979	0.155
979	0.155
980	0.154
980	0.153
981	0.153
981	0.152
982	0.151
982	0.151
982	0.15
983	0.15
983	0.149
984	0.148
984	0.147
984	0.146
985	0.145
985	0.144
986	0.143
986	0.142
987	0.141
987	0.14
987	0.139
988	0.138
988	0.136
989	0.135
989	0.135
990	0.134
990	0.133
990	0.132
991	0.132
991	0.131
992	0.131
992	0.131
992	0.13
993	0.13
993	0.13
994	0.13
994	0.13
995	0.13
995	0.13
995	0.129
996	0.129
996	0.129
997	0.129
997	0.13
997	0.13
998	0.13
998	0.131
999	0.132
999	0.132
1000	0.133
1000	0.134
1000	0.135
1001	0.136
1001	0.136
1002	0.137
1002	0.137
1003	0.137
1003	0.137
1003	0.137
1004	0.136
1004	0.136
1005	0.135
1005	0.135
1005	0.134
1006	0.134
1006	0.134
1007	0.133
1007	0.133
1008	0.132
1008	0.132
1008	0.132
1009	0.132
1009	0.131
1010	0.131
1010	0.131
1010	0.13
1011	0.13
1011	0.129
1012	0.129
1012	0.129
1013	0.128
1013	0.128
1013	0.128
1014	0.127
1014	0.127
1015	0.126
1015	0.126
1016	0.126
1016	0.125
1016	0.124
1017	0.124
1017	0.123
1018	0.123
1018	0.122
1018	0.121
1019	0.121
1019	0.12
1020	0.12
1020	0.119
1021	0.119
1021	0.119
1021	0.119
1022	0.119
1022	0.118
1023	0.118
1023	0.118
1023	0.118
1024	0.118
1024	0.118
1025	0.118
1025	0.118
1026	0.117
1026	0.117
1026	0.117
1027	0.116
1027	0.116
1028	0.116
1028	0.115
1028	0.115
1029	0.115
1029	0.115
1030	0.115
1030	0.115
1031	0.115
1031	0.115
1031	0.114
1032	0.114
1032	0.115
1033	0.115
1033	0.115
1033	0.114
1034	0.114
1034	0.113
1035	0.113
1035	0.113
1036	0.112
1036	0.112
1036	0.112
1037	0.111
1037	0.111
1038	0.111
1038	0.11
1039	0.11
1039	0.11
1039	0.11
1040	0.11
1040	0.11
1041	0.109
1041	0.109
1041	0.109
1042	0.109
1042	0.109
1043	0.109
1043	0.109
1044	0.109
1044	0.109
1044	0.109
1045	0.109
1045	0.109
1046	0.109
1046	0.11
1046	0.11
1047	0.111
1047	0.111
1048	0.112
1048	0.112
1049	0.112
1049	0.112
1049	0.112
1050	0.112
1050	0.112
1051	0.111
1051	0.111
1051	0.11
1052	0.109
1052	0.109
1053	0.107
1053	0.107
1053	0.106
1054	0.105
1054	0.105
1055	0.104
1055	0.104
1056	0.103
1056	0.103
1056	0.103
1057	0.102
1057	0.101
1058	0.101
1058	0.1
1058	0.099
1059	0.098
1059	0.098
1060	0.097
1060	0.096
1061	0.095
1061	0.095
1061	0.094
1062	0.094
1062	0.093
1063	0.093
1063	0.093
1063	0.092
1064	0.091
1064	0.091
1065	0.091
1065	0.09
1066	0.09
1066	0.09
1066	0.09
1067	0.09
1067	0.09
1068	0.09
1068	0.089
1068	0.089
1069	0.089
1069	0.088
1070	0.087
1070	0.087
1071	0.086
1071	0.085
1071	0.084
1072	0.084
1072	0.083
1073	0.082
1073	0.082
1073	0.081
1074	0.081
1074	0.081
1075	0.081
1075	0.082
1076	0.082
1076	0.082
1076	0.082
1077	0.083
1077	0.083
1078	0.083
1078	0.083
1078	0.083
1079	0.083
1079	0.083
1080	0.083
1080	0.083
1080	0.082
1081	0.083
1081	0.083
1082	0.083
1082	0.084
1083	0.083
1083	0.083
1083	0.083
1084	0.083
1084	0.083
1085	0.082
1085	0.083
1085	0.082
1086	0.082
1086	0.081
1087	0.08
1087	0.08
1088	0.08
1088	0.079
1088	0.079
1089	0.078
1089	0.077
1090	0.076
1090	0.076
1090	0.074
1091	0.074
1091	0.074
1092	0.074
1092	0.074
1092	0.074
1093	0.073
1093	0.074
1094	0.074
1094	0.073
1095	0.073
1095	0.072
1095	0.072
1096	0.071
1096	0.071
1097	0.07
1097	0.07
1097	0.069
1098	0.068
1098	0.067
1099	0.066
1099	0.064
1100	0.063
1100	0.062
1100	0.061
1101	0.06
1101	0.058
1102	0.056
1102	0.055
1102	0.053
1103	0.052
1103	0.052
1104	0.052
1104	0.051
1104	0.05
1105	0.048
1105	0.046
1106	0.045
1106	0.044
1107	0.043
1107	0.041
1107	0.041
1108	0.04
1108	0.039
1109	0.038
1109	0.037
1109	0.038
1110	0.042
1110	0.04
1111	0.041
1111	0.041
