Data from reversibility-20sec_Absorbance__7236__000000000007236.txt Node

Date: Thu Dec 07 04:25:05 CET 2023
User: Marek
Spectrometer: MAYP115816
Trigger mode: 0
Integration Time (sec): 2.000000E-1
Scans to average: 10
Electric dark correction enabled: true
Nonlinearity correction enabled: true
Boxcar width: 5
XAxis mode: Wavelengths
Number of Pixels in Spectrum: 2068
>>>>>Begin Spectral Data<<<<<
199	-0.098
199	-0.071
200	-0.01
200	0.045
201	0.075
201	0.091
202	0.102
202	0.111
203	0.118
203	0.12
204	0.131
204	0.144
205	0.157
205	0.161
205	0.157
206	0.155
206	0.156
207	0.154
207	0.153
208	0.151
208	0.152
209	0.157
209	0.157
210	0.158
210	0.157
211	0.159
211	0.162
212	0.161
212	0.164
213	0.17
213	0.174
213	0.174
214	0.173
214	0.172
215	0.172
215	0.175
216	0.175
216	0.173
217	0.173
217	0.176
218	0.172
218	0.172
219	0.175
219	0.177
220	0.179
220	0.18
221	0.181
221	0.187
221	0.192
222	0.199
222	0.201
223	0.208
223	0.215
224	0.222
224	0.229
225	0.242
225	0.252
226	0.261
226	0.27
227	0.279
227	0.288
228	0.303
228	0.317
229	0.331
229	0.354
229	0.374
230	0.395
230	0.426
231	0.458
231	0.495
232	0.531
232	0.576
233	0.621
233	0.666
234	0.719
234	0.77
235	0.825
235	0.879
236	0.927
236	0.979
236	1.031
237	1.084
237	1.13
238	1.174
238	1.223
239	1.268
239	1.309
240	1.348
240	1.387
241	1.422
241	1.453
242	1.483
242	1.517
243	1.546
243	1.575
243	1.6
244	1.619
244	1.639
245	1.658
245	1.676
246	1.695
246	1.714
247	1.725
247	1.736
248	1.75
248	1.761
249	1.769
249	1.777
250	1.784
250	1.792
250	1.795
251	1.797
251	1.798
252	1.804
252	1.803
253	1.802
253	1.799
254	1.797
254	1.797
255	1.794
255	1.793
256	1.793
256	1.792
257	1.791
257	1.788
258	1.788
258	1.79
258	1.791
259	1.79
259	1.788
260	1.788
260	1.789
261	1.789
261	1.791
262	1.794
262	1.796
263	1.8
263	1.8
264	1.8
264	1.802
265	1.804
265	1.806
265	1.806
266	1.807
266	1.808
267	1.807
267	1.807
268	1.806
268	1.806
269	1.807
269	1.805
270	1.804
270	1.802
271	1.8
271	1.798
272	1.793
272	1.79
272	1.786
273	1.778
273	1.772
274	1.766
274	1.761
275	1.753
275	1.746
276	1.738
276	1.73
277	1.723
277	1.713
278	1.703
278	1.691
278	1.676
279	1.659
279	1.636
280	1.608
280	1.575
281	1.536
281	1.492
282	1.447
282	1.4
283	1.355
283	1.311
284	1.269
284	1.229
285	1.191
285	1.158
285	1.127
286	1.101
286	1.078
287	1.058
287	1.042
288	1.028
288	1.016
289	1.005
289	0.996
290	0.989
290	0.982
291	0.977
291	0.972
292	0.967
292	0.962
292	0.959
293	0.955
293	0.951
294	0.948
294	0.945
295	0.942
295	0.939
296	0.936
296	0.933
297	0.931
297	0.928
298	0.925
298	0.922
298	0.919
299	0.916
299	0.914
300	0.911
300	0.908
301	0.905
301	0.902
302	0.9
302	0.898
303	0.895
303	0.893
304	0.891
304	0.888
305	0.886
305	0.884
305	0.882
306	0.88
306	0.877
307	0.875
307	0.872
308	0.87
308	0.868
309	0.865
309	0.862
310	0.859
310	0.857
311	0.854
311	0.851
311	0.848
312	0.844
312	0.841
313	0.837
313	0.833
314	0.83
314	0.826
315	0.822
315	0.817
316	0.813
316	0.809
317	0.804
317	0.799
318	0.794
318	0.789
318	0.784
319	0.778
319	0.773
320	0.767
320	0.761
321	0.755
321	0.749
322	0.743
322	0.737
323	0.73
323	0.724
324	0.717
324	0.71
324	0.704
325	0.697
325	0.69
326	0.683
326	0.676
327	0.669
327	0.662
328	0.655
328	0.648
329	0.641
329	0.634
330	0.626
330	0.619
330	0.612
331	0.605
331	0.598
332	0.591
332	0.583
333	0.576
333	0.569
334	0.562
334	0.555
335	0.549
335	0.542
336	0.535
336	0.528
336	0.521
337	0.515
337	0.509
338	0.502
338	0.496
339	0.49
339	0.484
340	0.478
340	0.473
341	0.467
341	0.462
342	0.456
342	0.451
342	0.445
343	0.44
343	0.435
344	0.429
344	0.424
345	0.419
345	0.415
346	0.41
346	0.405
347	0.401
347	0.397
348	0.393
348	0.389
348	0.385
349	0.381
349	0.377
350	0.374
350	0.37
351	0.367
351	0.364
352	0.36
352	0.357
353	0.355
353	0.352
354	0.349
354	0.346
354	0.343
355	0.341
355	0.338
356	0.335
356	0.332
357	0.329
357	0.327
358	0.324
358	0.321
359	0.319
359	0.317
360	0.315
360	0.313
360	0.311
361	0.309
361	0.307
362	0.306
362	0.304
363	0.302
363	0.301
364	0.299
364	0.297
365	0.295
365	0.293
366	0.292
366	0.29
366	0.288
367	0.287
367	0.285
368	0.283
368	0.282
369	0.281
369	0.279
370	0.278
370	0.277
371	0.275
371	0.274
372	0.273
372	0.272
372	0.271
373	0.27
373	0.269
374	0.268
374	0.267
375	0.267
375	0.266
376	0.265
376	0.264
377	0.263
377	0.262
378	0.261
378	0.261
378	0.26
379	0.259
379	0.258
380	0.258
380	0.257
381	0.256
381	0.256
382	0.255
382	0.255
383	0.254
383	0.254
383	0.253
384	0.253
384	0.252
385	0.252
385	0.252
386	0.251
386	0.251
387	0.25
387	0.25
388	0.25
388	0.25
389	0.25
389	0.25
389	0.249
390	0.249
390	0.248
391	0.248
391	0.248
392	0.247
392	0.247
393	0.247
393	0.246
394	0.246
394	0.246
394	0.245
395	0.245
395	0.245
396	0.244
396	0.244
397	0.244
397	0.243
398	0.243
398	0.243
399	0.243
399	0.242
400	0.242
400	0.242
400	0.242
401	0.241
401	0.241
402	0.241
402	0.241
403	0.241
403	0.241
404	0.24
404	0.24
405	0.24
405	0.24
405	0.24
406	0.24
406	0.239
407	0.239
407	0.239
408	0.238
408	0.238
409	0.238
409	0.238
410	0.238
410	0.237
411	0.237
411	0.237
411	0.236
412	0.236
412	0.236
413	0.236
413	0.235
414	0.235
414	0.234
415	0.234
415	0.234
416	0.233
416	0.233
416	0.233
417	0.232
417	0.232
418	0.232
418	0.232
419	0.231
419	0.231
420	0.231
420	0.23
421	0.23
421	0.229
421	0.229
422	0.229
422	0.228
423	0.228
423	0.228
424	0.227
424	0.227
425	0.227
425	0.226
426	0.226
426	0.226
427	0.226
427	0.225
427	0.225
428	0.225
428	0.224
429	0.224
429	0.224
430	0.223
430	0.223
431	0.223
431	0.223
432	0.223
432	0.222
432	0.222
433	0.222
433	0.221
434	0.221
434	0.221
435	0.221
435	0.221
436	0.221
436	0.22
437	0.22
437	0.22
437	0.22
438	0.219
438	0.219
439	0.219
439	0.219
440	0.218
440	0.218
441	0.217
441	0.217
442	0.217
442	0.217
442	0.216
443	0.216
443	0.216
444	0.216
444	0.216
445	0.216
445	0.215
446	0.215
446	0.215
447	0.215
447	0.215
447	0.215
448	0.215
448	0.215
449	0.214
449	0.214
450	0.214
450	0.214
451	0.214
451	0.213
452	0.213
452	0.213
452	0.213
453	0.213
453	0.212
454	0.212
454	0.211
455	0.211
455	0.211
456	0.21
456	0.21
457	0.21
457	0.209
458	0.209
458	0.209
458	0.208
459	0.208
459	0.208
460	0.208
460	0.208
461	0.208
461	0.208
462	0.207
462	0.207
463	0.207
463	0.207
463	0.207
464	0.206
464	0.205
465	0.205
465	0.205
466	0.205
466	0.204
467	0.204
467	0.204
467	0.204
468	0.204
468	0.204
469	0.204
469	0.205
470	0.205
470	0.205
471	0.205
471	0.204
472	0.204
472	0.204
472	0.204
473	0.204
473	0.204
474	0.203
474	0.203
475	0.203
475	0.203
476	0.203
476	0.202
477	0.202
477	0.202
477	0.202
478	0.202
478	0.202
479	0.202
479	0.202
480	0.202
480	0.202
481	0.203
481	0.203
482	0.203
482	0.203
482	0.203
483	0.203
483	0.203
484	0.203
484	0.203
485	0.202
485	0.202
486	0.202
486	0.202
487	0.202
487	0.202
487	0.202
488	0.202
488	0.202
489	0.201
489	0.202
490	0.202
490	0.203
491	0.203
491	0.203
492	0.204
492	0.204
492	0.205
493	0.205
493	0.205
494	0.206
494	0.206
495	0.206
495	0.206
496	0.206
496	0.206
496	0.207
497	0.207
497	0.207
498	0.207
498	0.208
499	0.208
499	0.208
500	0.209
500	0.209
501	0.21
501	0.21
501	0.21
502	0.21
502	0.21
503	0.21
503	0.211
504	0.211
504	0.211
505	0.212
505	0.212
506	0.212
506	0.213
506	0.213
507	0.213
507	0.214
508	0.214
508	0.214
509	0.214
509	0.214
510	0.215
510	0.215
511	0.215
511	0.216
511	0.216
512	0.216
512	0.217
513	0.217
513	0.217
514	0.218
514	0.218
515	0.219
515	0.219
515	0.219
516	0.22
516	0.22
517	0.221
517	0.221
518	0.221
518	0.221
519	0.222
519	0.222
520	0.222
520	0.222
520	0.222
521	0.222
521	0.222
522	0.223
522	0.223
523	0.223
523	0.223
524	0.223
524	0.224
524	0.224
525	0.224
525	0.224
526	0.224
526	0.225
527	0.225
527	0.225
528	0.225
528	0.225
529	0.225
529	0.225
529	0.225
530	0.225
530	0.225
531	0.225
531	0.225
532	0.225
532	0.225
533	0.225
533	0.225
533	0.225
534	0.225
534	0.225
535	0.225
535	0.225
536	0.225
536	0.225
537	0.225
537	0.225
538	0.225
538	0.224
538	0.224
539	0.224
539	0.225
540	0.225
540	0.225
541	0.224
541	0.224
542	0.225
542	0.225
542	0.225
543	0.225
543	0.225
544	0.225
544	0.225
545	0.225
545	0.224
546	0.224
546	0.224
547	0.223
547	0.223
547	0.223
548	0.223
548	0.223
549	0.222
549	0.222
550	0.222
550	0.222
551	0.222
551	0.221
551	0.221
552	0.221
552	0.221
553	0.221
553	0.22
554	0.22
554	0.22
555	0.219
555	0.218
556	0.218
556	0.218
556	0.218
557	0.218
557	0.218
558	0.218
558	0.218
559	0.219
559	0.219
560	0.219
560	0.219
560	0.219
561	0.219
561	0.219
562	0.218
562	0.217
563	0.216
563	0.216
564	0.215
564	0.214
564	0.214
565	0.214
565	0.214
566	0.213
566	0.213
567	0.213
567	0.213
568	0.213
568	0.213
568	0.213
569	0.213
569	0.212
570	0.211
570	0.211
571	0.21
571	0.21
572	0.209
572	0.209
573	0.209
573	0.209
573	0.208
574	0.208
574	0.208
575	0.208
575	0.208
576	0.208
576	0.207
577	0.207
577	0.206
577	0.206
578	0.206
578	0.205
579	0.205
579	0.206
580	0.206
580	0.205
581	0.204
581	0.204
581	0.205
582	0.205
582	0.205
583	0.205
583	0.204
584	0.204
584	0.202
585	0.202
585	0.202
585	0.202
586	0.202
586	0.202
587	0.201
587	0.201
588	0.201
588	0.2
589	0.2
589	0.2
590	0.2
590	0.2
590	0.2
591	0.2
591	0.2
592	0.199
592	0.199
593	0.198
593	0.198
594	0.198
594	0.197
594	0.197
595	0.197
595	0.196
596	0.196
596	0.196
597	0.197
597	0.197
598	0.197
598	0.197
598	0.197
599	0.197
599	0.196
600	0.196
600	0.196
601	0.195
601	0.195
602	0.195
602	0.194
602	0.194
603	0.194
603	0.194
604	0.194
604	0.194
605	0.194
605	0.194
606	0.193
606	0.193
606	0.192
607	0.192
607	0.192
608	0.191
608	0.191
609	0.19
609	0.19
610	0.189
610	0.189
610	0.189
611	0.189
611	0.189
612	0.189
612	0.19
613	0.19
613	0.19
614	0.19
614	0.19
614	0.19
615	0.19
615	0.19
616	0.19
616	0.19
617	0.19
617	0.19
618	0.19
618	0.19
618	0.19
619	0.19
619	0.19
620	0.19
620	0.19
621	0.189
621	0.189
622	0.188
622	0.188
622	0.187
623	0.187
623	0.187
624	0.187
624	0.186
625	0.186
625	0.186
626	0.186
626	0.186
626	0.186
627	0.186
627	0.186
628	0.186
628	0.186
629	0.186
629	0.186
630	0.186
630	0.186
630	0.186
631	0.186
631	0.185
632	0.185
632	0.185
633	0.185
633	0.184
634	0.185
634	0.185
634	0.185
635	0.184
635	0.184
636	0.184
636	0.184
637	0.184
637	0.184
638	0.184
638	0.183
638	0.183
639	0.182
639	0.182
640	0.182
640	0.181
641	0.181
641	0.181
642	0.181
642	0.181
642	0.181
643	0.181
643	0.182
644	0.182
644	0.182
645	0.183
645	0.183
646	0.183
646	0.183
646	0.183
647	0.183
647	0.183
648	0.182
648	0.182
649	0.181
649	0.181
650	0.181
650	0.181
650	0.181
651	0.181
651	0.181
652	0.181
652	0.181
653	0.182
653	0.183
653	0.188
654	0.148
654	0.119
655	0.119
655	0.119
656	0.12
656	0.12
657	0.12
657	0.121
657	0.121
658	0.12
658	0.11
659	0.139
659	0.178
660	0.183
660	0.183
661	0.182
661	0.182
661	0.181
662	0.181
662	0.18
663	0.18
663	0.179
664	0.179
664	0.179
665	0.179
665	0.179
665	0.179
666	0.179
666	0.179
667	0.179
667	0.179
668	0.18
668	0.18
669	0.18
669	0.18
669	0.181
670	0.181
670	0.181
671	0.181
671	0.181
672	0.181
672	0.18
672	0.18
673	0.179
673	0.179
674	0.179
674	0.179
675	0.178
675	0.178
676	0.179
676	0.179
676	0.179
677	0.18
677	0.18
678	0.18
678	0.18
679	0.179
679	0.179
680	0.179
680	0.179
680	0.179
681	0.179
681	0.179
682	0.179
682	0.18
683	0.18
683	0.18
684	0.181
684	0.181
684	0.181
685	0.181
685	0.181
686	0.181
686	0.181
687	0.18
687	0.18
687	0.181
688	0.18
688	0.181
689	0.181
689	0.181
690	0.181
690	0.181
691	0.181
691	0.181
691	0.181
692	0.181
692	0.181
693	0.181
693	0.182
694	0.181
694	0.181
695	0.182
695	0.183
695	0.184
696	0.184
696	0.184
697	0.185
697	0.185
698	0.184
698	0.184
698	0.184
699	0.184
699	0.184
700	0.183
700	0.184
701	0.184
701	0.183
702	0.183
702	0.183
702	0.182
703	0.182
703	0.182
704	0.181
704	0.181
705	0.181
705	0.181
705	0.18
706	0.18
706	0.18
707	0.18
707	0.18
708	0.18
708	0.18
709	0.18
709	0.18
709	0.18
710	0.18
710	0.18
711	0.18
711	0.181
712	0.181
712	0.181
713	0.182
713	0.182
713	0.183
714	0.183
714	0.183
715	0.183
715	0.183
716	0.182
716	0.182
716	0.181
717	0.181
717	0.18
718	0.18
718	0.18
719	0.18
719	0.181
720	0.181
720	0.182
720	0.183
721	0.184
721	0.185
722	0.186
722	0.187
723	0.187
723	0.187
723	0.187
724	0.187
724	0.186
725	0.185
725	0.184
726	0.183
726	0.183
727	0.182
727	0.181
727	0.181
728	0.181
728	0.181
729	0.181
729	0.181
730	0.181
730	0.182
730	0.182
731	0.183
731	0.183
732	0.184
732	0.184
733	0.185
733	0.185
734	0.186
734	0.186
734	0.186
735	0.187
735	0.187
736	0.187
736	0.187
737	0.187
737	0.187
737	0.186
738	0.186
738	0.185
739	0.185
739	0.184
740	0.184
740	0.184
741	0.185
741	0.185
741	0.185
742	0.185
742	0.186
743	0.187
743	0.188
744	0.189
744	0.189
744	0.189
745	0.189
745	0.189
746	0.189
746	0.189
747	0.189
747	0.189
748	0.188
748	0.188
748	0.188
749	0.188
749	0.188
750	0.189
750	0.189
751	0.189
751	0.19
751	0.19
752	0.19
752	0.19
753	0.19
753	0.19
754	0.19
754	0.189
754	0.189
755	0.189
755	0.189
756	0.188
756	0.187
757	0.187
757	0.187
758	0.187
758	0.187
758	0.187
759	0.188
759	0.187
760	0.187
760	0.187
761	0.187
761	0.188
761	0.188
762	0.188
762	0.188
763	0.189
763	0.188
764	0.188
764	0.189
764	0.189
765	0.189
765	0.189
766	0.189
766	0.189
767	0.189
767	0.188
768	0.188
768	0.188
768	0.188
769	0.188
769	0.188
770	0.189
770	0.189
771	0.19
771	0.19
771	0.191
772	0.191
772	0.192
773	0.192
773	0.193
774	0.193
774	0.193
775	0.194
775	0.194
775	0.194
776	0.195
776	0.195
777	0.196
777	0.196
778	0.197
778	0.197
778	0.197
779	0.197
779	0.196
780	0.195
780	0.194
781	0.194
781	0.193
781	0.192
782	0.192
782	0.191
783	0.192
783	0.192
784	0.192
784	0.192
784	0.193
785	0.193
785	0.194
786	0.194
786	0.195
787	0.195
787	0.195
788	0.195
788	0.195
788	0.195
789	0.195
789	0.195
790	0.195
790	0.195
791	0.195
791	0.195
791	0.194
792	0.195
792	0.195
793	0.194
793	0.194
794	0.194
794	0.193
794	0.193
795	0.193
795	0.193
796	0.192
796	0.192
797	0.192
797	0.192
797	0.193
798	0.193
798	0.194
799	0.194
799	0.195
800	0.195
800	0.195
801	0.196
801	0.196
801	0.197
802	0.197
802	0.198
803	0.198
803	0.198
804	0.199
804	0.199
804	0.199
805	0.199
805	0.199
806	0.199
806	0.199
807	0.199
807	0.198
807	0.198
808	0.198
808	0.198
809	0.198
809	0.198
810	0.198
810	0.198
810	0.198
811	0.198
811	0.199
812	0.199
812	0.2
813	0.2
813	0.201
813	0.201
814	0.202
814	0.203
815	0.204
815	0.204
816	0.204
816	0.204
817	0.203
817	0.203
817	0.202
818	0.202
818	0.202
819	0.201
819	0.2
820	0.2
820	0.199
820	0.198
821	0.198
821	0.198
822	0.198
822	0.198
823	0.199
823	0.199
823	0.199
824	0.2
824	0.202
825	0.203
825	0.204
826	0.205
826	0.206
826	0.207
827	0.208
827	0.208
828	0.209
828	0.209
829	0.21
829	0.21
829	0.21
830	0.21
830	0.211
831	0.211
831	0.211
832	0.211
832	0.211
832	0.21
833	0.21
833	0.21
834	0.21
834	0.209
835	0.208
835	0.208
835	0.208
836	0.207
836	0.207
837	0.206
837	0.206
838	0.205
838	0.204
839	0.203
839	0.202
839	0.201
840	0.2
840	0.2
841	0.199
841	0.198
842	0.197
842	0.197
842	0.196
843	0.196
843	0.196
844	0.196
844	0.196
845	0.195
845	0.195
845	0.196
846	0.196
846	0.196
847	0.196
847	0.197
848	0.197
848	0.197
848	0.198
849	0.198
849	0.198
850	0.198
850	0.198
851	0.197
851	0.197
851	0.197
852	0.197
852	0.196
853	0.196
853	0.196
854	0.197
854	0.197
854	0.198
855	0.199
855	0.199
856	0.2
856	0.201
857	0.202
857	0.203
857	0.204
858	0.204
858	0.204
859	0.205
859	0.205
860	0.205
860	0.205
860	0.205
861	0.205
861	0.205
862	0.205
862	0.204
863	0.204
863	0.204
863	0.204
864	0.204
864	0.204
865	0.204
865	0.204
866	0.204
866	0.204
866	0.204
867	0.204
867	0.204
868	0.204
868	0.204
869	0.204
869	0.203
869	0.202
870	0.202
870	0.202
871	0.201
871	0.201
872	0.201
872	0.201
872	0.201
873	0.201
873	0.2
874	0.2
874	0.2
875	0.199
875	0.199
875	0.199
876	0.199
876	0.198
877	0.198
877	0.197
878	0.197
878	0.197
878	0.197
879	0.197
879	0.197
880	0.197
880	0.197
881	0.197
881	0.198
881	0.198
882	0.198
882	0.198
883	0.198
883	0.199
884	0.199
884	0.199
884	0.199
885	0.199
885	0.199
886	0.199
886	0.199
887	0.199
887	0.198
887	0.198
888	0.198
888	0.197
889	0.197
889	0.197
890	0.197
890	0.197
890	0.197
891	0.197
891	0.197
892	0.197
892	0.197
893	0.196
893	0.196
893	0.195
894	0.194
894	0.193
895	0.193
895	0.192
895	0.192
896	0.192
896	0.192
897	0.192
897	0.192
898	0.191
898	0.191
898	0.191
899	0.191
899	0.191
900	0.191
900	0.191
901	0.19
901	0.19
901	0.19
902	0.19
902	0.19
903	0.189
903	0.189
904	0.189
904	0.189
904	0.188
905	0.188
905	0.187
906	0.187
906	0.187
907	0.187
907	0.188
907	0.188
908	0.188
908	0.188
909	0.187
909	0.187
910	0.187
910	0.187
910	0.187
911	0.186
911	0.186
912	0.185
912	0.185
913	0.184
913	0.184
913	0.183
914	0.183
914	0.183
915	0.182
915	0.182
916	0.182
916	0.181
916	0.181
917	0.181
917	0.181
918	0.18
918	0.18
918	0.18
919	0.179
919	0.179
920	0.179
920	0.179
921	0.179
921	0.179
921	0.179
922	0.179
922	0.179
923	0.179
923	0.18
924	0.18
924	0.18
924	0.18
925	0.18
925	0.18
926	0.18
926	0.18
927	0.18
927	0.18
927	0.18
928	0.18
928	0.18
929	0.18
929	0.18
930	0.18
930	0.18
930	0.18
931	0.18
931	0.179
932	0.179
932	0.179
933	0.179
933	0.178
933	0.178
934	0.178
934	0.177
935	0.177
935	0.176
935	0.175
936	0.175
936	0.174
937	0.174
937	0.173
938	0.172
938	0.171
938	0.171
939	0.17
939	0.169
940	0.169
940	0.169
941	0.169
941	0.168
941	0.169
942	0.169
942	0.169
943	0.169
943	0.169
944	0.169
944	0.17
944	0.17
945	0.171
945	0.171
946	0.172
946	0.172
946	0.172
947	0.172
947	0.172
948	0.172
948	0.171
949	0.171
949	0.17
949	0.169
950	0.168
950	0.167
951	0.166
951	0.165
952	0.164
952	0.163
952	0.162
953	0.162
953	0.161
954	0.161
954	0.16
955	0.16
955	0.159
955	0.16
956	0.16
956	0.161
957	0.161
957	0.162
957	0.162
958	0.163
958	0.163
959	0.164
959	0.164
960	0.165
960	0.165
960	0.165
961	0.164
961	0.164
962	0.164
962	0.164
963	0.164
963	0.163
963	0.163
964	0.163
964	0.162
965	0.162
965	0.162
966	0.162
966	0.162
966	0.162
967	0.162
967	0.162
968	0.162
968	0.162
968	0.162
969	0.161
969	0.16
970	0.159
970	0.158
971	0.157
971	0.156
971	0.155
972	0.154
972	0.153
973	0.152
973	0.152
974	0.152
974	0.152
974	0.152
975	0.153
975	0.153
976	0.154
976	0.155
976	0.155
977	0.155
977	0.155
978	0.156
978	0.156
979	0.156
979	0.156
979	0.156
980	0.156
980	0.155
981	0.155
981	0.155
982	0.155
982	0.154
982	0.155
983	0.154
983	0.154
984	0.154
984	0.154
984	0.154
985	0.154
985	0.154
986	0.154
986	0.154
987	0.154
987	0.153
987	0.153
988	0.152
988	0.152
989	0.151
989	0.151
990	0.15
990	0.15
990	0.15
991	0.149
991	0.149
992	0.148
992	0.147
992	0.146
993	0.145
993	0.144
994	0.142
994	0.142
995	0.141
995	0.14
995	0.14
996	0.14
996	0.14
997	0.14
997	0.141
997	0.142
998	0.143
998	0.143
999	0.144
999	0.145
1000	0.146
1000	0.147
1000	0.147
1001	0.148
1001	0.148
1002	0.148
1002	0.148
1003	0.148
1003	0.147
1003	0.147
1004	0.146
1004	0.146
1005	0.145
1005	0.144
1005	0.144
1006	0.143
1006	0.143
1007	0.142
1007	0.142
1008	0.141
1008	0.141
1008	0.141
1009	0.141
1009	0.14
1010	0.14
1010	0.14
1010	0.139
1011	0.139
1011	0.138
1012	0.138
1012	0.138
1013	0.137
1013	0.137
1013	0.136
1014	0.136
1014	0.136
1015	0.135
1015	0.135
1016	0.135
1016	0.135
1016	0.135
1017	0.134
1017	0.134
1018	0.134
1018	0.134
1018	0.133
1019	0.133
1019	0.133
1020	0.133
1020	0.133
1021	0.133
1021	0.133
1021	0.133
1022	0.133
1022	0.133
1023	0.133
1023	0.133
1023	0.133
1024	0.133
1024	0.133
1025	0.133
1025	0.133
1026	0.133
1026	0.133
1026	0.133
1027	0.133
1027	0.133
1028	0.133
1028	0.133
1028	0.133
1029	0.133
1029	0.133
1030	0.133
1030	0.133
1031	0.133
1031	0.133
1031	0.133
1032	0.134
1032	0.134
1033	0.134
1033	0.134
1033	0.133
1034	0.133
1034	0.133
1035	0.133
1035	0.133
1036	0.132
1036	0.132
1036	0.132
1037	0.131
1037	0.131
1038	0.131
1038	0.13
1039	0.13
1039	0.129
1039	0.129
1040	0.129
1040	0.129
1041	0.129
1041	0.129
1041	0.129
1042	0.129
1042	0.128
1043	0.129
1043	0.128
1044	0.128
1044	0.128
1044	0.127
1045	0.127
1045	0.127
1046	0.127
1046	0.127
1046	0.126
1047	0.126
1047	0.126
1048	0.126
1048	0.126
1049	0.125
1049	0.126
1049	0.125
1050	0.125
1050	0.124
1051	0.124
1051	0.124
1051	0.124
1052	0.123
1052	0.123
1053	0.122
1053	0.122
1053	0.121
1054	0.12
1054	0.12
1055	0.119
1055	0.119
1056	0.118
1056	0.118
1056	0.117
1057	0.116
1057	0.116
1058	0.115
1058	0.114
1058	0.113
1059	0.113
1059	0.112
1060	0.111
1060	0.111
1061	0.11
1061	0.11
1061	0.109
1062	0.109
1062	0.109
1063	0.109
1063	0.109
1063	0.108
1064	0.108
1064	0.108
1065	0.108
1065	0.108
1066	0.108
1066	0.107
1066	0.107
1067	0.107
1067	0.107
1068	0.106
1068	0.106
1068	0.106
1069	0.106
1069	0.106
1070	0.106
1070	0.106
1071	0.105
1071	0.105
1071	0.105
1072	0.105
1072	0.106
1073	0.105
1073	0.105
1073	0.105
1074	0.106
1074	0.107
1075	0.107
1075	0.107
1076	0.108
1076	0.109
1076	0.109
1077	0.109
1077	0.109
1078	0.109
1078	0.109
1078	0.109
1079	0.109
1079	0.108
1080	0.107
1080	0.107
1080	0.106
1081	0.106
1081	0.105
1082	0.106
1082	0.106
1083	0.106
1083	0.105
1083	0.105
1084	0.105
1084	0.106
1085	0.106
1085	0.106
1085	0.106
1086	0.107
1086	0.106
1087	0.106
1087	0.105
1088	0.105
1088	0.104
1088	0.104
1089	0.103
1089	0.102
1090	0.101
1090	0.1
1090	0.098
1091	0.098
1091	0.097
1092	0.097
1092	0.097
1092	0.096
1093	0.096
1093	0.096
1094	0.096
1094	0.096
1095	0.095
1095	0.094
1095	0.094
1096	0.093
1096	0.092
1097	0.091
1097	0.091
1097	0.091
1098	0.09
1098	0.089
1099	0.087
1099	0.087
1100	0.087
1100	0.085
1100	0.084
1101	0.083
1101	0.083
1102	0.082
1102	0.08
1102	0.078
1103	0.078
1103	0.078
1104	0.078
1104	0.077
1104	0.076
1105	0.076
1105	0.075
1106	0.073
1106	0.073
1107	0.072
1107	0.073
1107	0.072
1108	0.071
1108	0.07
1109	0.069
1109	0.069
1109	0.069
1110	0.069
1110	0.069
1111	0.069
1111	0.066
