Data from reversibility-20sec_Absorbance__4898__000000000004898.txt Node

Date: Wed Dec 06 15:25:46 CET 2023
User: Marek
Spectrometer: MAYP115816
Trigger mode: 0
Integration Time (sec): 2.000000E-1
Scans to average: 10
Electric dark correction enabled: true
Nonlinearity correction enabled: true
Boxcar width: 5
XAxis mode: Wavelengths
Number of Pixels in Spectrum: 2068
>>>>>Begin Spectral Data<<<<<
199	-0.113
199	-0.088
200	-0.023
200	0.03
201	0.058
201	0.079
202	0.094
202	0.101
203	0.109
203	0.113
204	0.128
204	0.139
205	0.151
205	0.158
205	0.156
206	0.158
206	0.158
207	0.158
207	0.157
208	0.156
208	0.154
209	0.154
209	0.152
210	0.153
210	0.152
211	0.153
211	0.152
212	0.146
212	0.147
213	0.15
213	0.15
213	0.151
214	0.155
214	0.156
215	0.158
215	0.157
216	0.157
216	0.157
217	0.163
217	0.165
218	0.165
218	0.17
219	0.175
219	0.174
220	0.177
220	0.178
221	0.182
221	0.185
221	0.19
222	0.195
222	0.199
223	0.204
223	0.205
224	0.211
224	0.217
225	0.227
225	0.235
226	0.244
226	0.258
227	0.268
227	0.278
228	0.295
228	0.311
229	0.328
229	0.348
229	0.371
230	0.393
230	0.425
231	0.455
231	0.489
232	0.526
232	0.569
233	0.612
233	0.66
234	0.71
234	0.763
235	0.816
235	0.87
236	0.92
236	0.974
236	1.025
237	1.077
237	1.125
238	1.17
238	1.216
239	1.263
239	1.307
240	1.345
240	1.383
241	1.418
241	1.453
242	1.484
242	1.516
243	1.547
243	1.572
243	1.598
244	1.618
244	1.636
245	1.657
245	1.68
246	1.699
246	1.712
247	1.726
247	1.737
248	1.749
248	1.762
249	1.771
249	1.775
250	1.784
250	1.788
250	1.79
251	1.79
251	1.793
252	1.796
252	1.795
253	1.796
253	1.792
254	1.79
254	1.791
255	1.787
255	1.788
256	1.784
256	1.784
257	1.783
257	1.781
258	1.781
258	1.779
258	1.779
259	1.779
259	1.781
260	1.781
260	1.782
261	1.784
261	1.786
262	1.789
262	1.791
263	1.794
263	1.796
264	1.797
264	1.799
265	1.798
265	1.798
265	1.798
266	1.798
266	1.798
267	1.796
267	1.796
268	1.796
268	1.797
269	1.798
269	1.797
270	1.796
270	1.796
271	1.794
271	1.792
272	1.789
272	1.786
272	1.782
273	1.775
273	1.766
274	1.76
274	1.754
275	1.746
275	1.739
276	1.731
276	1.723
277	1.714
277	1.703
278	1.691
278	1.679
278	1.663
279	1.646
279	1.624
280	1.597
280	1.564
281	1.526
281	1.484
282	1.441
282	1.397
283	1.354
283	1.312
284	1.272
284	1.234
285	1.197
285	1.165
285	1.135
286	1.109
286	1.087
287	1.068
287	1.051
288	1.037
288	1.025
289	1.015
289	1.006
290	0.999
290	0.992
291	0.986
291	0.982
292	0.977
292	0.973
292	0.969
293	0.966
293	0.962
294	0.959
294	0.956
295	0.953
295	0.951
296	0.948
296	0.945
297	0.942
297	0.94
298	0.937
298	0.934
298	0.932
299	0.929
299	0.926
300	0.924
300	0.921
301	0.919
301	0.917
302	0.914
302	0.912
303	0.91
303	0.908
304	0.906
304	0.903
305	0.901
305	0.899
305	0.896
306	0.894
306	0.892
307	0.89
307	0.887
308	0.885
308	0.882
309	0.88
309	0.877
310	0.875
310	0.872
311	0.869
311	0.866
311	0.863
312	0.86
312	0.857
313	0.853
313	0.849
314	0.846
314	0.842
315	0.838
315	0.834
316	0.83
316	0.825
317	0.821
317	0.816
318	0.811
318	0.807
318	0.802
319	0.796
319	0.791
320	0.786
320	0.78
321	0.774
321	0.768
322	0.762
322	0.756
323	0.75
323	0.743
324	0.737
324	0.731
324	0.724
325	0.717
325	0.711
326	0.704
326	0.697
327	0.691
327	0.684
328	0.677
328	0.67
329	0.663
329	0.656
330	0.649
330	0.643
330	0.636
331	0.629
331	0.622
332	0.615
332	0.608
333	0.601
333	0.595
334	0.588
334	0.581
335	0.575
335	0.568
336	0.561
336	0.555
336	0.549
337	0.543
337	0.537
338	0.531
338	0.524
339	0.519
339	0.513
340	0.507
340	0.502
341	0.496
341	0.491
342	0.485
342	0.48
342	0.474
343	0.469
343	0.464
344	0.459
344	0.454
345	0.45
345	0.445
346	0.441
346	0.436
347	0.432
347	0.428
348	0.424
348	0.42
348	0.417
349	0.413
349	0.409
350	0.406
350	0.402
351	0.399
351	0.396
352	0.393
352	0.39
353	0.387
353	0.384
354	0.381
354	0.378
354	0.375
355	0.372
355	0.369
356	0.367
356	0.364
357	0.361
357	0.358
358	0.356
358	0.353
359	0.351
359	0.349
360	0.347
360	0.345
360	0.343
361	0.341
361	0.34
362	0.338
362	0.337
363	0.335
363	0.333
364	0.331
364	0.329
365	0.328
365	0.326
366	0.324
366	0.323
366	0.321
367	0.319
367	0.318
368	0.317
368	0.315
369	0.314
369	0.313
370	0.311
370	0.31
371	0.309
371	0.307
372	0.306
372	0.305
372	0.304
373	0.303
373	0.302
374	0.301
374	0.3
375	0.299
375	0.298
376	0.297
376	0.297
377	0.296
377	0.295
378	0.294
378	0.293
378	0.292
379	0.292
379	0.291
380	0.29
380	0.289
381	0.288
381	0.288
382	0.287
382	0.287
383	0.286
383	0.286
383	0.285
384	0.285
384	0.284
385	0.284
385	0.283
386	0.283
386	0.283
387	0.282
387	0.282
388	0.281
388	0.281
389	0.281
389	0.28
389	0.28
390	0.279
390	0.279
391	0.279
391	0.279
392	0.278
392	0.278
393	0.278
393	0.277
394	0.277
394	0.277
394	0.276
395	0.276
395	0.276
396	0.275
396	0.275
397	0.275
397	0.274
398	0.274
398	0.274
399	0.273
399	0.273
400	0.273
400	0.272
400	0.272
401	0.272
401	0.272
402	0.272
402	0.272
403	0.271
403	0.271
404	0.271
404	0.27
405	0.27
405	0.27
405	0.27
406	0.27
406	0.269
407	0.269
407	0.268
408	0.268
408	0.268
409	0.267
409	0.267
410	0.267
410	0.267
411	0.266
411	0.266
411	0.266
412	0.266
412	0.265
413	0.265
413	0.265
414	0.265
414	0.264
415	0.264
415	0.264
416	0.263
416	0.263
416	0.263
417	0.262
417	0.262
418	0.262
418	0.262
419	0.261
419	0.261
420	0.26
420	0.26
421	0.26
421	0.259
421	0.259
422	0.259
422	0.258
423	0.258
423	0.258
424	0.257
424	0.257
425	0.257
425	0.257
426	0.256
426	0.256
427	0.255
427	0.255
427	0.255
428	0.254
428	0.254
429	0.254
429	0.253
430	0.253
430	0.253
431	0.253
431	0.252
432	0.252
432	0.252
432	0.252
433	0.252
433	0.252
434	0.251
434	0.252
435	0.251
435	0.251
436	0.251
436	0.251
437	0.25
437	0.25
437	0.25
438	0.25
438	0.249
439	0.249
439	0.249
440	0.248
440	0.248
441	0.248
441	0.248
442	0.248
442	0.248
442	0.248
443	0.247
443	0.247
444	0.247
444	0.247
445	0.247
445	0.247
446	0.246
446	0.246
447	0.246
447	0.246
447	0.246
448	0.245
448	0.245
449	0.245
449	0.245
450	0.245
450	0.244
451	0.244
451	0.244
452	0.244
452	0.244
452	0.244
453	0.244
453	0.244
454	0.243
454	0.243
455	0.243
455	0.242
456	0.242
456	0.242
457	0.241
457	0.241
458	0.241
458	0.241
458	0.241
459	0.24
459	0.24
460	0.24
460	0.24
461	0.24
461	0.239
462	0.239
462	0.239
463	0.238
463	0.238
463	0.238
464	0.238
464	0.237
465	0.237
465	0.237
466	0.237
466	0.237
467	0.237
467	0.237
467	0.237
468	0.237
468	0.237
469	0.237
469	0.237
470	0.237
470	0.237
471	0.237
471	0.236
472	0.236
472	0.236
472	0.236
473	0.236
473	0.236
474	0.236
474	0.236
475	0.236
475	0.236
476	0.236
476	0.236
477	0.236
477	0.236
477	0.236
478	0.237
478	0.237
479	0.237
479	0.237
480	0.237
480	0.237
481	0.237
481	0.237
482	0.237
482	0.237
482	0.237
483	0.237
483	0.237
484	0.238
484	0.238
485	0.238
485	0.238
486	0.237
486	0.238
487	0.238
487	0.238
487	0.238
488	0.238
488	0.238
489	0.238
489	0.239
490	0.239
490	0.24
491	0.24
491	0.241
492	0.241
492	0.241
492	0.242
493	0.242
493	0.243
494	0.243
494	0.243
495	0.244
495	0.244
496	0.245
496	0.245
496	0.246
497	0.246
497	0.246
498	0.247
498	0.247
499	0.247
499	0.248
500	0.248
500	0.249
501	0.249
501	0.25
501	0.25
502	0.25
502	0.251
503	0.251
503	0.252
504	0.252
504	0.253
505	0.253
505	0.253
506	0.254
506	0.254
506	0.255
507	0.255
507	0.256
508	0.256
508	0.257
509	0.257
509	0.257
510	0.258
510	0.258
511	0.259
511	0.259
511	0.26
512	0.26
512	0.261
513	0.261
513	0.262
514	0.263
514	0.263
515	0.264
515	0.264
515	0.264
516	0.264
516	0.265
517	0.265
517	0.266
518	0.266
518	0.266
519	0.266
519	0.267
520	0.267
520	0.268
520	0.268
521	0.268
521	0.268
522	0.268
522	0.268
523	0.269
523	0.269
524	0.269
524	0.269
524	0.269
525	0.27
525	0.27
526	0.27
526	0.27
527	0.27
527	0.27
528	0.27
528	0.27
529	0.27
529	0.269
529	0.269
530	0.269
530	0.269
531	0.269
531	0.269
532	0.269
532	0.268
533	0.268
533	0.268
533	0.268
534	0.268
534	0.268
535	0.268
535	0.268
536	0.268
536	0.267
537	0.267
537	0.267
538	0.267
538	0.267
538	0.267
539	0.267
539	0.267
540	0.266
540	0.266
541	0.265
541	0.265
542	0.265
542	0.264
542	0.264
543	0.264
543	0.263
544	0.263
544	0.263
545	0.262
545	0.262
546	0.262
546	0.262
547	0.261
547	0.26
547	0.26
548	0.26
548	0.259
549	0.259
549	0.258
550	0.258
550	0.258
551	0.257
551	0.257
551	0.256
552	0.256
552	0.256
553	0.255
553	0.255
554	0.254
554	0.254
555	0.253
555	0.253
556	0.252
556	0.252
556	0.252
557	0.251
557	0.251
558	0.251
558	0.251
559	0.251
559	0.251
560	0.251
560	0.251
560	0.25
561	0.251
561	0.25
562	0.249
562	0.248
563	0.248
563	0.247
564	0.246
564	0.245
564	0.245
565	0.245
565	0.244
566	0.244
566	0.243
567	0.243
567	0.243
568	0.243
568	0.243
568	0.242
569	0.242
569	0.242
570	0.241
570	0.24
571	0.239
571	0.239
572	0.238
572	0.238
573	0.237
573	0.237
573	0.236
574	0.236
574	0.236
575	0.235
575	0.235
576	0.235
576	0.234
577	0.234
577	0.233
577	0.233
578	0.232
578	0.232
579	0.232
579	0.232
580	0.231
580	0.231
581	0.23
581	0.23
581	0.23
582	0.23
582	0.23
583	0.23
583	0.23
584	0.229
584	0.228
585	0.228
585	0.227
585	0.227
586	0.227
586	0.226
587	0.225
587	0.225
588	0.224
588	0.224
589	0.224
589	0.224
590	0.224
590	0.224
590	0.224
591	0.224
591	0.224
592	0.224
592	0.223
593	0.223
593	0.223
594	0.222
594	0.222
594	0.221
595	0.221
595	0.22
596	0.219
596	0.219
597	0.22
597	0.22
598	0.219
598	0.219
598	0.219
599	0.219
599	0.218
600	0.218
600	0.217
601	0.217
601	0.217
602	0.216
602	0.216
602	0.215
603	0.215
603	0.215
604	0.215
604	0.216
605	0.216
605	0.216
606	0.215
606	0.215
606	0.215
607	0.214
607	0.214
608	0.214
608	0.213
609	0.213
609	0.213
610	0.212
610	0.212
610	0.212
611	0.212
611	0.212
612	0.212
612	0.212
613	0.211
613	0.211
614	0.211
614	0.211
614	0.21
615	0.21
615	0.21
616	0.21
616	0.21
617	0.209
617	0.209
618	0.209
618	0.209
618	0.209
619	0.209
619	0.209
620	0.209
620	0.209
621	0.208
621	0.208
622	0.207
622	0.207
622	0.207
623	0.206
623	0.206
624	0.206
624	0.205
625	0.205
625	0.205
626	0.205
626	0.204
626	0.204
627	0.204
627	0.204
628	0.204
628	0.203
629	0.203
629	0.203
630	0.203
630	0.202
630	0.203
631	0.203
631	0.203
632	0.203
632	0.202
633	0.203
633	0.203
634	0.203
634	0.203
634	0.203
635	0.202
635	0.202
636	0.202
636	0.201
637	0.201
637	0.2
638	0.2
638	0.2
638	0.2
639	0.199
639	0.199
640	0.199
640	0.199
641	0.199
641	0.2
642	0.2
642	0.2
642	0.201
643	0.201
643	0.201
644	0.201
644	0.201
645	0.201
645	0.201
646	0.201
646	0.2
646	0.2
647	0.2
647	0.199
648	0.199
648	0.198
649	0.198
649	0.198
650	0.198
650	0.198
650	0.198
651	0.198
651	0.198
652	0.198
652	0.197
653	0.198
653	0.199
653	0.205
654	0.161
654	0.128
655	0.129
655	0.13
656	0.13
656	0.13
657	0.131
657	0.131
657	0.131
658	0.13
658	0.12
659	0.151
659	0.195
660	0.199
660	0.199
661	0.199
661	0.199
661	0.199
662	0.199
662	0.199
663	0.199
663	0.199
664	0.199
664	0.199
665	0.199
665	0.199
665	0.199
666	0.199
666	0.199
667	0.199
667	0.199
668	0.199
668	0.199
669	0.199
669	0.199
669	0.199
670	0.199
670	0.199
671	0.199
671	0.198
672	0.198
672	0.198
672	0.197
673	0.197
673	0.197
674	0.197
674	0.196
675	0.196
675	0.196
676	0.196
676	0.196
676	0.196
677	0.196
677	0.196
678	0.196
678	0.196
679	0.196
679	0.196
680	0.196
680	0.196
680	0.196
681	0.196
681	0.197
682	0.197
682	0.197
683	0.198
683	0.198
684	0.199
684	0.199
684	0.198
685	0.198
685	0.199
686	0.199
686	0.198
687	0.198
687	0.198
687	0.198
688	0.198
688	0.198
689	0.199
689	0.199
690	0.199
690	0.199
691	0.199
691	0.199
691	0.199
692	0.198
692	0.198
693	0.198
693	0.198
694	0.198
694	0.198
695	0.198
695	0.2
695	0.2
696	0.2
696	0.201
697	0.201
697	0.202
698	0.202
698	0.202
698	0.202
699	0.203
699	0.202
700	0.201
700	0.201
701	0.201
701	0.2
702	0.2
702	0.2
702	0.199
703	0.199
703	0.199
704	0.198
704	0.199
705	0.199
705	0.199
705	0.2
706	0.2
706	0.201
707	0.201
707	0.201
708	0.202
708	0.202
709	0.202
709	0.203
709	0.202
710	0.203
710	0.203
711	0.203
711	0.203
712	0.204
712	0.203
713	0.203
713	0.204
713	0.203
714	0.203
714	0.202
715	0.202
715	0.201
716	0.2
716	0.2
716	0.2
717	0.199
717	0.199
718	0.199
718	0.199
719	0.199
719	0.2
720	0.2
720	0.201
720	0.202
721	0.202
721	0.203
722	0.203
722	0.204
723	0.204
723	0.204
723	0.204
724	0.204
724	0.204
725	0.203
725	0.203
726	0.202
726	0.202
727	0.202
727	0.202
727	0.202
728	0.202
728	0.201
729	0.202
729	0.202
730	0.202
730	0.203
730	0.203
731	0.204
731	0.205
732	0.205
732	0.206
733	0.206
733	0.207
734	0.207
734	0.208
734	0.209
735	0.209
735	0.209
736	0.209
736	0.209
737	0.209
737	0.209
737	0.208
738	0.208
738	0.207
739	0.206
739	0.206
740	0.205
740	0.205
741	0.205
741	0.205
741	0.205
742	0.205
742	0.206
743	0.207
743	0.208
744	0.209
744	0.209
744	0.21
745	0.21
745	0.21
746	0.21
746	0.21
747	0.209
747	0.209
748	0.208
748	0.208
748	0.207
749	0.207
749	0.207
750	0.206
750	0.206
751	0.206
751	0.206
751	0.207
752	0.206
752	0.206
753	0.206
753	0.206
754	0.206
754	0.206
754	0.206
755	0.207
755	0.207
756	0.207
756	0.207
757	0.206
757	0.207
758	0.207
758	0.207
758	0.208
759	0.209
759	0.208
760	0.208
760	0.208
761	0.209
761	0.209
761	0.21
762	0.21
762	0.21
763	0.211
763	0.21
764	0.21
764	0.21
764	0.21
765	0.21
765	0.21
766	0.21
766	0.21
767	0.21
767	0.209
768	0.208
768	0.208
768	0.208
769	0.208
769	0.208
770	0.209
770	0.209
771	0.209
771	0.21
771	0.21
772	0.211
772	0.212
773	0.212
773	0.213
774	0.213
774	0.213
775	0.213
775	0.213
775	0.213
776	0.213
776	0.213
777	0.213
777	0.213
778	0.212
778	0.212
778	0.212
779	0.212
779	0.211
780	0.211
780	0.21
781	0.21
781	0.21
781	0.21
782	0.21
782	0.21
783	0.211
783	0.212
784	0.212
784	0.213
784	0.214
785	0.215
785	0.215
786	0.216
786	0.217
787	0.217
787	0.217
788	0.217
788	0.217
788	0.216
789	0.216
789	0.216
790	0.215
790	0.215
791	0.214
791	0.213
791	0.213
792	0.213
792	0.212
793	0.212
793	0.212
794	0.211
794	0.211
794	0.211
795	0.211
795	0.211
796	0.212
796	0.212
797	0.212
797	0.212
797	0.213
798	0.214
798	0.214
799	0.215
799	0.215
800	0.215
800	0.214
801	0.214
801	0.214
801	0.214
802	0.214
802	0.214
803	0.214
803	0.214
804	0.214
804	0.215
804	0.216
805	0.216
805	0.216
806	0.216
806	0.217
807	0.217
807	0.217
807	0.217
808	0.217
808	0.217
809	0.216
809	0.216
810	0.216
810	0.216
810	0.216
811	0.216
811	0.216
812	0.216
812	0.216
813	0.216
813	0.216
813	0.216
814	0.217
814	0.217
815	0.218
815	0.218
816	0.219
816	0.218
817	0.218
817	0.218
817	0.218
818	0.218
818	0.219
819	0.218
819	0.218
820	0.218
820	0.218
820	0.218
821	0.218
821	0.218
822	0.218
822	0.219
823	0.219
823	0.219
823	0.219
824	0.22
824	0.22
825	0.221
825	0.222
826	0.222
826	0.222
826	0.222
827	0.223
827	0.223
828	0.223
828	0.223
829	0.223
829	0.223
829	0.223
830	0.223
830	0.223
831	0.223
831	0.223
832	0.223
832	0.223
832	0.224
833	0.224
833	0.224
834	0.224
834	0.224
835	0.223
835	0.223
835	0.222
836	0.222
836	0.222
837	0.221
837	0.221
838	0.22
838	0.219
839	0.219
839	0.218
839	0.217
840	0.217
840	0.216
841	0.215
841	0.215
842	0.214
842	0.214
842	0.213
843	0.213
843	0.212
844	0.211
844	0.211
845	0.21
845	0.21
845	0.21
846	0.21
846	0.21
847	0.21
847	0.21
848	0.211
848	0.211
848	0.212
849	0.212
849	0.213
850	0.213
850	0.214
851	0.215
851	0.215
851	0.216
852	0.216
852	0.216
853	0.216
853	0.216
854	0.217
854	0.218
854	0.218
855	0.219
855	0.219
856	0.219
856	0.219
857	0.22
857	0.22
857	0.22
858	0.219
858	0.219
859	0.218
859	0.217
860	0.217
860	0.216
860	0.216
861	0.216
861	0.215
862	0.215
862	0.214
863	0.214
863	0.214
863	0.213
864	0.213
864	0.213
865	0.213
865	0.214
866	0.213
866	0.213
866	0.213
867	0.214
867	0.214
868	0.214
868	0.214
869	0.213
869	0.213
869	0.212
870	0.212
870	0.211
871	0.211
871	0.211
872	0.211
872	0.211
872	0.211
873	0.211
873	0.211
874	0.211
874	0.211
875	0.211
875	0.211
875	0.212
876	0.212
876	0.212
877	0.212
877	0.212
878	0.212
878	0.213
878	0.213
879	0.213
879	0.213
880	0.213
880	0.212
881	0.212
881	0.212
881	0.211
882	0.21
882	0.21
883	0.209
883	0.209
884	0.209
884	0.209
884	0.209
885	0.209
885	0.209
886	0.208
886	0.208
887	0.207
887	0.207
887	0.206
888	0.205
888	0.204
889	0.203
889	0.203
890	0.202
890	0.202
890	0.202
891	0.201
891	0.201
892	0.2
892	0.2
893	0.2
893	0.199
893	0.198
894	0.198
894	0.197
895	0.196
895	0.196
895	0.196
896	0.196
896	0.196
897	0.196
897	0.197
898	0.198
898	0.198
898	0.199
899	0.2
899	0.201
900	0.201
900	0.201
901	0.202
901	0.201
901	0.201
902	0.201
902	0.2
903	0.199
903	0.199
904	0.198
904	0.197
904	0.196
905	0.196
905	0.195
906	0.194
906	0.194
907	0.194
907	0.194
907	0.194
908	0.193
908	0.193
909	0.192
909	0.192
910	0.192
910	0.192
910	0.191
911	0.191
911	0.191
912	0.191
912	0.191
913	0.191
913	0.19
913	0.191
914	0.191
914	0.191
915	0.191
915	0.191
916	0.19
916	0.19
916	0.19
917	0.19
917	0.19
918	0.189
918	0.189
918	0.189
919	0.189
919	0.188
920	0.188
920	0.188
921	0.188
921	0.188
921	0.187
922	0.187
922	0.187
923	0.187
923	0.188
924	0.188
924	0.188
924	0.188
925	0.188
925	0.188
926	0.188
926	0.188
927	0.188
927	0.188
927	0.188
928	0.187
928	0.187
929	0.187
929	0.186
930	0.186
930	0.185
930	0.185
931	0.184
931	0.184
932	0.184
932	0.184
933	0.184
933	0.183
933	0.183
934	0.182
934	0.182
935	0.182
935	0.181
935	0.18
936	0.18
936	0.179
937	0.179
937	0.178
938	0.177
938	0.177
938	0.176
939	0.176
939	0.175
940	0.175
940	0.174
941	0.174
941	0.174
941	0.174
942	0.174
942	0.174
943	0.174
943	0.174
944	0.174
944	0.174
944	0.174
945	0.174
945	0.174
946	0.174
946	0.173
946	0.173
947	0.173
947	0.172
948	0.172
948	0.171
949	0.171
949	0.17
949	0.17
950	0.169
950	0.169
951	0.168
951	0.167
952	0.166
952	0.165
952	0.165
953	0.164
953	0.163
954	0.162
954	0.162
955	0.161
955	0.16
955	0.16
956	0.16
956	0.16
957	0.16
957	0.16
957	0.16
958	0.16
958	0.16
959	0.16
959	0.16
960	0.16
960	0.16
960	0.16
961	0.159
961	0.159
962	0.159
962	0.159
963	0.159
963	0.159
963	0.159
964	0.159
964	0.159
965	0.159
965	0.159
966	0.159
966	0.159
966	0.158
967	0.158
967	0.158
968	0.158
968	0.157
968	0.157
969	0.156
969	0.156
970	0.155
970	0.155
971	0.154
971	0.154
971	0.153
972	0.153
972	0.152
973	0.152
973	0.151
974	0.151
974	0.151
974	0.151
975	0.15
975	0.15
976	0.15
976	0.15
976	0.149
977	0.149
977	0.148
978	0.148
978	0.147
979	0.147
979	0.146
979	0.146
980	0.146
980	0.145
981	0.144
981	0.144
982	0.144
982	0.144
982	0.144
983	0.144
983	0.143
984	0.144
984	0.144
984	0.144
985	0.144
985	0.144
986	0.144
986	0.144
987	0.144
987	0.144
987	0.144
988	0.144
988	0.144
989	0.144
989	0.144
990	0.144
990	0.144
990	0.144
991	0.144
991	0.144
992	0.143
992	0.143
992	0.142
993	0.141
993	0.14
994	0.139
994	0.138
995	0.137
995	0.136
995	0.136
996	0.135
996	0.135
997	0.135
997	0.135
997	0.136
998	0.136
998	0.137
999	0.138
999	0.138
1000	0.139
1000	0.139
1000	0.14
1001	0.14
1001	0.14
1002	0.14
1002	0.139
1003	0.139
1003	0.139
1003	0.138
1004	0.137
1004	0.136
1005	0.135
1005	0.135
1005	0.134
1006	0.133
1006	0.133
1007	0.133
1007	0.132
1008	0.132
1008	0.132
1008	0.131
1009	0.131
1009	0.131
1010	0.131
1010	0.13
1010	0.13
1011	0.129
1011	0.129
1012	0.128
1012	0.127
1013	0.127
1013	0.126
1013	0.126
1014	0.125
1014	0.125
1015	0.124
1015	0.124
1016	0.124
1016	0.124
1016	0.124
1017	0.124
1017	0.124
1018	0.124
1018	0.124
1018	0.124
1019	0.124
1019	0.124
1020	0.124
1020	0.124
1021	0.124
1021	0.124
1021	0.124
1022	0.125
1022	0.125
1023	0.125
1023	0.125
1023	0.125
1024	0.125
1024	0.125
1025	0.125
1025	0.125
1026	0.125
1026	0.124
1026	0.124
1027	0.124
1027	0.124
1028	0.124
1028	0.124
1028	0.124
1029	0.124
1029	0.124
1030	0.124
1030	0.124
1031	0.125
1031	0.125
1031	0.125
1032	0.125
1032	0.125
1033	0.125
1033	0.125
1033	0.124
1034	0.124
1034	0.124
1035	0.123
1035	0.123
1036	0.123
1036	0.122
1036	0.122
1037	0.122
1037	0.121
1038	0.121
1038	0.12
1039	0.12
1039	0.12
1039	0.12
1040	0.12
1040	0.119
1041	0.119
1041	0.119
1041	0.119
1042	0.118
1042	0.118
1043	0.118
1043	0.117
1044	0.117
1044	0.117
1044	0.117
1045	0.117
1045	0.116
1046	0.116
1046	0.116
1046	0.116
1047	0.117
1047	0.117
1048	0.117
1048	0.117
1049	0.117
1049	0.117
1049	0.117
1050	0.117
1050	0.116
1051	0.115
1051	0.115
1051	0.114
1052	0.113
1052	0.112
1053	0.111
1053	0.111
1053	0.11
1054	0.11
1054	0.109
1055	0.109
1055	0.108
1056	0.108
1056	0.107
1056	0.106
1057	0.106
1057	0.105
1058	0.104
1058	0.104
1058	0.103
1059	0.102
1059	0.102
1060	0.101
1060	0.1
1061	0.1
1061	0.099
1061	0.099
1062	0.099
1062	0.098
1063	0.098
1063	0.097
1063	0.097
1064	0.097
1064	0.096
1065	0.096
1065	0.096
1066	0.096
1066	0.095
1066	0.095
1067	0.094
1067	0.094
1068	0.094
1068	0.094
1068	0.094
1069	0.094
1069	0.094
1070	0.094
1070	0.094
1071	0.093
1071	0.093
1071	0.093
1072	0.093
1072	0.093
1073	0.093
1073	0.093
1073	0.093
1074	0.093
1074	0.093
1075	0.094
1075	0.094
1076	0.095
1076	0.095
1076	0.095
1077	0.096
1077	0.096
1078	0.095
1078	0.095
1078	0.095
1079	0.095
1079	0.095
1080	0.094
1080	0.094
1080	0.093
1081	0.093
1081	0.093
1082	0.093
1082	0.094
1083	0.093
1083	0.093
1083	0.093
1084	0.093
1084	0.093
1085	0.092
1085	0.092
1085	0.092
1086	0.092
1086	0.092
1087	0.092
1087	0.091
1088	0.091
1088	0.091
1088	0.091
1089	0.09
1089	0.09
1090	0.089
1090	0.089
1090	0.088
1091	0.087
1091	0.087
1092	0.087
1092	0.087
1092	0.087
1093	0.087
1093	0.087
1094	0.087
1094	0.087
1095	0.086
1095	0.087
1095	0.086
1096	0.086
1096	0.085
1097	0.084
1097	0.083
1097	0.083
1098	0.083
1098	0.082
1099	0.082
1099	0.08
1100	0.079
1100	0.078
1100	0.077
1101	0.076
1101	0.075
1102	0.075
1102	0.074
1102	0.072
1103	0.071
1103	0.07
1104	0.07
1104	0.07
1104	0.07
1105	0.068
1105	0.066
1106	0.065
1106	0.063
1107	0.062
1107	0.061
1107	0.061
1108	0.06
1108	0.059
1109	0.057
1109	0.056
1109	0.057
1110	0.058
1110	0.06
1111	0.062
1111	0.064
