Data from reversibility-20sec_Absorbance__4222__000000000004222.txt Node

Date: Wed Dec 06 11:40:26 CET 2023
User: Marek
Spectrometer: MAYP115816
Trigger mode: 0
Integration Time (sec): 2.000000E-1
Scans to average: 10
Electric dark correction enabled: true
Nonlinearity correction enabled: true
Boxcar width: 5
XAxis mode: Wavelengths
Number of Pixels in Spectrum: 2068
>>>>>Begin Spectral Data<<<<<
199	-0.158
199	-0.133
200	-0.062
200	-0.008
201	0.02
201	0.035
202	0.048
202	0.057
203	0.063
203	0.066
204	0.079
204	0.094
205	0.109
205	0.115
205	0.112
206	0.112
206	0.114
207	0.116
207	0.113
208	0.113
208	0.114
209	0.116
209	0.111
210	0.11
210	0.11
211	0.112
211	0.113
212	0.11
212	0.111
213	0.114
213	0.114
213	0.113
214	0.116
214	0.119
215	0.119
215	0.12
216	0.119
216	0.119
217	0.122
217	0.121
218	0.119
218	0.125
219	0.128
219	0.129
220	0.128
220	0.13
221	0.131
221	0.136
221	0.141
222	0.147
222	0.152
223	0.159
223	0.166
224	0.171
224	0.182
225	0.196
225	0.204
226	0.214
226	0.223
227	0.23
227	0.242
228	0.259
228	0.275
229	0.289
229	0.312
229	0.333
230	0.354
230	0.383
231	0.415
231	0.452
232	0.492
232	0.535
233	0.579
233	0.625
234	0.677
234	0.73
235	0.783
235	0.838
236	0.891
236	0.942
236	0.993
237	1.043
237	1.089
238	1.135
238	1.185
239	1.232
239	1.271
240	1.31
240	1.351
241	1.385
241	1.42
242	1.452
242	1.487
243	1.516
243	1.538
243	1.562
244	1.581
244	1.604
245	1.623
245	1.642
246	1.66
246	1.677
247	1.689
247	1.702
248	1.716
248	1.733
249	1.741
249	1.748
250	1.754
250	1.761
250	1.765
251	1.769
251	1.772
252	1.777
252	1.777
253	1.777
253	1.775
254	1.775
254	1.777
255	1.776
255	1.774
256	1.773
256	1.771
257	1.77
257	1.769
258	1.768
258	1.768
258	1.768
259	1.767
259	1.768
260	1.767
260	1.769
261	1.77
261	1.773
262	1.775
262	1.775
263	1.78
263	1.782
264	1.783
264	1.785
265	1.785
265	1.786
265	1.786
266	1.785
266	1.786
267	1.784
267	1.786
268	1.785
268	1.784
269	1.786
269	1.784
270	1.784
270	1.784
271	1.782
271	1.783
272	1.779
272	1.778
272	1.773
273	1.767
273	1.761
274	1.754
274	1.748
275	1.741
275	1.733
276	1.725
276	1.716
277	1.707
277	1.698
278	1.686
278	1.674
278	1.661
279	1.645
279	1.625
280	1.601
280	1.572
281	1.538
281	1.5
282	1.46
282	1.419
283	1.379
283	1.34
284	1.301
284	1.264
285	1.229
285	1.197
285	1.169
286	1.144
286	1.122
287	1.103
287	1.086
288	1.072
288	1.061
289	1.05
289	1.041
290	1.034
290	1.027
291	1.021
291	1.016
292	1.011
292	1.007
292	1.003
293	0.999
293	0.995
294	0.992
294	0.989
295	0.986
295	0.983
296	0.98
296	0.977
297	0.975
297	0.972
298	0.969
298	0.966
298	0.964
299	0.961
299	0.958
300	0.955
300	0.952
301	0.95
301	0.947
302	0.945
302	0.943
303	0.94
303	0.938
304	0.935
304	0.933
305	0.93
305	0.929
305	0.926
306	0.924
306	0.922
307	0.92
307	0.917
308	0.915
308	0.912
309	0.91
309	0.907
310	0.905
310	0.902
311	0.899
311	0.896
311	0.892
312	0.889
312	0.885
313	0.882
313	0.879
314	0.875
314	0.871
315	0.867
315	0.863
316	0.859
316	0.854
317	0.85
317	0.845
318	0.84
318	0.835
318	0.83
319	0.824
319	0.819
320	0.814
320	0.808
321	0.802
321	0.797
322	0.79
322	0.784
323	0.778
323	0.772
324	0.766
324	0.759
324	0.753
325	0.746
325	0.739
326	0.733
326	0.726
327	0.719
327	0.713
328	0.706
328	0.699
329	0.692
329	0.686
330	0.678
330	0.672
330	0.665
331	0.658
331	0.651
332	0.644
332	0.637
333	0.631
333	0.624
334	0.617
334	0.61
335	0.604
335	0.597
336	0.591
336	0.584
336	0.578
337	0.572
337	0.566
338	0.559
338	0.554
339	0.548
339	0.542
340	0.536
340	0.53
341	0.525
341	0.52
342	0.514
342	0.509
342	0.504
343	0.499
343	0.494
344	0.489
344	0.484
345	0.479
345	0.475
346	0.47
346	0.466
347	0.462
347	0.458
348	0.454
348	0.45
348	0.446
349	0.442
349	0.438
350	0.435
350	0.431
351	0.428
351	0.425
352	0.422
352	0.419
353	0.416
353	0.413
354	0.41
354	0.407
354	0.405
355	0.402
355	0.399
356	0.396
356	0.393
357	0.39
357	0.387
358	0.385
358	0.382
359	0.38
359	0.377
360	0.375
360	0.373
360	0.372
361	0.37
361	0.368
362	0.366
362	0.365
363	0.363
363	0.362
364	0.36
364	0.358
365	0.356
365	0.355
366	0.353
366	0.351
366	0.35
367	0.348
367	0.346
368	0.344
368	0.343
369	0.341
369	0.339
370	0.338
370	0.337
371	0.335
371	0.334
372	0.333
372	0.332
372	0.331
373	0.33
373	0.329
374	0.328
374	0.327
375	0.326
375	0.325
376	0.324
376	0.323
377	0.322
377	0.321
378	0.32
378	0.319
378	0.318
379	0.317
379	0.316
380	0.315
380	0.315
381	0.314
381	0.313
382	0.313
382	0.312
383	0.311
383	0.311
383	0.31
384	0.31
384	0.309
385	0.309
385	0.308
386	0.308
386	0.307
387	0.307
387	0.307
388	0.306
388	0.306
389	0.305
389	0.305
389	0.304
390	0.304
390	0.303
391	0.303
391	0.303
392	0.302
392	0.302
393	0.301
393	0.301
394	0.301
394	0.3
394	0.3
395	0.3
395	0.299
396	0.299
396	0.298
397	0.298
397	0.297
398	0.297
398	0.297
399	0.296
399	0.296
400	0.296
400	0.295
400	0.295
401	0.295
401	0.294
402	0.294
402	0.294
403	0.294
403	0.293
404	0.293
404	0.293
405	0.293
405	0.292
405	0.292
406	0.292
406	0.291
407	0.291
407	0.291
408	0.29
408	0.29
409	0.289
409	0.289
410	0.289
410	0.289
411	0.288
411	0.288
411	0.288
412	0.288
412	0.287
413	0.287
413	0.287
414	0.287
414	0.286
415	0.286
415	0.285
416	0.285
416	0.285
416	0.284
417	0.284
417	0.284
418	0.283
418	0.283
419	0.283
419	0.282
420	0.282
420	0.282
421	0.281
421	0.281
421	0.28
422	0.28
422	0.28
423	0.279
423	0.279
424	0.278
424	0.278
425	0.278
425	0.277
426	0.277
426	0.277
427	0.276
427	0.276
427	0.276
428	0.276
428	0.275
429	0.275
429	0.275
430	0.274
430	0.274
431	0.274
431	0.274
432	0.274
432	0.274
432	0.274
433	0.273
433	0.273
434	0.273
434	0.273
435	0.273
435	0.273
436	0.272
436	0.272
437	0.272
437	0.272
437	0.271
438	0.271
438	0.271
439	0.271
439	0.271
440	0.27
440	0.27
441	0.27
441	0.27
442	0.27
442	0.27
442	0.27
443	0.269
443	0.269
444	0.269
444	0.269
445	0.269
445	0.269
446	0.268
446	0.268
447	0.268
447	0.267
447	0.267
448	0.267
448	0.267
449	0.267
449	0.267
450	0.267
450	0.266
451	0.266
451	0.266
452	0.266
452	0.266
452	0.266
453	0.266
453	0.265
454	0.265
454	0.265
455	0.265
455	0.265
456	0.265
456	0.264
457	0.264
457	0.264
458	0.264
458	0.264
458	0.264
459	0.264
459	0.264
460	0.264
460	0.264
461	0.263
461	0.263
462	0.263
462	0.263
463	0.263
463	0.262
463	0.262
464	0.262
464	0.262
465	0.261
465	0.261
466	0.261
466	0.262
467	0.262
467	0.262
467	0.262
468	0.262
468	0.262
469	0.262
469	0.263
470	0.263
470	0.263
471	0.263
471	0.263
472	0.263
472	0.264
472	0.264
473	0.264
473	0.264
474	0.264
474	0.264
475	0.265
475	0.265
476	0.265
476	0.265
477	0.265
477	0.266
477	0.266
478	0.266
478	0.266
479	0.266
479	0.267
480	0.267
480	0.267
481	0.267
481	0.267
482	0.267
482	0.268
482	0.268
483	0.268
483	0.269
484	0.269
484	0.269
485	0.269
485	0.27
486	0.27
486	0.27
487	0.271
487	0.271
487	0.271
488	0.272
488	0.272
489	0.273
489	0.274
490	0.275
490	0.275
491	0.276
491	0.277
492	0.278
492	0.278
492	0.279
493	0.28
493	0.281
494	0.282
494	0.282
495	0.283
495	0.284
496	0.284
496	0.285
496	0.286
497	0.287
497	0.287
498	0.288
498	0.289
499	0.289
499	0.29
500	0.291
500	0.292
501	0.293
501	0.293
501	0.294
502	0.295
502	0.296
503	0.297
503	0.297
504	0.298
504	0.299
505	0.3
505	0.3
506	0.301
506	0.302
506	0.302
507	0.303
507	0.304
508	0.305
508	0.305
509	0.306
509	0.307
510	0.307
510	0.308
511	0.309
511	0.31
511	0.31
512	0.311
512	0.312
513	0.312
513	0.312
514	0.313
514	0.314
515	0.315
515	0.315
515	0.316
516	0.316
516	0.316
517	0.317
517	0.317
518	0.318
518	0.318
519	0.319
519	0.319
520	0.319
520	0.319
520	0.319
521	0.319
521	0.32
522	0.319
522	0.32
523	0.32
523	0.32
524	0.32
524	0.32
524	0.32
525	0.32
525	0.32
526	0.32
526	0.32
527	0.32
527	0.32
528	0.319
528	0.319
529	0.319
529	0.319
529	0.318
530	0.317
530	0.317
531	0.317
531	0.316
532	0.316
532	0.315
533	0.314
533	0.313
533	0.313
534	0.312
534	0.311
535	0.311
535	0.311
536	0.31
536	0.309
537	0.309
537	0.308
538	0.308
538	0.307
538	0.306
539	0.305
539	0.304
540	0.303
540	0.303
541	0.302
541	0.301
542	0.3
542	0.299
542	0.298
543	0.297
543	0.297
544	0.296
544	0.295
545	0.294
545	0.293
546	0.293
546	0.292
547	0.291
547	0.29
547	0.289
548	0.288
548	0.287
549	0.286
549	0.285
550	0.284
550	0.283
551	0.282
551	0.281
551	0.28
552	0.278
552	0.277
553	0.276
553	0.275
554	0.274
554	0.273
555	0.272
555	0.27
556	0.269
556	0.268
556	0.268
557	0.267
557	0.267
558	0.267
558	0.266
559	0.265
559	0.265
560	0.264
560	0.264
560	0.263
561	0.263
561	0.261
562	0.26
562	0.258
563	0.257
563	0.256
564	0.254
564	0.253
564	0.252
565	0.252
565	0.251
566	0.25
566	0.249
567	0.249
567	0.248
568	0.248
568	0.247
568	0.246
569	0.246
569	0.245
570	0.244
570	0.243
571	0.242
571	0.241
572	0.24
572	0.239
573	0.239
573	0.238
573	0.237
574	0.236
574	0.236
575	0.235
575	0.235
576	0.235
576	0.234
577	0.233
577	0.232
577	0.231
578	0.231
578	0.23
579	0.23
579	0.229
580	0.228
580	0.227
581	0.226
581	0.225
581	0.225
582	0.225
582	0.225
583	0.224
583	0.224
584	0.223
584	0.221
585	0.221
585	0.221
585	0.22
586	0.219
586	0.218
587	0.217
587	0.216
588	0.216
588	0.215
589	0.214
589	0.214
590	0.214
590	0.214
590	0.214
591	0.215
591	0.214
592	0.213
592	0.213
593	0.212
593	0.211
594	0.211
594	0.21
594	0.209
595	0.209
595	0.208
596	0.207
596	0.207
597	0.207
597	0.207
598	0.207
598	0.207
598	0.207
599	0.206
599	0.206
600	0.205
600	0.204
601	0.204
601	0.203
602	0.202
602	0.202
602	0.201
603	0.2
603	0.201
604	0.2
604	0.2
605	0.2
605	0.2
606	0.2
606	0.199
606	0.199
607	0.198
607	0.198
608	0.198
608	0.197
609	0.197
609	0.196
610	0.196
610	0.195
610	0.195
611	0.195
611	0.195
612	0.195
612	0.195
613	0.195
613	0.194
614	0.194
614	0.193
614	0.193
615	0.193
615	0.193
616	0.193
616	0.193
617	0.192
617	0.192
618	0.192
618	0.192
618	0.192
619	0.192
619	0.192
620	0.192
620	0.192
621	0.191
621	0.191
622	0.191
622	0.19
622	0.19
623	0.189
623	0.189
624	0.188
624	0.188
625	0.187
625	0.187
626	0.186
626	0.186
626	0.186
627	0.185
627	0.185
628	0.184
628	0.184
629	0.184
629	0.183
630	0.183
630	0.183
630	0.183
631	0.184
631	0.183
632	0.184
632	0.184
633	0.184
633	0.184
634	0.184
634	0.184
634	0.184
635	0.184
635	0.183
636	0.183
636	0.183
637	0.182
637	0.182
638	0.182
638	0.181
638	0.181
639	0.18
639	0.18
640	0.18
640	0.18
641	0.179
641	0.179
642	0.179
642	0.179
642	0.18
643	0.18
643	0.18
644	0.18
644	0.18
645	0.179
645	0.179
646	0.179
646	0.179
646	0.179
647	0.179
647	0.179
648	0.178
648	0.178
649	0.177
649	0.178
650	0.178
650	0.177
650	0.178
651	0.177
651	0.177
652	0.177
652	0.177
653	0.178
653	0.18
653	0.186
654	0.146
654	0.117
655	0.117
655	0.117
656	0.118
656	0.118
657	0.118
657	0.119
657	0.119
658	0.117
658	0.107
659	0.135
659	0.173
660	0.178
660	0.178
661	0.178
661	0.177
661	0.177
662	0.176
662	0.176
663	0.175
663	0.175
664	0.175
664	0.175
665	0.175
665	0.174
665	0.174
666	0.174
666	0.174
667	0.174
667	0.175
668	0.175
668	0.175
669	0.175
669	0.175
669	0.176
670	0.176
670	0.176
671	0.176
671	0.175
672	0.175
672	0.175
672	0.175
673	0.175
673	0.175
674	0.174
674	0.174
675	0.173
675	0.173
676	0.173
676	0.174
676	0.174
677	0.174
677	0.174
678	0.174
678	0.174
679	0.173
679	0.174
680	0.174
680	0.174
680	0.173
681	0.173
681	0.173
682	0.173
682	0.173
683	0.173
683	0.174
684	0.174
684	0.174
684	0.174
685	0.174
685	0.174
686	0.174
686	0.174
687	0.174
687	0.174
687	0.175
688	0.175
688	0.175
689	0.175
689	0.176
690	0.176
690	0.176
691	0.176
691	0.176
691	0.177
692	0.177
692	0.177
693	0.177
693	0.178
694	0.178
694	0.177
695	0.178
695	0.179
695	0.179
696	0.179
696	0.179
697	0.178
697	0.178
698	0.178
698	0.177
698	0.177
699	0.177
699	0.177
700	0.176
700	0.176
701	0.177
701	0.176
702	0.176
702	0.177
702	0.177
703	0.177
703	0.176
704	0.176
704	0.176
705	0.176
705	0.176
705	0.176
706	0.175
706	0.176
707	0.175
707	0.175
708	0.175
708	0.176
709	0.176
709	0.175
709	0.175
710	0.175
710	0.175
711	0.175
711	0.176
712	0.176
712	0.176
713	0.176
713	0.177
713	0.177
714	0.177
714	0.177
715	0.177
715	0.177
716	0.177
716	0.177
716	0.176
717	0.176
717	0.175
718	0.175
718	0.175
719	0.175
719	0.175
720	0.176
720	0.176
720	0.177
721	0.177
721	0.178
722	0.178
722	0.179
723	0.179
723	0.18
723	0.18
724	0.18
724	0.18
725	0.179
725	0.178
726	0.178
726	0.177
727	0.176
727	0.176
727	0.176
728	0.175
728	0.175
729	0.175
729	0.175
730	0.175
730	0.176
730	0.176
731	0.177
731	0.177
732	0.178
732	0.178
733	0.178
733	0.178
734	0.178
734	0.178
734	0.179
735	0.179
735	0.178
736	0.178
736	0.178
737	0.177
737	0.177
737	0.177
738	0.177
738	0.176
739	0.176
739	0.176
740	0.176
740	0.176
741	0.177
741	0.177
741	0.177
742	0.177
742	0.178
743	0.179
743	0.179
744	0.18
744	0.18
744	0.181
745	0.181
745	0.181
746	0.181
746	0.181
747	0.181
747	0.181
748	0.181
748	0.181
748	0.181
749	0.181
749	0.181
750	0.181
750	0.181
751	0.181
751	0.181
751	0.181
752	0.18
752	0.18
753	0.18
753	0.18
754	0.18
754	0.18
754	0.181
755	0.181
755	0.182
756	0.181
756	0.181
757	0.18
757	0.18
758	0.18
758	0.18
758	0.18
759	0.18
759	0.18
760	0.179
760	0.179
761	0.179
761	0.18
761	0.181
762	0.181
762	0.182
763	0.182
763	0.182
764	0.182
764	0.182
764	0.182
765	0.182
765	0.182
766	0.182
766	0.182
767	0.182
767	0.181
768	0.18
768	0.179
768	0.179
769	0.178
769	0.178
770	0.178
770	0.178
771	0.178
771	0.178
771	0.178
772	0.179
772	0.179
773	0.18
773	0.18
774	0.181
774	0.181
775	0.182
775	0.182
775	0.182
776	0.183
776	0.183
777	0.183
777	0.184
778	0.184
778	0.184
778	0.184
779	0.184
779	0.184
780	0.184
780	0.184
781	0.184
781	0.183
781	0.183
782	0.183
782	0.183
783	0.183
783	0.183
784	0.183
784	0.183
784	0.183
785	0.183
785	0.183
786	0.184
786	0.184
787	0.184
787	0.184
788	0.184
788	0.184
788	0.183
789	0.183
789	0.183
790	0.183
790	0.183
791	0.182
791	0.182
791	0.181
792	0.182
792	0.182
793	0.181
793	0.181
794	0.181
794	0.18
794	0.18
795	0.18
795	0.181
796	0.181
796	0.181
797	0.181
797	0.181
797	0.181
798	0.182
798	0.182
799	0.182
799	0.182
800	0.182
800	0.181
801	0.181
801	0.181
801	0.181
802	0.182
802	0.182
803	0.182
803	0.182
804	0.183
804	0.184
804	0.184
805	0.185
805	0.185
806	0.185
806	0.185
807	0.185
807	0.185
807	0.184
808	0.184
808	0.183
809	0.182
809	0.182
810	0.181
810	0.181
810	0.18
811	0.18
811	0.18
812	0.181
812	0.181
813	0.181
813	0.181
813	0.182
814	0.182
814	0.183
815	0.183
815	0.183
816	0.183
816	0.183
817	0.182
817	0.182
817	0.182
818	0.182
818	0.182
819	0.182
819	0.181
820	0.18
820	0.18
820	0.18
821	0.18
821	0.18
822	0.18
822	0.18
823	0.18
823	0.18
823	0.18
824	0.181
824	0.182
825	0.183
825	0.183
826	0.183
826	0.183
826	0.183
827	0.183
827	0.182
828	0.181
828	0.181
829	0.18
829	0.179
829	0.179
830	0.178
830	0.178
831	0.179
831	0.179
832	0.179
832	0.179
832	0.179
833	0.179
833	0.179
834	0.179
834	0.179
835	0.178
835	0.178
835	0.178
836	0.178
836	0.178
837	0.178
837	0.178
838	0.178
838	0.178
839	0.177
839	0.176
839	0.176
840	0.175
840	0.174
841	0.173
841	0.171
842	0.17
842	0.169
842	0.169
843	0.168
843	0.167
844	0.167
844	0.167
845	0.166
845	0.166
845	0.166
846	0.166
846	0.166
847	0.166
847	0.166
848	0.167
848	0.167
848	0.167
849	0.167
849	0.167
850	0.167
850	0.167
851	0.167
851	0.167
851	0.167
852	0.166
852	0.166
853	0.165
853	0.165
854	0.165
854	0.165
854	0.165
855	0.165
855	0.166
856	0.166
856	0.167
857	0.167
857	0.167
857	0.167
858	0.167
858	0.166
859	0.165
859	0.163
860	0.162
860	0.161
860	0.159
861	0.158
861	0.157
862	0.155
862	0.154
863	0.154
863	0.153
863	0.153
864	0.153
864	0.153
865	0.153
865	0.153
866	0.153
866	0.153
866	0.153
867	0.153
867	0.153
868	0.153
868	0.153
869	0.153
869	0.152
869	0.152
870	0.151
870	0.151
871	0.151
871	0.151
872	0.151
872	0.151
872	0.151
873	0.15
873	0.15
874	0.149
874	0.149
875	0.149
875	0.149
875	0.149
876	0.149
876	0.149
877	0.149
877	0.149
878	0.15
878	0.151
878	0.151
879	0.152
879	0.152
880	0.153
880	0.153
881	0.153
881	0.153
881	0.152
882	0.152
882	0.151
883	0.151
883	0.15
884	0.15
884	0.149
884	0.148
885	0.148
885	0.148
886	0.147
886	0.147
887	0.146
887	0.145
887	0.145
888	0.144
888	0.143
889	0.143
889	0.142
890	0.142
890	0.141
890	0.141
891	0.141
891	0.141
892	0.141
892	0.141
893	0.141
893	0.141
893	0.14
894	0.14
894	0.14
895	0.139
895	0.139
895	0.138
896	0.138
896	0.137
897	0.136
897	0.136
898	0.135
898	0.134
898	0.134
899	0.133
899	0.133
900	0.132
900	0.132
901	0.132
901	0.132
901	0.132
902	0.133
902	0.133
903	0.133
903	0.133
904	0.133
904	0.133
904	0.133
905	0.133
905	0.133
906	0.133
906	0.133
907	0.133
907	0.133
907	0.133
908	0.133
908	0.133
909	0.132
909	0.132
910	0.132
910	0.132
910	0.131
911	0.131
911	0.13
912	0.13
912	0.13
913	0.129
913	0.129
913	0.129
914	0.129
914	0.129
915	0.129
915	0.128
916	0.128
916	0.127
916	0.126
917	0.125
917	0.125
918	0.124
918	0.123
918	0.122
919	0.122
919	0.121
920	0.121
920	0.121
921	0.121
921	0.121
921	0.12
922	0.12
922	0.12
923	0.121
923	0.121
924	0.121
924	0.122
924	0.122
925	0.123
925	0.124
926	0.124
926	0.124
927	0.125
927	0.125
927	0.125
928	0.125
928	0.125
929	0.124
929	0.124
930	0.124
930	0.123
930	0.123
931	0.123
931	0.123
932	0.122
932	0.122
933	0.122
933	0.121
933	0.121
934	0.12
934	0.12
935	0.119
935	0.119
935	0.118
936	0.117
936	0.116
937	0.116
937	0.116
938	0.115
938	0.115
938	0.114
939	0.114
939	0.113
940	0.113
940	0.113
941	0.112
941	0.112
941	0.112
942	0.112
942	0.112
943	0.112
943	0.111
944	0.111
944	0.111
944	0.111
945	0.11
945	0.11
946	0.11
946	0.109
946	0.109
947	0.109
947	0.109
948	0.109
948	0.109
949	0.108
949	0.109
949	0.109
950	0.109
950	0.109
951	0.109
951	0.109
952	0.108
952	0.108
952	0.108
953	0.107
953	0.107
954	0.107
954	0.106
955	0.106
955	0.105
955	0.105
956	0.105
956	0.105
957	0.105
957	0.105
957	0.105
958	0.105
958	0.105
959	0.105
959	0.105
960	0.105
960	0.106
960	0.105
961	0.105
961	0.105
962	0.105
962	0.104
963	0.104
963	0.104
963	0.104
964	0.104
964	0.103
965	0.103
965	0.103
966	0.104
966	0.104
966	0.104
967	0.104
967	0.104
968	0.104
968	0.104
968	0.104
969	0.104
969	0.104
970	0.104
970	0.103
971	0.103
971	0.102
971	0.102
972	0.102
972	0.101
973	0.101
973	0.1
974	0.1
974	0.1
974	0.1
975	0.101
975	0.101
976	0.101
976	0.101
976	0.101
977	0.102
977	0.102
978	0.101
978	0.101
979	0.101
979	0.101
979	0.101
980	0.101
980	0.1
981	0.099
981	0.099
982	0.098
982	0.098
982	0.097
983	0.096
983	0.096
984	0.095
984	0.094
984	0.093
985	0.092
985	0.091
986	0.09
986	0.09
987	0.089
987	0.088
987	0.087
988	0.087
988	0.086
989	0.085
989	0.084
990	0.084
990	0.083
990	0.083
991	0.083
991	0.082
992	0.082
992	0.082
992	0.082
993	0.082
993	0.082
994	0.081
994	0.081
995	0.081
995	0.082
995	0.082
996	0.083
996	0.083
997	0.084
997	0.085
997	0.086
998	0.087
998	0.087
999	0.088
999	0.089
1000	0.09
1000	0.091
1000	0.091
1001	0.091
1001	0.092
1002	0.092
1002	0.092
1003	0.092
1003	0.091
1003	0.091
1004	0.09
1004	0.089
1005	0.089
1005	0.089
1005	0.088
1006	0.087
1006	0.087
1007	0.087
1007	0.087
1008	0.087
1008	0.087
1008	0.087
1009	0.087
1009	0.087
1010	0.087
1010	0.087
1010	0.086
1011	0.086
1011	0.086
1012	0.085
1012	0.085
1013	0.085
1013	0.084
1013	0.084
1014	0.084
1014	0.084
1015	0.084
1015	0.084
1016	0.083
1016	0.083
1016	0.083
1017	0.082
1017	0.082
1018	0.081
1018	0.081
1018	0.08
1019	0.08
1019	0.079
1020	0.079
1020	0.079
1021	0.078
1021	0.079
1021	0.079
1022	0.079
1022	0.079
1023	0.079
1023	0.079
1023	0.079
1024	0.079
1024	0.079
1025	0.079
1025	0.079
1026	0.078
1026	0.078
1026	0.077
1027	0.077
1027	0.076
1028	0.076
1028	0.075
1028	0.074
1029	0.074
1029	0.073
1030	0.073
1030	0.073
1031	0.073
1031	0.072
1031	0.072
1032	0.072
1032	0.072
1033	0.072
1033	0.072
1033	0.072
1034	0.071
1034	0.071
1035	0.071
1035	0.071
1036	0.071
1036	0.07
1036	0.071
1037	0.07
1037	0.07
1038	0.07
1038	0.07
1039	0.07
1039	0.07
1039	0.071
1040	0.071
1040	0.072
1041	0.072
1041	0.072
1041	0.073
1042	0.074
1042	0.074
1043	0.074
1043	0.075
1044	0.075
1044	0.075
1044	0.076
1045	0.076
1045	0.076
1046	0.077
1046	0.077
1046	0.077
1047	0.078
1047	0.078
1048	0.078
1048	0.079
1049	0.079
1049	0.079
1049	0.079
1050	0.078
1050	0.078
1051	0.077
1051	0.077
1051	0.076
1052	0.075
1052	0.074
1053	0.073
1053	0.073
1053	0.072
1054	0.072
1054	0.071
1055	0.071
1055	0.071
1056	0.07
1056	0.07
1056	0.07
1057	0.069
1057	0.068
1058	0.067
1058	0.066
1058	0.066
1059	0.065
1059	0.065
1060	0.064
1060	0.063
1061	0.063
1061	0.063
1061	0.063
1062	0.062
1062	0.062
1063	0.062
1063	0.062
1063	0.062
1064	0.062
1064	0.062
1065	0.061
1065	0.061
1066	0.061
1066	0.061
1066	0.061
1067	0.061
1067	0.06
1068	0.06
1068	0.06
1068	0.06
1069	0.06
1069	0.059
1070	0.059
1070	0.058
1071	0.058
1071	0.058
1071	0.057
1072	0.057
1072	0.057
1073	0.056
1073	0.056
1073	0.056
1074	0.056
1074	0.056
1075	0.056
1075	0.057
1076	0.057
1076	0.058
1076	0.058
1077	0.058
1077	0.059
1078	0.059
1078	0.059
1078	0.059
1079	0.059
1079	0.059
1080	0.059
1080	0.059
1080	0.059
1081	0.059
1081	0.059
1082	0.059
1082	0.06
1083	0.06
1083	0.059
1083	0.059
1084	0.059
1084	0.059
1085	0.059
1085	0.059
1085	0.058
1086	0.058
1086	0.058
1087	0.057
1087	0.056
1088	0.056
1088	0.056
1088	0.056
1089	0.055
1089	0.054
1090	0.053
1090	0.053
1090	0.051
1091	0.051
1091	0.051
1092	0.051
1092	0.051
1092	0.05
1093	0.05
1093	0.05
1094	0.05
1094	0.05
1095	0.05
1095	0.05
1095	0.05
1096	0.049
1096	0.049
1097	0.048
1097	0.047
1097	0.047
1098	0.046
1098	0.045
1099	0.045
1099	0.044
1100	0.044
1100	0.043
1100	0.043
1101	0.042
1101	0.041
1102	0.041
1102	0.04
1102	0.039
1103	0.038
1103	0.037
1104	0.036
1104	0.036
1104	0.035
1105	0.033
1105	0.032
1106	0.03
1106	0.029
1107	0.029
1107	0.029
1107	0.029
1108	0.029
1108	0.028
1109	0.028
1109	0.027
1109	0.027
1110	0.029
1110	0.03
1111	0.032
1111	0.032
