Data from reversibility-20sec_Absorbance__7853__000000000007853.txt Node

Date: Thu Dec 07 07:50:46 CET 2023
User: Marek
Spectrometer: MAYP115816
Trigger mode: 0
Integration Time (sec): 2.000000E-1
Scans to average: 10
Electric dark correction enabled: true
Nonlinearity correction enabled: true
Boxcar width: 5
XAxis mode: Wavelengths
Number of Pixels in Spectrum: 2068
>>>>>Begin Spectral Data<<<<<
199	-0.114
199	-0.084
200	-0.023
200	0.026
201	0.056
201	0.071
202	0.079
202	0.091
203	0.096
203	0.099
204	0.113
204	0.123
205	0.132
205	0.137
205	0.135
206	0.133
206	0.134
207	0.139
207	0.137
208	0.14
208	0.138
209	0.142
209	0.141
210	0.143
210	0.145
211	0.147
211	0.152
212	0.15
212	0.149
213	0.15
213	0.148
213	0.149
214	0.153
214	0.153
215	0.154
215	0.152
216	0.151
216	0.149
217	0.153
217	0.156
218	0.156
218	0.161
219	0.166
219	0.164
220	0.167
220	0.166
221	0.17
221	0.175
221	0.182
222	0.19
222	0.195
223	0.201
223	0.205
224	0.21
224	0.217
225	0.229
225	0.241
226	0.25
226	0.257
227	0.261
227	0.271
228	0.285
228	0.301
229	0.318
229	0.342
229	0.365
230	0.385
230	0.414
231	0.445
231	0.484
232	0.525
232	0.568
233	0.609
233	0.657
234	0.705
234	0.759
235	0.813
235	0.869
236	0.921
236	0.975
236	1.026
237	1.077
237	1.123
238	1.168
238	1.211
239	1.258
239	1.297
240	1.336
240	1.374
241	1.406
241	1.441
242	1.473
242	1.504
243	1.534
243	1.56
243	1.586
244	1.606
244	1.627
245	1.646
245	1.665
246	1.683
246	1.697
247	1.711
247	1.723
248	1.736
248	1.749
249	1.758
249	1.765
250	1.772
250	1.779
250	1.782
251	1.785
251	1.791
252	1.796
252	1.797
253	1.798
253	1.797
254	1.799
254	1.801
255	1.799
255	1.801
256	1.8
256	1.799
257	1.797
257	1.795
258	1.793
258	1.793
258	1.791
259	1.79
259	1.789
260	1.788
260	1.788
261	1.789
261	1.792
262	1.794
262	1.794
263	1.797
263	1.797
264	1.801
264	1.8
265	1.801
265	1.802
265	1.802
266	1.801
266	1.799
267	1.796
267	1.796
268	1.795
268	1.796
269	1.795
269	1.794
270	1.794
270	1.793
271	1.792
271	1.792
272	1.79
272	1.791
272	1.789
273	1.784
273	1.779
274	1.774
274	1.768
275	1.761
275	1.754
276	1.746
276	1.738
277	1.729
277	1.717
278	1.706
278	1.693
278	1.68
279	1.664
279	1.647
280	1.625
280	1.598
281	1.567
281	1.53
282	1.491
282	1.452
283	1.412
283	1.372
284	1.333
284	1.295
285	1.258
285	1.225
285	1.194
286	1.167
286	1.144
287	1.123
287	1.105
288	1.09
288	1.076
289	1.065
289	1.056
290	1.047
290	1.039
291	1.033
291	1.027
292	1.022
292	1.017
292	1.012
293	1.008
293	1.004
294	1
294	0.996
295	0.993
295	0.989
296	0.986
296	0.982
297	0.979
297	0.975
298	0.972
298	0.969
298	0.966
299	0.963
299	0.96
300	0.956
300	0.953
301	0.95
301	0.947
302	0.945
302	0.942
303	0.94
303	0.937
304	0.935
304	0.932
305	0.93
305	0.927
305	0.925
306	0.922
306	0.92
307	0.917
307	0.915
308	0.911
308	0.909
309	0.905
309	0.903
310	0.899
310	0.896
311	0.893
311	0.889
311	0.886
312	0.882
312	0.879
313	0.875
313	0.871
314	0.868
314	0.863
315	0.859
315	0.855
316	0.85
316	0.846
317	0.841
317	0.836
318	0.831
318	0.825
318	0.82
319	0.815
319	0.809
320	0.804
320	0.797
321	0.791
321	0.785
322	0.779
322	0.772
323	0.766
323	0.759
324	0.753
324	0.746
324	0.739
325	0.732
325	0.726
326	0.719
326	0.712
327	0.704
327	0.697
328	0.69
328	0.683
329	0.676
329	0.669
330	0.661
330	0.654
330	0.647
331	0.639
331	0.632
332	0.625
332	0.618
333	0.611
333	0.604
334	0.597
334	0.59
335	0.583
335	0.576
336	0.57
336	0.563
336	0.556
337	0.55
337	0.543
338	0.537
338	0.53
339	0.524
339	0.518
340	0.512
340	0.506
341	0.501
341	0.495
342	0.489
342	0.484
342	0.479
343	0.473
343	0.468
344	0.463
344	0.458
345	0.453
345	0.448
346	0.443
346	0.439
347	0.434
347	0.43
348	0.426
348	0.422
348	0.418
349	0.414
349	0.41
350	0.406
350	0.403
351	0.399
351	0.396
352	0.393
352	0.39
353	0.387
353	0.384
354	0.381
354	0.378
354	0.375
355	0.372
355	0.369
356	0.366
356	0.363
357	0.361
357	0.358
358	0.355
358	0.353
359	0.35
359	0.348
360	0.346
360	0.344
360	0.341
361	0.339
361	0.337
362	0.336
362	0.334
363	0.332
363	0.33
364	0.328
364	0.326
365	0.324
365	0.322
366	0.32
366	0.319
366	0.317
367	0.315
367	0.313
368	0.312
368	0.31
369	0.309
369	0.308
370	0.306
370	0.305
371	0.303
371	0.302
372	0.301
372	0.3
372	0.299
373	0.297
373	0.296
374	0.295
374	0.294
375	0.293
375	0.292
376	0.291
376	0.291
377	0.289
377	0.288
378	0.288
378	0.287
378	0.286
379	0.285
379	0.284
380	0.283
380	0.283
381	0.282
381	0.281
382	0.281
382	0.28
383	0.279
383	0.279
383	0.278
384	0.278
384	0.277
385	0.277
385	0.276
386	0.276
386	0.275
387	0.275
387	0.274
388	0.274
388	0.274
389	0.273
389	0.273
389	0.273
390	0.272
390	0.272
391	0.271
391	0.271
392	0.27
392	0.27
393	0.27
393	0.269
394	0.269
394	0.269
394	0.268
395	0.268
395	0.268
396	0.267
396	0.267
397	0.267
397	0.266
398	0.266
398	0.266
399	0.265
399	0.265
400	0.264
400	0.264
400	0.264
401	0.263
401	0.263
402	0.262
402	0.262
403	0.262
403	0.261
404	0.261
404	0.261
405	0.261
405	0.261
405	0.26
406	0.26
406	0.26
407	0.259
407	0.259
408	0.259
408	0.259
409	0.258
409	0.258
410	0.258
410	0.258
411	0.258
411	0.257
411	0.257
412	0.257
412	0.256
413	0.256
413	0.255
414	0.255
414	0.255
415	0.255
415	0.254
416	0.254
416	0.253
416	0.253
417	0.253
417	0.253
418	0.252
418	0.252
419	0.251
419	0.251
420	0.25
420	0.25
421	0.25
421	0.249
421	0.249
422	0.248
422	0.248
423	0.248
423	0.247
424	0.247
424	0.247
425	0.247
425	0.247
426	0.246
426	0.246
427	0.246
427	0.245
427	0.245
428	0.245
428	0.244
429	0.244
429	0.243
430	0.243
430	0.243
431	0.242
431	0.242
432	0.242
432	0.242
432	0.241
433	0.241
433	0.241
434	0.241
434	0.241
435	0.241
435	0.241
436	0.241
436	0.241
437	0.24
437	0.24
437	0.24
438	0.24
438	0.239
439	0.239
439	0.239
440	0.238
440	0.238
441	0.238
441	0.238
442	0.237
442	0.237
442	0.237
443	0.237
443	0.237
444	0.236
444	0.236
445	0.236
445	0.236
446	0.236
446	0.235
447	0.235
447	0.235
447	0.235
448	0.235
448	0.235
449	0.235
449	0.235
450	0.235
450	0.235
451	0.235
451	0.235
452	0.235
452	0.234
452	0.234
453	0.234
453	0.234
454	0.234
454	0.233
455	0.233
455	0.233
456	0.233
456	0.232
457	0.232
457	0.232
458	0.232
458	0.232
458	0.232
459	0.232
459	0.231
460	0.231
460	0.231
461	0.231
461	0.231
462	0.231
462	0.231
463	0.231
463	0.231
463	0.231
464	0.231
464	0.23
465	0.23
465	0.23
466	0.23
466	0.23
467	0.23
467	0.23
467	0.23
468	0.23
468	0.23
469	0.23
469	0.231
470	0.231
470	0.231
471	0.231
471	0.231
472	0.231
472	0.231
472	0.231
473	0.231
473	0.231
474	0.231
474	0.231
475	0.231
475	0.231
476	0.231
476	0.232
477	0.232
477	0.232
477	0.232
478	0.232
478	0.232
479	0.233
479	0.233
480	0.233
480	0.233
481	0.233
481	0.233
482	0.234
482	0.234
482	0.234
483	0.234
483	0.235
484	0.235
484	0.235
485	0.235
485	0.235
486	0.235
486	0.235
487	0.236
487	0.236
487	0.236
488	0.237
488	0.237
489	0.237
489	0.238
490	0.239
490	0.24
491	0.241
491	0.242
492	0.242
492	0.243
492	0.243
493	0.244
493	0.245
494	0.245
494	0.246
495	0.246
495	0.247
496	0.247
496	0.248
496	0.249
497	0.25
497	0.25
498	0.251
498	0.251
499	0.252
499	0.253
500	0.254
500	0.255
501	0.255
501	0.256
501	0.256
502	0.256
502	0.257
503	0.258
503	0.258
504	0.259
504	0.259
505	0.26
505	0.26
506	0.261
506	0.262
506	0.263
507	0.263
507	0.264
508	0.264
508	0.265
509	0.265
509	0.266
510	0.266
510	0.267
511	0.267
511	0.268
511	0.269
512	0.269
512	0.27
513	0.27
513	0.271
514	0.271
514	0.272
515	0.272
515	0.273
515	0.273
516	0.273
516	0.274
517	0.275
517	0.275
518	0.275
518	0.275
519	0.276
519	0.276
520	0.276
520	0.276
520	0.276
521	0.276
521	0.277
522	0.277
522	0.277
523	0.277
523	0.277
524	0.277
524	0.277
524	0.277
525	0.278
525	0.277
526	0.277
526	0.277
527	0.277
527	0.277
528	0.277
528	0.277
529	0.276
529	0.276
529	0.275
530	0.274
530	0.274
531	0.273
531	0.273
532	0.272
532	0.272
533	0.271
533	0.27
533	0.27
534	0.269
534	0.269
535	0.268
535	0.268
536	0.267
536	0.267
537	0.266
537	0.266
538	0.265
538	0.264
538	0.263
539	0.263
539	0.262
540	0.261
540	0.261
541	0.26
541	0.259
542	0.258
542	0.258
542	0.257
543	0.256
543	0.255
544	0.254
544	0.253
545	0.253
545	0.252
546	0.251
546	0.25
547	0.248
547	0.247
547	0.246
548	0.246
548	0.245
549	0.244
549	0.243
550	0.242
550	0.241
551	0.24
551	0.24
551	0.239
552	0.238
552	0.237
553	0.236
553	0.235
554	0.234
554	0.233
555	0.232
555	0.231
556	0.23
556	0.229
556	0.228
557	0.228
557	0.227
558	0.227
558	0.226
559	0.226
559	0.225
560	0.224
560	0.224
560	0.223
561	0.222
561	0.221
562	0.22
562	0.218
563	0.217
563	0.216
564	0.215
564	0.214
564	0.213
565	0.213
565	0.212
566	0.211
566	0.211
567	0.21
567	0.21
568	0.209
568	0.208
568	0.208
569	0.207
569	0.206
570	0.205
570	0.203
571	0.202
571	0.202
572	0.201
572	0.2
573	0.199
573	0.199
573	0.198
574	0.197
574	0.197
575	0.196
575	0.196
576	0.196
576	0.195
577	0.194
577	0.193
577	0.192
578	0.192
578	0.191
579	0.191
579	0.191
580	0.19
580	0.189
581	0.188
581	0.188
581	0.188
582	0.188
582	0.187
583	0.187
583	0.186
584	0.185
584	0.184
585	0.183
585	0.183
585	0.182
586	0.182
586	0.182
587	0.181
587	0.18
588	0.18
588	0.179
589	0.179
589	0.179
590	0.179
590	0.178
590	0.178
591	0.178
591	0.177
592	0.176
592	0.175
593	0.175
593	0.174
594	0.174
594	0.173
594	0.172
595	0.172
595	0.171
596	0.17
596	0.17
597	0.17
597	0.171
598	0.17
598	0.17
598	0.17
599	0.169
599	0.169
600	0.169
600	0.168
601	0.168
601	0.168
602	0.167
602	0.166
602	0.166
603	0.166
603	0.166
604	0.166
604	0.166
605	0.166
605	0.166
606	0.165
606	0.164
606	0.164
607	0.163
607	0.163
608	0.162
608	0.161
609	0.161
609	0.16
610	0.16
610	0.159
610	0.159
611	0.159
611	0.159
612	0.159
612	0.159
613	0.159
613	0.159
614	0.159
614	0.159
614	0.159
615	0.159
615	0.159
616	0.159
616	0.159
617	0.159
617	0.158
618	0.158
618	0.158
618	0.158
619	0.158
619	0.158
620	0.158
620	0.158
621	0.157
621	0.156
622	0.156
622	0.155
622	0.155
623	0.154
623	0.154
624	0.154
624	0.153
625	0.153
625	0.153
626	0.152
626	0.152
626	0.152
627	0.152
627	0.152
628	0.152
628	0.152
629	0.152
629	0.152
630	0.151
630	0.151
630	0.151
631	0.151
631	0.151
632	0.15
632	0.15
633	0.149
633	0.149
634	0.149
634	0.149
634	0.149
635	0.149
635	0.149
636	0.149
636	0.149
637	0.148
637	0.148
638	0.148
638	0.148
638	0.147
639	0.147
639	0.146
640	0.146
640	0.146
641	0.146
641	0.146
642	0.146
642	0.146
642	0.146
643	0.146
643	0.146
644	0.147
644	0.147
645	0.147
645	0.147
646	0.147
646	0.147
646	0.147
647	0.146
647	0.146
648	0.145
648	0.144
649	0.144
649	0.144
650	0.144
650	0.144
650	0.144
651	0.144
651	0.144
652	0.144
652	0.144
653	0.145
653	0.147
653	0.152
654	0.121
654	0.097
655	0.096
655	0.096
656	0.097
656	0.097
657	0.097
657	0.097
657	0.098
658	0.096
658	0.088
659	0.11
659	0.14
660	0.146
660	0.146
661	0.145
661	0.144
661	0.144
662	0.144
662	0.143
663	0.143
663	0.142
664	0.142
664	0.142
665	0.142
665	0.142
665	0.142
666	0.142
666	0.142
667	0.142
667	0.142
668	0.143
668	0.143
669	0.143
669	0.144
669	0.144
670	0.144
670	0.144
671	0.144
671	0.144
672	0.143
672	0.143
672	0.142
673	0.142
673	0.142
674	0.142
674	0.141
675	0.141
675	0.141
676	0.141
676	0.141
676	0.141
677	0.142
677	0.142
678	0.142
678	0.142
679	0.142
679	0.142
680	0.142
680	0.142
680	0.142
681	0.142
681	0.142
682	0.143
682	0.143
683	0.143
683	0.144
684	0.144
684	0.144
684	0.143
685	0.144
685	0.144
686	0.143
686	0.143
687	0.143
687	0.142
687	0.142
688	0.142
688	0.142
689	0.143
689	0.143
690	0.143
690	0.143
691	0.143
691	0.143
691	0.143
692	0.143
692	0.144
693	0.144
693	0.144
694	0.144
694	0.144
695	0.145
695	0.146
695	0.146
696	0.146
696	0.146
697	0.146
697	0.146
698	0.146
698	0.146
698	0.146
699	0.146
699	0.146
700	0.145
700	0.145
701	0.145
701	0.144
702	0.144
702	0.143
702	0.143
703	0.142
703	0.141
704	0.141
704	0.141
705	0.141
705	0.14
705	0.14
706	0.141
706	0.141
707	0.141
707	0.142
708	0.142
708	0.142
709	0.143
709	0.143
709	0.142
710	0.143
710	0.143
711	0.143
711	0.143
712	0.144
712	0.143
713	0.143
713	0.143
713	0.143
714	0.143
714	0.143
715	0.142
715	0.142
716	0.141
716	0.141
716	0.14
717	0.14
717	0.14
718	0.14
718	0.14
719	0.14
719	0.141
720	0.141
720	0.142
720	0.143
721	0.144
721	0.145
722	0.146
722	0.146
723	0.147
723	0.147
723	0.147
724	0.146
724	0.146
725	0.145
725	0.144
726	0.143
726	0.142
727	0.142
727	0.141
727	0.141
728	0.141
728	0.141
729	0.141
729	0.141
730	0.142
730	0.142
730	0.143
731	0.143
731	0.144
732	0.144
732	0.145
733	0.145
733	0.145
734	0.145
734	0.145
734	0.146
735	0.146
735	0.146
736	0.145
736	0.145
737	0.145
737	0.145
737	0.145
738	0.144
738	0.144
739	0.144
739	0.144
740	0.144
740	0.144
741	0.145
741	0.145
741	0.146
742	0.146
742	0.147
743	0.148
743	0.148
744	0.149
744	0.149
744	0.149
745	0.148
745	0.148
746	0.148
746	0.148
747	0.148
747	0.147
748	0.147
748	0.147
748	0.147
749	0.147
749	0.148
750	0.148
750	0.148
751	0.148
751	0.148
751	0.148
752	0.148
752	0.147
753	0.147
753	0.147
754	0.146
754	0.145
754	0.145
755	0.145
755	0.145
756	0.144
756	0.143
757	0.143
757	0.143
758	0.143
758	0.143
758	0.144
759	0.144
759	0.144
760	0.144
760	0.144
761	0.144
761	0.145
761	0.145
762	0.145
762	0.146
763	0.146
763	0.145
764	0.145
764	0.145
764	0.145
765	0.145
765	0.145
766	0.145
766	0.144
767	0.144
767	0.143
768	0.143
768	0.143
768	0.143
769	0.143
769	0.144
770	0.144
770	0.144
771	0.144
771	0.144
771	0.145
772	0.145
772	0.146
773	0.146
773	0.146
774	0.146
774	0.147
775	0.147
775	0.148
775	0.148
776	0.149
776	0.15
777	0.151
777	0.151
778	0.151
778	0.151
778	0.15
779	0.15
779	0.149
780	0.147
780	0.146
781	0.145
781	0.143
781	0.142
782	0.141
782	0.141
783	0.141
783	0.141
784	0.14
784	0.141
784	0.141
785	0.142
785	0.142
786	0.143
786	0.143
787	0.144
787	0.144
788	0.143
788	0.143
788	0.143
789	0.143
789	0.143
790	0.143
790	0.143
791	0.143
791	0.143
791	0.143
792	0.143
792	0.143
793	0.142
793	0.142
794	0.142
794	0.141
794	0.141
795	0.141
795	0.141
796	0.141
796	0.14
797	0.14
797	0.14
797	0.14
798	0.141
798	0.141
799	0.141
799	0.141
800	0.141
800	0.141
801	0.141
801	0.141
801	0.142
802	0.142
802	0.142
803	0.142
803	0.143
804	0.143
804	0.144
804	0.144
805	0.144
805	0.144
806	0.144
806	0.144
807	0.144
807	0.144
807	0.144
808	0.144
808	0.143
809	0.143
809	0.143
810	0.143
810	0.143
810	0.142
811	0.142
811	0.142
812	0.142
812	0.142
813	0.142
813	0.142
813	0.142
814	0.142
814	0.143
815	0.143
815	0.143
816	0.142
816	0.142
817	0.141
817	0.141
817	0.141
818	0.14
818	0.14
819	0.14
819	0.139
820	0.138
820	0.138
820	0.138
821	0.138
821	0.138
822	0.137
822	0.137
823	0.137
823	0.137
823	0.137
824	0.137
824	0.138
825	0.139
825	0.14
826	0.141
826	0.141
826	0.142
827	0.143
827	0.143
828	0.144
828	0.144
829	0.144
829	0.144
829	0.144
830	0.145
830	0.145
831	0.146
831	0.146
832	0.146
832	0.146
832	0.146
833	0.146
833	0.145
834	0.145
834	0.144
835	0.144
835	0.143
835	0.142
836	0.141
836	0.141
837	0.14
837	0.139
838	0.139
838	0.138
839	0.137
839	0.136
839	0.135
840	0.135
840	0.134
841	0.133
841	0.132
842	0.132
842	0.131
842	0.13
843	0.129
843	0.129
844	0.128
844	0.128
845	0.127
845	0.127
845	0.127
846	0.127
846	0.127
847	0.127
847	0.127
848	0.128
848	0.128
848	0.128
849	0.128
849	0.127
850	0.127
850	0.127
851	0.126
851	0.126
851	0.126
852	0.125
852	0.125
853	0.125
853	0.125
854	0.126
854	0.127
854	0.128
855	0.129
855	0.13
856	0.131
856	0.132
857	0.133
857	0.134
857	0.134
858	0.134
858	0.134
859	0.134
859	0.134
860	0.133
860	0.133
860	0.132
861	0.131
861	0.13
862	0.129
862	0.129
863	0.128
863	0.128
863	0.128
864	0.128
864	0.128
865	0.128
865	0.128
866	0.128
866	0.128
866	0.128
867	0.128
867	0.128
868	0.128
868	0.128
869	0.128
869	0.128
869	0.128
870	0.128
870	0.128
871	0.128
871	0.128
872	0.128
872	0.127
872	0.127
873	0.127
873	0.126
874	0.126
874	0.125
875	0.125
875	0.125
875	0.124
876	0.124
876	0.124
877	0.124
877	0.124
878	0.124
878	0.124
878	0.124
879	0.124
879	0.124
880	0.124
880	0.124
881	0.124
881	0.124
881	0.124
882	0.124
882	0.124
883	0.124
883	0.124
884	0.124
884	0.124
884	0.124
885	0.123
885	0.123
886	0.123
886	0.122
887	0.122
887	0.121
887	0.121
888	0.121
888	0.121
889	0.121
889	0.121
890	0.121
890	0.121
890	0.121
891	0.121
891	0.121
892	0.121
892	0.12
893	0.12
893	0.119
893	0.119
894	0.118
894	0.118
895	0.117
895	0.117
895	0.117
896	0.117
896	0.118
897	0.118
897	0.118
898	0.119
898	0.119
898	0.119
899	0.119
899	0.119
900	0.119
900	0.119
901	0.119
901	0.118
901	0.118
902	0.117
902	0.117
903	0.117
903	0.116
904	0.116
904	0.116
904	0.115
905	0.115
905	0.115
906	0.114
906	0.114
907	0.114
907	0.114
907	0.114
908	0.113
908	0.113
909	0.112
909	0.112
910	0.111
910	0.111
910	0.111
911	0.11
911	0.11
912	0.109
912	0.109
913	0.108
913	0.108
913	0.108
914	0.107
914	0.107
915	0.106
915	0.106
916	0.106
916	0.105
916	0.105
917	0.105
917	0.104
918	0.104
918	0.103
918	0.103
919	0.103
919	0.102
920	0.102
920	0.102
921	0.102
921	0.102
921	0.102
922	0.102
922	0.102
923	0.102
923	0.103
924	0.103
924	0.103
924	0.104
925	0.104
925	0.105
926	0.105
926	0.105
927	0.106
927	0.106
927	0.106
928	0.106
928	0.106
929	0.107
929	0.107
930	0.107
930	0.107
930	0.107
931	0.107
931	0.107
932	0.107
932	0.107
933	0.107
933	0.106
933	0.106
934	0.105
934	0.104
935	0.104
935	0.103
935	0.103
936	0.102
936	0.102
937	0.101
937	0.1
938	0.1
938	0.099
938	0.098
939	0.097
939	0.097
940	0.096
940	0.096
941	0.096
941	0.096
941	0.096
942	0.097
942	0.097
943	0.098
943	0.098
944	0.099
944	0.099
944	0.1
945	0.1
945	0.101
946	0.101
946	0.101
946	0.101
947	0.102
947	0.101
948	0.101
948	0.101
949	0.1
949	0.1
949	0.099
950	0.098
950	0.098
951	0.097
951	0.096
952	0.095
952	0.095
952	0.094
953	0.093
953	0.093
954	0.093
954	0.092
955	0.092
955	0.092
955	0.092
956	0.093
956	0.093
957	0.094
957	0.094
957	0.095
958	0.096
958	0.096
959	0.096
959	0.097
960	0.097
960	0.097
960	0.097
961	0.097
961	0.097
962	0.096
962	0.096
963	0.095
963	0.095
963	0.095
964	0.095
964	0.094
965	0.094
965	0.094
966	0.094
966	0.094
966	0.094
967	0.094
967	0.094
968	0.094
968	0.094
968	0.094
969	0.094
969	0.093
970	0.093
970	0.092
971	0.091
971	0.091
971	0.09
972	0.09
972	0.089
973	0.088
973	0.088
974	0.088
974	0.088
974	0.088
975	0.088
975	0.088
976	0.089
976	0.089
976	0.089
977	0.089
977	0.089
978	0.09
978	0.09
979	0.09
979	0.09
979	0.091
980	0.091
980	0.091
981	0.091
981	0.091
982	0.091
982	0.091
982	0.091
983	0.091
983	0.091
984	0.091
984	0.091
984	0.091
985	0.09
985	0.09
986	0.09
986	0.09
987	0.089
987	0.089
987	0.088
988	0.088
988	0.088
989	0.087
989	0.087
990	0.086
990	0.086
990	0.086
991	0.086
991	0.085
992	0.085
992	0.084
992	0.083
993	0.083
993	0.082
994	0.081
994	0.081
995	0.08
995	0.079
995	0.079
996	0.079
996	0.079
997	0.079
997	0.08
997	0.08
998	0.08
998	0.081
999	0.081
999	0.081
1000	0.082
1000	0.082
1000	0.082
1001	0.082
1001	0.083
1002	0.083
1002	0.083
1003	0.083
1003	0.082
1003	0.082
1004	0.082
1004	0.081
1005	0.081
1005	0.081
1005	0.08
1006	0.08
1006	0.08
1007	0.079
1007	0.079
1008	0.079
1008	0.078
1008	0.078
1009	0.078
1009	0.078
1010	0.077
1010	0.077
1010	0.077
1011	0.077
1011	0.076
1012	0.076
1012	0.075
1013	0.075
1013	0.074
1013	0.074
1014	0.073
1014	0.073
1015	0.073
1015	0.073
1016	0.073
1016	0.073
1016	0.073
1017	0.074
1017	0.074
1018	0.074
1018	0.074
1018	0.075
1019	0.075
1019	0.075
1020	0.075
1020	0.075
1021	0.076
1021	0.076
1021	0.076
1022	0.077
1022	0.077
1023	0.077
1023	0.077
1023	0.077
1024	0.077
1024	0.077
1025	0.077
1025	0.077
1026	0.077
1026	0.076
1026	0.076
1027	0.077
1027	0.077
1028	0.077
1028	0.077
1028	0.077
1029	0.077
1029	0.077
1030	0.077
1030	0.077
1031	0.077
1031	0.077
1031	0.077
1032	0.077
1032	0.078
1033	0.078
1033	0.078
1033	0.078
1034	0.078
1034	0.078
1035	0.078
1035	0.078
1036	0.078
1036	0.078
1036	0.078
1037	0.078
1037	0.078
1038	0.078
1038	0.078
1039	0.077
1039	0.077
1039	0.077
1040	0.076
1040	0.076
1041	0.076
1041	0.076
1041	0.075
1042	0.075
1042	0.075
1043	0.074
1043	0.074
1044	0.074
1044	0.073
1044	0.073
1045	0.073
1045	0.073
1046	0.072
1046	0.072
1046	0.072
1047	0.072
1047	0.072
1048	0.072
1048	0.072
1049	0.072
1049	0.072
1049	0.072
1050	0.072
1050	0.072
1051	0.071
1051	0.071
1051	0.07
1052	0.07
1052	0.069
1053	0.068
1053	0.067
1053	0.067
1054	0.066
1054	0.066
1055	0.065
1055	0.065
1056	0.065
1056	0.064
1056	0.064
1057	0.064
1057	0.064
1058	0.064
1058	0.063
1058	0.063
1059	0.062
1059	0.063
1060	0.062
1060	0.062
1061	0.062
1061	0.062
1061	0.062
1062	0.062
1062	0.062
1063	0.062
1063	0.062
1063	0.062
1064	0.062
1064	0.062
1065	0.062
1065	0.062
1066	0.063
1066	0.063
1066	0.062
1067	0.063
1067	0.062
1068	0.062
1068	0.062
1068	0.062
1069	0.062
1069	0.062
1070	0.061
1070	0.06
1071	0.06
1071	0.06
1071	0.059
1072	0.059
1072	0.059
1073	0.058
1073	0.058
1073	0.057
1074	0.057
1074	0.057
1075	0.057
1075	0.058
1076	0.058
1076	0.058
1076	0.059
1077	0.059
1077	0.059
1078	0.059
1078	0.06
1078	0.06
1079	0.06
1079	0.061
1080	0.061
1080	0.061
1080	0.061
1081	0.061
1081	0.062
1082	0.062
1082	0.063
1083	0.062
1083	0.062
1083	0.062
1084	0.062
1084	0.063
1085	0.063
1085	0.062
1085	0.063
1086	0.063
1086	0.062
1087	0.061
1087	0.061
1088	0.061
1088	0.061
1088	0.061
1089	0.06
1089	0.059
1090	0.058
1090	0.058
1090	0.057
1091	0.056
1091	0.057
1092	0.057
1092	0.057
1092	0.057
1093	0.056
1093	0.056
1094	0.057
1094	0.056
1095	0.056
1095	0.056
1095	0.056
1096	0.055
1096	0.053
1097	0.053
1097	0.051
1097	0.051
1098	0.05
1098	0.049
1099	0.049
1099	0.047
1100	0.047
1100	0.046
1100	0.045
1101	0.045
1101	0.044
1102	0.044
1102	0.043
1102	0.042
1103	0.042
1103	0.042
1104	0.043
1104	0.042
1104	0.042
1105	0.041
1105	0.039
1106	0.037
1106	0.036
1107	0.035
1107	0.035
1107	0.034
1108	0.033
1108	0.031
1109	0.03
1109	0.029
1109	0.029
1110	0.031
1110	0.032
1111	0.034
1111	0.03
