Data from reversibility-20sec_Absorbance__7374__000000000007374.txt Node

Date: Thu Dec 07 05:11:07 CET 2023
User: Marek
Spectrometer: MAYP115816
Trigger mode: 0
Integration Time (sec): 2.000000E-1
Scans to average: 10
Electric dark correction enabled: true
Nonlinearity correction enabled: true
Boxcar width: 5
XAxis mode: Wavelengths
Number of Pixels in Spectrum: 2068
>>>>>Begin Spectral Data<<<<<
199	-0.106
199	-0.08
200	-0.012
200	0.037
201	0.067
201	0.085
202	0.09
202	0.1
203	0.107
203	0.108
204	0.123
204	0.137
205	0.148
205	0.154
205	0.153
206	0.153
206	0.152
207	0.157
207	0.154
208	0.155
208	0.157
209	0.156
209	0.153
210	0.158
210	0.157
211	0.16
211	0.162
212	0.158
212	0.159
213	0.164
213	0.165
213	0.165
214	0.171
214	0.172
215	0.173
215	0.172
216	0.173
216	0.17
217	0.178
217	0.182
218	0.18
218	0.184
219	0.188
219	0.19
220	0.193
220	0.19
221	0.192
221	0.192
221	0.198
222	0.203
222	0.206
223	0.211
223	0.213
224	0.217
224	0.224
225	0.235
225	0.246
226	0.258
226	0.272
227	0.28
227	0.291
228	0.306
228	0.326
229	0.343
229	0.367
229	0.388
230	0.411
230	0.44
231	0.468
231	0.502
232	0.539
232	0.582
233	0.624
233	0.669
234	0.721
234	0.774
235	0.828
235	0.882
236	0.933
236	0.986
236	1.036
237	1.087
237	1.133
238	1.177
238	1.222
239	1.266
239	1.305
240	1.346
240	1.381
241	1.416
241	1.451
242	1.484
242	1.518
243	1.547
243	1.575
243	1.601
244	1.622
244	1.646
245	1.663
245	1.686
246	1.705
246	1.72
247	1.732
247	1.744
248	1.756
248	1.769
249	1.778
249	1.785
250	1.791
250	1.797
250	1.797
251	1.797
251	1.8
252	1.802
252	1.802
253	1.801
253	1.799
254	1.797
254	1.795
255	1.792
255	1.792
256	1.793
256	1.793
257	1.794
257	1.794
258	1.793
258	1.794
258	1.793
259	1.794
259	1.795
260	1.796
260	1.797
261	1.796
261	1.8
262	1.802
262	1.804
263	1.806
263	1.808
264	1.81
264	1.811
265	1.811
265	1.811
265	1.811
266	1.811
266	1.812
267	1.81
267	1.81
268	1.81
268	1.809
269	1.811
269	1.81
270	1.811
270	1.811
271	1.808
271	1.806
272	1.802
272	1.798
272	1.794
273	1.788
273	1.782
274	1.774
274	1.767
275	1.759
275	1.751
276	1.744
276	1.736
277	1.728
277	1.718
278	1.707
278	1.694
278	1.679
279	1.662
279	1.64
280	1.612
280	1.579
281	1.54
281	1.498
282	1.453
282	1.407
283	1.362
283	1.318
284	1.277
284	1.237
285	1.199
285	1.165
285	1.135
286	1.108
286	1.085
287	1.065
287	1.048
288	1.033
288	1.021
289	1.01
289	1.001
290	0.994
290	0.987
291	0.981
291	0.976
292	0.971
292	0.967
292	0.963
293	0.96
293	0.956
294	0.953
294	0.95
295	0.946
295	0.943
296	0.94
296	0.937
297	0.934
297	0.931
298	0.928
298	0.925
298	0.922
299	0.92
299	0.917
300	0.914
300	0.912
301	0.909
301	0.907
302	0.904
302	0.901
303	0.899
303	0.896
304	0.894
304	0.891
305	0.889
305	0.887
305	0.885
306	0.883
306	0.88
307	0.878
307	0.876
308	0.873
308	0.871
309	0.868
309	0.865
310	0.863
310	0.86
311	0.857
311	0.853
311	0.85
312	0.847
312	0.843
313	0.84
313	0.836
314	0.832
314	0.828
315	0.824
315	0.819
316	0.815
316	0.81
317	0.806
317	0.801
318	0.796
318	0.791
318	0.786
319	0.78
319	0.775
320	0.77
320	0.764
321	0.758
321	0.751
322	0.745
322	0.738
323	0.732
323	0.725
324	0.719
324	0.712
324	0.705
325	0.698
325	0.692
326	0.684
326	0.678
327	0.671
327	0.664
328	0.657
328	0.65
329	0.643
329	0.636
330	0.629
330	0.622
330	0.614
331	0.607
331	0.6
332	0.593
332	0.586
333	0.578
333	0.571
334	0.564
334	0.557
335	0.55
335	0.543
336	0.536
336	0.53
336	0.523
337	0.517
337	0.511
338	0.504
338	0.498
339	0.492
339	0.486
340	0.48
340	0.474
341	0.469
341	0.463
342	0.458
342	0.452
342	0.447
343	0.441
343	0.436
344	0.431
344	0.426
345	0.421
345	0.416
346	0.412
346	0.407
347	0.403
347	0.399
348	0.394
348	0.39
348	0.386
349	0.383
349	0.379
350	0.375
350	0.372
351	0.368
351	0.365
352	0.362
352	0.359
353	0.356
353	0.353
354	0.35
354	0.348
354	0.345
355	0.342
355	0.339
356	0.336
356	0.333
357	0.33
357	0.327
358	0.325
358	0.322
359	0.32
359	0.318
360	0.316
360	0.314
360	0.312
361	0.31
361	0.308
362	0.307
362	0.305
363	0.304
363	0.302
364	0.3
364	0.298
365	0.296
365	0.294
366	0.292
366	0.291
366	0.289
367	0.288
367	0.286
368	0.284
368	0.283
369	0.282
369	0.28
370	0.279
370	0.278
371	0.276
371	0.275
372	0.274
372	0.273
372	0.272
373	0.271
373	0.27
374	0.269
374	0.268
375	0.267
375	0.266
376	0.266
376	0.265
377	0.264
377	0.263
378	0.262
378	0.261
378	0.26
379	0.26
379	0.259
380	0.258
380	0.257
381	0.257
381	0.256
382	0.256
382	0.255
383	0.255
383	0.254
383	0.254
384	0.253
384	0.253
385	0.252
385	0.252
386	0.252
386	0.251
387	0.251
387	0.251
388	0.25
388	0.25
389	0.25
389	0.249
389	0.249
390	0.249
390	0.248
391	0.248
391	0.248
392	0.247
392	0.247
393	0.247
393	0.246
394	0.246
394	0.246
394	0.245
395	0.245
395	0.245
396	0.245
396	0.244
397	0.244
397	0.243
398	0.243
398	0.243
399	0.243
399	0.243
400	0.242
400	0.242
400	0.242
401	0.242
401	0.241
402	0.241
402	0.241
403	0.241
403	0.24
404	0.24
404	0.24
405	0.24
405	0.24
405	0.24
406	0.239
406	0.239
407	0.239
407	0.239
408	0.238
408	0.238
409	0.238
409	0.237
410	0.237
410	0.237
411	0.237
411	0.236
411	0.236
412	0.236
412	0.235
413	0.235
413	0.235
414	0.235
414	0.234
415	0.234
415	0.234
416	0.233
416	0.233
416	0.233
417	0.233
417	0.233
418	0.232
418	0.232
419	0.232
419	0.231
420	0.231
420	0.23
421	0.23
421	0.229
421	0.229
422	0.228
422	0.228
423	0.228
423	0.228
424	0.227
424	0.227
425	0.227
425	0.227
426	0.227
426	0.226
427	0.226
427	0.226
427	0.225
428	0.225
428	0.224
429	0.224
429	0.223
430	0.223
430	0.223
431	0.223
431	0.222
432	0.222
432	0.222
432	0.221
433	0.221
433	0.221
434	0.221
434	0.221
435	0.221
435	0.221
436	0.221
436	0.22
437	0.22
437	0.22
437	0.22
438	0.219
438	0.219
439	0.219
439	0.219
440	0.218
440	0.218
441	0.218
441	0.217
442	0.217
442	0.217
442	0.216
443	0.216
443	0.216
444	0.216
444	0.215
445	0.215
445	0.215
446	0.215
446	0.215
447	0.215
447	0.215
447	0.214
448	0.214
448	0.214
449	0.214
449	0.214
450	0.213
450	0.213
451	0.213
451	0.213
452	0.212
452	0.212
452	0.212
453	0.212
453	0.212
454	0.212
454	0.212
455	0.211
455	0.211
456	0.211
456	0.211
457	0.21
457	0.21
458	0.21
458	0.209
458	0.209
459	0.209
459	0.209
460	0.208
460	0.208
461	0.208
461	0.208
462	0.208
462	0.208
463	0.208
463	0.207
463	0.207
464	0.207
464	0.206
465	0.206
465	0.206
466	0.206
466	0.206
467	0.206
467	0.206
467	0.205
468	0.205
468	0.205
469	0.205
469	0.205
470	0.206
470	0.205
471	0.205
471	0.205
472	0.205
472	0.205
472	0.204
473	0.205
473	0.204
474	0.204
474	0.204
475	0.204
475	0.203
476	0.204
476	0.204
477	0.203
477	0.203
477	0.203
478	0.203
478	0.203
479	0.203
479	0.203
480	0.203
480	0.203
481	0.203
481	0.203
482	0.203
482	0.203
482	0.203
483	0.203
483	0.203
484	0.203
484	0.203
485	0.203
485	0.203
486	0.203
486	0.202
487	0.202
487	0.203
487	0.203
488	0.203
488	0.203
489	0.203
489	0.203
490	0.204
490	0.204
491	0.204
491	0.205
492	0.205
492	0.205
492	0.206
493	0.206
493	0.207
494	0.207
494	0.207
495	0.207
495	0.208
496	0.208
496	0.208
496	0.209
497	0.209
497	0.209
498	0.209
498	0.209
499	0.21
499	0.21
500	0.21
500	0.211
501	0.211
501	0.212
501	0.212
502	0.212
502	0.212
503	0.212
503	0.212
504	0.213
504	0.213
505	0.214
505	0.214
506	0.214
506	0.214
506	0.215
507	0.215
507	0.216
508	0.216
508	0.216
509	0.217
509	0.217
510	0.217
510	0.217
511	0.218
511	0.218
511	0.219
512	0.219
512	0.219
513	0.22
513	0.22
514	0.221
514	0.221
515	0.221
515	0.221
515	0.222
516	0.222
516	0.223
517	0.223
517	0.223
518	0.223
518	0.224
519	0.224
519	0.224
520	0.224
520	0.224
520	0.225
521	0.225
521	0.225
522	0.225
522	0.225
523	0.226
523	0.226
524	0.226
524	0.226
524	0.226
525	0.227
525	0.227
526	0.227
526	0.227
527	0.227
527	0.227
528	0.227
528	0.228
529	0.228
529	0.228
529	0.227
530	0.227
530	0.227
531	0.228
531	0.227
532	0.227
532	0.226
533	0.226
533	0.226
533	0.226
534	0.226
534	0.226
535	0.226
535	0.226
536	0.226
536	0.226
537	0.226
537	0.226
538	0.226
538	0.225
538	0.225
539	0.225
539	0.226
540	0.225
540	0.225
541	0.225
541	0.225
542	0.225
542	0.225
542	0.225
543	0.225
543	0.225
544	0.225
544	0.225
545	0.225
545	0.224
546	0.224
546	0.224
547	0.223
547	0.223
547	0.223
548	0.222
548	0.222
549	0.222
549	0.222
550	0.221
550	0.221
551	0.221
551	0.221
551	0.221
552	0.221
552	0.22
553	0.22
553	0.22
554	0.22
554	0.219
555	0.218
555	0.218
556	0.217
556	0.217
556	0.217
557	0.217
557	0.217
558	0.217
558	0.217
559	0.218
559	0.218
560	0.218
560	0.218
560	0.218
561	0.218
561	0.218
562	0.217
562	0.216
563	0.215
563	0.214
564	0.213
564	0.213
564	0.213
565	0.212
565	0.212
566	0.212
566	0.211
567	0.212
567	0.212
568	0.212
568	0.211
568	0.211
569	0.21
569	0.21
570	0.209
570	0.208
571	0.208
571	0.207
572	0.207
572	0.206
573	0.206
573	0.206
573	0.205
574	0.205
574	0.205
575	0.205
575	0.205
576	0.205
576	0.204
577	0.203
577	0.203
577	0.203
578	0.202
578	0.202
579	0.202
579	0.202
580	0.202
580	0.201
581	0.201
581	0.201
581	0.201
582	0.201
582	0.201
583	0.201
583	0.201
584	0.2
584	0.199
585	0.199
585	0.199
585	0.198
586	0.198
586	0.198
587	0.197
587	0.197
588	0.196
588	0.196
589	0.196
589	0.196
590	0.196
590	0.196
590	0.197
591	0.197
591	0.196
592	0.196
592	0.195
593	0.195
593	0.195
594	0.194
594	0.193
594	0.193
595	0.192
595	0.192
596	0.191
596	0.192
597	0.192
597	0.193
598	0.193
598	0.193
598	0.193
599	0.193
599	0.192
600	0.192
600	0.192
601	0.191
601	0.191
602	0.191
602	0.19
602	0.189
603	0.189
603	0.189
604	0.189
604	0.189
605	0.189
605	0.189
606	0.188
606	0.188
606	0.187
607	0.187
607	0.187
608	0.187
608	0.186
609	0.186
609	0.186
610	0.185
610	0.185
610	0.185
611	0.185
611	0.185
612	0.185
612	0.185
613	0.185
613	0.185
614	0.185
614	0.185
614	0.185
615	0.185
615	0.185
616	0.185
616	0.185
617	0.185
617	0.185
618	0.185
618	0.185
618	0.185
619	0.186
619	0.186
620	0.185
620	0.185
621	0.184
621	0.184
622	0.183
622	0.183
622	0.183
623	0.182
623	0.182
624	0.182
624	0.181
625	0.181
625	0.181
626	0.181
626	0.181
626	0.182
627	0.182
627	0.182
628	0.182
628	0.182
629	0.182
629	0.181
630	0.181
630	0.181
630	0.181
631	0.181
631	0.18
632	0.18
632	0.18
633	0.18
633	0.18
634	0.18
634	0.18
634	0.18
635	0.179
635	0.179
636	0.179
636	0.179
637	0.179
637	0.178
638	0.178
638	0.178
638	0.177
639	0.177
639	0.176
640	0.176
640	0.176
641	0.176
641	0.176
642	0.176
642	0.176
642	0.176
643	0.176
643	0.177
644	0.177
644	0.177
645	0.178
645	0.178
646	0.178
646	0.179
646	0.179
647	0.178
647	0.178
648	0.177
648	0.177
649	0.177
649	0.176
650	0.176
650	0.176
650	0.176
651	0.176
651	0.175
652	0.176
652	0.176
653	0.177
653	0.178
653	0.183
654	0.144
654	0.116
655	0.116
655	0.116
656	0.117
656	0.117
657	0.118
657	0.118
657	0.118
658	0.117
658	0.108
659	0.135
659	0.173
660	0.178
660	0.178
661	0.177
661	0.177
661	0.176
662	0.176
662	0.175
663	0.175
663	0.175
664	0.175
664	0.175
665	0.175
665	0.175
665	0.175
666	0.175
666	0.175
667	0.175
667	0.176
668	0.176
668	0.176
669	0.176
669	0.176
669	0.176
670	0.177
670	0.177
671	0.177
671	0.176
672	0.176
672	0.175
672	0.175
673	0.175
673	0.174
674	0.174
674	0.174
675	0.173
675	0.173
676	0.174
676	0.174
676	0.174
677	0.174
677	0.174
678	0.174
678	0.174
679	0.174
679	0.174
680	0.174
680	0.174
680	0.173
681	0.173
681	0.174
682	0.174
682	0.174
683	0.174
683	0.174
684	0.174
684	0.174
684	0.174
685	0.174
685	0.175
686	0.175
686	0.175
687	0.175
687	0.175
687	0.175
688	0.175
688	0.176
689	0.176
689	0.177
690	0.177
690	0.176
691	0.176
691	0.176
691	0.177
692	0.177
692	0.177
693	0.177
693	0.178
694	0.177
694	0.177
695	0.178
695	0.18
695	0.18
696	0.18
696	0.18
697	0.18
697	0.18
698	0.18
698	0.179
698	0.179
699	0.179
699	0.179
700	0.178
700	0.178
701	0.177
701	0.177
702	0.176
702	0.176
702	0.176
703	0.175
703	0.175
704	0.174
704	0.174
705	0.174
705	0.174
705	0.174
706	0.174
706	0.174
707	0.174
707	0.174
708	0.174
708	0.174
709	0.175
709	0.175
709	0.175
710	0.175
710	0.176
711	0.176
711	0.177
712	0.177
712	0.178
713	0.178
713	0.178
713	0.179
714	0.179
714	0.179
715	0.179
715	0.178
716	0.178
716	0.177
716	0.176
717	0.176
717	0.175
718	0.174
718	0.174
719	0.174
719	0.175
720	0.175
720	0.176
720	0.177
721	0.177
721	0.179
722	0.18
722	0.18
723	0.181
723	0.181
723	0.181
724	0.18
724	0.18
725	0.179
725	0.178
726	0.177
726	0.177
727	0.176
727	0.175
727	0.175
728	0.175
728	0.175
729	0.175
729	0.175
730	0.175
730	0.176
730	0.176
731	0.177
731	0.177
732	0.178
732	0.178
733	0.179
733	0.179
734	0.179
734	0.18
734	0.18
735	0.181
735	0.181
736	0.181
736	0.181
737	0.181
737	0.181
737	0.181
738	0.18
738	0.18
739	0.18
739	0.179
740	0.179
740	0.18
741	0.18
741	0.18
741	0.18
742	0.18
742	0.181
743	0.182
743	0.183
744	0.184
744	0.184
744	0.185
745	0.185
745	0.185
746	0.185
746	0.184
747	0.184
747	0.184
748	0.183
748	0.183
748	0.183
749	0.183
749	0.183
750	0.183
750	0.183
751	0.184
751	0.184
751	0.185
752	0.185
752	0.184
753	0.184
753	0.184
754	0.184
754	0.184
754	0.183
755	0.183
755	0.183
756	0.182
756	0.181
757	0.181
757	0.181
758	0.181
758	0.181
758	0.181
759	0.181
759	0.181
760	0.18
760	0.18
761	0.181
761	0.181
761	0.182
762	0.182
762	0.182
763	0.183
763	0.182
764	0.182
764	0.183
764	0.183
765	0.183
765	0.183
766	0.182
766	0.182
767	0.182
767	0.181
768	0.181
768	0.181
768	0.181
769	0.181
769	0.182
770	0.182
770	0.182
771	0.183
771	0.183
771	0.184
772	0.184
772	0.185
773	0.185
773	0.185
774	0.185
774	0.185
775	0.186
775	0.186
775	0.186
776	0.186
776	0.187
777	0.187
777	0.188
778	0.188
778	0.189
778	0.189
779	0.189
779	0.189
780	0.188
780	0.187
781	0.187
781	0.186
781	0.186
782	0.185
782	0.185
783	0.185
783	0.186
784	0.186
784	0.186
784	0.187
785	0.187
785	0.187
786	0.188
786	0.188
787	0.188
787	0.188
788	0.188
788	0.187
788	0.187
789	0.186
789	0.187
790	0.187
790	0.187
791	0.187
791	0.186
791	0.187
792	0.187
792	0.187
793	0.187
793	0.188
794	0.187
794	0.187
794	0.188
795	0.188
795	0.188
796	0.188
796	0.188
797	0.188
797	0.188
797	0.189
798	0.189
798	0.189
799	0.189
799	0.188
800	0.188
800	0.188
801	0.188
801	0.188
801	0.188
802	0.189
802	0.189
803	0.19
803	0.19
804	0.191
804	0.192
804	0.192
805	0.192
805	0.192
806	0.192
806	0.192
807	0.192
807	0.191
807	0.191
808	0.191
808	0.191
809	0.191
809	0.191
810	0.191
810	0.191
810	0.191
811	0.191
811	0.192
812	0.192
812	0.192
813	0.193
813	0.194
813	0.194
814	0.195
814	0.196
815	0.196
815	0.196
816	0.196
816	0.196
817	0.195
817	0.195
817	0.195
818	0.194
818	0.194
819	0.193
819	0.192
820	0.192
820	0.192
820	0.191
821	0.192
821	0.192
822	0.192
822	0.193
823	0.193
823	0.193
823	0.194
824	0.195
824	0.196
825	0.197
825	0.199
826	0.199
826	0.2
826	0.2
827	0.201
827	0.202
828	0.202
828	0.202
829	0.203
829	0.203
829	0.203
830	0.203
830	0.203
831	0.203
831	0.203
832	0.203
832	0.203
832	0.203
833	0.202
833	0.202
834	0.202
834	0.202
835	0.201
835	0.201
835	0.2
836	0.2
836	0.2
837	0.199
837	0.198
838	0.197
838	0.197
839	0.196
839	0.195
839	0.194
840	0.193
840	0.192
841	0.192
841	0.191
842	0.191
842	0.19
842	0.19
843	0.189
843	0.189
844	0.189
844	0.189
845	0.189
845	0.189
845	0.189
846	0.189
846	0.19
847	0.19
847	0.191
848	0.191
848	0.191
848	0.191
849	0.191
849	0.19
850	0.19
850	0.19
851	0.189
851	0.189
851	0.189
852	0.188
852	0.188
853	0.188
853	0.188
854	0.188
854	0.189
854	0.19
855	0.191
855	0.192
856	0.193
856	0.194
857	0.195
857	0.196
857	0.196
858	0.197
858	0.197
859	0.197
859	0.197
860	0.197
860	0.197
860	0.197
861	0.197
861	0.196
862	0.195
862	0.195
863	0.194
863	0.193
863	0.193
864	0.193
864	0.192
865	0.192
865	0.192
866	0.192
866	0.192
866	0.193
867	0.193
867	0.193
868	0.193
868	0.193
869	0.193
869	0.193
869	0.192
870	0.192
870	0.191
871	0.191
871	0.191
872	0.191
872	0.191
872	0.19
873	0.19
873	0.19
874	0.189
874	0.189
875	0.189
875	0.188
875	0.188
876	0.188
876	0.187
877	0.187
877	0.187
878	0.186
878	0.187
878	0.187
879	0.187
879	0.187
880	0.187
880	0.188
881	0.188
881	0.188
881	0.189
882	0.189
882	0.189
883	0.189
883	0.19
884	0.19
884	0.19
884	0.19
885	0.19
885	0.19
886	0.19
886	0.189
887	0.189
887	0.189
887	0.188
888	0.187
888	0.187
889	0.186
889	0.186
890	0.186
890	0.187
890	0.187
891	0.187
891	0.187
892	0.187
892	0.187
893	0.187
893	0.187
893	0.187
894	0.186
894	0.186
895	0.185
895	0.184
895	0.184
896	0.184
896	0.183
897	0.183
897	0.182
898	0.182
898	0.181
898	0.181
899	0.18
899	0.18
900	0.18
900	0.18
901	0.18
901	0.18
901	0.18
902	0.18
902	0.18
903	0.18
903	0.18
904	0.18
904	0.18
904	0.18
905	0.18
905	0.179
906	0.179
906	0.179
907	0.179
907	0.179
907	0.179
908	0.179
908	0.178
909	0.178
909	0.177
910	0.177
910	0.177
910	0.176
911	0.176
911	0.175
912	0.174
912	0.174
913	0.173
913	0.173
913	0.173
914	0.173
914	0.172
915	0.172
915	0.172
916	0.172
916	0.172
916	0.172
917	0.172
917	0.172
918	0.172
918	0.171
918	0.171
919	0.171
919	0.17
920	0.17
920	0.17
921	0.17
921	0.17
921	0.17
922	0.17
922	0.17
923	0.17
923	0.17
924	0.17
924	0.17
924	0.17
925	0.171
925	0.17
926	0.171
926	0.171
927	0.171
927	0.171
927	0.171
928	0.171
928	0.172
929	0.172
929	0.172
930	0.172
930	0.172
930	0.171
931	0.171
931	0.171
932	0.17
932	0.17
933	0.169
933	0.169
933	0.169
934	0.168
934	0.168
935	0.167
935	0.167
935	0.167
936	0.166
936	0.166
937	0.165
937	0.165
938	0.164
938	0.163
938	0.162
939	0.162
939	0.161
940	0.16
940	0.16
941	0.16
941	0.16
941	0.16
942	0.16
942	0.161
943	0.161
943	0.161
944	0.161
944	0.161
944	0.162
945	0.162
945	0.161
946	0.161
946	0.161
946	0.16
947	0.16
947	0.16
948	0.16
948	0.16
949	0.159
949	0.159
949	0.158
950	0.158
950	0.157
951	0.157
951	0.156
952	0.155
952	0.155
952	0.154
953	0.153
953	0.153
954	0.153
954	0.152
955	0.152
955	0.152
955	0.153
956	0.153
956	0.154
957	0.155
957	0.155
957	0.156
958	0.157
958	0.157
959	0.158
959	0.158
960	0.158
960	0.158
960	0.159
961	0.158
961	0.158
962	0.158
962	0.157
963	0.157
963	0.157
963	0.156
964	0.156
964	0.156
965	0.155
965	0.155
966	0.155
966	0.155
966	0.154
967	0.154
967	0.154
968	0.154
968	0.154
968	0.153
969	0.153
969	0.152
970	0.151
970	0.15
971	0.15
971	0.149
971	0.148
972	0.147
972	0.146
973	0.145
973	0.145
974	0.145
974	0.145
974	0.145
975	0.145
975	0.146
976	0.146
976	0.147
976	0.147
977	0.147
977	0.147
978	0.147
978	0.147
979	0.147
979	0.147
979	0.147
980	0.147
980	0.147
981	0.147
981	0.147
982	0.147
982	0.147
982	0.148
983	0.147
983	0.148
984	0.147
984	0.147
984	0.147
985	0.147
985	0.146
986	0.146
986	0.145
987	0.145
987	0.144
987	0.144
988	0.143
988	0.143
989	0.142
989	0.142
990	0.142
990	0.142
990	0.142
991	0.141
991	0.141
992	0.141
992	0.14
992	0.139
993	0.139
993	0.138
994	0.137
994	0.136
995	0.135
995	0.135
995	0.135
996	0.134
996	0.134
997	0.134
997	0.134
997	0.135
998	0.135
998	0.136
999	0.136
999	0.137
1000	0.138
1000	0.138
1000	0.139
1001	0.139
1001	0.14
1002	0.14
1002	0.14
1003	0.14
1003	0.14
1003	0.139
1004	0.139
1004	0.138
1005	0.137
1005	0.137
1005	0.136
1006	0.136
1006	0.135
1007	0.135
1007	0.135
1008	0.135
1008	0.135
1008	0.134
1009	0.134
1009	0.134
1010	0.134
1010	0.134
1010	0.133
1011	0.133
1011	0.132
1012	0.132
1012	0.131
1013	0.131
1013	0.13
1013	0.129
1014	0.128
1014	0.128
1015	0.127
1015	0.127
1016	0.127
1016	0.127
1016	0.126
1017	0.126
1017	0.126
1018	0.125
1018	0.125
1018	0.125
1019	0.125
1019	0.125
1020	0.125
1020	0.125
1021	0.125
1021	0.126
1021	0.126
1022	0.126
1022	0.126
1023	0.127
1023	0.127
1023	0.127
1024	0.127
1024	0.127
1025	0.127
1025	0.127
1026	0.127
1026	0.127
1026	0.127
1027	0.127
1027	0.127
1028	0.127
1028	0.127
1028	0.127
1029	0.127
1029	0.127
1030	0.127
1030	0.127
1031	0.127
1031	0.127
1031	0.127
1032	0.127
1032	0.127
1033	0.127
1033	0.127
1033	0.127
1034	0.127
1034	0.126
1035	0.126
1035	0.126
1036	0.126
1036	0.126
1036	0.126
1037	0.126
1037	0.125
1038	0.125
1038	0.125
1039	0.124
1039	0.124
1039	0.123
1040	0.123
1040	0.123
1041	0.123
1041	0.122
1041	0.122
1042	0.122
1042	0.121
1043	0.121
1043	0.121
1044	0.121
1044	0.121
1044	0.12
1045	0.12
1045	0.12
1046	0.119
1046	0.119
1046	0.119
1047	0.119
1047	0.119
1048	0.118
1048	0.118
1049	0.118
1049	0.118
1049	0.117
1050	0.117
1050	0.117
1051	0.116
1051	0.116
1051	0.115
1052	0.115
1052	0.114
1053	0.114
1053	0.113
1053	0.113
1054	0.112
1054	0.112
1055	0.111
1055	0.111
1056	0.11
1056	0.11
1056	0.109
1057	0.108
1057	0.108
1058	0.107
1058	0.106
1058	0.106
1059	0.105
1059	0.105
1060	0.105
1060	0.104
1061	0.103
1061	0.103
1061	0.103
1062	0.103
1062	0.103
1063	0.103
1063	0.103
1063	0.103
1064	0.103
1064	0.102
1065	0.103
1065	0.103
1066	0.103
1066	0.103
1066	0.102
1067	0.102
1067	0.102
1068	0.102
1068	0.102
1068	0.102
1069	0.102
1069	0.102
1070	0.101
1070	0.101
1071	0.1
1071	0.1
1071	0.1
1072	0.1
1072	0.099
1073	0.099
1073	0.099
1073	0.099
1074	0.099
1074	0.099
1075	0.099
1075	0.1
1076	0.1
1076	0.101
1076	0.101
1077	0.101
1077	0.102
1078	0.102
1078	0.102
1078	0.102
1079	0.101
1079	0.101
1080	0.1
1080	0.1
1080	0.099
1081	0.099
1081	0.099
1082	0.099
1082	0.099
1083	0.099
1083	0.099
1083	0.099
1084	0.099
1084	0.099
1085	0.099
1085	0.099
1085	0.1
1086	0.1
1086	0.099
1087	0.099
1087	0.099
1088	0.099
1088	0.099
1088	0.099
1089	0.098
1089	0.098
1090	0.097
1090	0.097
1090	0.096
1091	0.096
1091	0.095
1092	0.095
1092	0.096
1092	0.096
1093	0.095
1093	0.096
1094	0.096
1094	0.095
1095	0.095
1095	0.095
1095	0.094
1096	0.094
1096	0.092
1097	0.092
1097	0.09
1097	0.09
1098	0.089
1098	0.087
1099	0.087
1099	0.086
1100	0.085
1100	0.084
1100	0.082
1101	0.082
1101	0.081
1102	0.08
1102	0.079
1102	0.077
1103	0.077
1103	0.076
1104	0.076
1104	0.076
1104	0.075
1105	0.075
1105	0.074
1106	0.073
1106	0.071
1107	0.071
1107	0.07
1107	0.071
1108	0.07
1108	0.069
1109	0.067
1109	0.067
1109	0.067
1110	0.068
1110	0.067
1111	0.069
1111	0.066
