Data from reversibility-20sec_Absorbance__4290__000000000004290.txt Node

Date: Wed Dec 06 12:03:05 CET 2023
User: Marek
Spectrometer: MAYP115816
Trigger mode: 0
Integration Time (sec): 2.000000E-1
Scans to average: 10
Electric dark correction enabled: true
Nonlinearity correction enabled: true
Boxcar width: 5
XAxis mode: Wavelengths
Number of Pixels in Spectrum: 2068
>>>>>Begin Spectral Data<<<<<
199	-0.165
199	-0.142
200	-0.077
200	-0.02
201	0.009
201	0.029
202	0.047
202	0.057
203	0.066
203	0.069
204	0.081
204	0.096
205	0.111
205	0.118
205	0.117
206	0.115
206	0.117
207	0.116
207	0.115
208	0.113
208	0.113
209	0.115
209	0.112
210	0.113
210	0.115
211	0.115
211	0.119
212	0.115
212	0.116
213	0.119
213	0.121
213	0.121
214	0.123
214	0.124
215	0.124
215	0.121
216	0.122
216	0.118
217	0.122
217	0.124
218	0.121
218	0.123
219	0.127
219	0.129
220	0.131
220	0.13
221	0.132
221	0.134
221	0.143
222	0.148
222	0.152
223	0.16
223	0.161
224	0.165
224	0.174
225	0.182
225	0.194
226	0.204
226	0.214
227	0.225
227	0.234
228	0.249
228	0.263
229	0.281
229	0.305
229	0.325
230	0.35
230	0.378
231	0.41
231	0.449
232	0.48
232	0.523
233	0.567
233	0.614
234	0.663
234	0.714
235	0.768
235	0.818
236	0.869
236	0.921
236	0.973
237	1.028
237	1.078
238	1.122
238	1.169
239	1.218
239	1.261
240	1.301
240	1.339
241	1.373
241	1.407
242	1.441
242	1.473
243	1.503
243	1.528
243	1.554
244	1.577
244	1.597
245	1.616
245	1.638
246	1.658
246	1.675
247	1.689
247	1.703
248	1.715
248	1.731
249	1.742
249	1.748
250	1.757
250	1.765
250	1.768
251	1.772
251	1.774
252	1.776
252	1.777
253	1.777
253	1.774
254	1.772
254	1.772
255	1.77
255	1.768
256	1.768
256	1.767
257	1.766
257	1.765
258	1.763
258	1.762
258	1.759
259	1.759
259	1.759
260	1.759
260	1.761
261	1.761
261	1.763
262	1.766
262	1.767
263	1.771
263	1.773
264	1.778
264	1.78
265	1.78
265	1.781
265	1.781
266	1.782
266	1.781
267	1.778
267	1.78
268	1.781
268	1.781
269	1.78
269	1.78
270	1.78
270	1.779
271	1.777
271	1.776
272	1.774
272	1.771
272	1.767
273	1.759
273	1.752
274	1.746
274	1.739
275	1.731
275	1.724
276	1.716
276	1.708
277	1.7
277	1.69
278	1.678
278	1.666
278	1.651
279	1.634
279	1.612
280	1.585
280	1.552
281	1.513
281	1.47
282	1.426
282	1.382
283	1.339
283	1.298
284	1.257
284	1.219
285	1.183
285	1.15
285	1.121
286	1.096
286	1.074
287	1.055
287	1.039
288	1.025
288	1.013
289	1.003
289	0.995
290	0.988
290	0.981
291	0.976
291	0.971
292	0.967
292	0.963
292	0.959
293	0.957
293	0.954
294	0.951
294	0.948
295	0.945
295	0.943
296	0.94
296	0.937
297	0.934
297	0.932
298	0.929
298	0.926
298	0.924
299	0.922
299	0.919
300	0.917
300	0.914
301	0.912
301	0.91
302	0.908
302	0.906
303	0.903
303	0.902
304	0.9
304	0.897
305	0.895
305	0.893
305	0.891
306	0.889
306	0.886
307	0.884
307	0.882
308	0.88
308	0.877
309	0.875
309	0.872
310	0.869
310	0.867
311	0.864
311	0.861
311	0.858
312	0.855
312	0.852
313	0.848
313	0.845
314	0.841
314	0.838
315	0.834
315	0.83
316	0.826
316	0.822
317	0.817
317	0.813
318	0.808
318	0.803
318	0.798
319	0.793
319	0.787
320	0.782
320	0.776
321	0.77
321	0.764
322	0.758
322	0.752
323	0.746
323	0.74
324	0.734
324	0.727
324	0.721
325	0.714
325	0.708
326	0.701
326	0.694
327	0.688
327	0.681
328	0.674
328	0.668
329	0.66
329	0.653
330	0.647
330	0.64
330	0.633
331	0.626
331	0.619
332	0.612
332	0.605
333	0.599
333	0.592
334	0.585
334	0.579
335	0.572
335	0.565
336	0.559
336	0.553
336	0.546
337	0.54
337	0.534
338	0.528
338	0.522
339	0.517
339	0.511
340	0.505
340	0.5
341	0.494
341	0.488
342	0.483
342	0.478
342	0.472
343	0.467
343	0.462
344	0.457
344	0.453
345	0.448
345	0.443
346	0.439
346	0.435
347	0.43
347	0.426
348	0.422
348	0.418
348	0.415
349	0.411
349	0.407
350	0.404
350	0.4
351	0.397
351	0.394
352	0.391
352	0.388
353	0.385
353	0.382
354	0.379
354	0.376
354	0.374
355	0.371
355	0.368
356	0.365
356	0.363
357	0.359
357	0.357
358	0.354
358	0.351
359	0.35
359	0.347
360	0.345
360	0.343
360	0.342
361	0.34
361	0.338
362	0.337
362	0.335
363	0.334
363	0.332
364	0.33
364	0.328
365	0.327
365	0.325
366	0.323
366	0.321
366	0.32
367	0.318
367	0.317
368	0.315
368	0.314
369	0.312
369	0.311
370	0.31
370	0.309
371	0.307
371	0.306
372	0.305
372	0.304
372	0.303
373	0.302
373	0.301
374	0.3
374	0.299
375	0.298
375	0.297
376	0.296
376	0.295
377	0.295
377	0.294
378	0.293
378	0.292
378	0.291
379	0.291
379	0.29
380	0.289
380	0.288
381	0.287
381	0.287
382	0.286
382	0.286
383	0.285
383	0.285
383	0.284
384	0.284
384	0.283
385	0.283
385	0.283
386	0.282
386	0.282
387	0.281
387	0.281
388	0.281
388	0.28
389	0.28
389	0.28
389	0.279
390	0.279
390	0.278
391	0.278
391	0.278
392	0.278
392	0.278
393	0.277
393	0.277
394	0.276
394	0.276
394	0.276
395	0.276
395	0.275
396	0.275
396	0.274
397	0.274
397	0.273
398	0.273
398	0.273
399	0.273
399	0.272
400	0.272
400	0.272
400	0.272
401	0.272
401	0.271
402	0.271
402	0.271
403	0.271
403	0.27
404	0.27
404	0.27
405	0.27
405	0.27
405	0.269
406	0.269
406	0.269
407	0.268
407	0.268
408	0.268
408	0.267
409	0.267
409	0.267
410	0.266
410	0.266
411	0.266
411	0.266
411	0.266
412	0.265
412	0.265
413	0.265
413	0.265
414	0.264
414	0.264
415	0.264
415	0.263
416	0.263
416	0.263
416	0.262
417	0.262
417	0.262
418	0.261
418	0.261
419	0.26
419	0.26
420	0.26
420	0.259
421	0.259
421	0.259
421	0.258
422	0.258
422	0.258
423	0.257
423	0.257
424	0.257
424	0.256
425	0.256
425	0.256
426	0.255
426	0.255
427	0.255
427	0.254
427	0.254
428	0.254
428	0.254
429	0.253
429	0.253
430	0.253
430	0.253
431	0.252
431	0.252
432	0.252
432	0.252
432	0.252
433	0.251
433	0.251
434	0.251
434	0.251
435	0.251
435	0.251
436	0.25
436	0.25
437	0.25
437	0.25
437	0.25
438	0.249
438	0.249
439	0.249
439	0.249
440	0.249
440	0.248
441	0.248
441	0.248
442	0.248
442	0.248
442	0.247
443	0.247
443	0.247
444	0.246
444	0.246
445	0.246
445	0.246
446	0.246
446	0.246
447	0.245
447	0.245
447	0.245
448	0.245
448	0.245
449	0.245
449	0.244
450	0.244
450	0.244
451	0.244
451	0.244
452	0.243
452	0.243
452	0.243
453	0.243
453	0.242
454	0.242
454	0.242
455	0.242
455	0.241
456	0.241
456	0.241
457	0.241
457	0.241
458	0.241
458	0.24
458	0.24
459	0.24
459	0.239
460	0.239
460	0.239
461	0.239
461	0.238
462	0.238
462	0.238
463	0.238
463	0.237
463	0.237
464	0.237
464	0.236
465	0.236
465	0.236
466	0.236
466	0.236
467	0.235
467	0.235
467	0.235
468	0.235
468	0.235
469	0.235
469	0.235
470	0.235
470	0.235
471	0.235
471	0.235
472	0.235
472	0.235
472	0.235
473	0.235
473	0.235
474	0.234
474	0.234
475	0.234
475	0.234
476	0.234
476	0.234
477	0.234
477	0.234
477	0.234
478	0.234
478	0.234
479	0.234
479	0.234
480	0.234
480	0.234
481	0.234
481	0.234
482	0.234
482	0.235
482	0.235
483	0.235
483	0.235
484	0.235
484	0.235
485	0.234
485	0.234
486	0.234
486	0.235
487	0.235
487	0.235
487	0.235
488	0.235
488	0.235
489	0.235
489	0.236
490	0.237
490	0.237
491	0.238
491	0.238
492	0.238
492	0.239
492	0.239
493	0.239
493	0.239
494	0.24
494	0.24
495	0.24
495	0.241
496	0.241
496	0.242
496	0.242
497	0.243
497	0.243
498	0.243
498	0.244
499	0.244
499	0.244
500	0.245
500	0.245
501	0.245
501	0.246
501	0.245
502	0.246
502	0.246
503	0.247
503	0.247
504	0.247
504	0.248
505	0.248
505	0.249
506	0.249
506	0.249
506	0.25
507	0.25
507	0.251
508	0.251
508	0.251
509	0.252
509	0.252
510	0.253
510	0.253
511	0.254
511	0.254
511	0.255
512	0.256
512	0.256
513	0.256
513	0.257
514	0.257
514	0.258
515	0.258
515	0.259
515	0.259
516	0.259
516	0.26
517	0.26
517	0.261
518	0.261
518	0.261
519	0.261
519	0.261
520	0.262
520	0.262
520	0.262
521	0.262
521	0.262
522	0.263
522	0.262
523	0.263
523	0.263
524	0.263
524	0.264
524	0.264
525	0.264
525	0.264
526	0.264
526	0.264
527	0.264
527	0.265
528	0.265
528	0.265
529	0.265
529	0.265
529	0.264
530	0.264
530	0.264
531	0.264
531	0.264
532	0.264
532	0.264
533	0.264
533	0.264
533	0.264
534	0.264
534	0.264
535	0.264
535	0.265
536	0.265
536	0.265
537	0.265
537	0.265
538	0.265
538	0.265
538	0.264
539	0.264
539	0.264
540	0.264
540	0.264
541	0.263
541	0.263
542	0.263
542	0.263
542	0.263
543	0.262
543	0.262
544	0.262
544	0.262
545	0.262
545	0.262
546	0.262
546	0.262
547	0.261
547	0.261
547	0.26
548	0.26
548	0.26
549	0.259
549	0.259
550	0.259
550	0.259
551	0.259
551	0.258
551	0.258
552	0.258
552	0.257
553	0.257
553	0.257
554	0.256
554	0.256
555	0.255
555	0.254
556	0.254
556	0.253
556	0.253
557	0.253
557	0.253
558	0.253
558	0.253
559	0.253
559	0.253
560	0.253
560	0.253
560	0.253
561	0.253
561	0.253
562	0.252
562	0.251
563	0.251
563	0.25
564	0.249
564	0.248
564	0.248
565	0.248
565	0.248
566	0.248
566	0.247
567	0.248
567	0.247
568	0.247
568	0.247
568	0.247
569	0.247
569	0.247
570	0.246
570	0.245
571	0.244
571	0.244
572	0.243
572	0.243
573	0.243
573	0.242
573	0.242
574	0.241
574	0.242
575	0.242
575	0.242
576	0.242
576	0.242
577	0.241
577	0.241
577	0.241
578	0.24
578	0.24
579	0.24
579	0.24
580	0.239
580	0.238
581	0.237
581	0.237
581	0.237
582	0.237
582	0.237
583	0.238
583	0.237
584	0.237
584	0.235
585	0.235
585	0.235
585	0.235
586	0.235
586	0.234
587	0.234
587	0.233
588	0.232
588	0.232
589	0.231
589	0.231
590	0.231
590	0.231
590	0.232
591	0.232
591	0.231
592	0.231
592	0.231
593	0.23
593	0.23
594	0.23
594	0.229
594	0.228
595	0.228
595	0.227
596	0.227
596	0.227
597	0.228
597	0.228
598	0.228
598	0.228
598	0.228
599	0.228
599	0.228
600	0.227
600	0.227
601	0.226
601	0.226
602	0.225
602	0.224
602	0.224
603	0.224
603	0.224
604	0.224
604	0.224
605	0.224
605	0.224
606	0.224
606	0.223
606	0.223
607	0.223
607	0.223
608	0.222
608	0.222
609	0.221
609	0.221
610	0.221
610	0.22
610	0.22
611	0.22
611	0.22
612	0.22
612	0.22
613	0.22
613	0.22
614	0.22
614	0.219
614	0.219
615	0.219
615	0.219
616	0.219
616	0.219
617	0.219
617	0.218
618	0.218
618	0.218
618	0.218
619	0.219
619	0.219
620	0.219
620	0.219
621	0.218
621	0.218
622	0.218
622	0.217
622	0.217
623	0.216
623	0.216
624	0.216
624	0.215
625	0.215
625	0.215
626	0.215
626	0.215
626	0.215
627	0.214
627	0.214
628	0.214
628	0.213
629	0.213
629	0.212
630	0.212
630	0.212
630	0.212
631	0.212
631	0.211
632	0.211
632	0.211
633	0.211
633	0.211
634	0.212
634	0.212
634	0.212
635	0.212
635	0.212
636	0.212
636	0.212
637	0.212
637	0.211
638	0.211
638	0.211
638	0.211
639	0.21
639	0.21
640	0.21
640	0.21
641	0.21
641	0.21
642	0.21
642	0.21
642	0.21
643	0.211
643	0.211
644	0.211
644	0.212
645	0.212
645	0.212
646	0.212
646	0.212
646	0.212
647	0.211
647	0.211
648	0.21
648	0.21
649	0.21
649	0.21
650	0.21
650	0.21
650	0.21
651	0.21
651	0.21
652	0.209
652	0.209
653	0.21
653	0.211
653	0.218
654	0.17
654	0.136
655	0.136
655	0.137
656	0.137
656	0.137
657	0.138
657	0.138
657	0.138
658	0.137
658	0.125
659	0.158
659	0.205
660	0.209
660	0.209
661	0.209
661	0.209
661	0.208
662	0.208
662	0.208
663	0.207
663	0.207
664	0.207
664	0.207
665	0.207
665	0.207
665	0.207
666	0.207
666	0.207
667	0.207
667	0.207
668	0.208
668	0.208
669	0.208
669	0.208
669	0.208
670	0.208
670	0.208
671	0.208
671	0.208
672	0.208
672	0.207
672	0.207
673	0.207
673	0.207
674	0.207
674	0.207
675	0.206
675	0.207
676	0.207
676	0.207
676	0.207
677	0.208
677	0.208
678	0.208
678	0.208
679	0.208
679	0.208
680	0.208
680	0.208
680	0.207
681	0.207
681	0.208
682	0.208
682	0.208
683	0.208
683	0.209
684	0.209
684	0.208
684	0.208
685	0.209
685	0.209
686	0.209
686	0.209
687	0.209
687	0.209
687	0.209
688	0.209
688	0.209
689	0.21
689	0.21
690	0.21
690	0.21
691	0.21
691	0.21
691	0.21
692	0.21
692	0.211
693	0.211
693	0.212
694	0.211
694	0.211
695	0.212
695	0.214
695	0.214
696	0.213
696	0.213
697	0.213
697	0.213
698	0.213
698	0.212
698	0.212
699	0.212
699	0.212
700	0.211
700	0.212
701	0.212
701	0.212
702	0.211
702	0.211
702	0.211
703	0.211
703	0.211
704	0.211
704	0.211
705	0.211
705	0.211
705	0.211
706	0.211
706	0.212
707	0.212
707	0.212
708	0.213
708	0.213
709	0.213
709	0.213
709	0.213
710	0.213
710	0.213
711	0.213
711	0.214
712	0.214
712	0.214
713	0.214
713	0.215
713	0.215
714	0.215
714	0.215
715	0.216
715	0.215
716	0.215
716	0.215
716	0.215
717	0.215
717	0.214
718	0.214
718	0.214
719	0.214
719	0.214
720	0.215
720	0.215
720	0.216
721	0.216
721	0.217
722	0.218
722	0.218
723	0.219
723	0.219
723	0.22
724	0.219
724	0.219
725	0.218
725	0.218
726	0.217
726	0.217
727	0.216
727	0.216
727	0.215
728	0.215
728	0.215
729	0.215
729	0.215
730	0.215
730	0.215
730	0.216
731	0.216
731	0.217
732	0.217
732	0.217
733	0.217
733	0.217
734	0.217
734	0.217
734	0.218
735	0.218
735	0.218
736	0.218
736	0.218
737	0.218
737	0.218
737	0.218
738	0.218
738	0.217
739	0.217
739	0.217
740	0.217
740	0.218
741	0.218
741	0.218
741	0.218
742	0.218
742	0.219
743	0.22
743	0.22
744	0.221
744	0.221
744	0.221
745	0.222
745	0.222
746	0.222
746	0.222
747	0.222
747	0.222
748	0.222
748	0.223
748	0.222
749	0.222
749	0.222
750	0.222
750	0.222
751	0.221
751	0.221
751	0.221
752	0.22
752	0.22
753	0.219
753	0.219
754	0.22
754	0.219
754	0.22
755	0.22
755	0.221
756	0.221
756	0.22
757	0.22
757	0.22
758	0.22
758	0.22
758	0.22
759	0.22
759	0.22
760	0.22
760	0.22
761	0.221
761	0.222
761	0.223
762	0.223
762	0.224
763	0.224
763	0.224
764	0.224
764	0.224
764	0.224
765	0.224
765	0.223
766	0.223
766	0.222
767	0.221
767	0.22
768	0.219
768	0.219
768	0.218
769	0.218
769	0.218
770	0.218
770	0.218
771	0.218
771	0.218
771	0.219
772	0.219
772	0.22
773	0.221
773	0.222
774	0.222
774	0.223
775	0.224
775	0.224
775	0.224
776	0.225
776	0.225
777	0.225
777	0.225
778	0.225
778	0.224
778	0.224
779	0.224
779	0.224
780	0.223
780	0.223
781	0.223
781	0.222
781	0.222
782	0.222
782	0.222
783	0.223
783	0.223
784	0.223
784	0.223
784	0.224
785	0.224
785	0.224
786	0.225
786	0.225
787	0.225
787	0.225
788	0.225
788	0.224
788	0.224
789	0.223
789	0.223
790	0.223
790	0.223
791	0.223
791	0.222
791	0.222
792	0.223
792	0.224
793	0.223
793	0.224
794	0.224
794	0.224
794	0.223
795	0.224
795	0.224
796	0.224
796	0.224
797	0.223
797	0.223
797	0.224
798	0.224
798	0.224
799	0.224
799	0.225
800	0.225
800	0.225
801	0.225
801	0.225
801	0.225
802	0.226
802	0.226
803	0.227
803	0.227
804	0.228
804	0.229
804	0.229
805	0.229
805	0.23
806	0.23
806	0.23
807	0.23
807	0.23
807	0.23
808	0.23
808	0.23
809	0.23
809	0.23
810	0.23
810	0.23
810	0.23
811	0.23
811	0.231
812	0.231
812	0.231
813	0.232
813	0.232
813	0.233
814	0.233
814	0.234
815	0.235
815	0.235
816	0.235
816	0.235
817	0.235
817	0.235
817	0.235
818	0.235
818	0.235
819	0.235
819	0.234
820	0.233
820	0.232
820	0.232
821	0.232
821	0.231
822	0.231
822	0.231
823	0.231
823	0.23
823	0.231
824	0.232
824	0.232
825	0.233
825	0.234
826	0.234
826	0.234
826	0.234
827	0.235
827	0.235
828	0.234
828	0.234
829	0.234
829	0.234
829	0.234
830	0.234
830	0.234
831	0.235
831	0.235
832	0.235
832	0.235
832	0.235
833	0.235
833	0.235
834	0.234
834	0.234
835	0.234
835	0.234
835	0.234
836	0.235
836	0.235
837	0.236
837	0.236
838	0.236
838	0.236
839	0.236
839	0.235
839	0.235
840	0.234
840	0.233
841	0.231
841	0.23
842	0.229
842	0.228
842	0.227
843	0.227
843	0.226
844	0.226
844	0.227
845	0.227
845	0.227
845	0.228
846	0.228
846	0.228
847	0.229
847	0.23
848	0.231
848	0.231
848	0.232
849	0.233
849	0.233
850	0.233
850	0.234
851	0.234
851	0.235
851	0.235
852	0.235
852	0.234
853	0.234
853	0.234
854	0.234
854	0.235
854	0.235
855	0.235
855	0.236
856	0.236
856	0.236
857	0.236
857	0.236
857	0.235
858	0.235
858	0.234
859	0.233
859	0.231
860	0.23
860	0.229
860	0.228
861	0.227
861	0.226
862	0.225
862	0.224
863	0.223
863	0.223
863	0.223
864	0.223
864	0.223
865	0.223
865	0.223
866	0.224
866	0.224
866	0.224
867	0.224
867	0.225
868	0.225
868	0.225
869	0.226
869	0.226
869	0.225
870	0.225
870	0.225
871	0.225
871	0.226
872	0.226
872	0.226
872	0.226
873	0.226
873	0.226
874	0.226
874	0.226
875	0.226
875	0.226
875	0.226
876	0.226
876	0.226
877	0.226
877	0.227
878	0.227
878	0.228
878	0.229
879	0.229
879	0.229
880	0.229
880	0.229
881	0.228
881	0.228
881	0.227
882	0.226
882	0.224
883	0.223
883	0.222
884	0.221
884	0.22
884	0.219
885	0.219
885	0.218
886	0.218
886	0.218
887	0.218
887	0.218
887	0.217
888	0.217
888	0.217
889	0.216
889	0.217
890	0.217
890	0.217
890	0.217
891	0.217
891	0.218
892	0.218
892	0.219
893	0.219
893	0.22
893	0.22
894	0.22
894	0.22
895	0.22
895	0.22
895	0.219
896	0.219
896	0.218
897	0.217
897	0.216
898	0.215
898	0.215
898	0.214
899	0.213
899	0.213
900	0.212
900	0.212
901	0.212
901	0.212
901	0.212
902	0.212
902	0.212
903	0.212
903	0.212
904	0.212
904	0.212
904	0.212
905	0.212
905	0.212
906	0.213
906	0.214
907	0.214
907	0.215
907	0.215
908	0.215
908	0.215
909	0.215
909	0.215
910	0.215
910	0.214
910	0.213
911	0.213
911	0.212
912	0.211
912	0.21
913	0.209
913	0.209
913	0.208
914	0.208
914	0.208
915	0.207
915	0.207
916	0.207
916	0.206
916	0.206
917	0.205
917	0.204
918	0.203
918	0.202
918	0.202
919	0.201
919	0.201
920	0.201
920	0.201
921	0.201
921	0.201
921	0.201
922	0.202
922	0.202
923	0.202
923	0.203
924	0.203
924	0.204
924	0.204
925	0.204
925	0.204
926	0.204
926	0.204
927	0.204
927	0.203
927	0.203
928	0.203
928	0.203
929	0.202
929	0.202
930	0.201
930	0.201
930	0.201
931	0.2
931	0.2
932	0.2
932	0.2
933	0.199
933	0.199
933	0.198
934	0.197
934	0.197
935	0.196
935	0.195
935	0.194
936	0.194
936	0.193
937	0.192
937	0.192
938	0.192
938	0.191
938	0.191
939	0.191
939	0.19
940	0.19
940	0.19
941	0.189
941	0.189
941	0.189
942	0.189
942	0.188
943	0.188
943	0.188
944	0.187
944	0.187
944	0.187
945	0.187
945	0.186
946	0.186
946	0.185
946	0.185
947	0.185
947	0.185
948	0.184
948	0.184
949	0.184
949	0.184
949	0.184
950	0.184
950	0.184
951	0.184
951	0.184
952	0.183
952	0.183
952	0.182
953	0.181
953	0.181
954	0.18
954	0.179
955	0.178
955	0.178
955	0.177
956	0.177
956	0.177
957	0.178
957	0.178
957	0.178
958	0.179
958	0.179
959	0.179
959	0.179
960	0.18
960	0.18
960	0.18
961	0.179
961	0.179
962	0.178
962	0.178
963	0.177
963	0.177
963	0.176
964	0.176
964	0.176
965	0.175
965	0.175
966	0.175
966	0.174
966	0.174
967	0.174
967	0.174
968	0.174
968	0.173
968	0.173
969	0.173
969	0.172
970	0.172
970	0.172
971	0.171
971	0.171
971	0.17
972	0.17
972	0.169
973	0.169
973	0.169
974	0.169
974	0.169
974	0.169
975	0.169
975	0.169
976	0.169
976	0.17
976	0.169
977	0.169
977	0.169
978	0.168
978	0.168
979	0.168
979	0.168
979	0.167
980	0.167
980	0.167
981	0.166
981	0.165
982	0.164
982	0.164
982	0.163
983	0.162
983	0.161
984	0.16
984	0.158
984	0.157
985	0.156
985	0.155
986	0.154
986	0.153
987	0.152
987	0.15
987	0.149
988	0.149
988	0.148
989	0.147
989	0.146
990	0.146
990	0.145
990	0.145
991	0.145
991	0.145
992	0.145
992	0.145
992	0.145
993	0.145
993	0.145
994	0.144
994	0.144
995	0.144
995	0.144
995	0.143
996	0.143
996	0.143
997	0.143
997	0.144
997	0.144
998	0.144
998	0.145
999	0.146
999	0.146
1000	0.147
1000	0.148
1000	0.148
1001	0.149
1001	0.149
1002	0.15
1002	0.15
1003	0.15
1003	0.15
1003	0.15
1004	0.149
1004	0.149
1005	0.149
1005	0.149
1005	0.148
1006	0.148
1006	0.148
1007	0.147
1007	0.147
1008	0.147
1008	0.147
1008	0.146
1009	0.146
1009	0.146
1010	0.145
1010	0.145
1010	0.145
1011	0.144
1011	0.143
1012	0.143
1012	0.143
1013	0.142
1013	0.142
1013	0.142
1014	0.141
1014	0.141
1015	0.141
1015	0.141
1016	0.14
1016	0.14
1016	0.139
1017	0.139
1017	0.138
1018	0.138
1018	0.137
1018	0.137
1019	0.137
1019	0.136
1020	0.136
1020	0.135
1021	0.135
1021	0.135
1021	0.135
1022	0.135
1022	0.135
1023	0.135
1023	0.134
1023	0.134
1024	0.134
1024	0.134
1025	0.133
1025	0.133
1026	0.132
1026	0.132
1026	0.131
1027	0.131
1027	0.13
1028	0.129
1028	0.129
1028	0.128
1029	0.128
1029	0.127
1030	0.127
1030	0.127
1031	0.126
1031	0.126
1031	0.126
1032	0.126
1032	0.126
1033	0.126
1033	0.125
1033	0.125
1034	0.125
1034	0.124
1035	0.124
1035	0.123
1036	0.123
1036	0.122
1036	0.122
1037	0.122
1037	0.122
1038	0.121
1038	0.122
1039	0.121
1039	0.122
1039	0.122
1040	0.122
1040	0.122
1041	0.123
1041	0.123
1041	0.124
1042	0.124
1042	0.124
1043	0.125
1043	0.125
1044	0.125
1044	0.125
1044	0.126
1045	0.126
1045	0.126
1046	0.126
1046	0.126
1046	0.127
1047	0.127
1047	0.127
1048	0.128
1048	0.128
1049	0.128
1049	0.128
1049	0.128
1050	0.128
1050	0.128
1051	0.127
1051	0.127
1051	0.126
1052	0.125
1052	0.124
1053	0.123
1053	0.123
1053	0.121
1054	0.121
1054	0.12
1055	0.119
1055	0.119
1056	0.118
1056	0.117
1056	0.117
1057	0.116
1057	0.115
1058	0.114
1058	0.113
1058	0.112
1059	0.112
1059	0.111
1060	0.111
1060	0.11
1061	0.11
1061	0.11
1061	0.11
1062	0.109
1062	0.109
1063	0.109
1063	0.109
1063	0.109
1064	0.109
1064	0.109
1065	0.109
1065	0.109
1066	0.109
1066	0.109
1066	0.109
1067	0.109
1067	0.109
1068	0.108
1068	0.108
1068	0.107
1069	0.107
1069	0.106
1070	0.105
1070	0.104
1071	0.103
1071	0.103
1071	0.102
1072	0.101
1072	0.1
1073	0.099
1073	0.099
1073	0.099
1074	0.099
1074	0.099
1075	0.098
1075	0.098
1076	0.098
1076	0.099
1076	0.099
1077	0.099
1077	0.099
1078	0.098
1078	0.098
1078	0.099
1079	0.098
1079	0.098
1080	0.098
1080	0.098
1080	0.098
1081	0.098
1081	0.098
1082	0.099
1082	0.099
1083	0.099
1083	0.099
1083	0.099
1084	0.099
1084	0.099
1085	0.099
1085	0.098
1085	0.098
1086	0.098
1086	0.097
1087	0.096
1087	0.095
1088	0.095
1088	0.094
1088	0.094
1089	0.093
1089	0.092
1090	0.091
1090	0.091
1090	0.089
1091	0.088
1091	0.088
1092	0.088
1092	0.087
1092	0.087
1093	0.086
1093	0.086
1094	0.085
1094	0.085
1095	0.085
1095	0.085
1095	0.085
1096	0.084
1096	0.083
1097	0.083
1097	0.083
1097	0.082
1098	0.082
1098	0.081
1099	0.08
1099	0.078
1100	0.077
1100	0.076
1100	0.075
1101	0.074
1101	0.073
1102	0.072
1102	0.071
1102	0.07
1103	0.069
1103	0.07
1104	0.07
1104	0.069
1104	0.069
1105	0.068
1105	0.067
1106	0.066
1106	0.065
1107	0.064
1107	0.063
1107	0.062
1108	0.06
1108	0.059
1109	0.059
1109	0.059
1109	0.058
1110	0.059
1110	0.056
1111	0.057
1111	0.056
