Data from reversibility-20sec_Absorbance__8226__000000000008226.txt Node

Date: Thu Dec 07 09:55:05 CET 2023
User: Marek
Spectrometer: MAYP115816
Trigger mode: 0
Integration Time (sec): 2.000000E-1
Scans to average: 10
Electric dark correction enabled: true
Nonlinearity correction enabled: true
Boxcar width: 5
XAxis mode: Wavelengths
Number of Pixels in Spectrum: 2068
>>>>>Begin Spectral Data<<<<<
199	-0.108
199	-0.088
200	-0.032
200	0.021
201	0.045
201	0.065
202	0.076
202	0.085
203	0.092
203	0.097
204	0.112
204	0.124
205	0.137
205	0.145
205	0.144
206	0.144
206	0.145
207	0.147
207	0.148
208	0.145
208	0.142
209	0.143
209	0.141
210	0.142
210	0.143
211	0.141
211	0.145
212	0.139
212	0.139
213	0.141
213	0.144
213	0.147
214	0.151
214	0.153
215	0.156
215	0.156
216	0.159
216	0.159
217	0.165
217	0.168
218	0.167
218	0.174
219	0.178
219	0.177
220	0.18
220	0.179
221	0.18
221	0.184
221	0.189
222	0.194
222	0.199
223	0.205
223	0.205
224	0.211
224	0.218
225	0.228
225	0.237
226	0.246
226	0.256
227	0.264
227	0.274
228	0.289
228	0.307
229	0.324
229	0.348
229	0.373
230	0.396
230	0.425
231	0.457
231	0.496
232	0.535
232	0.579
233	0.621
233	0.666
234	0.719
234	0.772
235	0.822
235	0.875
236	0.927
236	0.976
236	1.023
237	1.074
237	1.12
238	1.168
238	1.212
239	1.256
239	1.293
240	1.332
240	1.366
241	1.398
241	1.434
242	1.469
242	1.501
243	1.529
243	1.554
243	1.581
244	1.599
244	1.621
245	1.64
245	1.662
246	1.681
246	1.695
247	1.707
247	1.721
248	1.734
248	1.748
249	1.755
249	1.765
250	1.77
250	1.779
250	1.782
251	1.788
251	1.791
252	1.796
252	1.796
253	1.795
253	1.791
254	1.791
254	1.791
255	1.791
255	1.791
256	1.791
256	1.789
257	1.787
257	1.787
258	1.784
258	1.785
258	1.786
259	1.785
259	1.784
260	1.785
260	1.785
261	1.785
261	1.788
262	1.792
262	1.792
263	1.796
263	1.798
264	1.8
264	1.802
265	1.803
265	1.804
265	1.803
266	1.803
266	1.802
267	1.799
267	1.799
268	1.799
268	1.797
269	1.798
269	1.797
270	1.795
270	1.794
271	1.792
271	1.791
272	1.788
272	1.787
272	1.784
273	1.778
273	1.773
274	1.766
274	1.761
275	1.755
275	1.748
276	1.741
276	1.732
277	1.725
277	1.714
278	1.703
278	1.691
278	1.676
279	1.661
279	1.641
280	1.617
280	1.587
281	1.551
281	1.511
282	1.469
282	1.425
283	1.383
283	1.34
284	1.3
284	1.26
285	1.223
285	1.189
285	1.158
286	1.131
286	1.108
287	1.087
287	1.07
288	1.055
288	1.043
289	1.031
289	1.021
290	1.013
290	1.006
291	0.999
291	0.994
292	0.989
292	0.984
292	0.98
293	0.976
293	0.972
294	0.968
294	0.965
295	0.962
295	0.958
296	0.955
296	0.952
297	0.949
297	0.945
298	0.942
298	0.939
298	0.936
299	0.933
299	0.93
300	0.927
300	0.924
301	0.922
301	0.919
302	0.916
302	0.914
303	0.911
303	0.909
304	0.907
304	0.904
305	0.902
305	0.899
305	0.897
306	0.894
306	0.892
307	0.89
307	0.887
308	0.884
308	0.882
309	0.879
309	0.876
310	0.874
310	0.871
311	0.867
311	0.864
311	0.861
312	0.857
312	0.854
313	0.85
313	0.846
314	0.842
314	0.838
315	0.834
315	0.829
316	0.825
316	0.82
317	0.816
317	0.811
318	0.806
318	0.801
318	0.795
319	0.789
319	0.784
320	0.778
320	0.772
321	0.766
321	0.76
322	0.753
322	0.747
323	0.74
323	0.734
324	0.727
324	0.72
324	0.714
325	0.707
325	0.7
326	0.693
326	0.685
327	0.678
327	0.671
328	0.664
328	0.657
329	0.649
329	0.642
330	0.635
330	0.627
330	0.62
331	0.613
331	0.606
332	0.599
332	0.591
333	0.584
333	0.577
334	0.57
334	0.563
335	0.556
335	0.549
336	0.542
336	0.536
336	0.529
337	0.522
337	0.516
338	0.509
338	0.503
339	0.497
339	0.491
340	0.484
340	0.479
341	0.472
341	0.467
342	0.461
342	0.456
342	0.45
343	0.445
343	0.439
344	0.434
344	0.429
345	0.424
345	0.419
346	0.415
346	0.41
347	0.406
347	0.401
348	0.397
348	0.393
348	0.389
349	0.385
349	0.381
350	0.378
350	0.374
351	0.371
351	0.368
352	0.364
352	0.361
353	0.358
353	0.355
354	0.352
354	0.349
354	0.346
355	0.343
355	0.34
356	0.338
356	0.335
357	0.332
357	0.329
358	0.327
358	0.324
359	0.322
359	0.32
360	0.317
360	0.315
360	0.313
361	0.311
361	0.309
362	0.308
362	0.306
363	0.304
363	0.303
364	0.301
364	0.299
365	0.297
365	0.295
366	0.293
366	0.292
366	0.29
367	0.288
367	0.287
368	0.285
368	0.283
369	0.282
369	0.281
370	0.279
370	0.278
371	0.277
371	0.275
372	0.274
372	0.273
372	0.272
373	0.271
373	0.27
374	0.269
374	0.268
375	0.267
375	0.266
376	0.265
376	0.265
377	0.264
377	0.263
378	0.262
378	0.261
378	0.26
379	0.26
379	0.259
380	0.258
380	0.257
381	0.257
381	0.256
382	0.255
382	0.255
383	0.255
383	0.254
383	0.253
384	0.253
384	0.253
385	0.252
385	0.252
386	0.251
386	0.251
387	0.251
387	0.25
388	0.25
388	0.249
389	0.249
389	0.249
389	0.248
390	0.248
390	0.247
391	0.247
391	0.247
392	0.246
392	0.246
393	0.246
393	0.245
394	0.245
394	0.245
394	0.245
395	0.245
395	0.244
396	0.244
396	0.244
397	0.243
397	0.243
398	0.243
398	0.242
399	0.242
399	0.242
400	0.241
400	0.241
400	0.241
401	0.241
401	0.24
402	0.24
402	0.24
403	0.24
403	0.24
404	0.239
404	0.239
405	0.239
405	0.239
405	0.238
406	0.238
406	0.238
407	0.238
407	0.238
408	0.237
408	0.237
409	0.237
409	0.237
410	0.237
410	0.236
411	0.236
411	0.236
411	0.236
412	0.235
412	0.235
413	0.235
413	0.234
414	0.234
414	0.234
415	0.233
415	0.233
416	0.233
416	0.232
416	0.232
417	0.232
417	0.232
418	0.231
418	0.231
419	0.231
419	0.23
420	0.229
420	0.229
421	0.229
421	0.228
421	0.228
422	0.228
422	0.227
423	0.227
423	0.226
424	0.226
424	0.226
425	0.226
425	0.226
426	0.226
426	0.225
427	0.225
427	0.224
427	0.224
428	0.224
428	0.223
429	0.223
429	0.223
430	0.222
430	0.222
431	0.222
431	0.222
432	0.222
432	0.221
432	0.221
433	0.221
433	0.221
434	0.221
434	0.22
435	0.22
435	0.22
436	0.22
436	0.22
437	0.219
437	0.219
437	0.219
438	0.218
438	0.218
439	0.218
439	0.218
440	0.217
440	0.217
441	0.216
441	0.216
442	0.216
442	0.216
442	0.215
443	0.215
443	0.215
444	0.215
444	0.215
445	0.215
445	0.214
446	0.214
446	0.214
447	0.214
447	0.213
447	0.213
448	0.213
448	0.213
449	0.213
449	0.213
450	0.213
450	0.212
451	0.212
451	0.212
452	0.212
452	0.212
452	0.211
453	0.211
453	0.211
454	0.211
454	0.21
455	0.21
455	0.21
456	0.21
456	0.209
457	0.209
457	0.209
458	0.209
458	0.208
458	0.208
459	0.208
459	0.208
460	0.208
460	0.208
461	0.208
461	0.207
462	0.207
462	0.207
463	0.207
463	0.206
463	0.207
464	0.206
464	0.206
465	0.206
465	0.205
466	0.205
466	0.205
467	0.205
467	0.205
467	0.205
468	0.205
468	0.205
469	0.205
469	0.205
470	0.205
470	0.206
471	0.205
471	0.205
472	0.205
472	0.205
472	0.205
473	0.205
473	0.205
474	0.205
474	0.204
475	0.204
475	0.204
476	0.204
476	0.204
477	0.204
477	0.204
477	0.204
478	0.204
478	0.204
479	0.204
479	0.204
480	0.204
480	0.204
481	0.204
481	0.204
482	0.204
482	0.204
482	0.204
483	0.204
483	0.204
484	0.204
484	0.204
485	0.204
485	0.204
486	0.204
486	0.203
487	0.203
487	0.203
487	0.204
488	0.203
488	0.203
489	0.204
489	0.204
490	0.205
490	0.205
491	0.206
491	0.207
492	0.207
492	0.207
492	0.208
493	0.208
493	0.209
494	0.209
494	0.209
495	0.209
495	0.21
496	0.21
496	0.21
496	0.211
497	0.211
497	0.211
498	0.211
498	0.212
499	0.212
499	0.213
500	0.213
500	0.214
501	0.214
501	0.214
501	0.214
502	0.215
502	0.215
503	0.216
503	0.216
504	0.216
504	0.216
505	0.217
505	0.217
506	0.217
506	0.218
506	0.218
507	0.218
507	0.218
508	0.219
508	0.219
509	0.219
509	0.22
510	0.22
510	0.22
511	0.221
511	0.221
511	0.221
512	0.222
512	0.222
513	0.222
513	0.223
514	0.224
514	0.224
515	0.224
515	0.225
515	0.225
516	0.225
516	0.226
517	0.227
517	0.227
518	0.227
518	0.227
519	0.227
519	0.228
520	0.228
520	0.228
520	0.229
521	0.229
521	0.229
522	0.229
522	0.229
523	0.23
523	0.23
524	0.23
524	0.23
524	0.23
525	0.23
525	0.23
526	0.23
526	0.23
527	0.23
527	0.23
528	0.23
528	0.23
529	0.23
529	0.23
529	0.23
530	0.23
530	0.23
531	0.23
531	0.229
532	0.229
532	0.229
533	0.229
533	0.228
533	0.228
534	0.228
534	0.228
535	0.227
535	0.227
536	0.227
536	0.227
537	0.227
537	0.226
538	0.226
538	0.226
538	0.226
539	0.226
539	0.226
540	0.226
540	0.226
541	0.225
541	0.225
542	0.225
542	0.224
542	0.224
543	0.224
543	0.224
544	0.224
544	0.223
545	0.223
545	0.223
546	0.223
546	0.222
547	0.221
547	0.221
547	0.221
548	0.22
548	0.22
549	0.219
549	0.219
550	0.219
550	0.218
551	0.218
551	0.218
551	0.217
552	0.217
552	0.217
553	0.216
553	0.216
554	0.216
554	0.215
555	0.214
555	0.213
556	0.213
556	0.212
556	0.212
557	0.212
557	0.212
558	0.212
558	0.212
559	0.212
559	0.212
560	0.212
560	0.212
560	0.212
561	0.212
561	0.211
562	0.211
562	0.21
563	0.209
563	0.208
564	0.208
564	0.207
564	0.207
565	0.206
565	0.206
566	0.205
566	0.205
567	0.205
567	0.205
568	0.205
568	0.204
568	0.204
569	0.203
569	0.203
570	0.202
570	0.201
571	0.201
571	0.2
572	0.2
572	0.199
573	0.199
573	0.199
573	0.198
574	0.198
574	0.198
575	0.197
575	0.198
576	0.197
576	0.197
577	0.196
577	0.195
577	0.195
578	0.195
578	0.194
579	0.195
579	0.195
580	0.194
580	0.193
581	0.193
581	0.192
581	0.193
582	0.193
582	0.192
583	0.193
583	0.192
584	0.191
584	0.19
585	0.19
585	0.19
585	0.19
586	0.189
586	0.189
587	0.188
587	0.188
588	0.187
588	0.187
589	0.187
589	0.187
590	0.187
590	0.187
590	0.187
591	0.187
591	0.187
592	0.186
592	0.186
593	0.186
593	0.185
594	0.185
594	0.184
594	0.183
595	0.183
595	0.182
596	0.182
596	0.182
597	0.183
597	0.183
598	0.182
598	0.182
598	0.182
599	0.182
599	0.181
600	0.181
600	0.181
601	0.18
601	0.18
602	0.179
602	0.179
602	0.179
603	0.178
603	0.179
604	0.179
604	0.179
605	0.179
605	0.179
606	0.179
606	0.178
606	0.178
607	0.178
607	0.178
608	0.177
608	0.177
609	0.176
609	0.176
610	0.175
610	0.175
610	0.175
611	0.175
611	0.175
612	0.175
612	0.175
613	0.175
613	0.175
614	0.175
614	0.175
614	0.175
615	0.175
615	0.175
616	0.175
616	0.175
617	0.175
617	0.175
618	0.174
618	0.174
618	0.174
619	0.174
619	0.174
620	0.174
620	0.174
621	0.174
621	0.173
622	0.173
622	0.173
622	0.172
623	0.172
623	0.172
624	0.172
624	0.171
625	0.171
625	0.171
626	0.171
626	0.171
626	0.171
627	0.171
627	0.17
628	0.17
628	0.17
629	0.17
629	0.17
630	0.17
630	0.169
630	0.169
631	0.169
631	0.169
632	0.169
632	0.168
633	0.168
633	0.168
634	0.168
634	0.168
634	0.168
635	0.168
635	0.168
636	0.168
636	0.168
637	0.168
637	0.168
638	0.168
638	0.167
638	0.167
639	0.167
639	0.167
640	0.167
640	0.167
641	0.167
641	0.167
642	0.167
642	0.167
642	0.167
643	0.167
643	0.167
644	0.168
644	0.168
645	0.167
645	0.167
646	0.167
646	0.167
646	0.167
647	0.166
647	0.166
648	0.165
648	0.164
649	0.164
649	0.164
650	0.164
650	0.164
650	0.164
651	0.164
651	0.164
652	0.164
652	0.164
653	0.165
653	0.166
653	0.172
654	0.136
654	0.109
655	0.109
655	0.109
656	0.11
656	0.11
657	0.11
657	0.111
657	0.111
658	0.11
658	0.1
659	0.126
659	0.161
660	0.166
660	0.167
661	0.166
661	0.166
661	0.165
662	0.165
662	0.164
663	0.164
663	0.164
664	0.163
664	0.163
665	0.163
665	0.163
665	0.163
666	0.163
666	0.163
667	0.163
667	0.164
668	0.164
668	0.164
669	0.164
669	0.165
669	0.165
670	0.165
670	0.165
671	0.165
671	0.164
672	0.164
672	0.163
672	0.162
673	0.162
673	0.162
674	0.162
674	0.162
675	0.162
675	0.162
676	0.163
676	0.163
676	0.163
677	0.164
677	0.164
678	0.164
678	0.164
679	0.163
679	0.163
680	0.163
680	0.163
680	0.163
681	0.163
681	0.163
682	0.163
682	0.163
683	0.163
683	0.164
684	0.164
684	0.164
684	0.164
685	0.164
685	0.164
686	0.164
686	0.164
687	0.164
687	0.163
687	0.163
688	0.163
688	0.163
689	0.164
689	0.164
690	0.164
690	0.164
691	0.163
691	0.163
691	0.163
692	0.163
692	0.163
693	0.164
693	0.164
694	0.164
694	0.164
695	0.165
695	0.167
695	0.167
696	0.168
696	0.168
697	0.168
697	0.169
698	0.169
698	0.169
698	0.169
699	0.169
699	0.169
700	0.168
700	0.168
701	0.168
701	0.168
702	0.167
702	0.167
702	0.166
703	0.166
703	0.165
704	0.165
704	0.165
705	0.165
705	0.164
705	0.164
706	0.164
706	0.164
707	0.164
707	0.164
708	0.164
708	0.165
709	0.165
709	0.165
709	0.164
710	0.165
710	0.165
711	0.166
711	0.166
712	0.166
712	0.166
713	0.166
713	0.166
713	0.166
714	0.166
714	0.166
715	0.165
715	0.165
716	0.164
716	0.164
716	0.164
717	0.163
717	0.163
718	0.163
718	0.163
719	0.164
719	0.164
720	0.165
720	0.166
720	0.166
721	0.167
721	0.168
722	0.168
722	0.168
723	0.169
723	0.169
723	0.169
724	0.168
724	0.168
725	0.167
725	0.166
726	0.166
726	0.165
727	0.165
727	0.164
727	0.164
728	0.164
728	0.164
729	0.165
729	0.165
730	0.165
730	0.165
730	0.166
731	0.166
731	0.167
732	0.168
732	0.168
733	0.168
733	0.169
734	0.169
734	0.169
734	0.17
735	0.17
735	0.17
736	0.169
736	0.169
737	0.169
737	0.169
737	0.169
738	0.168
738	0.168
739	0.168
739	0.168
740	0.168
740	0.168
741	0.168
741	0.169
741	0.169
742	0.169
742	0.17
743	0.171
743	0.172
744	0.173
744	0.173
744	0.173
745	0.173
745	0.173
746	0.174
746	0.173
747	0.173
747	0.173
748	0.172
748	0.172
748	0.171
749	0.171
749	0.171
750	0.171
750	0.17
751	0.17
751	0.17
751	0.17
752	0.17
752	0.17
753	0.169
753	0.169
754	0.17
754	0.17
754	0.17
755	0.17
755	0.171
756	0.171
756	0.17
757	0.17
757	0.171
758	0.171
758	0.171
758	0.172
759	0.172
759	0.172
760	0.172
760	0.172
761	0.172
761	0.173
761	0.173
762	0.174
762	0.174
763	0.174
763	0.174
764	0.173
764	0.173
764	0.173
765	0.173
765	0.172
766	0.172
766	0.172
767	0.171
767	0.17
768	0.17
768	0.17
768	0.17
769	0.17
769	0.17
770	0.171
770	0.171
771	0.172
771	0.172
771	0.173
772	0.174
772	0.175
773	0.175
773	0.175
774	0.175
774	0.176
775	0.176
775	0.176
775	0.176
776	0.177
776	0.177
777	0.178
777	0.178
778	0.178
778	0.178
778	0.178
779	0.178
779	0.178
780	0.177
780	0.176
781	0.175
781	0.175
781	0.174
782	0.174
782	0.173
783	0.173
783	0.174
784	0.174
784	0.174
784	0.175
785	0.175
785	0.175
786	0.176
786	0.177
787	0.177
787	0.177
788	0.177
788	0.177
788	0.177
789	0.177
789	0.177
790	0.177
790	0.177
791	0.177
791	0.176
791	0.176
792	0.177
792	0.176
793	0.176
793	0.175
794	0.175
794	0.174
794	0.174
795	0.174
795	0.174
796	0.174
796	0.174
797	0.174
797	0.174
797	0.175
798	0.175
798	0.176
799	0.176
799	0.176
800	0.176
800	0.176
801	0.176
801	0.176
801	0.176
802	0.176
802	0.176
803	0.176
803	0.176
804	0.177
804	0.178
804	0.178
805	0.178
805	0.178
806	0.178
806	0.178
807	0.178
807	0.178
807	0.178
808	0.178
808	0.177
809	0.177
809	0.177
810	0.177
810	0.177
810	0.177
811	0.177
811	0.177
812	0.177
812	0.177
813	0.178
813	0.178
813	0.178
814	0.179
814	0.179
815	0.179
815	0.179
816	0.179
816	0.179
817	0.178
817	0.178
817	0.178
818	0.178
818	0.177
819	0.177
819	0.177
820	0.176
820	0.176
820	0.176
821	0.176
821	0.177
822	0.177
822	0.177
823	0.177
823	0.178
823	0.178
824	0.179
824	0.18
825	0.181
825	0.182
826	0.182
826	0.182
826	0.183
827	0.183
827	0.183
828	0.183
828	0.183
829	0.183
829	0.183
829	0.183
830	0.183
830	0.184
831	0.184
831	0.185
832	0.185
832	0.185
832	0.185
833	0.185
833	0.185
834	0.185
834	0.184
835	0.184
835	0.183
835	0.182
836	0.182
836	0.182
837	0.181
837	0.18
838	0.18
838	0.179
839	0.178
839	0.178
839	0.177
840	0.176
840	0.176
841	0.175
841	0.174
842	0.174
842	0.173
842	0.173
843	0.172
843	0.172
844	0.171
844	0.171
845	0.17
845	0.17
845	0.17
846	0.17
846	0.17
847	0.17
847	0.17
848	0.171
848	0.171
848	0.171
849	0.171
849	0.171
850	0.171
850	0.171
851	0.171
851	0.171
851	0.171
852	0.17
852	0.17
853	0.17
853	0.17
854	0.171
854	0.172
854	0.172
855	0.173
855	0.174
856	0.174
856	0.175
857	0.176
857	0.176
857	0.177
858	0.177
858	0.177
859	0.176
859	0.176
860	0.175
860	0.175
860	0.175
861	0.174
861	0.174
862	0.173
862	0.173
863	0.173
863	0.172
863	0.172
864	0.172
864	0.172
865	0.172
865	0.172
866	0.172
866	0.172
866	0.172
867	0.173
867	0.173
868	0.173
868	0.173
869	0.174
869	0.174
869	0.173
870	0.173
870	0.173
871	0.172
871	0.172
872	0.172
872	0.172
872	0.171
873	0.171
873	0.17
874	0.17
874	0.169
875	0.169
875	0.169
875	0.169
876	0.169
876	0.169
877	0.169
877	0.169
878	0.169
878	0.169
878	0.169
879	0.169
879	0.17
880	0.17
880	0.17
881	0.17
881	0.17
881	0.17
882	0.17
882	0.17
883	0.17
883	0.169
884	0.169
884	0.169
884	0.169
885	0.168
885	0.167
886	0.167
886	0.166
887	0.165
887	0.165
887	0.164
888	0.163
888	0.162
889	0.162
889	0.162
890	0.162
890	0.162
890	0.162
891	0.162
891	0.162
892	0.162
892	0.161
893	0.161
893	0.161
893	0.16
894	0.159
894	0.159
895	0.158
895	0.158
895	0.158
896	0.159
896	0.159
897	0.159
897	0.16
898	0.161
898	0.161
898	0.162
899	0.162
899	0.162
900	0.163
900	0.163
901	0.163
901	0.162
901	0.162
902	0.162
902	0.161
903	0.161
903	0.16
904	0.16
904	0.159
904	0.159
905	0.158
905	0.157
906	0.157
906	0.157
907	0.157
907	0.157
907	0.157
908	0.157
908	0.157
909	0.156
909	0.156
910	0.155
910	0.155
910	0.154
911	0.153
911	0.153
912	0.152
912	0.152
913	0.151
913	0.151
913	0.151
914	0.151
914	0.151
915	0.151
915	0.15
916	0.15
916	0.15
916	0.15
917	0.15
917	0.15
918	0.149
918	0.149
918	0.149
919	0.149
919	0.148
920	0.148
920	0.148
921	0.148
921	0.148
921	0.148
922	0.148
922	0.148
923	0.148
923	0.148
924	0.148
924	0.149
924	0.149
925	0.149
925	0.149
926	0.15
926	0.15
927	0.15
927	0.15
927	0.15
928	0.151
928	0.151
929	0.151
929	0.151
930	0.151
930	0.151
930	0.151
931	0.151
931	0.151
932	0.151
932	0.151
933	0.151
933	0.15
933	0.15
934	0.15
934	0.149
935	0.149
935	0.149
935	0.148
936	0.147
936	0.147
937	0.146
937	0.145
938	0.145
938	0.144
938	0.143
939	0.143
939	0.142
940	0.142
940	0.141
941	0.141
941	0.142
941	0.142
942	0.142
942	0.142
943	0.143
943	0.143
944	0.144
944	0.144
944	0.144
945	0.145
945	0.145
946	0.145
946	0.145
946	0.145
947	0.145
947	0.145
948	0.144
948	0.144
949	0.143
949	0.143
949	0.142
950	0.141
950	0.14
951	0.14
951	0.139
952	0.138
952	0.137
952	0.136
953	0.136
953	0.135
954	0.135
954	0.135
955	0.134
955	0.134
955	0.134
956	0.134
956	0.135
957	0.135
957	0.136
957	0.136
958	0.136
958	0.136
959	0.137
959	0.137
960	0.137
960	0.137
960	0.137
961	0.136
961	0.136
962	0.136
962	0.136
963	0.135
963	0.135
963	0.135
964	0.135
964	0.135
965	0.135
965	0.135
966	0.135
966	0.135
966	0.135
967	0.135
967	0.135
968	0.135
968	0.134
968	0.134
969	0.133
969	0.132
970	0.131
970	0.13
971	0.13
971	0.129
971	0.128
972	0.128
972	0.127
973	0.127
973	0.126
974	0.126
974	0.126
974	0.127
975	0.127
975	0.127
976	0.128
976	0.128
976	0.128
977	0.128
977	0.128
978	0.128
978	0.128
979	0.128
979	0.128
979	0.128
980	0.128
980	0.128
981	0.127
981	0.127
982	0.127
982	0.127
982	0.127
983	0.127
983	0.127
984	0.127
984	0.127
984	0.127
985	0.127
985	0.127
986	0.127
986	0.127
987	0.127
987	0.127
987	0.128
988	0.128
988	0.127
989	0.127
989	0.127
990	0.127
990	0.127
990	0.127
991	0.127
991	0.127
992	0.126
992	0.125
992	0.125
993	0.124
993	0.123
994	0.122
994	0.121
995	0.121
995	0.12
995	0.12
996	0.12
996	0.12
997	0.12
997	0.12
997	0.12
998	0.121
998	0.121
999	0.122
999	0.122
1000	0.123
1000	0.123
1000	0.124
1001	0.124
1001	0.124
1002	0.124
1002	0.124
1003	0.123
1003	0.123
1003	0.122
1004	0.121
1004	0.121
1005	0.12
1005	0.119
1005	0.118
1006	0.117
1006	0.117
1007	0.116
1007	0.116
1008	0.115
1008	0.115
1008	0.115
1009	0.115
1009	0.115
1010	0.115
1010	0.115
1010	0.115
1011	0.114
1011	0.114
1012	0.113
1012	0.113
1013	0.113
1013	0.112
1013	0.112
1014	0.111
1014	0.111
1015	0.111
1015	0.111
1016	0.111
1016	0.111
1016	0.111
1017	0.111
1017	0.111
1018	0.111
1018	0.111
1018	0.111
1019	0.111
1019	0.111
1020	0.112
1020	0.112
1021	0.112
1021	0.113
1021	0.113
1022	0.113
1022	0.113
1023	0.113
1023	0.113
1023	0.114
1024	0.114
1024	0.114
1025	0.113
1025	0.113
1026	0.113
1026	0.113
1026	0.113
1027	0.113
1027	0.113
1028	0.113
1028	0.113
1028	0.113
1029	0.113
1029	0.113
1030	0.113
1030	0.113
1031	0.113
1031	0.113
1031	0.113
1032	0.114
1032	0.114
1033	0.114
1033	0.115
1033	0.115
1034	0.115
1034	0.115
1035	0.115
1035	0.115
1036	0.115
1036	0.115
1036	0.115
1037	0.115
1037	0.114
1038	0.114
1038	0.114
1039	0.113
1039	0.113
1039	0.113
1040	0.112
1040	0.112
1041	0.112
1041	0.111
1041	0.111
1042	0.11
1042	0.11
1043	0.11
1043	0.109
1044	0.109
1044	0.109
1044	0.108
1045	0.108
1045	0.108
1046	0.108
1046	0.108
1046	0.108
1047	0.107
1047	0.107
1048	0.107
1048	0.107
1049	0.107
1049	0.107
1049	0.107
1050	0.106
1050	0.106
1051	0.105
1051	0.105
1051	0.104
1052	0.104
1052	0.103
1053	0.102
1053	0.101
1053	0.101
1054	0.1
1054	0.1
1055	0.1
1055	0.1
1056	0.1
1056	0.099
1056	0.099
1057	0.099
1057	0.098
1058	0.098
1058	0.098
1058	0.097
1059	0.096
1059	0.096
1060	0.095
1060	0.095
1061	0.094
1061	0.094
1061	0.094
1062	0.094
1062	0.093
1063	0.093
1063	0.093
1063	0.093
1064	0.092
1064	0.092
1065	0.092
1065	0.092
1066	0.092
1066	0.091
1066	0.091
1067	0.091
1067	0.091
1068	0.09
1068	0.091
1068	0.09
1069	0.09
1069	0.09
1070	0.09
1070	0.09
1071	0.09
1071	0.089
1071	0.089
1072	0.089
1072	0.089
1073	0.088
1073	0.089
1073	0.089
1074	0.089
1074	0.089
1075	0.089
1075	0.09
1076	0.091
1076	0.092
1076	0.092
1077	0.092
1077	0.093
1078	0.093
1078	0.093
1078	0.093
1079	0.093
1079	0.093
1080	0.092
1080	0.092
1080	0.092
1081	0.091
1081	0.091
1082	0.092
1082	0.091
1083	0.091
1083	0.091
1083	0.091
1084	0.091
1084	0.091
1085	0.091
1085	0.091
1085	0.091
1086	0.092
1086	0.091
1087	0.091
1087	0.09
1088	0.09
1088	0.09
1088	0.09
1089	0.09
1089	0.09
1090	0.089
1090	0.088
1090	0.087
1091	0.086
1091	0.086
1092	0.086
1092	0.086
1092	0.086
1093	0.085
1093	0.085
1094	0.085
1094	0.085
1095	0.084
1095	0.084
1095	0.084
1096	0.083
1096	0.083
1097	0.082
1097	0.081
1097	0.081
1098	0.08
1098	0.079
1099	0.078
1099	0.077
1100	0.076
1100	0.074
1100	0.073
1101	0.072
1101	0.07
1102	0.069
1102	0.067
1102	0.066
1103	0.065
1103	0.064
1104	0.064
1104	0.062
1104	0.062
1105	0.061
1105	0.059
1106	0.059
1106	0.058
1107	0.059
1107	0.059
1107	0.058
1108	0.058
1108	0.057
1109	0.058
1109	0.057
1109	0.058
1110	0.061
1110	0.06
1111	0.063
1111	0.058
