Data from reversibility-20sec_Absorbance__3736__000000000003736.txt Node

Date: Wed Dec 06 08:58:26 CET 2023
User: Marek
Spectrometer: MAYP115816
Trigger mode: 0
Integration Time (sec): 2.000000E-1
Scans to average: 10
Electric dark correction enabled: true
Nonlinearity correction enabled: true
Boxcar width: 5
XAxis mode: Wavelengths
Number of Pixels in Spectrum: 2068
>>>>>Begin Spectral Data<<<<<
199	-0.142
199	-0.107
200	-0.044
200	0.002
201	0.028
201	0.045
202	0.056
202	0.069
203	0.078
203	0.082
204	0.098
204	0.111
205	0.122
205	0.128
205	0.127
206	0.128
206	0.129
207	0.131
207	0.128
208	0.125
208	0.126
209	0.129
209	0.129
210	0.13
210	0.13
211	0.132
211	0.132
212	0.131
212	0.135
213	0.138
213	0.142
213	0.139
214	0.139
214	0.141
215	0.141
215	0.143
216	0.143
216	0.145
217	0.148
217	0.147
218	0.147
218	0.15
219	0.155
219	0.16
220	0.16
220	0.162
221	0.162
221	0.167
221	0.172
222	0.177
222	0.183
223	0.19
223	0.193
224	0.199
224	0.204
225	0.216
225	0.226
226	0.238
226	0.247
227	0.256
227	0.267
228	0.284
228	0.299
229	0.315
229	0.339
229	0.363
230	0.384
230	0.415
231	0.446
231	0.485
232	0.521
232	0.564
233	0.607
233	0.654
234	0.707
234	0.758
235	0.811
235	0.867
236	0.919
236	0.971
236	1.024
237	1.076
237	1.128
238	1.174
238	1.221
239	1.268
239	1.312
240	1.351
240	1.389
241	1.424
241	1.46
242	1.492
242	1.527
243	1.555
243	1.581
243	1.608
244	1.628
244	1.648
245	1.665
245	1.688
246	1.704
246	1.72
247	1.732
247	1.745
248	1.757
248	1.77
249	1.777
249	1.784
250	1.791
250	1.799
250	1.8
251	1.805
251	1.809
252	1.814
252	1.813
253	1.814
253	1.812
254	1.811
254	1.813
255	1.812
255	1.813
256	1.813
256	1.811
257	1.81
257	1.808
258	1.808
258	1.808
258	1.809
259	1.81
259	1.811
260	1.81
260	1.809
261	1.809
261	1.811
262	1.813
262	1.813
263	1.815
263	1.815
264	1.814
264	1.814
265	1.815
265	1.815
265	1.816
266	1.815
266	1.815
267	1.813
267	1.814
268	1.813
268	1.813
269	1.814
269	1.813
270	1.812
270	1.811
271	1.808
271	1.809
272	1.805
272	1.803
272	1.799
273	1.794
273	1.789
274	1.784
274	1.779
275	1.772
275	1.766
276	1.758
276	1.75
277	1.743
277	1.734
278	1.724
278	1.71
278	1.697
279	1.681
279	1.661
280	1.639
280	1.612
281	1.579
281	1.543
282	1.504
282	1.465
283	1.426
283	1.388
284	1.35
284	1.313
285	1.279
285	1.247
285	1.219
286	1.194
286	1.173
287	1.153
287	1.137
288	1.122
288	1.111
289	1.1
289	1.092
290	1.084
290	1.077
291	1.071
291	1.066
292	1.06
292	1.056
292	1.052
293	1.048
293	1.045
294	1.041
294	1.037
295	1.034
295	1.031
296	1.028
296	1.025
297	1.022
297	1.019
298	1.016
298	1.013
298	1.01
299	1.008
299	1.005
300	1.002
300	0.999
301	0.997
301	0.994
302	0.992
302	0.989
303	0.987
303	0.984
304	0.981
304	0.979
305	0.977
305	0.974
305	0.972
306	0.97
306	0.967
307	0.965
307	0.962
308	0.959
308	0.957
309	0.954
309	0.951
310	0.948
310	0.945
311	0.942
311	0.939
311	0.936
312	0.932
312	0.929
313	0.925
313	0.921
314	0.917
314	0.913
315	0.908
315	0.904
316	0.9
316	0.895
317	0.89
317	0.885
318	0.88
318	0.875
318	0.87
319	0.865
319	0.859
320	0.854
320	0.848
321	0.842
321	0.836
322	0.83
322	0.824
323	0.818
323	0.812
324	0.805
324	0.799
324	0.792
325	0.786
325	0.779
326	0.773
326	0.766
327	0.759
327	0.752
328	0.746
328	0.739
329	0.732
329	0.725
330	0.718
330	0.711
330	0.704
331	0.697
331	0.69
332	0.684
332	0.677
333	0.67
333	0.663
334	0.656
334	0.649
335	0.643
335	0.636
336	0.629
336	0.623
336	0.616
337	0.61
337	0.604
338	0.598
338	0.592
339	0.586
339	0.58
340	0.574
340	0.569
341	0.563
341	0.558
342	0.552
342	0.547
342	0.542
343	0.537
343	0.532
344	0.527
344	0.522
345	0.517
345	0.513
346	0.508
346	0.504
347	0.5
347	0.496
348	0.492
348	0.488
348	0.484
349	0.48
349	0.477
350	0.473
350	0.47
351	0.466
351	0.463
352	0.46
352	0.456
353	0.453
353	0.451
354	0.448
354	0.445
354	0.442
355	0.439
355	0.436
356	0.433
356	0.43
357	0.426
357	0.424
358	0.421
358	0.418
359	0.416
359	0.414
360	0.412
360	0.41
360	0.408
361	0.406
361	0.404
362	0.403
362	0.401
363	0.4
363	0.398
364	0.395
364	0.393
365	0.392
365	0.39
366	0.388
366	0.386
366	0.384
367	0.383
367	0.381
368	0.379
368	0.378
369	0.376
369	0.375
370	0.373
370	0.372
371	0.37
371	0.369
372	0.367
372	0.366
372	0.365
373	0.364
373	0.362
374	0.362
374	0.36
375	0.359
375	0.358
376	0.357
376	0.356
377	0.355
377	0.354
378	0.353
378	0.352
378	0.351
379	0.35
379	0.349
380	0.348
380	0.347
381	0.346
381	0.346
382	0.345
382	0.344
383	0.344
383	0.343
383	0.342
384	0.341
384	0.341
385	0.34
385	0.34
386	0.339
386	0.338
387	0.338
387	0.337
388	0.337
388	0.336
389	0.336
389	0.335
389	0.335
390	0.334
390	0.334
391	0.333
391	0.333
392	0.332
392	0.332
393	0.331
393	0.331
394	0.33
394	0.33
394	0.329
395	0.329
395	0.328
396	0.328
396	0.327
397	0.327
397	0.327
398	0.326
398	0.326
399	0.325
399	0.325
400	0.325
400	0.324
400	0.324
401	0.323
401	0.323
402	0.322
402	0.322
403	0.321
403	0.321
404	0.32
404	0.32
405	0.32
405	0.319
405	0.319
406	0.319
406	0.318
407	0.318
407	0.318
408	0.317
408	0.317
409	0.317
409	0.316
410	0.316
410	0.316
411	0.315
411	0.315
411	0.315
412	0.314
412	0.314
413	0.314
413	0.313
414	0.313
414	0.313
415	0.312
415	0.312
416	0.312
416	0.311
416	0.311
417	0.31
417	0.31
418	0.31
418	0.31
419	0.309
419	0.309
420	0.308
420	0.308
421	0.307
421	0.307
421	0.306
422	0.306
422	0.306
423	0.305
423	0.305
424	0.304
424	0.304
425	0.304
425	0.303
426	0.303
426	0.303
427	0.303
427	0.302
427	0.302
428	0.302
428	0.301
429	0.301
429	0.301
430	0.3
430	0.3
431	0.3
431	0.299
432	0.299
432	0.299
432	0.299
433	0.299
433	0.298
434	0.298
434	0.298
435	0.298
435	0.298
436	0.298
436	0.298
437	0.298
437	0.297
437	0.297
438	0.297
438	0.297
439	0.297
439	0.297
440	0.296
440	0.296
441	0.295
441	0.295
442	0.295
442	0.295
442	0.295
443	0.294
443	0.294
444	0.294
444	0.294
445	0.294
445	0.294
446	0.294
446	0.293
447	0.293
447	0.293
447	0.293
448	0.293
448	0.293
449	0.293
449	0.293
450	0.293
450	0.293
451	0.293
451	0.293
452	0.293
452	0.293
452	0.293
453	0.293
453	0.293
454	0.292
454	0.292
455	0.292
455	0.292
456	0.292
456	0.292
457	0.292
457	0.292
458	0.292
458	0.291
458	0.291
459	0.291
459	0.292
460	0.292
460	0.292
461	0.292
461	0.292
462	0.292
462	0.292
463	0.292
463	0.292
463	0.292
464	0.292
464	0.292
465	0.292
465	0.292
466	0.292
466	0.292
467	0.292
467	0.292
467	0.292
468	0.292
468	0.293
469	0.293
469	0.293
470	0.294
470	0.294
471	0.294
471	0.294
472	0.295
472	0.295
472	0.296
473	0.296
473	0.296
474	0.296
474	0.296
475	0.296
475	0.297
476	0.297
476	0.297
477	0.298
477	0.298
477	0.299
478	0.299
478	0.299
479	0.3
479	0.301
480	0.301
480	0.302
481	0.302
481	0.303
482	0.303
482	0.304
482	0.305
483	0.305
483	0.306
484	0.307
484	0.308
485	0.308
485	0.309
486	0.309
486	0.31
487	0.311
487	0.311
487	0.312
488	0.313
488	0.314
489	0.315
489	0.316
490	0.317
490	0.318
491	0.319
491	0.32
492	0.321
492	0.322
492	0.324
493	0.325
493	0.326
494	0.327
494	0.328
495	0.329
495	0.33
496	0.331
496	0.333
496	0.334
497	0.335
497	0.336
498	0.337
498	0.338
499	0.339
499	0.34
500	0.342
500	0.343
501	0.344
501	0.345
501	0.346
502	0.348
502	0.349
503	0.35
503	0.351
504	0.352
504	0.353
505	0.354
505	0.355
506	0.356
506	0.357
506	0.359
507	0.36
507	0.361
508	0.362
508	0.363
509	0.364
509	0.365
510	0.366
510	0.367
511	0.369
511	0.37
511	0.37
512	0.371
512	0.372
513	0.373
513	0.374
514	0.374
514	0.375
515	0.376
515	0.377
515	0.377
516	0.378
516	0.378
517	0.379
517	0.379
518	0.38
518	0.38
519	0.38
519	0.381
520	0.381
520	0.381
520	0.382
521	0.382
521	0.382
522	0.382
522	0.382
523	0.383
523	0.383
524	0.383
524	0.383
524	0.383
525	0.383
525	0.382
526	0.381
526	0.381
527	0.38
527	0.38
528	0.379
528	0.378
529	0.378
529	0.377
529	0.376
530	0.375
530	0.375
531	0.374
531	0.373
532	0.372
532	0.371
533	0.37
533	0.368
533	0.367
534	0.366
534	0.364
535	0.363
535	0.362
536	0.36
536	0.359
537	0.358
537	0.356
538	0.355
538	0.353
538	0.352
539	0.35
539	0.349
540	0.348
540	0.346
541	0.344
541	0.343
542	0.342
542	0.34
542	0.339
543	0.337
543	0.336
544	0.334
544	0.332
545	0.331
545	0.329
546	0.328
546	0.326
547	0.324
547	0.322
547	0.32
548	0.319
548	0.317
549	0.315
549	0.313
550	0.311
550	0.31
551	0.308
551	0.306
551	0.304
552	0.302
552	0.3
553	0.299
553	0.297
554	0.296
554	0.294
555	0.292
555	0.29
556	0.289
556	0.287
556	0.286
557	0.284
557	0.283
558	0.282
558	0.28
559	0.278
559	0.277
560	0.275
560	0.274
560	0.273
561	0.271
561	0.27
562	0.268
562	0.266
563	0.264
563	0.263
564	0.261
564	0.259
564	0.258
565	0.257
565	0.255
566	0.253
566	0.252
567	0.251
567	0.249
568	0.248
568	0.246
568	0.245
569	0.244
569	0.242
570	0.241
570	0.239
571	0.238
571	0.237
572	0.235
572	0.234
573	0.233
573	0.232
573	0.231
574	0.23
574	0.229
575	0.228
575	0.228
576	0.226
576	0.225
577	0.223
577	0.222
577	0.221
578	0.22
578	0.219
579	0.218
579	0.217
580	0.216
580	0.215
581	0.214
581	0.213
581	0.213
582	0.212
582	0.211
583	0.211
583	0.21
584	0.209
584	0.207
585	0.206
585	0.205
585	0.204
586	0.203
586	0.203
587	0.201
587	0.201
588	0.199
588	0.199
589	0.198
589	0.197
590	0.196
590	0.196
590	0.195
591	0.195
591	0.193
592	0.192
592	0.191
593	0.191
593	0.19
594	0.189
594	0.188
594	0.187
595	0.186
595	0.185
596	0.184
596	0.184
597	0.184
597	0.184
598	0.184
598	0.184
598	0.183
599	0.183
599	0.183
600	0.182
600	0.181
601	0.181
601	0.18
602	0.179
602	0.178
602	0.177
603	0.176
603	0.176
604	0.175
604	0.175
605	0.175
605	0.174
606	0.174
606	0.173
606	0.172
607	0.172
607	0.171
608	0.171
608	0.17
609	0.169
609	0.168
610	0.167
610	0.167
610	0.166
611	0.166
611	0.166
612	0.165
612	0.165
613	0.165
613	0.165
614	0.165
614	0.164
614	0.164
615	0.164
615	0.163
616	0.163
616	0.163
617	0.163
617	0.162
618	0.162
618	0.162
618	0.162
619	0.162
619	0.162
620	0.161
620	0.161
621	0.161
621	0.16
622	0.159
622	0.159
622	0.158
623	0.157
623	0.157
624	0.157
624	0.156
625	0.155
625	0.155
626	0.155
626	0.154
626	0.154
627	0.154
627	0.154
628	0.154
628	0.153
629	0.153
629	0.153
630	0.152
630	0.152
630	0.152
631	0.151
631	0.151
632	0.151
632	0.15
633	0.15
633	0.15
634	0.15
634	0.15
634	0.15
635	0.15
635	0.15
636	0.15
636	0.15
637	0.149
637	0.149
638	0.149
638	0.149
638	0.148
639	0.147
639	0.147
640	0.146
640	0.146
641	0.145
641	0.145
642	0.144
642	0.144
642	0.144
643	0.144
643	0.144
644	0.144
644	0.144
645	0.144
645	0.145
646	0.145
646	0.145
646	0.145
647	0.145
647	0.145
648	0.144
648	0.144
649	0.144
649	0.144
650	0.144
650	0.144
650	0.143
651	0.143
651	0.143
652	0.143
652	0.143
653	0.143
653	0.144
653	0.149
654	0.119
654	0.096
655	0.095
655	0.095
656	0.096
656	0.096
657	0.096
657	0.096
657	0.096
658	0.095
658	0.087
659	0.109
659	0.138
660	0.142
660	0.142
661	0.141
661	0.141
661	0.14
662	0.139
662	0.139
663	0.138
663	0.138
664	0.138
664	0.137
665	0.137
665	0.137
665	0.137
666	0.137
666	0.137
667	0.137
667	0.137
668	0.138
668	0.138
669	0.137
669	0.137
669	0.138
670	0.138
670	0.138
671	0.138
671	0.137
672	0.137
672	0.136
672	0.136
673	0.135
673	0.135
674	0.134
674	0.134
675	0.133
675	0.133
676	0.133
676	0.133
676	0.133
677	0.133
677	0.134
678	0.134
678	0.134
679	0.134
679	0.134
680	0.134
680	0.134
680	0.134
681	0.134
681	0.134
682	0.135
682	0.135
683	0.135
683	0.135
684	0.135
684	0.135
684	0.135
685	0.135
685	0.135
686	0.135
686	0.135
687	0.135
687	0.135
687	0.135
688	0.135
688	0.135
689	0.136
689	0.137
690	0.137
690	0.137
691	0.137
691	0.137
691	0.137
692	0.137
692	0.137
693	0.137
693	0.138
694	0.137
694	0.137
695	0.138
695	0.139
695	0.139
696	0.139
696	0.139
697	0.139
697	0.139
698	0.139
698	0.138
698	0.139
699	0.138
699	0.138
700	0.137
700	0.137
701	0.137
701	0.136
702	0.136
702	0.135
702	0.135
703	0.134
703	0.134
704	0.133
704	0.133
705	0.133
705	0.133
705	0.133
706	0.133
706	0.134
707	0.134
707	0.134
708	0.134
708	0.134
709	0.134
709	0.134
709	0.133
710	0.133
710	0.133
711	0.133
711	0.133
712	0.133
712	0.132
713	0.132
713	0.132
713	0.132
714	0.132
714	0.132
715	0.132
715	0.132
716	0.131
716	0.131
716	0.13
717	0.129
717	0.129
718	0.128
718	0.127
719	0.128
719	0.128
720	0.128
720	0.129
720	0.13
721	0.13
721	0.131
722	0.132
722	0.133
723	0.133
723	0.134
723	0.133
724	0.133
724	0.133
725	0.131
725	0.13
726	0.13
726	0.129
727	0.129
727	0.128
727	0.128
728	0.128
728	0.128
729	0.128
729	0.129
730	0.129
730	0.13
730	0.13
731	0.131
731	0.131
732	0.131
732	0.132
733	0.132
733	0.132
734	0.132
734	0.132
734	0.132
735	0.133
735	0.132
736	0.132
736	0.132
737	0.131
737	0.131
737	0.131
738	0.13
738	0.129
739	0.129
739	0.129
740	0.128
740	0.128
741	0.129
741	0.129
741	0.129
742	0.129
742	0.129
743	0.13
743	0.13
744	0.13
744	0.131
744	0.131
745	0.131
745	0.13
746	0.13
746	0.13
747	0.131
747	0.131
748	0.13
748	0.131
748	0.131
749	0.131
749	0.131
750	0.131
750	0.131
751	0.131
751	0.131
751	0.131
752	0.131
752	0.13
753	0.13
753	0.129
754	0.128
754	0.127
754	0.127
755	0.126
755	0.126
756	0.125
756	0.124
757	0.124
757	0.124
758	0.124
758	0.124
758	0.124
759	0.124
759	0.124
760	0.123
760	0.123
761	0.123
761	0.124
761	0.124
762	0.124
762	0.124
763	0.124
763	0.123
764	0.123
764	0.123
764	0.123
765	0.122
765	0.122
766	0.121
766	0.121
767	0.121
767	0.12
768	0.119
768	0.119
768	0.119
769	0.119
769	0.119
770	0.119
770	0.119
771	0.119
771	0.12
771	0.12
772	0.121
772	0.121
773	0.121
773	0.121
774	0.121
774	0.122
775	0.122
775	0.123
775	0.123
776	0.123
776	0.123
777	0.123
777	0.123
778	0.123
778	0.122
778	0.122
779	0.121
779	0.12
780	0.119
780	0.118
781	0.118
781	0.117
781	0.116
782	0.116
782	0.115
783	0.115
783	0.115
784	0.115
784	0.115
784	0.115
785	0.116
785	0.116
786	0.116
786	0.116
787	0.116
787	0.116
788	0.116
788	0.116
788	0.116
789	0.115
789	0.115
790	0.115
790	0.114
791	0.113
791	0.113
791	0.112
792	0.112
792	0.112
793	0.112
793	0.111
794	0.111
794	0.111
794	0.111
795	0.111
795	0.111
796	0.111
796	0.111
797	0.111
797	0.11
797	0.111
798	0.111
798	0.111
799	0.11
799	0.11
800	0.109
800	0.109
801	0.108
801	0.108
801	0.107
802	0.107
802	0.106
803	0.106
803	0.106
804	0.106
804	0.106
804	0.106
805	0.106
805	0.106
806	0.106
806	0.106
807	0.106
807	0.106
807	0.107
808	0.107
808	0.107
809	0.107
809	0.107
810	0.107
810	0.107
810	0.107
811	0.107
811	0.107
812	0.107
812	0.107
813	0.107
813	0.107
813	0.107
814	0.107
814	0.107
815	0.107
815	0.106
816	0.106
816	0.105
817	0.104
817	0.104
817	0.103
818	0.102
818	0.102
819	0.101
819	0.101
820	0.1
820	0.099
820	0.099
821	0.099
821	0.099
822	0.099
822	0.099
823	0.1
823	0.1
823	0.1
824	0.101
824	0.102
825	0.103
825	0.103
826	0.104
826	0.104
826	0.104
827	0.104
827	0.104
828	0.104
828	0.104
829	0.104
829	0.104
829	0.104
830	0.104
830	0.104
831	0.104
831	0.104
832	0.104
832	0.104
832	0.104
833	0.104
833	0.104
834	0.103
834	0.103
835	0.102
835	0.101
835	0.101
836	0.1
836	0.1
837	0.099
837	0.098
838	0.098
838	0.097
839	0.096
839	0.095
839	0.094
840	0.093
840	0.092
841	0.091
841	0.09
842	0.089
842	0.089
842	0.088
843	0.088
843	0.088
844	0.088
844	0.088
845	0.088
845	0.088
845	0.089
846	0.089
846	0.089
847	0.089
847	0.089
848	0.089
848	0.089
848	0.089
849	0.088
849	0.087
850	0.087
850	0.086
851	0.085
851	0.084
851	0.084
852	0.083
852	0.082
853	0.082
853	0.082
854	0.082
854	0.083
854	0.084
855	0.085
855	0.086
856	0.087
856	0.087
857	0.088
857	0.089
857	0.089
858	0.089
858	0.089
859	0.088
859	0.087
860	0.086
860	0.085
860	0.084
861	0.084
861	0.083
862	0.081
862	0.08
863	0.08
863	0.079
863	0.079
864	0.078
864	0.078
865	0.078
865	0.078
866	0.078
866	0.078
866	0.078
867	0.079
867	0.079
868	0.079
868	0.079
869	0.078
869	0.078
869	0.077
870	0.077
870	0.076
871	0.076
871	0.076
872	0.076
872	0.076
872	0.076
873	0.076
873	0.076
874	0.076
874	0.076
875	0.076
875	0.076
875	0.076
876	0.075
876	0.075
877	0.075
877	0.075
878	0.075
878	0.075
878	0.076
879	0.076
879	0.077
880	0.077
880	0.077
881	0.077
881	0.077
881	0.077
882	0.077
882	0.076
883	0.076
883	0.076
884	0.076
884	0.075
884	0.075
885	0.075
885	0.074
886	0.074
886	0.073
887	0.073
887	0.072
887	0.071
888	0.071
888	0.07
889	0.07
889	0.07
890	0.069
890	0.069
890	0.069
891	0.069
891	0.068
892	0.068
892	0.067
893	0.067
893	0.066
893	0.066
894	0.065
894	0.064
895	0.064
895	0.063
895	0.063
896	0.063
896	0.063
897	0.063
897	0.063
898	0.063
898	0.063
898	0.063
899	0.063
899	0.064
900	0.064
900	0.064
901	0.064
901	0.065
901	0.065
902	0.065
902	0.066
903	0.066
903	0.066
904	0.066
904	0.066
904	0.066
905	0.066
905	0.067
906	0.067
906	0.068
907	0.069
907	0.07
907	0.071
908	0.071
908	0.072
909	0.072
909	0.072
910	0.073
910	0.073
910	0.072
911	0.072
911	0.071
912	0.071
912	0.07
913	0.07
913	0.069
913	0.068
914	0.068
914	0.067
915	0.067
915	0.066
916	0.066
916	0.066
916	0.065
917	0.065
917	0.065
918	0.064
918	0.064
918	0.063
919	0.063
919	0.063
920	0.062
920	0.062
921	0.062
921	0.061
921	0.061
922	0.061
922	0.061
923	0.061
923	0.061
924	0.061
924	0.061
924	0.061
925	0.061
925	0.061
926	0.061
926	0.062
927	0.062
927	0.062
927	0.062
928	0.062
928	0.062
929	0.062
929	0.062
930	0.062
930	0.061
930	0.061
931	0.061
931	0.061
932	0.061
932	0.061
933	0.061
933	0.061
933	0.062
934	0.062
934	0.062
935	0.063
935	0.063
935	0.064
936	0.064
936	0.064
937	0.064
937	0.064
938	0.064
938	0.064
938	0.063
939	0.063
939	0.062
940	0.061
940	0.061
941	0.06
941	0.06
941	0.06
942	0.06
942	0.059
943	0.059
943	0.059
944	0.059
944	0.059
944	0.059
945	0.059
945	0.059
946	0.059
946	0.059
946	0.059
947	0.06
947	0.06
948	0.06
948	0.061
949	0.061
949	0.061
949	0.061
950	0.061
950	0.061
951	0.061
951	0.06
952	0.059
952	0.058
952	0.058
953	0.057
953	0.056
954	0.055
954	0.055
955	0.055
955	0.054
955	0.054
956	0.054
956	0.054
957	0.055
957	0.055
957	0.056
958	0.056
958	0.057
959	0.058
959	0.058
960	0.059
960	0.059
960	0.06
961	0.06
961	0.06
962	0.06
962	0.06
963	0.06
963	0.06
963	0.06
964	0.06
964	0.06
965	0.06
965	0.06
966	0.06
966	0.06
966	0.061
967	0.061
967	0.061
968	0.061
968	0.061
968	0.061
969	0.061
969	0.06
970	0.06
970	0.059
971	0.058
971	0.057
971	0.056
972	0.055
972	0.054
973	0.054
973	0.053
974	0.052
974	0.052
974	0.052
975	0.052
975	0.052
976	0.052
976	0.052
976	0.052
977	0.052
977	0.051
978	0.051
978	0.051
979	0.05
979	0.05
979	0.05
980	0.05
980	0.049
981	0.049
981	0.049
982	0.049
982	0.049
982	0.049
983	0.05
983	0.05
984	0.05
984	0.05
984	0.051
985	0.051
985	0.051
986	0.051
986	0.051
987	0.051
987	0.051
987	0.051
988	0.05
988	0.05
989	0.05
989	0.049
990	0.049
990	0.049
990	0.049
991	0.049
991	0.049
992	0.049
992	0.049
992	0.049
993	0.049
993	0.049
994	0.049
994	0.049
995	0.048
995	0.048
995	0.049
996	0.049
996	0.049
997	0.049
997	0.049
997	0.049
998	0.049
998	0.05
999	0.05
999	0.05
1000	0.051
1000	0.051
1000	0.051
1001	0.051
1001	0.05
1002	0.05
1002	0.05
1003	0.049
1003	0.049
1003	0.048
1004	0.048
1004	0.047
1005	0.046
1005	0.046
1005	0.045
1006	0.045
1006	0.044
1007	0.044
1007	0.044
1008	0.044
1008	0.044
1008	0.044
1009	0.045
1009	0.045
1010	0.046
1010	0.047
1010	0.047
1011	0.048
1011	0.048
1012	0.049
1012	0.049
1013	0.049
1013	0.049
1013	0.049
1014	0.048
1014	0.048
1015	0.048
1015	0.048
1016	0.047
1016	0.047
1016	0.046
1017	0.046
1017	0.045
1018	0.045
1018	0.045
1018	0.044
1019	0.044
1019	0.044
1020	0.044
1020	0.044
1021	0.044
1021	0.044
1021	0.044
1022	0.045
1022	0.045
1023	0.045
1023	0.046
1023	0.046
1024	0.046
1024	0.047
1025	0.047
1025	0.047
1026	0.047
1026	0.046
1026	0.046
1027	0.046
1027	0.046
1028	0.046
1028	0.046
1028	0.046
1029	0.045
1029	0.045
1030	0.045
1030	0.045
1031	0.046
1031	0.046
1031	0.046
1032	0.046
1032	0.046
1033	0.046
1033	0.046
1033	0.045
1034	0.045
1034	0.045
1035	0.044
1035	0.044
1036	0.043
1036	0.043
1036	0.043
1037	0.043
1037	0.042
1038	0.042
1038	0.042
1039	0.042
1039	0.042
1039	0.042
1040	0.042
1040	0.042
1041	0.042
1041	0.042
1041	0.042
1042	0.042
1042	0.042
1043	0.042
1043	0.043
1044	0.043
1044	0.043
1044	0.043
1045	0.044
1045	0.044
1046	0.044
1046	0.045
1046	0.046
1047	0.046
1047	0.047
1048	0.047
1048	0.048
1049	0.048
1049	0.048
1049	0.048
1050	0.048
1050	0.048
1051	0.048
1051	0.048
1051	0.047
1052	0.047
1052	0.046
1053	0.046
1053	0.045
1053	0.045
1054	0.044
1054	0.044
1055	0.044
1055	0.043
1056	0.043
1056	0.042
1056	0.042
1057	0.042
1057	0.042
1058	0.041
1058	0.041
1058	0.04
1059	0.04
1059	0.04
1060	0.04
1060	0.04
1061	0.04
1061	0.039
1061	0.04
1062	0.04
1062	0.04
1063	0.04
1063	0.04
1063	0.04
1064	0.039
1064	0.039
1065	0.039
1065	0.039
1066	0.038
1066	0.038
1066	0.037
1067	0.037
1067	0.036
1068	0.036
1068	0.036
1068	0.035
1069	0.035
1069	0.035
1070	0.034
1070	0.034
1071	0.033
1071	0.033
1071	0.032
1072	0.032
1072	0.031
1073	0.031
1073	0.03
1073	0.03
1074	0.03
1074	0.03
1075	0.03
1075	0.03
1076	0.03
1076	0.031
1076	0.031
1077	0.031
1077	0.031
1078	0.031
1078	0.031
1078	0.031
1079	0.03
1079	0.031
1080	0.03
1080	0.03
1080	0.03
1081	0.03
1081	0.031
1082	0.031
1082	0.032
1083	0.032
1083	0.032
1083	0.033
1084	0.033
1084	0.033
1085	0.034
1085	0.033
1085	0.034
1086	0.034
1086	0.033
1087	0.033
1087	0.033
1088	0.033
1088	0.032
1088	0.032
1089	0.032
1089	0.031
1090	0.031
1090	0.03
1090	0.03
1091	0.03
1091	0.03
1092	0.03
1092	0.03
1092	0.03
1093	0.03
1093	0.03
1094	0.03
1094	0.03
1095	0.03
1095	0.03
1095	0.03
1096	0.029
1096	0.028
1097	0.028
1097	0.028
1097	0.027
1098	0.027
1098	0.027
1099	0.026
1099	0.025
1100	0.025
1100	0.024
1100	0.024
1101	0.024
1101	0.023
1102	0.023
1102	0.023
1102	0.021
1103	0.021
1103	0.021
1104	0.021
1104	0.019
1104	0.019
1105	0.018
1105	0.017
1106	0.016
1106	0.016
1107	0.015
1107	0.014
1107	0.014
1108	0.014
1108	0.012
1109	0.013
1109	0.013
1109	0.013
1110	0.015
1110	0.012
1111	0.011
1111	0.011
