Data from reversibility-20sec_Absorbance__7399__000000000007399.txt Node

Date: Thu Dec 07 05:19:27 CET 2023
User: Marek
Spectrometer: MAYP115816
Trigger mode: 0
Integration Time (sec): 2.000000E-1
Scans to average: 10
Electric dark correction enabled: true
Nonlinearity correction enabled: true
Boxcar width: 5
XAxis mode: Wavelengths
Number of Pixels in Spectrum: 2068
>>>>>Begin Spectral Data<<<<<
199	-0.133
199	-0.094
200	-0.032
200	0.018
201	0.041
201	0.058
202	0.067
202	0.078
203	0.086
203	0.088
204	0.1
204	0.115
205	0.121
205	0.127
205	0.126
206	0.127
206	0.127
207	0.13
207	0.13
208	0.129
208	0.132
209	0.135
209	0.132
210	0.135
210	0.135
211	0.135
211	0.137
212	0.135
212	0.136
213	0.137
213	0.137
213	0.138
214	0.141
214	0.142
215	0.144
215	0.146
216	0.147
216	0.145
217	0.149
217	0.151
218	0.15
218	0.154
219	0.155
219	0.155
220	0.157
220	0.159
221	0.159
221	0.164
221	0.171
222	0.175
222	0.18
223	0.186
223	0.194
224	0.199
224	0.211
225	0.221
225	0.231
226	0.239
226	0.252
227	0.261
227	0.273
228	0.287
228	0.305
229	0.317
229	0.34
229	0.359
230	0.383
230	0.412
231	0.447
231	0.484
232	0.518
232	0.562
233	0.607
233	0.652
234	0.705
234	0.758
235	0.813
235	0.863
236	0.912
236	0.963
236	1.011
237	1.067
237	1.115
238	1.158
238	1.205
239	1.251
239	1.291
240	1.329
240	1.366
241	1.401
241	1.435
242	1.468
242	1.499
243	1.525
243	1.551
243	1.573
244	1.594
244	1.614
245	1.633
245	1.654
246	1.671
246	1.688
247	1.701
247	1.714
248	1.728
248	1.741
249	1.752
249	1.76
250	1.767
250	1.774
250	1.778
251	1.783
251	1.787
252	1.79
252	1.79
253	1.791
253	1.789
254	1.787
254	1.79
255	1.791
255	1.791
256	1.791
256	1.79
257	1.789
257	1.788
258	1.789
258	1.79
258	1.789
259	1.79
259	1.787
260	1.785
260	1.787
261	1.787
261	1.789
262	1.791
262	1.793
263	1.795
263	1.795
264	1.797
264	1.798
265	1.8
265	1.801
265	1.8
266	1.8
266	1.8
267	1.799
267	1.798
268	1.796
268	1.797
269	1.797
269	1.795
270	1.794
270	1.792
271	1.791
271	1.79
272	1.787
272	1.785
272	1.78
273	1.775
273	1.769
274	1.764
274	1.759
275	1.754
275	1.748
276	1.741
276	1.734
277	1.726
277	1.716
278	1.706
278	1.694
278	1.681
279	1.665
279	1.647
280	1.623
280	1.595
281	1.561
281	1.524
282	1.485
282	1.444
283	1.403
283	1.363
284	1.324
284	1.286
285	1.249
285	1.216
285	1.186
286	1.16
286	1.137
287	1.116
287	1.099
288	1.084
288	1.071
289	1.06
289	1.05
290	1.042
290	1.035
291	1.028
291	1.022
292	1.017
292	1.012
292	1.008
293	1.003
293	1
294	0.996
294	0.992
295	0.989
295	0.985
296	0.982
296	0.979
297	0.975
297	0.972
298	0.968
298	0.965
298	0.962
299	0.959
299	0.956
300	0.953
300	0.95
301	0.947
301	0.944
302	0.941
302	0.939
303	0.936
303	0.934
304	0.932
304	0.929
305	0.927
305	0.924
305	0.922
306	0.919
306	0.916
307	0.914
307	0.911
308	0.909
308	0.906
309	0.903
309	0.9
310	0.897
310	0.894
311	0.891
311	0.887
311	0.884
312	0.881
312	0.877
313	0.873
313	0.869
314	0.866
314	0.861
315	0.857
315	0.853
316	0.848
316	0.843
317	0.839
317	0.834
318	0.829
318	0.824
318	0.818
319	0.813
319	0.807
320	0.802
320	0.796
321	0.79
321	0.784
322	0.778
322	0.771
323	0.765
323	0.758
324	0.752
324	0.745
324	0.738
325	0.731
325	0.724
326	0.717
326	0.71
327	0.703
327	0.697
328	0.689
328	0.682
329	0.675
329	0.668
330	0.661
330	0.653
330	0.646
331	0.639
331	0.632
332	0.625
332	0.618
333	0.611
333	0.604
334	0.597
334	0.59
335	0.583
335	0.576
336	0.57
336	0.563
336	0.557
337	0.55
337	0.544
338	0.537
338	0.531
339	0.525
339	0.519
340	0.513
340	0.508
341	0.502
341	0.496
342	0.49
342	0.485
342	0.48
343	0.474
343	0.469
344	0.464
344	0.459
345	0.454
345	0.449
346	0.445
346	0.44
347	0.436
347	0.432
348	0.427
348	0.424
348	0.42
349	0.416
349	0.412
350	0.408
350	0.405
351	0.401
351	0.398
352	0.395
352	0.392
353	0.389
353	0.386
354	0.383
354	0.38
354	0.377
355	0.374
355	0.371
356	0.368
356	0.365
357	0.363
357	0.36
358	0.357
358	0.355
359	0.352
359	0.35
360	0.348
360	0.346
360	0.344
361	0.342
361	0.34
362	0.338
362	0.337
363	0.335
363	0.333
364	0.331
364	0.329
365	0.327
365	0.325
366	0.323
366	0.321
366	0.32
367	0.318
367	0.316
368	0.315
368	0.313
369	0.311
369	0.31
370	0.308
370	0.307
371	0.306
371	0.305
372	0.303
372	0.302
372	0.301
373	0.3
373	0.299
374	0.298
374	0.297
375	0.296
375	0.295
376	0.294
376	0.293
377	0.292
377	0.291
378	0.29
378	0.289
378	0.288
379	0.288
379	0.287
380	0.286
380	0.285
381	0.284
381	0.284
382	0.283
382	0.283
383	0.282
383	0.281
383	0.281
384	0.28
384	0.28
385	0.279
385	0.279
386	0.279
386	0.278
387	0.278
387	0.277
388	0.277
388	0.276
389	0.276
389	0.276
389	0.275
390	0.275
390	0.275
391	0.274
391	0.274
392	0.273
392	0.273
393	0.272
393	0.272
394	0.272
394	0.271
394	0.271
395	0.27
395	0.27
396	0.27
396	0.269
397	0.269
397	0.268
398	0.268
398	0.268
399	0.268
399	0.267
400	0.267
400	0.267
400	0.267
401	0.266
401	0.266
402	0.266
402	0.266
403	0.265
403	0.265
404	0.265
404	0.264
405	0.264
405	0.264
405	0.264
406	0.263
406	0.263
407	0.263
407	0.262
408	0.262
408	0.262
409	0.261
409	0.261
410	0.261
410	0.26
411	0.26
411	0.26
411	0.26
412	0.259
412	0.259
413	0.259
413	0.258
414	0.258
414	0.258
415	0.258
415	0.257
416	0.257
416	0.257
416	0.256
417	0.256
417	0.256
418	0.256
418	0.255
419	0.255
419	0.254
420	0.254
420	0.253
421	0.253
421	0.253
421	0.252
422	0.252
422	0.251
423	0.251
423	0.251
424	0.25
424	0.25
425	0.25
425	0.25
426	0.249
426	0.249
427	0.249
427	0.248
427	0.248
428	0.248
428	0.247
429	0.247
429	0.246
430	0.246
430	0.246
431	0.246
431	0.245
432	0.245
432	0.245
432	0.245
433	0.244
433	0.244
434	0.244
434	0.244
435	0.244
435	0.244
436	0.244
436	0.243
437	0.243
437	0.243
437	0.243
438	0.243
438	0.243
439	0.242
439	0.242
440	0.241
440	0.241
441	0.241
441	0.241
442	0.241
442	0.24
442	0.24
443	0.24
443	0.239
444	0.239
444	0.239
445	0.239
445	0.239
446	0.239
446	0.239
447	0.238
447	0.238
447	0.238
448	0.238
448	0.238
449	0.238
449	0.238
450	0.238
450	0.238
451	0.237
451	0.238
452	0.238
452	0.237
452	0.237
453	0.237
453	0.237
454	0.237
454	0.237
455	0.236
455	0.236
456	0.236
456	0.236
457	0.235
457	0.235
458	0.235
458	0.235
458	0.235
459	0.235
459	0.235
460	0.235
460	0.235
461	0.235
461	0.235
462	0.234
462	0.234
463	0.234
463	0.234
463	0.234
464	0.234
464	0.234
465	0.234
465	0.234
466	0.233
466	0.233
467	0.233
467	0.233
467	0.233
468	0.233
468	0.233
469	0.233
469	0.234
470	0.234
470	0.234
471	0.234
471	0.234
472	0.235
472	0.235
472	0.235
473	0.235
473	0.235
474	0.235
474	0.235
475	0.235
475	0.235
476	0.235
476	0.235
477	0.235
477	0.235
477	0.235
478	0.235
478	0.236
479	0.236
479	0.236
480	0.236
480	0.237
481	0.237
481	0.237
482	0.237
482	0.238
482	0.238
483	0.238
483	0.239
484	0.239
484	0.239
485	0.239
485	0.239
486	0.239
486	0.239
487	0.239
487	0.239
487	0.24
488	0.24
488	0.24
489	0.241
489	0.242
490	0.242
490	0.243
491	0.244
491	0.245
492	0.246
492	0.247
492	0.247
493	0.248
493	0.249
494	0.249
494	0.25
495	0.25
495	0.251
496	0.252
496	0.252
496	0.253
497	0.254
497	0.254
498	0.255
498	0.255
499	0.256
499	0.257
500	0.258
500	0.259
501	0.259
501	0.26
501	0.26
502	0.261
502	0.261
503	0.262
503	0.262
504	0.263
504	0.263
505	0.264
505	0.265
506	0.265
506	0.266
506	0.267
507	0.267
507	0.268
508	0.268
508	0.269
509	0.27
509	0.27
510	0.271
510	0.272
511	0.272
511	0.273
511	0.274
512	0.274
512	0.274
513	0.275
513	0.276
514	0.276
514	0.277
515	0.277
515	0.277
515	0.277
516	0.278
516	0.278
517	0.279
517	0.279
518	0.28
518	0.28
519	0.28
519	0.28
520	0.281
520	0.281
520	0.281
521	0.281
521	0.281
522	0.281
522	0.281
523	0.281
523	0.282
524	0.282
524	0.282
524	0.282
525	0.282
525	0.281
526	0.281
526	0.281
527	0.281
527	0.281
528	0.28
528	0.28
529	0.28
529	0.279
529	0.279
530	0.279
530	0.278
531	0.278
531	0.277
532	0.277
532	0.276
533	0.275
533	0.275
533	0.274
534	0.274
534	0.273
535	0.273
535	0.272
536	0.271
536	0.271
537	0.271
537	0.27
538	0.269
538	0.268
538	0.268
539	0.267
539	0.267
540	0.266
540	0.265
541	0.265
541	0.264
542	0.263
542	0.262
542	0.261
543	0.261
543	0.26
544	0.259
544	0.258
545	0.257
545	0.256
546	0.255
546	0.254
547	0.253
547	0.252
547	0.251
548	0.25
548	0.249
549	0.248
549	0.248
550	0.247
550	0.246
551	0.245
551	0.244
551	0.243
552	0.242
552	0.242
553	0.241
553	0.24
554	0.239
554	0.238
555	0.236
555	0.235
556	0.234
556	0.234
556	0.233
557	0.232
557	0.232
558	0.231
558	0.231
559	0.23
559	0.23
560	0.229
560	0.228
560	0.227
561	0.227
561	0.226
562	0.224
562	0.223
563	0.222
563	0.221
564	0.219
564	0.219
564	0.218
565	0.217
565	0.216
566	0.215
566	0.215
567	0.214
567	0.213
568	0.213
568	0.212
568	0.211
569	0.211
569	0.21
570	0.208
570	0.207
571	0.206
571	0.206
572	0.205
572	0.204
573	0.203
573	0.202
573	0.202
574	0.201
574	0.201
575	0.2
575	0.2
576	0.2
576	0.199
577	0.198
577	0.197
577	0.196
578	0.196
578	0.195
579	0.195
579	0.195
580	0.194
580	0.193
581	0.192
581	0.191
581	0.191
582	0.191
582	0.191
583	0.19
583	0.19
584	0.188
584	0.187
585	0.186
585	0.186
585	0.186
586	0.186
586	0.185
587	0.184
587	0.184
588	0.183
588	0.183
589	0.182
589	0.182
590	0.182
590	0.182
590	0.182
591	0.182
591	0.181
592	0.18
592	0.179
593	0.179
593	0.178
594	0.178
594	0.177
594	0.176
595	0.175
595	0.175
596	0.174
596	0.174
597	0.174
597	0.174
598	0.174
598	0.174
598	0.173
599	0.173
599	0.173
600	0.173
600	0.172
601	0.172
601	0.172
602	0.171
602	0.17
602	0.17
603	0.17
603	0.17
604	0.17
604	0.17
605	0.169
605	0.169
606	0.169
606	0.168
606	0.167
607	0.166
607	0.166
608	0.165
608	0.165
609	0.164
609	0.164
610	0.163
610	0.163
610	0.162
611	0.163
611	0.163
612	0.163
612	0.163
613	0.163
613	0.163
614	0.163
614	0.162
614	0.162
615	0.162
615	0.162
616	0.162
616	0.162
617	0.162
617	0.162
618	0.161
618	0.161
618	0.161
619	0.161
619	0.161
620	0.161
620	0.161
621	0.16
621	0.16
622	0.159
622	0.159
622	0.158
623	0.158
623	0.157
624	0.157
624	0.156
625	0.156
625	0.156
626	0.156
626	0.156
626	0.156
627	0.156
627	0.156
628	0.156
628	0.156
629	0.156
629	0.155
630	0.155
630	0.155
630	0.155
631	0.155
631	0.154
632	0.154
632	0.153
633	0.153
633	0.153
634	0.153
634	0.153
634	0.153
635	0.152
635	0.152
636	0.152
636	0.152
637	0.152
637	0.151
638	0.151
638	0.151
638	0.15
639	0.15
639	0.149
640	0.149
640	0.149
641	0.149
641	0.149
642	0.149
642	0.149
642	0.15
643	0.15
643	0.15
644	0.15
644	0.15
645	0.15
645	0.15
646	0.15
646	0.15
646	0.15
647	0.15
647	0.149
648	0.148
648	0.148
649	0.147
649	0.147
650	0.147
650	0.147
650	0.147
651	0.147
651	0.147
652	0.148
652	0.148
653	0.149
653	0.15
653	0.155
654	0.123
654	0.099
655	0.098
655	0.098
656	0.099
656	0.099
657	0.099
657	0.099
657	0.099
658	0.098
658	0.09
659	0.113
659	0.144
660	0.149
660	0.149
661	0.149
661	0.148
661	0.148
662	0.148
662	0.147
663	0.147
663	0.147
664	0.146
664	0.146
665	0.146
665	0.145
665	0.145
666	0.146
666	0.146
667	0.146
667	0.146
668	0.147
668	0.147
669	0.147
669	0.148
669	0.148
670	0.149
670	0.148
671	0.148
671	0.148
672	0.147
672	0.146
672	0.146
673	0.145
673	0.145
674	0.144
674	0.144
675	0.144
675	0.144
676	0.144
676	0.144
676	0.144
677	0.145
677	0.145
678	0.145
678	0.145
679	0.145
679	0.145
680	0.145
680	0.145
680	0.145
681	0.145
681	0.145
682	0.146
682	0.146
683	0.146
683	0.147
684	0.147
684	0.147
684	0.147
685	0.147
685	0.147
686	0.147
686	0.147
687	0.146
687	0.146
687	0.146
688	0.146
688	0.146
689	0.147
689	0.147
690	0.147
690	0.147
691	0.147
691	0.147
691	0.147
692	0.147
692	0.147
693	0.147
693	0.147
694	0.147
694	0.147
695	0.148
695	0.149
695	0.149
696	0.149
696	0.149
697	0.15
697	0.15
698	0.15
698	0.149
698	0.15
699	0.15
699	0.149
700	0.149
700	0.149
701	0.149
701	0.148
702	0.147
702	0.146
702	0.146
703	0.145
703	0.145
704	0.144
704	0.144
705	0.144
705	0.144
705	0.144
706	0.144
706	0.145
707	0.145
707	0.145
708	0.146
708	0.146
709	0.146
709	0.146
709	0.146
710	0.146
710	0.146
711	0.146
711	0.146
712	0.146
712	0.146
713	0.146
713	0.146
713	0.146
714	0.146
714	0.146
715	0.146
715	0.145
716	0.145
716	0.144
716	0.144
717	0.143
717	0.143
718	0.143
718	0.143
719	0.144
719	0.145
720	0.145
720	0.146
720	0.147
721	0.147
721	0.149
722	0.15
722	0.15
723	0.15
723	0.15
723	0.15
724	0.15
724	0.149
725	0.148
725	0.147
726	0.147
726	0.146
727	0.145
727	0.145
727	0.145
728	0.145
728	0.145
729	0.146
729	0.146
730	0.146
730	0.147
730	0.147
731	0.148
731	0.148
732	0.148
732	0.149
733	0.149
733	0.149
734	0.149
734	0.149
734	0.149
735	0.149
735	0.149
736	0.149
736	0.149
737	0.148
737	0.149
737	0.148
738	0.148
738	0.148
739	0.148
739	0.148
740	0.148
740	0.148
741	0.149
741	0.149
741	0.149
742	0.149
742	0.15
743	0.151
743	0.152
744	0.152
744	0.152
744	0.152
745	0.152
745	0.152
746	0.152
746	0.151
747	0.151
747	0.151
748	0.151
748	0.151
748	0.151
749	0.151
749	0.152
750	0.152
750	0.152
751	0.152
751	0.152
751	0.153
752	0.152
752	0.152
753	0.152
753	0.151
754	0.151
754	0.15
754	0.15
755	0.15
755	0.15
756	0.149
756	0.148
757	0.148
757	0.148
758	0.148
758	0.148
758	0.149
759	0.149
759	0.149
760	0.149
760	0.149
761	0.149
761	0.15
761	0.15
762	0.151
762	0.151
763	0.151
763	0.151
764	0.15
764	0.15
764	0.15
765	0.15
765	0.149
766	0.149
766	0.149
767	0.149
767	0.148
768	0.147
768	0.147
768	0.148
769	0.148
769	0.148
770	0.149
770	0.149
771	0.149
771	0.149
771	0.15
772	0.15
772	0.151
773	0.151
773	0.151
774	0.151
774	0.152
775	0.152
775	0.153
775	0.153
776	0.154
776	0.154
777	0.155
777	0.155
778	0.155
778	0.155
778	0.154
779	0.154
779	0.153
780	0.152
780	0.151
781	0.15
781	0.148
781	0.147
782	0.147
782	0.146
783	0.146
783	0.146
784	0.146
784	0.146
784	0.146
785	0.147
785	0.147
786	0.148
786	0.148
787	0.148
787	0.148
788	0.148
788	0.148
788	0.148
789	0.148
789	0.148
790	0.148
790	0.148
791	0.148
791	0.147
791	0.147
792	0.148
792	0.148
793	0.147
793	0.147
794	0.147
794	0.146
794	0.146
795	0.146
795	0.146
796	0.146
796	0.146
797	0.145
797	0.145
797	0.146
798	0.146
798	0.146
799	0.146
799	0.146
800	0.146
800	0.146
801	0.146
801	0.146
801	0.147
802	0.147
802	0.147
803	0.147
803	0.148
804	0.148
804	0.149
804	0.149
805	0.149
805	0.149
806	0.149
806	0.149
807	0.148
807	0.148
807	0.148
808	0.148
808	0.148
809	0.147
809	0.147
810	0.147
810	0.147
810	0.146
811	0.146
811	0.146
812	0.147
812	0.147
813	0.147
813	0.147
813	0.147
814	0.148
814	0.148
815	0.148
815	0.148
816	0.148
816	0.147
817	0.147
817	0.146
817	0.146
818	0.145
818	0.145
819	0.145
819	0.144
820	0.143
820	0.143
820	0.142
821	0.142
821	0.142
822	0.141
822	0.141
823	0.141
823	0.141
823	0.141
824	0.142
824	0.143
825	0.144
825	0.145
826	0.146
826	0.146
826	0.147
827	0.148
827	0.148
828	0.148
828	0.148
829	0.149
829	0.149
829	0.149
830	0.149
830	0.149
831	0.15
831	0.15
832	0.15
832	0.151
832	0.151
833	0.151
833	0.151
834	0.15
834	0.15
835	0.149
835	0.149
835	0.148
836	0.147
836	0.147
837	0.146
837	0.145
838	0.145
838	0.144
839	0.143
839	0.142
839	0.141
840	0.14
840	0.139
841	0.138
841	0.137
842	0.136
842	0.136
842	0.135
843	0.134
843	0.134
844	0.133
844	0.133
845	0.132
845	0.132
845	0.132
846	0.132
846	0.132
847	0.133
847	0.133
848	0.133
848	0.134
848	0.134
849	0.134
849	0.133
850	0.133
850	0.133
851	0.132
851	0.132
851	0.131
852	0.131
852	0.13
853	0.13
853	0.13
854	0.13
854	0.131
854	0.132
855	0.133
855	0.134
856	0.135
856	0.136
857	0.137
857	0.138
857	0.138
858	0.139
858	0.139
859	0.138
859	0.138
860	0.138
860	0.137
860	0.137
861	0.136
861	0.135
862	0.134
862	0.133
863	0.133
863	0.133
863	0.132
864	0.132
864	0.132
865	0.132
865	0.132
866	0.132
866	0.132
866	0.132
867	0.132
867	0.133
868	0.133
868	0.133
869	0.133
869	0.132
869	0.132
870	0.131
870	0.131
871	0.131
871	0.131
872	0.13
872	0.13
872	0.13
873	0.129
873	0.129
874	0.128
874	0.128
875	0.128
875	0.128
875	0.128
876	0.128
876	0.128
877	0.127
877	0.127
878	0.127
878	0.127
878	0.127
879	0.127
879	0.127
880	0.127
880	0.127
881	0.127
881	0.127
881	0.127
882	0.127
882	0.127
883	0.127
883	0.127
884	0.127
884	0.127
884	0.127
885	0.126
885	0.126
886	0.126
886	0.126
887	0.125
887	0.125
887	0.124
888	0.124
888	0.123
889	0.123
889	0.123
890	0.123
890	0.123
890	0.123
891	0.123
891	0.123
892	0.123
892	0.123
893	0.122
893	0.122
893	0.121
894	0.12
894	0.12
895	0.119
895	0.119
895	0.119
896	0.119
896	0.119
897	0.119
897	0.12
898	0.12
898	0.12
898	0.121
899	0.121
899	0.121
900	0.121
900	0.121
901	0.121
901	0.121
901	0.12
902	0.12
902	0.119
903	0.119
903	0.119
904	0.118
904	0.118
904	0.117
905	0.117
905	0.116
906	0.115
906	0.115
907	0.115
907	0.115
907	0.115
908	0.115
908	0.114
909	0.114
909	0.114
910	0.114
910	0.113
910	0.113
911	0.112
911	0.112
912	0.111
912	0.111
913	0.11
913	0.11
913	0.11
914	0.11
914	0.109
915	0.109
915	0.109
916	0.109
916	0.108
916	0.108
917	0.108
917	0.107
918	0.107
918	0.106
918	0.106
919	0.105
919	0.105
920	0.105
920	0.105
921	0.104
921	0.104
921	0.104
922	0.104
922	0.104
923	0.104
923	0.105
924	0.105
924	0.105
924	0.106
925	0.106
925	0.107
926	0.107
926	0.108
927	0.108
927	0.108
927	0.109
928	0.109
928	0.109
929	0.11
929	0.11
930	0.11
930	0.11
930	0.11
931	0.11
931	0.11
932	0.11
932	0.11
933	0.11
933	0.109
933	0.108
934	0.107
934	0.107
935	0.106
935	0.105
935	0.105
936	0.104
936	0.103
937	0.103
937	0.102
938	0.101
938	0.101
938	0.1
939	0.1
939	0.099
940	0.099
940	0.099
941	0.098
941	0.098
941	0.098
942	0.099
942	0.099
943	0.099
943	0.099
944	0.1
944	0.1
944	0.101
945	0.101
945	0.101
946	0.102
946	0.102
946	0.102
947	0.102
947	0.102
948	0.102
948	0.102
949	0.101
949	0.101
949	0.1
950	0.1
950	0.099
951	0.099
951	0.098
952	0.097
952	0.096
952	0.095
953	0.094
953	0.094
954	0.093
954	0.093
955	0.093
955	0.092
955	0.092
956	0.093
956	0.093
957	0.094
957	0.095
957	0.095
958	0.096
958	0.096
959	0.097
959	0.097
960	0.098
960	0.098
960	0.098
961	0.098
961	0.097
962	0.097
962	0.097
963	0.096
963	0.096
963	0.096
964	0.095
964	0.095
965	0.095
965	0.095
966	0.095
966	0.094
966	0.094
967	0.095
967	0.095
968	0.095
968	0.095
968	0.094
969	0.094
969	0.094
970	0.093
970	0.092
971	0.092
971	0.091
971	0.091
972	0.09
972	0.09
973	0.089
973	0.089
974	0.089
974	0.089
974	0.089
975	0.089
975	0.09
976	0.09
976	0.09
976	0.091
977	0.091
977	0.091
978	0.091
978	0.092
979	0.092
979	0.093
979	0.093
980	0.093
980	0.093
981	0.093
981	0.094
982	0.094
982	0.094
982	0.094
983	0.093
983	0.093
984	0.093
984	0.092
984	0.092
985	0.091
985	0.091
986	0.09
986	0.09
987	0.089
987	0.089
987	0.088
988	0.088
988	0.087
989	0.087
989	0.086
990	0.086
990	0.086
990	0.085
991	0.085
991	0.085
992	0.084
992	0.083
992	0.083
993	0.082
993	0.081
994	0.08
994	0.08
995	0.079
995	0.079
995	0.079
996	0.078
996	0.078
997	0.079
997	0.079
997	0.079
998	0.08
998	0.08
999	0.081
999	0.081
1000	0.082
1000	0.082
1000	0.082
1001	0.082
1001	0.082
1002	0.082
1002	0.082
1003	0.082
1003	0.081
1003	0.081
1004	0.08
1004	0.08
1005	0.079
1005	0.079
1005	0.078
1006	0.078
1006	0.077
1007	0.077
1007	0.077
1008	0.076
1008	0.076
1008	0.076
1009	0.076
1009	0.076
1010	0.076
1010	0.076
1010	0.075
1011	0.075
1011	0.075
1012	0.074
1012	0.074
1013	0.074
1013	0.073
1013	0.073
1014	0.072
1014	0.072
1015	0.072
1015	0.072
1016	0.072
1016	0.072
1016	0.072
1017	0.072
1017	0.072
1018	0.073
1018	0.073
1018	0.073
1019	0.073
1019	0.073
1020	0.074
1020	0.074
1021	0.074
1021	0.075
1021	0.075
1022	0.075
1022	0.075
1023	0.075
1023	0.076
1023	0.076
1024	0.076
1024	0.076
1025	0.076
1025	0.076
1026	0.076
1026	0.075
1026	0.075
1027	0.076
1027	0.076
1028	0.076
1028	0.076
1028	0.076
1029	0.076
1029	0.077
1030	0.077
1030	0.077
1031	0.077
1031	0.077
1031	0.077
1032	0.077
1032	0.078
1033	0.078
1033	0.078
1033	0.078
1034	0.078
1034	0.078
1035	0.079
1035	0.079
1036	0.078
1036	0.078
1036	0.079
1037	0.078
1037	0.078
1038	0.078
1038	0.078
1039	0.077
1039	0.077
1039	0.077
1040	0.077
1040	0.076
1041	0.076
1041	0.076
1041	0.075
1042	0.075
1042	0.075
1043	0.075
1043	0.075
1044	0.074
1044	0.074
1044	0.073
1045	0.073
1045	0.073
1046	0.072
1046	0.072
1046	0.072
1047	0.072
1047	0.071
1048	0.071
1048	0.072
1049	0.072
1049	0.072
1049	0.071
1050	0.071
1050	0.071
1051	0.071
1051	0.071
1051	0.07
1052	0.07
1052	0.069
1053	0.068
1053	0.068
1053	0.067
1054	0.066
1054	0.066
1055	0.066
1055	0.065
1056	0.065
1056	0.064
1056	0.064
1057	0.063
1057	0.063
1058	0.063
1058	0.063
1058	0.062
1059	0.062
1059	0.062
1060	0.062
1060	0.061
1061	0.061
1061	0.061
1061	0.061
1062	0.061
1062	0.061
1063	0.061
1063	0.061
1063	0.061
1064	0.061
1064	0.061
1065	0.061
1065	0.061
1066	0.061
1066	0.06
1066	0.06
1067	0.06
1067	0.06
1068	0.06
1068	0.06
1068	0.059
1069	0.059
1069	0.059
1070	0.058
1070	0.058
1071	0.058
1071	0.058
1071	0.057
1072	0.057
1072	0.057
1073	0.057
1073	0.056
1073	0.056
1074	0.056
1074	0.057
1075	0.057
1075	0.057
1076	0.058
1076	0.058
1076	0.059
1077	0.059
1077	0.059
1078	0.06
1078	0.06
1078	0.06
1079	0.06
1079	0.06
1080	0.06
1080	0.06
1080	0.059
1081	0.059
1081	0.059
1082	0.06
1082	0.06
1083	0.06
1083	0.059
1083	0.06
1084	0.06
1084	0.061
1085	0.061
1085	0.061
1085	0.061
1086	0.061
1086	0.06
1087	0.059
1087	0.059
1088	0.059
1088	0.058
1088	0.058
1089	0.057
1089	0.056
1090	0.056
1090	0.055
1090	0.054
1091	0.055
1091	0.054
1092	0.055
1092	0.055
1092	0.055
1093	0.054
1093	0.054
1094	0.054
1094	0.054
1095	0.053
1095	0.053
1095	0.052
1096	0.051
1096	0.05
1097	0.05
1097	0.049
1097	0.048
1098	0.048
1098	0.047
1099	0.046
1099	0.045
1100	0.045
1100	0.045
1100	0.044
1101	0.043
1101	0.042
1102	0.042
1102	0.041
1102	0.039
1103	0.039
1103	0.039
1104	0.038
1104	0.038
1104	0.037
1105	0.037
1105	0.036
1106	0.034
1106	0.034
1107	0.034
1107	0.034
1107	0.035
1108	0.034
1108	0.033
1109	0.032
1109	0.031
1109	0.031
1110	0.032
1110	0.034
1111	0.035
1111	0.033
