Data from reversibility-20sec_Absorbance__2378__000000000002378.txt Node

Date: Wed Dec 06 01:25:46 CET 2023
User: Marek
Spectrometer: MAYP115816
Trigger mode: 0
Integration Time (sec): 2.000000E-1
Scans to average: 10
Electric dark correction enabled: true
Nonlinearity correction enabled: true
Boxcar width: 5
XAxis mode: Wavelengths
Number of Pixels in Spectrum: 2068
>>>>>Begin Spectral Data<<<<<
199	-0.179
199	-0.145
200	-0.08
200	-0.028
201	-0.001
201	0.021
202	0.035
202	0.047
203	0.056
203	0.058
204	0.072
204	0.087
205	0.1
205	0.107
205	0.106
206	0.107
206	0.103
207	0.105
207	0.101
208	0.1
208	0.1
209	0.102
209	0.099
210	0.098
210	0.098
211	0.099
211	0.101
212	0.099
212	0.103
213	0.108
213	0.108
213	0.11
214	0.113
214	0.116
215	0.119
215	0.118
216	0.122
216	0.123
217	0.127
217	0.127
218	0.125
218	0.129
219	0.133
219	0.133
220	0.136
220	0.134
221	0.136
221	0.136
221	0.14
222	0.145
222	0.149
223	0.155
223	0.158
224	0.162
224	0.165
225	0.175
225	0.187
226	0.199
226	0.213
227	0.221
227	0.233
228	0.248
228	0.265
229	0.282
229	0.305
229	0.332
230	0.355
230	0.381
231	0.414
231	0.451
232	0.488
232	0.533
233	0.577
233	0.624
234	0.677
234	0.731
235	0.785
235	0.841
236	0.896
236	0.949
236	1.003
237	1.059
237	1.106
238	1.154
238	1.205
239	1.256
239	1.301
240	1.341
240	1.379
241	1.418
241	1.453
242	1.487
242	1.524
243	1.559
243	1.593
243	1.623
244	1.649
244	1.672
245	1.693
245	1.72
246	1.744
246	1.764
247	1.779
247	1.795
248	1.812
248	1.826
249	1.837
249	1.847
250	1.858
250	1.87
250	1.877
251	1.881
251	1.888
252	1.896
252	1.899
253	1.904
253	1.904
254	1.904
254	1.91
255	1.909
255	1.912
256	1.912
256	1.912
257	1.914
257	1.916
258	1.917
258	1.916
258	1.918
259	1.921
259	1.921
260	1.923
260	1.925
261	1.926
261	1.932
262	1.936
262	1.939
263	1.944
263	1.946
264	1.949
264	1.951
265	1.954
265	1.957
265	1.959
266	1.963
266	1.964
267	1.963
267	1.966
268	1.966
268	1.969
269	1.974
269	1.974
270	1.974
270	1.972
271	1.97
271	1.97
272	1.97
272	1.969
272	1.965
273	1.958
273	1.951
274	1.942
274	1.937
275	1.929
275	1.924
276	1.918
276	1.91
277	1.901
277	1.889
278	1.878
278	1.867
278	1.852
279	1.835
279	1.812
280	1.784
280	1.748
281	1.707
281	1.663
282	1.617
282	1.571
283	1.525
283	1.48
284	1.437
284	1.396
285	1.358
285	1.324
285	1.294
286	1.267
286	1.243
287	1.223
287	1.205
288	1.19
288	1.178
289	1.167
289	1.158
290	1.15
290	1.142
291	1.136
291	1.13
292	1.125
292	1.121
292	1.116
293	1.113
293	1.109
294	1.105
294	1.102
295	1.099
295	1.096
296	1.093
296	1.09
297	1.086
297	1.083
298	1.08
298	1.077
298	1.075
299	1.072
299	1.069
300	1.066
300	1.063
301	1.061
301	1.058
302	1.056
302	1.053
303	1.051
303	1.048
304	1.046
304	1.043
305	1.041
305	1.039
305	1.036
306	1.034
306	1.031
307	1.028
307	1.025
308	1.023
308	1.02
309	1.017
309	1.014
310	1.011
310	1.008
311	1.005
311	1.001
311	0.998
312	0.994
312	0.99
313	0.986
313	0.982
314	0.978
314	0.974
315	0.97
315	0.965
316	0.961
316	0.956
317	0.951
317	0.946
318	0.941
318	0.936
318	0.93
319	0.924
319	0.919
320	0.913
320	0.907
321	0.901
321	0.894
322	0.888
322	0.882
323	0.875
323	0.868
324	0.862
324	0.855
324	0.848
325	0.841
325	0.835
326	0.828
326	0.821
327	0.814
327	0.807
328	0.8
328	0.793
329	0.786
329	0.778
330	0.771
330	0.764
330	0.757
331	0.749
331	0.742
332	0.735
332	0.728
333	0.72
333	0.714
334	0.707
334	0.7
335	0.693
335	0.686
336	0.679
336	0.673
336	0.666
337	0.659
337	0.653
338	0.647
338	0.64
339	0.634
339	0.628
340	0.622
340	0.616
341	0.61
341	0.605
342	0.599
342	0.594
342	0.588
343	0.583
343	0.578
344	0.573
344	0.568
345	0.563
345	0.558
346	0.553
346	0.549
347	0.544
347	0.54
348	0.536
348	0.532
348	0.528
349	0.524
349	0.52
350	0.516
350	0.513
351	0.509
351	0.506
352	0.502
352	0.499
353	0.496
353	0.493
354	0.49
354	0.487
354	0.484
355	0.481
355	0.478
356	0.476
356	0.473
357	0.47
357	0.467
358	0.465
358	0.462
359	0.459
359	0.457
360	0.455
360	0.452
360	0.45
361	0.448
361	0.446
362	0.444
362	0.442
363	0.44
363	0.438
364	0.436
364	0.434
365	0.432
365	0.43
366	0.428
366	0.426
366	0.424
367	0.423
367	0.421
368	0.419
368	0.417
369	0.415
369	0.414
370	0.412
370	0.411
371	0.41
371	0.408
372	0.407
372	0.405
372	0.404
373	0.403
373	0.402
374	0.401
374	0.399
375	0.398
375	0.397
376	0.396
376	0.395
377	0.394
377	0.393
378	0.392
378	0.39
378	0.389
379	0.388
379	0.387
380	0.386
380	0.385
381	0.384
381	0.383
382	0.382
382	0.382
383	0.381
383	0.38
383	0.379
384	0.378
384	0.378
385	0.377
385	0.376
386	0.376
386	0.375
387	0.374
387	0.373
388	0.373
388	0.372
389	0.372
389	0.371
389	0.371
390	0.37
390	0.37
391	0.369
391	0.369
392	0.368
392	0.368
393	0.367
393	0.367
394	0.366
394	0.365
394	0.365
395	0.364
395	0.364
396	0.363
396	0.363
397	0.362
397	0.361
398	0.361
398	0.36
399	0.36
399	0.359
400	0.359
400	0.358
400	0.358
401	0.357
401	0.357
402	0.356
402	0.356
403	0.356
403	0.355
404	0.355
404	0.354
405	0.354
405	0.354
405	0.353
406	0.353
406	0.352
407	0.352
407	0.351
408	0.351
408	0.35
409	0.35
409	0.349
410	0.349
410	0.348
411	0.348
411	0.348
411	0.347
412	0.347
412	0.347
413	0.347
413	0.346
414	0.346
414	0.345
415	0.345
415	0.344
416	0.344
416	0.344
416	0.343
417	0.343
417	0.342
418	0.342
418	0.342
419	0.341
419	0.341
420	0.34
420	0.34
421	0.339
421	0.339
421	0.339
422	0.338
422	0.338
423	0.337
423	0.337
424	0.336
424	0.336
425	0.336
425	0.335
426	0.335
426	0.334
427	0.334
427	0.334
427	0.333
428	0.333
428	0.333
429	0.333
429	0.333
430	0.332
430	0.332
431	0.332
431	0.332
432	0.332
432	0.331
432	0.331
433	0.331
433	0.331
434	0.33
434	0.33
435	0.33
435	0.33
436	0.33
436	0.33
437	0.329
437	0.329
437	0.329
438	0.329
438	0.328
439	0.328
439	0.328
440	0.327
440	0.327
441	0.327
441	0.326
442	0.326
442	0.326
442	0.326
443	0.326
443	0.326
444	0.325
444	0.325
445	0.325
445	0.325
446	0.325
446	0.324
447	0.324
447	0.324
447	0.324
448	0.324
448	0.324
449	0.323
449	0.323
450	0.324
450	0.323
451	0.323
451	0.324
452	0.324
452	0.323
452	0.324
453	0.323
453	0.323
454	0.323
454	0.323
455	0.322
455	0.322
456	0.322
456	0.322
457	0.322
457	0.321
458	0.321
458	0.321
458	0.321
459	0.321
459	0.321
460	0.321
460	0.321
461	0.321
461	0.321
462	0.321
462	0.321
463	0.321
463	0.321
463	0.321
464	0.321
464	0.321
465	0.321
465	0.321
466	0.321
466	0.321
467	0.321
467	0.322
467	0.322
468	0.322
468	0.322
469	0.322
469	0.323
470	0.323
470	0.324
471	0.324
471	0.324
472	0.324
472	0.325
472	0.325
473	0.325
473	0.325
474	0.326
474	0.326
475	0.326
475	0.326
476	0.326
476	0.327
477	0.327
477	0.327
477	0.328
478	0.328
478	0.328
479	0.329
479	0.329
480	0.33
480	0.331
481	0.331
481	0.331
482	0.332
482	0.332
482	0.333
483	0.334
483	0.335
484	0.336
484	0.336
485	0.337
485	0.337
486	0.338
486	0.338
487	0.339
487	0.34
487	0.341
488	0.341
488	0.342
489	0.343
489	0.344
490	0.345
490	0.346
491	0.347
491	0.349
492	0.35
492	0.351
492	0.352
493	0.353
493	0.355
494	0.356
494	0.357
495	0.358
495	0.359
496	0.36
496	0.362
496	0.363
497	0.363
497	0.364
498	0.365
498	0.366
499	0.367
499	0.369
500	0.37
500	0.372
501	0.373
501	0.374
501	0.375
502	0.377
502	0.378
503	0.38
503	0.381
504	0.382
504	0.383
505	0.384
505	0.385
506	0.386
506	0.387
506	0.388
507	0.389
507	0.39
508	0.391
508	0.392
509	0.393
509	0.395
510	0.396
510	0.396
511	0.398
511	0.399
511	0.4
512	0.401
512	0.402
513	0.403
513	0.403
514	0.405
514	0.405
515	0.406
515	0.407
515	0.407
516	0.408
516	0.409
517	0.41
517	0.41
518	0.41
518	0.411
519	0.411
519	0.411
520	0.411
520	0.412
520	0.412
521	0.412
521	0.412
522	0.412
522	0.412
523	0.412
523	0.412
524	0.412
524	0.412
524	0.412
525	0.412
525	0.411
526	0.411
526	0.411
527	0.41
527	0.41
528	0.409
528	0.409
529	0.408
529	0.407
529	0.406
530	0.405
530	0.404
531	0.403
531	0.402
532	0.401
532	0.399
533	0.398
533	0.397
533	0.396
534	0.395
534	0.394
535	0.392
535	0.391
536	0.39
536	0.388
537	0.388
537	0.386
538	0.385
538	0.383
538	0.382
539	0.38
539	0.379
540	0.378
540	0.376
541	0.374
541	0.373
542	0.371
542	0.37
542	0.368
543	0.366
543	0.364
544	0.362
544	0.361
545	0.359
545	0.358
546	0.356
546	0.354
547	0.352
547	0.35
547	0.348
548	0.347
548	0.345
549	0.343
549	0.342
550	0.34
550	0.338
551	0.336
551	0.334
551	0.333
552	0.331
552	0.33
553	0.328
553	0.326
554	0.324
554	0.322
555	0.32
555	0.318
556	0.316
556	0.314
556	0.313
557	0.311
557	0.31
558	0.308
558	0.307
559	0.305
559	0.304
560	0.302
560	0.301
560	0.3
561	0.298
561	0.297
562	0.295
562	0.293
563	0.291
563	0.289
564	0.287
564	0.286
564	0.284
565	0.283
565	0.282
566	0.28
566	0.279
567	0.277
567	0.277
568	0.275
568	0.274
568	0.273
569	0.272
569	0.27
570	0.269
570	0.267
571	0.266
571	0.265
572	0.263
572	0.262
573	0.261
573	0.259
573	0.258
574	0.256
574	0.256
575	0.255
575	0.254
576	0.253
576	0.251
577	0.25
577	0.249
577	0.248
578	0.247
578	0.245
579	0.245
579	0.244
580	0.243
580	0.241
581	0.24
581	0.239
581	0.239
582	0.238
582	0.238
583	0.238
583	0.237
584	0.235
584	0.234
585	0.233
585	0.232
585	0.231
586	0.23
586	0.229
587	0.227
587	0.226
588	0.225
588	0.224
589	0.223
589	0.222
590	0.221
590	0.22
590	0.22
591	0.22
591	0.219
592	0.218
592	0.217
593	0.216
593	0.215
594	0.215
594	0.214
594	0.213
595	0.212
595	0.211
596	0.21
596	0.21
597	0.211
597	0.21
598	0.21
598	0.209
598	0.209
599	0.208
599	0.207
600	0.207
600	0.206
601	0.206
601	0.205
602	0.204
602	0.203
602	0.202
603	0.201
603	0.201
604	0.201
604	0.2
605	0.2
605	0.199
606	0.199
606	0.198
606	0.197
607	0.197
607	0.196
608	0.195
608	0.194
609	0.193
609	0.193
610	0.192
610	0.192
610	0.191
611	0.191
611	0.191
612	0.191
612	0.191
613	0.191
613	0.191
614	0.19
614	0.19
614	0.189
615	0.189
615	0.188
616	0.188
616	0.188
617	0.187
617	0.187
618	0.186
618	0.186
618	0.186
619	0.186
619	0.186
620	0.186
620	0.186
621	0.185
621	0.184
622	0.184
622	0.183
622	0.182
623	0.181
623	0.181
624	0.18
624	0.179
625	0.179
625	0.178
626	0.178
626	0.177
626	0.177
627	0.177
627	0.177
628	0.177
628	0.176
629	0.176
629	0.176
630	0.175
630	0.175
630	0.175
631	0.175
631	0.174
632	0.174
632	0.173
633	0.173
633	0.173
634	0.173
634	0.173
634	0.173
635	0.172
635	0.172
636	0.171
636	0.171
637	0.171
637	0.17
638	0.17
638	0.169
638	0.169
639	0.168
639	0.168
640	0.168
640	0.168
641	0.167
641	0.167
642	0.167
642	0.167
642	0.167
643	0.167
643	0.167
644	0.168
644	0.168
645	0.168
645	0.168
646	0.168
646	0.167
646	0.168
647	0.167
647	0.167
648	0.166
648	0.165
649	0.165
649	0.164
650	0.164
650	0.164
650	0.163
651	0.163
651	0.163
652	0.163
652	0.163
653	0.164
653	0.165
653	0.171
654	0.135
654	0.109
655	0.109
655	0.109
656	0.109
656	0.109
657	0.109
657	0.11
657	0.11
658	0.108
658	0.099
659	0.124
659	0.158
660	0.163
660	0.163
661	0.163
661	0.162
661	0.162
662	0.162
662	0.161
663	0.161
663	0.16
664	0.16
664	0.16
665	0.159
665	0.159
665	0.159
666	0.159
666	0.159
667	0.159
667	0.159
668	0.16
668	0.159
669	0.159
669	0.16
669	0.16
670	0.16
670	0.16
671	0.16
671	0.16
672	0.159
672	0.159
672	0.159
673	0.159
673	0.158
674	0.158
674	0.158
675	0.157
675	0.157
676	0.158
676	0.158
676	0.157
677	0.157
677	0.157
678	0.157
678	0.157
679	0.157
679	0.157
680	0.157
680	0.156
680	0.156
681	0.156
681	0.156
682	0.156
682	0.156
683	0.156
683	0.156
684	0.156
684	0.156
684	0.156
685	0.156
685	0.156
686	0.156
686	0.155
687	0.155
687	0.155
687	0.155
688	0.155
688	0.155
689	0.156
689	0.156
690	0.156
690	0.156
691	0.156
691	0.156
691	0.157
692	0.157
692	0.157
693	0.158
693	0.158
694	0.158
694	0.158
695	0.159
695	0.159
695	0.159
696	0.159
696	0.159
697	0.158
697	0.158
698	0.157
698	0.157
698	0.157
699	0.157
699	0.157
700	0.156
700	0.156
701	0.157
701	0.157
702	0.157
702	0.157
702	0.157
703	0.157
703	0.156
704	0.156
704	0.156
705	0.156
705	0.155
705	0.155
706	0.154
706	0.154
707	0.154
707	0.153
708	0.153
708	0.153
709	0.153
709	0.153
709	0.152
710	0.152
710	0.153
711	0.153
711	0.154
712	0.154
712	0.154
713	0.155
713	0.155
713	0.155
714	0.155
714	0.155
715	0.155
715	0.155
716	0.154
716	0.154
716	0.154
717	0.153
717	0.153
718	0.152
718	0.152
719	0.152
719	0.152
720	0.152
720	0.152
720	0.153
721	0.153
721	0.153
722	0.154
722	0.154
723	0.155
723	0.155
723	0.156
724	0.156
724	0.156
725	0.155
725	0.154
726	0.153
726	0.153
727	0.152
727	0.151
727	0.151
728	0.15
728	0.15
729	0.15
729	0.15
730	0.15
730	0.151
730	0.152
731	0.152
731	0.153
732	0.153
732	0.153
733	0.153
733	0.153
734	0.153
734	0.153
734	0.152
735	0.152
735	0.151
736	0.151
736	0.15
737	0.15
737	0.15
737	0.149
738	0.149
738	0.148
739	0.148
739	0.148
740	0.148
740	0.148
741	0.148
741	0.148
741	0.148
742	0.148
742	0.148
743	0.149
743	0.149
744	0.149
744	0.15
744	0.149
745	0.149
745	0.149
746	0.149
746	0.149
747	0.149
747	0.15
748	0.15
748	0.151
748	0.151
749	0.151
749	0.152
750	0.152
750	0.152
751	0.152
751	0.152
751	0.152
752	0.151
752	0.151
753	0.15
753	0.15
754	0.149
754	0.149
754	0.149
755	0.149
755	0.148
756	0.148
756	0.146
757	0.146
757	0.146
758	0.145
758	0.145
758	0.145
759	0.145
759	0.144
760	0.144
760	0.144
761	0.144
761	0.145
761	0.146
762	0.145
762	0.146
763	0.146
763	0.145
764	0.145
764	0.145
764	0.145
765	0.144
765	0.144
766	0.143
766	0.143
767	0.142
767	0.141
768	0.14
768	0.14
768	0.14
769	0.139
769	0.139
770	0.138
770	0.138
771	0.138
771	0.138
771	0.138
772	0.139
772	0.139
773	0.14
773	0.14
774	0.14
774	0.14
775	0.141
775	0.141
775	0.14
776	0.14
776	0.141
777	0.14
777	0.14
778	0.14
778	0.139
778	0.139
779	0.139
779	0.138
780	0.137
780	0.137
781	0.136
781	0.136
781	0.135
782	0.135
782	0.135
783	0.135
783	0.135
784	0.134
784	0.134
784	0.134
785	0.134
785	0.134
786	0.134
786	0.134
787	0.133
787	0.133
788	0.132
788	0.132
788	0.131
789	0.131
789	0.131
790	0.13
790	0.13
791	0.13
791	0.13
791	0.13
792	0.131
792	0.131
793	0.131
793	0.131
794	0.131
794	0.131
794	0.131
795	0.131
795	0.131
796	0.131
796	0.131
797	0.13
797	0.13
797	0.13
798	0.13
798	0.129
799	0.129
799	0.128
800	0.128
800	0.127
801	0.126
801	0.126
801	0.125
802	0.125
802	0.125
803	0.125
803	0.125
804	0.125
804	0.125
804	0.125
805	0.125
805	0.125
806	0.125
806	0.125
807	0.125
807	0.124
807	0.124
808	0.124
808	0.124
809	0.124
809	0.124
810	0.124
810	0.124
810	0.124
811	0.124
811	0.124
812	0.124
812	0.124
813	0.124
813	0.123
813	0.123
814	0.123
814	0.122
815	0.122
815	0.121
816	0.121
816	0.12
817	0.119
817	0.119
817	0.118
818	0.118
818	0.118
819	0.117
819	0.116
820	0.115
820	0.115
820	0.114
821	0.114
821	0.114
822	0.114
822	0.114
823	0.114
823	0.114
823	0.114
824	0.115
824	0.116
825	0.117
825	0.117
826	0.117
826	0.117
826	0.117
827	0.117
827	0.117
828	0.116
828	0.116
829	0.115
829	0.115
829	0.114
830	0.114
830	0.114
831	0.115
831	0.115
832	0.114
832	0.115
832	0.115
833	0.115
833	0.114
834	0.114
834	0.114
835	0.114
835	0.114
835	0.114
836	0.114
836	0.114
837	0.114
837	0.114
838	0.114
838	0.113
839	0.113
839	0.112
839	0.111
840	0.11
840	0.109
841	0.108
841	0.106
842	0.105
842	0.104
842	0.103
843	0.102
843	0.101
844	0.101
844	0.1
845	0.1
845	0.1
845	0.1
846	0.1
846	0.1
847	0.1
847	0.101
848	0.101
848	0.102
848	0.103
849	0.103
849	0.104
850	0.104
850	0.104
851	0.104
851	0.104
851	0.103
852	0.102
852	0.102
853	0.101
853	0.1
854	0.099
854	0.099
854	0.099
855	0.099
855	0.1
856	0.1
856	0.1
857	0.1
857	0.101
857	0.101
858	0.101
858	0.1
859	0.099
859	0.099
860	0.098
860	0.097
860	0.096
861	0.096
861	0.095
862	0.094
862	0.093
863	0.092
863	0.092
863	0.092
864	0.092
864	0.092
865	0.092
865	0.092
866	0.092
866	0.092
866	0.092
867	0.092
867	0.092
868	0.092
868	0.092
869	0.092
869	0.091
869	0.09
870	0.09
870	0.089
871	0.089
871	0.089
872	0.089
872	0.089
872	0.089
873	0.089
873	0.089
874	0.089
874	0.089
875	0.089
875	0.089
875	0.089
876	0.089
876	0.088
877	0.088
877	0.089
878	0.089
878	0.09
878	0.091
879	0.092
879	0.093
880	0.094
880	0.094
881	0.095
881	0.095
881	0.094
882	0.093
882	0.093
883	0.091
883	0.09
884	0.089
884	0.088
884	0.088
885	0.087
885	0.086
886	0.086
886	0.086
887	0.085
887	0.085
887	0.084
888	0.084
888	0.083
889	0.082
889	0.082
890	0.081
890	0.081
890	0.08
891	0.08
891	0.079
892	0.079
892	0.079
893	0.079
893	0.08
893	0.08
894	0.08
894	0.08
895	0.08
895	0.08
895	0.08
896	0.08
896	0.079
897	0.079
897	0.079
898	0.079
898	0.079
898	0.079
899	0.079
899	0.079
900	0.079
900	0.079
901	0.079
901	0.08
901	0.08
902	0.08
902	0.08
903	0.08
903	0.08
904	0.08
904	0.08
904	0.079
905	0.079
905	0.079
906	0.079
906	0.079
907	0.079
907	0.08
907	0.08
908	0.081
908	0.081
909	0.082
909	0.082
910	0.082
910	0.082
910	0.082
911	0.081
911	0.081
912	0.08
912	0.079
913	0.079
913	0.078
913	0.077
914	0.077
914	0.076
915	0.076
915	0.075
916	0.075
916	0.074
916	0.073
917	0.073
917	0.072
918	0.072
918	0.071
918	0.07
919	0.07
919	0.069
920	0.069
920	0.068
921	0.068
921	0.067
921	0.067
922	0.066
922	0.066
923	0.066
923	0.066
924	0.066
924	0.066
924	0.066
925	0.067
925	0.067
926	0.067
926	0.068
927	0.068
927	0.068
927	0.069
928	0.069
928	0.069
929	0.07
929	0.07
930	0.071
930	0.071
930	0.071
931	0.072
931	0.072
932	0.073
932	0.073
933	0.074
933	0.074
933	0.074
934	0.075
934	0.075
935	0.075
935	0.075
935	0.075
936	0.075
936	0.075
937	0.075
937	0.075
938	0.074
938	0.074
938	0.073
939	0.073
939	0.072
940	0.072
940	0.072
941	0.072
941	0.071
941	0.071
942	0.071
942	0.071
943	0.071
943	0.071
944	0.07
944	0.07
944	0.07
945	0.07
945	0.07
946	0.07
946	0.07
946	0.07
947	0.07
947	0.069
948	0.069
948	0.068
949	0.068
949	0.067
949	0.067
950	0.066
950	0.065
951	0.065
951	0.064
952	0.063
952	0.062
952	0.061
953	0.061
953	0.06
954	0.06
954	0.06
955	0.059
955	0.059
955	0.06
956	0.06
956	0.061
957	0.061
957	0.062
957	0.063
958	0.064
958	0.065
959	0.066
959	0.066
960	0.067
960	0.067
960	0.068
961	0.068
961	0.068
962	0.068
962	0.068
963	0.068
963	0.068
963	0.068
964	0.069
964	0.069
965	0.069
965	0.069
966	0.069
966	0.07
966	0.07
967	0.07
967	0.071
968	0.071
968	0.071
968	0.071
969	0.071
969	0.071
970	0.071
970	0.07
971	0.07
971	0.07
971	0.07
972	0.069
972	0.069
973	0.069
973	0.069
974	0.069
974	0.069
974	0.069
975	0.069
975	0.07
976	0.07
976	0.07
976	0.07
977	0.07
977	0.07
978	0.07
978	0.069
979	0.069
979	0.069
979	0.068
980	0.068
980	0.067
981	0.066
981	0.065
982	0.065
982	0.064
982	0.064
983	0.063
983	0.062
984	0.062
984	0.061
984	0.06
985	0.059
985	0.059
986	0.058
986	0.057
987	0.057
987	0.056
987	0.056
988	0.056
988	0.056
989	0.055
989	0.055
990	0.055
990	0.056
990	0.056
991	0.056
991	0.056
992	0.056
992	0.056
992	0.055
993	0.055
993	0.055
994	0.055
994	0.054
995	0.054
995	0.054
995	0.054
996	0.054
996	0.055
997	0.055
997	0.055
997	0.056
998	0.056
998	0.057
999	0.057
999	0.058
1000	0.059
1000	0.059
1000	0.059
1001	0.059
1001	0.059
1002	0.059
1002	0.059
1003	0.059
1003	0.059
1003	0.059
1004	0.058
1004	0.058
1005	0.057
1005	0.057
1005	0.057
1006	0.056
1006	0.056
1007	0.056
1007	0.056
1008	0.056
1008	0.056
1008	0.056
1009	0.056
1009	0.056
1010	0.056
1010	0.056
1010	0.056
1011	0.056
1011	0.056
1012	0.056
1012	0.056
1013	0.056
1013	0.056
1013	0.056
1014	0.056
1014	0.056
1015	0.055
1015	0.055
1016	0.055
1016	0.055
1016	0.054
1017	0.054
1017	0.053
1018	0.053
1018	0.053
1018	0.053
1019	0.053
1019	0.052
1020	0.052
1020	0.052
1021	0.052
1021	0.053
1021	0.053
1022	0.053
1022	0.053
1023	0.053
1023	0.053
1023	0.054
1024	0.054
1024	0.054
1025	0.054
1025	0.054
1026	0.055
1026	0.054
1026	0.055
1027	0.055
1027	0.055
1028	0.055
1028	0.055
1028	0.055
1029	0.055
1029	0.056
1030	0.056
1030	0.056
1031	0.056
1031	0.056
1031	0.056
1032	0.056
1032	0.056
1033	0.056
1033	0.056
1033	0.056
1034	0.056
1034	0.055
1035	0.055
1035	0.055
1036	0.054
1036	0.054
1036	0.054
1037	0.054
1037	0.054
1038	0.054
1038	0.054
1039	0.055
1039	0.055
1039	0.055
1040	0.056
1040	0.057
1041	0.057
1041	0.058
1041	0.058
1042	0.058
1042	0.059
1043	0.059
1043	0.059
1044	0.059
1044	0.059
1044	0.059
1045	0.059
1045	0.059
1046	0.06
1046	0.06
1046	0.06
1047	0.06
1047	0.061
1048	0.061
1048	0.061
1049	0.061
1049	0.062
1049	0.062
1050	0.062
1050	0.061
1051	0.061
1051	0.061
1051	0.06
1052	0.06
1052	0.059
1053	0.058
1053	0.057
1053	0.056
1054	0.056
1054	0.055
1055	0.054
1055	0.054
1056	0.053
1056	0.052
1056	0.051
1057	0.051
1057	0.05
1058	0.049
1058	0.048
1058	0.048
1059	0.047
1059	0.047
1060	0.046
1060	0.045
1061	0.045
1061	0.045
1061	0.045
1062	0.044
1062	0.044
1063	0.044
1063	0.045
1063	0.044
1064	0.044
1064	0.044
1065	0.044
1065	0.043
1066	0.043
1066	0.043
1066	0.043
1067	0.042
1067	0.042
1068	0.042
1068	0.041
1068	0.041
1069	0.04
1069	0.04
1070	0.039
1070	0.039
1071	0.038
1071	0.038
1071	0.037
1072	0.036
1072	0.035
1073	0.035
1073	0.034
1073	0.034
1074	0.034
1074	0.034
1075	0.034
1075	0.035
1076	0.035
1076	0.036
1076	0.037
1077	0.038
1077	0.038
1078	0.038
1078	0.039
1078	0.04
1079	0.039
1079	0.04
1080	0.039
1080	0.04
1080	0.04
1081	0.04
1081	0.04
1082	0.04
1082	0.04
1083	0.04
1083	0.039
1083	0.04
1084	0.04
1084	0.04
1085	0.039
1085	0.038
1085	0.038
1086	0.038
1086	0.037
1087	0.037
1087	0.036
1088	0.036
1088	0.036
1088	0.035
1089	0.035
1089	0.035
1090	0.034
1090	0.034
1090	0.034
1091	0.034
1091	0.033
1092	0.034
1092	0.035
1092	0.034
1093	0.034
1093	0.034
1094	0.034
1094	0.034
1095	0.034
1095	0.034
1095	0.033
1096	0.033
1096	0.032
1097	0.031
1097	0.031
1097	0.031
1098	0.03
1098	0.029
1099	0.029
1099	0.028
1100	0.027
1100	0.026
1100	0.025
1101	0.024
1101	0.023
1102	0.023
1102	0.022
1102	0.021
1103	0.021
1103	0.02
1104	0.019
1104	0.019
1104	0.019
1105	0.019
1105	0.018
1106	0.016
1106	0.015
1107	0.014
1107	0.013
1107	0.013
1108	0.012
1108	0.012
1109	0.011
1109	0.01
1109	0.009
1110	0.01
1110	0.011
1111	0.012
1111	0.008
