Data from reversibility-20sec_Absorbance__7947__000000000007947.txt Node

Date: Thu Dec 07 08:22:06 CET 2023
User: Marek
Spectrometer: MAYP115816
Trigger mode: 0
Integration Time (sec): 2.000000E-1
Scans to average: 10
Electric dark correction enabled: true
Nonlinearity correction enabled: true
Boxcar width: 5
XAxis mode: Wavelengths
Number of Pixels in Spectrum: 2068
>>>>>Begin Spectral Data<<<<<
199	-0.175
199	-0.137
200	-0.063
200	-0.009
201	0.018
201	0.035
202	0.045
202	0.057
203	0.066
203	0.068
204	0.088
204	0.102
205	0.112
205	0.115
205	0.115
206	0.115
206	0.117
207	0.119
207	0.117
208	0.118
208	0.121
209	0.121
209	0.121
210	0.125
210	0.125
211	0.126
211	0.127
212	0.122
212	0.124
213	0.127
213	0.126
213	0.125
214	0.125
214	0.127
215	0.127
215	0.129
216	0.129
216	0.129
217	0.136
217	0.137
218	0.137
218	0.141
219	0.147
219	0.147
220	0.151
220	0.151
221	0.15
221	0.154
221	0.162
222	0.165
222	0.17
223	0.177
223	0.18
224	0.184
224	0.194
225	0.201
225	0.212
226	0.224
226	0.236
227	0.243
227	0.257
228	0.273
228	0.29
229	0.306
229	0.331
229	0.352
230	0.375
230	0.408
231	0.436
231	0.474
232	0.514
232	0.556
233	0.596
233	0.642
234	0.693
234	0.745
235	0.799
235	0.856
236	0.906
236	0.961
236	1.013
237	1.065
237	1.113
238	1.162
238	1.205
239	1.251
239	1.29
240	1.33
240	1.362
241	1.397
241	1.428
242	1.459
242	1.49
243	1.517
243	1.543
243	1.57
244	1.591
244	1.614
245	1.63
245	1.653
246	1.671
246	1.688
247	1.701
247	1.711
248	1.727
248	1.739
249	1.749
249	1.758
250	1.766
250	1.776
250	1.78
251	1.785
251	1.789
252	1.793
252	1.796
253	1.796
253	1.795
254	1.795
254	1.797
255	1.795
255	1.797
256	1.796
256	1.797
257	1.798
257	1.798
258	1.798
258	1.798
258	1.799
259	1.798
259	1.797
260	1.796
260	1.797
261	1.796
261	1.796
262	1.798
262	1.798
263	1.8
263	1.801
264	1.8
264	1.801
265	1.801
265	1.801
265	1.798
266	1.799
266	1.798
267	1.794
267	1.794
268	1.792
268	1.791
269	1.793
269	1.791
270	1.792
270	1.792
271	1.791
271	1.791
272	1.789
272	1.789
272	1.787
273	1.783
273	1.779
274	1.775
274	1.77
275	1.763
275	1.757
276	1.752
276	1.744
277	1.737
277	1.728
278	1.717
278	1.707
278	1.694
279	1.679
279	1.665
280	1.646
280	1.621
281	1.593
281	1.56
282	1.526
282	1.489
283	1.453
283	1.416
284	1.38
284	1.343
285	1.309
285	1.276
285	1.247
286	1.22
286	1.197
287	1.176
287	1.158
288	1.142
288	1.129
289	1.116
289	1.106
290	1.097
290	1.089
291	1.082
291	1.076
292	1.07
292	1.065
292	1.06
293	1.055
293	1.051
294	1.047
294	1.043
295	1.039
295	1.035
296	1.031
296	1.027
297	1.024
297	1.02
298	1.016
298	1.013
298	1.009
299	1.006
299	1.003
300	0.999
300	0.996
301	0.993
301	0.99
302	0.986
302	0.984
303	0.981
303	0.977
304	0.974
304	0.972
305	0.969
305	0.966
305	0.963
306	0.961
306	0.958
307	0.956
307	0.953
308	0.95
308	0.947
309	0.944
309	0.941
310	0.937
310	0.934
311	0.931
311	0.927
311	0.923
312	0.919
312	0.916
313	0.912
313	0.908
314	0.904
314	0.899
315	0.895
315	0.89
316	0.886
316	0.881
317	0.876
317	0.871
318	0.866
318	0.861
318	0.855
319	0.849
319	0.844
320	0.838
320	0.832
321	0.826
321	0.82
322	0.813
322	0.807
323	0.8
323	0.794
324	0.787
324	0.78
324	0.773
325	0.766
325	0.76
326	0.753
326	0.745
327	0.738
327	0.731
328	0.724
328	0.717
329	0.709
329	0.702
330	0.695
330	0.688
330	0.681
331	0.674
331	0.667
332	0.66
332	0.653
333	0.646
333	0.639
334	0.632
334	0.625
335	0.618
335	0.611
336	0.604
336	0.597
336	0.59
337	0.584
337	0.578
338	0.571
338	0.565
339	0.559
339	0.552
340	0.546
340	0.54
341	0.535
341	0.529
342	0.524
342	0.518
342	0.512
343	0.507
343	0.502
344	0.497
344	0.492
345	0.487
345	0.482
346	0.477
346	0.473
347	0.468
347	0.464
348	0.459
348	0.455
348	0.451
349	0.447
349	0.444
350	0.44
350	0.436
351	0.433
351	0.429
352	0.426
352	0.423
353	0.42
353	0.417
354	0.414
354	0.411
354	0.408
355	0.405
355	0.401
356	0.399
356	0.395
357	0.393
357	0.39
358	0.387
358	0.384
359	0.382
359	0.379
360	0.377
360	0.375
360	0.373
361	0.371
361	0.369
362	0.367
362	0.365
363	0.363
363	0.361
364	0.359
364	0.357
365	0.355
365	0.353
366	0.352
366	0.35
366	0.348
367	0.346
367	0.344
368	0.342
368	0.341
369	0.339
369	0.338
370	0.336
370	0.334
371	0.333
371	0.332
372	0.33
372	0.329
372	0.328
373	0.327
373	0.326
374	0.325
374	0.323
375	0.322
375	0.321
376	0.32
376	0.319
377	0.318
377	0.317
378	0.316
378	0.315
378	0.314
379	0.313
379	0.312
380	0.311
380	0.31
381	0.31
381	0.309
382	0.308
382	0.308
383	0.307
383	0.306
383	0.305
384	0.304
384	0.304
385	0.303
385	0.302
386	0.302
386	0.301
387	0.301
387	0.3
388	0.3
388	0.299
389	0.299
389	0.299
389	0.298
390	0.298
390	0.297
391	0.296
391	0.296
392	0.296
392	0.295
393	0.295
393	0.294
394	0.294
394	0.293
394	0.293
395	0.292
395	0.292
396	0.291
396	0.291
397	0.29
397	0.29
398	0.29
398	0.289
399	0.289
399	0.288
400	0.288
400	0.288
400	0.287
401	0.287
401	0.287
402	0.286
402	0.286
403	0.285
403	0.285
404	0.284
404	0.284
405	0.284
405	0.283
405	0.283
406	0.283
406	0.282
407	0.282
407	0.281
408	0.281
408	0.281
409	0.281
409	0.28
410	0.28
410	0.28
411	0.279
411	0.279
411	0.279
412	0.278
412	0.278
413	0.278
413	0.277
414	0.277
414	0.276
415	0.276
415	0.275
416	0.275
416	0.275
416	0.274
417	0.274
417	0.274
418	0.273
418	0.273
419	0.273
419	0.272
420	0.272
420	0.271
421	0.271
421	0.27
421	0.27
422	0.27
422	0.269
423	0.269
423	0.269
424	0.268
424	0.268
425	0.268
425	0.268
426	0.267
426	0.267
427	0.267
427	0.266
427	0.266
428	0.266
428	0.265
429	0.265
429	0.265
430	0.264
430	0.264
431	0.264
431	0.264
432	0.263
432	0.263
432	0.263
433	0.263
433	0.263
434	0.262
434	0.263
435	0.262
435	0.262
436	0.262
436	0.262
437	0.262
437	0.262
437	0.262
438	0.262
438	0.261
439	0.261
439	0.261
440	0.26
440	0.26
441	0.26
441	0.259
442	0.259
442	0.259
442	0.259
443	0.259
443	0.258
444	0.258
444	0.258
445	0.258
445	0.258
446	0.258
446	0.258
447	0.258
447	0.258
447	0.258
448	0.258
448	0.258
449	0.257
449	0.257
450	0.257
450	0.257
451	0.257
451	0.257
452	0.257
452	0.257
452	0.257
453	0.257
453	0.257
454	0.257
454	0.257
455	0.256
455	0.256
456	0.256
456	0.256
457	0.256
457	0.256
458	0.256
458	0.255
458	0.255
459	0.256
459	0.256
460	0.256
460	0.256
461	0.256
461	0.256
462	0.256
462	0.256
463	0.256
463	0.256
463	0.256
464	0.256
464	0.256
465	0.256
465	0.256
466	0.256
466	0.256
467	0.256
467	0.256
467	0.256
468	0.257
468	0.257
469	0.257
469	0.258
470	0.258
470	0.259
471	0.259
471	0.259
472	0.259
472	0.26
472	0.26
473	0.26
473	0.26
474	0.26
474	0.26
475	0.261
475	0.261
476	0.261
476	0.262
477	0.262
477	0.262
477	0.263
478	0.263
478	0.263
479	0.264
479	0.264
480	0.265
480	0.266
481	0.266
481	0.267
482	0.267
482	0.268
482	0.268
483	0.269
483	0.269
484	0.27
484	0.27
485	0.271
485	0.271
486	0.271
486	0.271
487	0.272
487	0.272
487	0.273
488	0.274
488	0.274
489	0.275
489	0.277
490	0.278
490	0.279
491	0.281
491	0.282
492	0.283
492	0.284
492	0.285
493	0.286
493	0.287
494	0.288
494	0.289
495	0.29
495	0.291
496	0.291
496	0.293
496	0.294
497	0.294
497	0.295
498	0.297
498	0.298
499	0.299
499	0.3
500	0.301
500	0.303
501	0.304
501	0.304
501	0.305
502	0.306
502	0.307
503	0.308
503	0.309
504	0.31
504	0.311
505	0.313
505	0.314
506	0.315
506	0.316
506	0.317
507	0.318
507	0.319
508	0.32
508	0.321
509	0.322
509	0.322
510	0.323
510	0.324
511	0.325
511	0.326
511	0.327
512	0.328
512	0.329
513	0.329
513	0.33
514	0.33
514	0.331
515	0.331
515	0.332
515	0.332
516	0.333
516	0.334
517	0.334
517	0.335
518	0.335
518	0.336
519	0.336
519	0.336
520	0.336
520	0.336
520	0.337
521	0.337
521	0.337
522	0.337
522	0.336
523	0.336
523	0.336
524	0.336
524	0.336
524	0.337
525	0.336
525	0.336
526	0.335
526	0.335
527	0.334
527	0.334
528	0.333
528	0.332
529	0.332
529	0.331
529	0.33
530	0.329
530	0.328
531	0.327
531	0.326
532	0.325
532	0.324
533	0.323
533	0.322
533	0.321
534	0.32
534	0.319
535	0.318
535	0.317
536	0.315
536	0.314
537	0.312
537	0.311
538	0.309
538	0.308
538	0.307
539	0.305
539	0.304
540	0.303
540	0.301
541	0.3
541	0.298
542	0.296
542	0.295
542	0.293
543	0.291
543	0.289
544	0.288
544	0.286
545	0.284
545	0.282
546	0.28
546	0.279
547	0.276
547	0.275
547	0.273
548	0.272
548	0.27
549	0.268
549	0.267
550	0.265
550	0.263
551	0.262
551	0.26
551	0.258
552	0.257
552	0.255
553	0.253
553	0.252
554	0.25
554	0.248
555	0.246
555	0.245
556	0.243
556	0.242
556	0.24
557	0.239
557	0.238
558	0.237
558	0.235
559	0.234
559	0.232
560	0.231
560	0.229
560	0.228
561	0.226
561	0.225
562	0.223
562	0.221
563	0.219
563	0.217
564	0.215
564	0.214
564	0.212
565	0.211
565	0.21
566	0.208
566	0.207
567	0.206
567	0.205
568	0.203
568	0.202
568	0.201
569	0.199
569	0.198
570	0.196
570	0.194
571	0.193
571	0.191
572	0.19
572	0.188
573	0.187
573	0.186
573	0.185
574	0.184
574	0.183
575	0.182
575	0.181
576	0.18
576	0.179
577	0.178
577	0.176
577	0.176
578	0.175
578	0.174
579	0.173
579	0.173
580	0.171
580	0.17
581	0.169
581	0.168
581	0.167
582	0.167
582	0.166
583	0.165
583	0.164
584	0.162
584	0.161
585	0.16
585	0.159
585	0.158
586	0.158
586	0.157
587	0.156
587	0.155
588	0.154
588	0.154
589	0.153
589	0.153
590	0.152
590	0.151
590	0.151
591	0.151
591	0.149
592	0.148
592	0.147
593	0.147
593	0.146
594	0.145
594	0.144
594	0.143
595	0.142
595	0.141
596	0.14
596	0.14
597	0.14
597	0.14
598	0.139
598	0.139
598	0.138
599	0.138
599	0.137
600	0.137
600	0.136
601	0.135
601	0.135
602	0.134
602	0.133
602	0.133
603	0.132
603	0.132
604	0.132
604	0.132
605	0.131
605	0.131
606	0.13
606	0.129
606	0.129
607	0.128
607	0.128
608	0.127
608	0.126
609	0.125
609	0.125
610	0.124
610	0.124
610	0.123
611	0.123
611	0.123
612	0.123
612	0.123
613	0.123
613	0.122
614	0.122
614	0.121
614	0.121
615	0.121
615	0.121
616	0.121
616	0.12
617	0.12
617	0.12
618	0.119
618	0.119
618	0.119
619	0.119
619	0.119
620	0.119
620	0.118
621	0.118
621	0.117
622	0.116
622	0.116
622	0.115
623	0.114
623	0.114
624	0.114
624	0.113
625	0.112
625	0.112
626	0.112
626	0.112
626	0.112
627	0.112
627	0.112
628	0.112
628	0.112
629	0.112
629	0.111
630	0.111
630	0.11
630	0.11
631	0.109
631	0.109
632	0.108
632	0.108
633	0.108
633	0.107
634	0.108
634	0.108
634	0.108
635	0.107
635	0.107
636	0.107
636	0.107
637	0.107
637	0.106
638	0.106
638	0.106
638	0.105
639	0.105
639	0.104
640	0.104
640	0.103
641	0.103
641	0.103
642	0.102
642	0.102
642	0.102
643	0.102
643	0.102
644	0.102
644	0.102
645	0.102
645	0.102
646	0.102
646	0.102
646	0.102
647	0.102
647	0.102
648	0.101
648	0.1
649	0.1
649	0.1
650	0.099
650	0.099
650	0.099
651	0.098
651	0.098
652	0.098
652	0.098
653	0.099
653	0.101
653	0.106
654	0.085
654	0.069
655	0.067
655	0.067
656	0.067
656	0.068
657	0.068
657	0.068
657	0.068
658	0.067
658	0.06
659	0.075
659	0.094
660	0.099
660	0.099
661	0.098
661	0.098
661	0.097
662	0.096
662	0.096
663	0.095
663	0.095
664	0.094
664	0.094
665	0.094
665	0.093
665	0.094
666	0.094
666	0.094
667	0.094
667	0.094
668	0.094
668	0.095
669	0.095
669	0.095
669	0.096
670	0.096
670	0.096
671	0.096
671	0.095
672	0.095
672	0.095
672	0.094
673	0.094
673	0.094
674	0.093
674	0.093
675	0.092
675	0.092
676	0.092
676	0.092
676	0.092
677	0.092
677	0.092
678	0.092
678	0.092
679	0.091
679	0.091
680	0.092
680	0.092
680	0.091
681	0.092
681	0.092
682	0.093
682	0.093
683	0.093
683	0.093
684	0.093
684	0.093
684	0.092
685	0.092
685	0.092
686	0.092
686	0.091
687	0.091
687	0.091
687	0.091
688	0.091
688	0.091
689	0.092
689	0.092
690	0.092
690	0.091
691	0.091
691	0.091
691	0.091
692	0.091
692	0.091
693	0.091
693	0.092
694	0.091
694	0.091
695	0.092
695	0.092
695	0.093
696	0.092
696	0.092
697	0.092
697	0.092
698	0.092
698	0.091
698	0.091
699	0.092
699	0.091
700	0.091
700	0.09
701	0.09
701	0.09
702	0.089
702	0.088
702	0.088
703	0.088
703	0.087
704	0.086
704	0.086
705	0.086
705	0.086
705	0.086
706	0.086
706	0.086
707	0.086
707	0.086
708	0.086
708	0.087
709	0.087
709	0.087
709	0.086
710	0.086
710	0.087
711	0.087
711	0.088
712	0.088
712	0.088
713	0.087
713	0.087
713	0.087
714	0.087
714	0.087
715	0.086
715	0.085
716	0.085
716	0.084
716	0.084
717	0.083
717	0.083
718	0.083
718	0.083
719	0.084
719	0.084
720	0.085
720	0.085
720	0.086
721	0.086
721	0.087
722	0.087
722	0.088
723	0.088
723	0.088
723	0.088
724	0.087
724	0.087
725	0.086
725	0.085
726	0.084
726	0.084
727	0.083
727	0.083
727	0.083
728	0.082
728	0.082
729	0.082
729	0.082
730	0.082
730	0.083
730	0.083
731	0.083
731	0.083
732	0.084
732	0.084
733	0.083
733	0.084
734	0.084
734	0.084
734	0.084
735	0.084
735	0.084
736	0.084
736	0.084
737	0.083
737	0.083
737	0.083
738	0.082
738	0.082
739	0.081
739	0.081
740	0.081
740	0.081
741	0.082
741	0.082
741	0.082
742	0.082
742	0.083
743	0.084
743	0.084
744	0.085
744	0.085
744	0.084
745	0.084
745	0.084
746	0.084
746	0.083
747	0.083
747	0.083
748	0.082
748	0.082
748	0.082
749	0.082
749	0.083
750	0.083
750	0.083
751	0.084
751	0.084
751	0.084
752	0.084
752	0.083
753	0.083
753	0.082
754	0.082
754	0.081
754	0.081
755	0.08
755	0.08
756	0.079
756	0.077
757	0.077
757	0.077
758	0.076
758	0.076
758	0.076
759	0.076
759	0.076
760	0.076
760	0.075
761	0.076
761	0.076
761	0.077
762	0.077
762	0.077
763	0.078
763	0.077
764	0.077
764	0.077
764	0.077
765	0.077
765	0.076
766	0.076
766	0.076
767	0.075
767	0.074
768	0.073
768	0.073
768	0.073
769	0.073
769	0.073
770	0.073
770	0.074
771	0.074
771	0.074
771	0.074
772	0.075
772	0.075
773	0.076
773	0.076
774	0.077
774	0.077
775	0.077
775	0.078
775	0.078
776	0.078
776	0.079
777	0.08
777	0.08
778	0.08
778	0.079
778	0.079
779	0.078
779	0.077
780	0.076
780	0.075
781	0.074
781	0.072
781	0.072
782	0.071
782	0.07
783	0.07
783	0.07
784	0.07
784	0.07
784	0.071
785	0.071
785	0.071
786	0.071
786	0.071
787	0.072
787	0.071
788	0.071
788	0.071
788	0.071
789	0.071
789	0.071
790	0.071
790	0.071
791	0.07
791	0.07
791	0.07
792	0.07
792	0.069
793	0.069
793	0.068
794	0.067
794	0.067
794	0.066
795	0.066
795	0.066
796	0.066
796	0.066
797	0.066
797	0.066
797	0.066
798	0.067
798	0.067
799	0.066
799	0.066
800	0.066
800	0.066
801	0.066
801	0.067
801	0.067
802	0.068
802	0.068
803	0.069
803	0.069
804	0.07
804	0.071
804	0.071
805	0.071
805	0.071
806	0.07
806	0.07
807	0.069
807	0.069
807	0.069
808	0.069
808	0.068
809	0.068
809	0.068
810	0.068
810	0.068
810	0.068
811	0.068
811	0.068
812	0.068
812	0.068
813	0.068
813	0.069
813	0.069
814	0.069
814	0.069
815	0.07
815	0.07
816	0.07
816	0.069
817	0.068
817	0.068
817	0.068
818	0.067
818	0.067
819	0.067
819	0.066
820	0.065
820	0.065
820	0.064
821	0.064
821	0.064
822	0.064
822	0.064
823	0.064
823	0.063
823	0.064
824	0.065
824	0.066
825	0.067
825	0.068
826	0.068
826	0.069
826	0.069
827	0.07
827	0.07
828	0.071
828	0.071
829	0.071
829	0.071
829	0.071
830	0.072
830	0.072
831	0.073
831	0.073
832	0.072
832	0.072
832	0.072
833	0.071
833	0.071
834	0.07
834	0.069
835	0.068
835	0.067
835	0.066
836	0.066
836	0.065
837	0.065
837	0.064
838	0.064
838	0.063
839	0.062
839	0.062
839	0.061
840	0.06
840	0.059
841	0.059
841	0.058
842	0.057
842	0.056
842	0.056
843	0.055
843	0.055
844	0.054
844	0.054
845	0.054
845	0.053
845	0.054
846	0.054
846	0.054
847	0.054
847	0.055
848	0.055
848	0.055
848	0.056
849	0.056
849	0.056
850	0.055
850	0.055
851	0.055
851	0.054
851	0.054
852	0.053
852	0.053
853	0.053
853	0.053
854	0.054
854	0.055
854	0.056
855	0.057
855	0.058
856	0.059
856	0.06
857	0.061
857	0.063
857	0.063
858	0.063
858	0.063
859	0.063
859	0.063
860	0.062
860	0.062
860	0.061
861	0.061
861	0.06
862	0.059
862	0.059
863	0.059
863	0.059
863	0.059
864	0.059
864	0.059
865	0.059
865	0.06
866	0.06
866	0.059
866	0.06
867	0.06
867	0.06
868	0.06
868	0.06
869	0.06
869	0.06
869	0.06
870	0.059
870	0.059
871	0.059
871	0.059
872	0.059
872	0.058
872	0.058
873	0.057
873	0.057
874	0.056
874	0.056
875	0.056
875	0.056
875	0.055
876	0.055
876	0.055
877	0.055
877	0.055
878	0.056
878	0.056
878	0.056
879	0.057
879	0.057
880	0.057
880	0.057
881	0.058
881	0.058
881	0.058
882	0.057
882	0.057
883	0.057
883	0.057
884	0.057
884	0.057
884	0.056
885	0.056
885	0.056
886	0.055
886	0.055
887	0.055
887	0.055
887	0.055
888	0.055
888	0.055
889	0.056
889	0.057
890	0.057
890	0.058
890	0.058
891	0.059
891	0.059
892	0.059
892	0.059
893	0.058
893	0.058
893	0.058
894	0.057
894	0.056
895	0.056
895	0.055
895	0.055
896	0.055
896	0.056
897	0.056
897	0.055
898	0.055
898	0.055
898	0.055
899	0.055
899	0.055
900	0.054
900	0.054
901	0.054
901	0.053
901	0.053
902	0.053
902	0.053
903	0.053
903	0.053
904	0.053
904	0.053
904	0.053
905	0.052
905	0.052
906	0.053
906	0.053
907	0.053
907	0.053
907	0.053
908	0.053
908	0.053
909	0.052
909	0.052
910	0.052
910	0.051
910	0.051
911	0.05
911	0.05
912	0.049
912	0.049
913	0.048
913	0.048
913	0.048
914	0.047
914	0.047
915	0.047
915	0.047
916	0.047
916	0.047
916	0.046
917	0.046
917	0.046
918	0.045
918	0.045
918	0.044
919	0.044
919	0.043
920	0.043
920	0.043
921	0.043
921	0.043
921	0.043
922	0.043
922	0.044
923	0.044
923	0.045
924	0.045
924	0.046
924	0.047
925	0.047
925	0.048
926	0.048
926	0.049
927	0.049
927	0.05
927	0.05
928	0.05
928	0.051
929	0.051
929	0.051
930	0.051
930	0.051
930	0.052
931	0.051
931	0.051
932	0.051
932	0.051
933	0.051
933	0.05
933	0.05
934	0.049
934	0.048
935	0.048
935	0.047
935	0.046
936	0.046
936	0.045
937	0.044
937	0.044
938	0.043
938	0.042
938	0.041
939	0.041
939	0.04
940	0.04
940	0.04
941	0.04
941	0.041
941	0.041
942	0.042
942	0.042
943	0.043
943	0.044
944	0.044
944	0.045
944	0.046
945	0.046
945	0.047
946	0.047
946	0.047
946	0.047
947	0.048
947	0.047
948	0.047
948	0.047
949	0.047
949	0.046
949	0.046
950	0.045
950	0.045
951	0.044
951	0.044
952	0.043
952	0.043
952	0.042
953	0.042
953	0.042
954	0.042
954	0.042
955	0.042
955	0.042
955	0.043
956	0.043
956	0.044
957	0.045
957	0.046
957	0.047
958	0.048
958	0.048
959	0.049
959	0.05
960	0.05
960	0.05
960	0.051
961	0.05
961	0.05
962	0.05
962	0.05
963	0.049
963	0.048
963	0.048
964	0.047
964	0.047
965	0.047
965	0.046
966	0.046
966	0.046
966	0.047
967	0.047
967	0.047
968	0.048
968	0.048
968	0.048
969	0.048
969	0.048
970	0.048
970	0.047
971	0.046
971	0.045
971	0.045
972	0.044
972	0.043
973	0.043
973	0.042
974	0.042
974	0.042
974	0.043
975	0.043
975	0.044
976	0.044
976	0.045
976	0.045
977	0.045
977	0.045
978	0.045
978	0.046
979	0.046
979	0.046
979	0.046
980	0.046
980	0.046
981	0.046
981	0.046
982	0.046
982	0.045
982	0.045
983	0.045
983	0.045
984	0.045
984	0.044
984	0.044
985	0.044
985	0.043
986	0.043
986	0.043
987	0.042
987	0.042
987	0.042
988	0.041
988	0.041
989	0.041
989	0.041
990	0.04
990	0.04
990	0.04
991	0.039
991	0.039
992	0.038
992	0.038
992	0.037
993	0.036
993	0.035
994	0.034
994	0.033
995	0.033
995	0.032
995	0.032
996	0.032
996	0.032
997	0.032
997	0.033
997	0.033
998	0.033
998	0.034
999	0.034
999	0.035
1000	0.035
1000	0.036
1000	0.036
1001	0.036
1001	0.037
1002	0.037
1002	0.037
1003	0.038
1003	0.038
1003	0.038
1004	0.038
1004	0.037
1005	0.037
1005	0.037
1005	0.037
1006	0.036
1006	0.036
1007	0.036
1007	0.035
1008	0.035
1008	0.035
1008	0.035
1009	0.035
1009	0.035
1010	0.034
1010	0.034
1010	0.034
1011	0.034
1011	0.033
1012	0.033
1012	0.033
1013	0.032
1013	0.032
1013	0.032
1014	0.032
1014	0.032
1015	0.032
1015	0.032
1016	0.032
1016	0.033
1016	0.033
1017	0.033
1017	0.033
1018	0.033
1018	0.033
1018	0.033
1019	0.033
1019	0.033
1020	0.033
1020	0.034
1021	0.034
1021	0.035
1021	0.035
1022	0.036
1022	0.036
1023	0.036
1023	0.036
1023	0.037
1024	0.037
1024	0.037
1025	0.037
1025	0.037
1026	0.037
1026	0.037
1026	0.037
1027	0.037
1027	0.037
1028	0.037
1028	0.037
1028	0.037
1029	0.037
1029	0.037
1030	0.037
1030	0.037
1031	0.037
1031	0.037
1031	0.037
1032	0.037
1032	0.038
1033	0.038
1033	0.038
1033	0.038
1034	0.038
1034	0.037
1035	0.037
1035	0.037
1036	0.037
1036	0.037
1036	0.038
1037	0.038
1037	0.037
1038	0.037
1038	0.037
1039	0.037
1039	0.037
1039	0.037
1040	0.037
1040	0.037
1041	0.038
1041	0.037
1041	0.037
1042	0.037
1042	0.037
1043	0.037
1043	0.037
1044	0.036
1044	0.036
1044	0.036
1045	0.036
1045	0.035
1046	0.035
1046	0.035
1046	0.035
1047	0.035
1047	0.035
1048	0.035
1048	0.035
1049	0.035
1049	0.035
1049	0.035
1050	0.035
1050	0.034
1051	0.034
1051	0.033
1051	0.033
1052	0.032
1052	0.031
1053	0.03
1053	0.03
1053	0.029
1054	0.028
1054	0.028
1055	0.028
1055	0.027
1056	0.027
1056	0.027
1056	0.026
1057	0.026
1057	0.026
1058	0.025
1058	0.025
1058	0.024
1059	0.024
1059	0.024
1060	0.024
1060	0.023
1061	0.023
1061	0.023
1061	0.023
1062	0.023
1062	0.024
1063	0.024
1063	0.024
1063	0.024
1064	0.024
1064	0.024
1065	0.024
1065	0.025
1066	0.025
1066	0.025
1066	0.025
1067	0.025
1067	0.025
1068	0.026
1068	0.026
1068	0.026
1069	0.026
1069	0.026
1070	0.026
1070	0.026
1071	0.025
1071	0.025
1071	0.025
1072	0.025
1072	0.024
1073	0.024
1073	0.024
1073	0.023
1074	0.023
1074	0.024
1075	0.024
1075	0.024
1076	0.025
1076	0.025
1076	0.025
1077	0.026
1077	0.026
1078	0.026
1078	0.027
1078	0.027
1079	0.027
1079	0.027
1080	0.027
1080	0.026
1080	0.026
1081	0.026
1081	0.027
1082	0.027
1082	0.027
1083	0.027
1083	0.027
1083	0.028
1084	0.028
1084	0.028
1085	0.029
1085	0.029
1085	0.029
1086	0.029
1086	0.028
1087	0.029
1087	0.028
1088	0.028
1088	0.028
1088	0.027
1089	0.026
1089	0.026
1090	0.025
1090	0.025
1090	0.023
1091	0.023
1091	0.022
1092	0.022
1092	0.022
1092	0.022
1093	0.022
1093	0.022
1094	0.023
1094	0.023
1095	0.022
1095	0.022
1095	0.022
1096	0.022
1096	0.021
1097	0.02
1097	0.02
1097	0.02
1098	0.019
1098	0.018
1099	0.017
1099	0.017
1100	0.016
1100	0.015
1100	0.015
1101	0.014
1101	0.013
1102	0.013
1102	0.012
1102	0.012
1103	0.011
1103	0.011
1104	0.01
1104	0.011
1104	0.01
1105	0.009
1105	0.008
1106	0.007
1106	0.007
1107	0.006
1107	0.005
1107	0.004
1108	0.004
1108	0.003
1109	0
1109	-0.001
1109	0.001
1110	0.002
1110	0.002
1111	-0.001
1111	-0.001
