Data from reversibility-20sec_Absorbance__6629__000000000006629.txt Node

Date: Thu Dec 07 01:02:46 CET 2023
User: Marek
Spectrometer: MAYP115816
Trigger mode: 0
Integration Time (sec): 2.000000E-1
Scans to average: 10
Electric dark correction enabled: true
Nonlinearity correction enabled: true
Boxcar width: 5
XAxis mode: Wavelengths
Number of Pixels in Spectrum: 2068
>>>>>Begin Spectral Data<<<<<
199	-0.135
199	-0.11
200	-0.041
200	0.008
201	0.039
201	0.059
202	0.07
202	0.078
203	0.085
203	0.09
204	0.105
204	0.117
205	0.13
205	0.137
205	0.138
206	0.139
206	0.139
207	0.142
207	0.143
208	0.144
208	0.143
209	0.145
209	0.146
210	0.144
210	0.143
211	0.144
211	0.147
212	0.144
212	0.143
213	0.146
213	0.146
213	0.146
214	0.148
214	0.148
215	0.151
215	0.149
216	0.149
216	0.147
217	0.153
217	0.155
218	0.153
218	0.154
219	0.16
219	0.159
220	0.164
220	0.164
221	0.168
221	0.169
221	0.175
222	0.178
222	0.184
223	0.193
223	0.197
224	0.203
224	0.211
225	0.219
225	0.231
226	0.242
226	0.252
227	0.258
227	0.268
228	0.28
228	0.294
229	0.31
229	0.334
229	0.354
230	0.378
230	0.406
231	0.435
231	0.472
232	0.512
232	0.555
233	0.602
233	0.65
234	0.702
234	0.754
235	0.807
235	0.859
236	0.911
236	0.964
236	1.018
237	1.072
237	1.12
238	1.165
238	1.214
239	1.26
239	1.298
240	1.337
240	1.374
241	1.407
241	1.441
242	1.472
242	1.504
243	1.533
243	1.558
243	1.579
244	1.598
244	1.623
245	1.643
245	1.663
246	1.681
246	1.695
247	1.703
247	1.713
248	1.725
248	1.74
249	1.751
249	1.758
250	1.759
250	1.766
250	1.771
251	1.777
251	1.779
252	1.786
252	1.786
253	1.787
253	1.782
254	1.78
254	1.781
255	1.781
255	1.78
256	1.777
256	1.777
257	1.776
257	1.774
258	1.775
258	1.775
258	1.777
259	1.777
259	1.778
260	1.778
260	1.778
261	1.78
261	1.783
262	1.787
262	1.788
263	1.79
263	1.791
264	1.792
264	1.794
265	1.794
265	1.796
265	1.797
266	1.796
266	1.794
267	1.793
267	1.795
268	1.795
268	1.795
269	1.796
269	1.794
270	1.793
270	1.793
271	1.791
271	1.789
272	1.787
272	1.785
272	1.78
273	1.773
273	1.767
274	1.76
274	1.754
275	1.747
275	1.738
276	1.73
276	1.723
277	1.715
277	1.704
278	1.692
278	1.679
278	1.665
279	1.647
279	1.625
280	1.597
280	1.563
281	1.524
281	1.481
282	1.435
282	1.39
283	1.346
283	1.303
284	1.261
284	1.221
285	1.184
285	1.15
285	1.121
286	1.095
286	1.072
287	1.053
287	1.036
288	1.022
288	1.01
289	1
289	0.991
290	0.984
290	0.977
291	0.972
291	0.967
292	0.962
292	0.958
292	0.955
293	0.951
293	0.948
294	0.944
294	0.941
295	0.938
295	0.935
296	0.932
296	0.929
297	0.926
297	0.923
298	0.92
298	0.918
298	0.915
299	0.913
299	0.91
300	0.908
300	0.905
301	0.903
301	0.901
302	0.898
302	0.896
303	0.894
303	0.891
304	0.889
304	0.887
305	0.885
305	0.882
305	0.88
306	0.878
306	0.876
307	0.874
307	0.871
308	0.869
308	0.866
309	0.863
309	0.861
310	0.858
310	0.855
311	0.852
311	0.849
311	0.846
312	0.842
312	0.839
313	0.836
313	0.832
314	0.828
314	0.825
315	0.821
315	0.817
316	0.812
316	0.808
317	0.803
317	0.799
318	0.794
318	0.789
318	0.784
319	0.778
319	0.773
320	0.767
320	0.761
321	0.756
321	0.749
322	0.743
322	0.737
323	0.73
323	0.724
324	0.718
324	0.711
324	0.704
325	0.697
325	0.69
326	0.684
326	0.677
327	0.67
327	0.663
328	0.656
328	0.649
329	0.642
329	0.635
330	0.627
330	0.621
330	0.614
331	0.607
331	0.6
332	0.593
332	0.586
333	0.579
333	0.572
334	0.565
334	0.558
335	0.551
335	0.544
336	0.538
336	0.531
336	0.525
337	0.518
337	0.512
338	0.506
338	0.499
339	0.493
339	0.487
340	0.481
340	0.476
341	0.47
341	0.465
342	0.459
342	0.454
342	0.448
343	0.443
343	0.438
344	0.433
344	0.428
345	0.424
345	0.419
346	0.414
346	0.41
347	0.406
347	0.401
348	0.397
348	0.393
348	0.389
349	0.386
349	0.382
350	0.378
350	0.375
351	0.371
351	0.368
352	0.365
352	0.362
353	0.359
353	0.356
354	0.353
354	0.351
354	0.348
355	0.345
355	0.342
356	0.339
356	0.337
357	0.334
357	0.332
358	0.329
358	0.326
359	0.324
359	0.322
360	0.32
360	0.318
360	0.316
361	0.314
361	0.312
362	0.31
362	0.309
363	0.307
363	0.305
364	0.304
364	0.302
365	0.3
365	0.298
366	0.297
366	0.295
366	0.294
367	0.292
367	0.29
368	0.289
368	0.287
369	0.286
369	0.285
370	0.283
370	0.282
371	0.281
371	0.28
372	0.278
372	0.277
372	0.276
373	0.275
373	0.274
374	0.274
374	0.273
375	0.272
375	0.271
376	0.27
376	0.269
377	0.268
377	0.267
378	0.266
378	0.265
378	0.265
379	0.264
379	0.263
380	0.263
380	0.262
381	0.261
381	0.261
382	0.26
382	0.26
383	0.259
383	0.259
383	0.258
384	0.258
384	0.257
385	0.257
385	0.257
386	0.257
386	0.256
387	0.256
387	0.255
388	0.255
388	0.255
389	0.254
389	0.254
389	0.254
390	0.253
390	0.253
391	0.253
391	0.253
392	0.252
392	0.252
393	0.252
393	0.252
394	0.251
394	0.251
394	0.251
395	0.25
395	0.25
396	0.249
396	0.249
397	0.249
397	0.248
398	0.248
398	0.248
399	0.248
399	0.247
400	0.247
400	0.247
400	0.247
401	0.247
401	0.246
402	0.246
402	0.246
403	0.246
403	0.246
404	0.245
404	0.245
405	0.245
405	0.245
405	0.245
406	0.244
406	0.244
407	0.244
407	0.243
408	0.243
408	0.243
409	0.242
409	0.242
410	0.242
410	0.242
411	0.241
411	0.241
411	0.241
412	0.241
412	0.24
413	0.24
413	0.24
414	0.24
414	0.239
415	0.239
415	0.239
416	0.238
416	0.238
416	0.238
417	0.237
417	0.237
418	0.237
418	0.236
419	0.236
419	0.236
420	0.235
420	0.235
421	0.234
421	0.234
421	0.234
422	0.233
422	0.233
423	0.233
423	0.233
424	0.232
424	0.232
425	0.231
425	0.231
426	0.231
426	0.231
427	0.23
427	0.23
427	0.23
428	0.229
428	0.229
429	0.229
429	0.229
430	0.228
430	0.228
431	0.228
431	0.227
432	0.227
432	0.227
432	0.227
433	0.227
433	0.226
434	0.226
434	0.226
435	0.226
435	0.226
436	0.226
436	0.226
437	0.225
437	0.225
437	0.225
438	0.224
438	0.224
439	0.224
439	0.224
440	0.223
440	0.223
441	0.222
441	0.222
442	0.222
442	0.222
442	0.222
443	0.221
443	0.221
444	0.221
444	0.221
445	0.22
445	0.22
446	0.22
446	0.22
447	0.219
447	0.219
447	0.219
448	0.219
448	0.219
449	0.219
449	0.218
450	0.218
450	0.218
451	0.218
451	0.218
452	0.218
452	0.218
452	0.218
453	0.217
453	0.217
454	0.217
454	0.216
455	0.216
455	0.216
456	0.216
456	0.216
457	0.215
457	0.215
458	0.215
458	0.214
458	0.214
459	0.214
459	0.214
460	0.214
460	0.213
461	0.213
461	0.213
462	0.213
462	0.212
463	0.212
463	0.212
463	0.212
464	0.211
464	0.211
465	0.211
465	0.211
466	0.21
466	0.21
467	0.21
467	0.21
467	0.21
468	0.21
468	0.21
469	0.21
469	0.21
470	0.21
470	0.21
471	0.21
471	0.21
472	0.21
472	0.209
472	0.209
473	0.209
473	0.209
474	0.209
474	0.209
475	0.208
475	0.208
476	0.208
476	0.208
477	0.208
477	0.208
477	0.208
478	0.208
478	0.208
479	0.207
479	0.207
480	0.207
480	0.207
481	0.207
481	0.207
482	0.207
482	0.207
482	0.207
483	0.207
483	0.208
484	0.208
484	0.207
485	0.207
485	0.208
486	0.207
486	0.207
487	0.207
487	0.207
487	0.207
488	0.207
488	0.207
489	0.207
489	0.208
490	0.208
490	0.208
491	0.209
491	0.209
492	0.209
492	0.21
492	0.21
493	0.21
493	0.211
494	0.211
494	0.211
495	0.211
495	0.211
496	0.211
496	0.212
496	0.212
497	0.212
497	0.212
498	0.213
498	0.213
499	0.213
499	0.213
500	0.214
500	0.214
501	0.215
501	0.215
501	0.215
502	0.215
502	0.215
503	0.216
503	0.216
504	0.216
504	0.217
505	0.217
505	0.217
506	0.218
506	0.218
506	0.218
507	0.219
507	0.219
508	0.219
508	0.219
509	0.22
509	0.22
510	0.22
510	0.221
511	0.221
511	0.222
511	0.222
512	0.222
512	0.223
513	0.223
513	0.224
514	0.224
514	0.224
515	0.225
515	0.225
515	0.225
516	0.225
516	0.226
517	0.226
517	0.227
518	0.227
518	0.227
519	0.228
519	0.228
520	0.228
520	0.228
520	0.229
521	0.229
521	0.229
522	0.229
522	0.23
523	0.23
523	0.23
524	0.23
524	0.23
524	0.23
525	0.231
525	0.231
526	0.231
526	0.231
527	0.231
527	0.231
528	0.231
528	0.232
529	0.232
529	0.232
529	0.231
530	0.231
530	0.231
531	0.232
531	0.231
532	0.231
532	0.231
533	0.231
533	0.231
533	0.231
534	0.231
534	0.231
535	0.231
535	0.231
536	0.232
536	0.232
537	0.232
537	0.232
538	0.232
538	0.232
538	0.232
539	0.232
539	0.232
540	0.232
540	0.231
541	0.231
541	0.231
542	0.231
542	0.231
542	0.231
543	0.231
543	0.231
544	0.231
544	0.231
545	0.231
545	0.231
546	0.231
546	0.231
547	0.23
547	0.23
547	0.23
548	0.23
548	0.229
549	0.229
549	0.229
550	0.229
550	0.229
551	0.229
551	0.229
551	0.228
552	0.228
552	0.228
553	0.227
553	0.227
554	0.227
554	0.226
555	0.226
555	0.225
556	0.224
556	0.224
556	0.224
557	0.224
557	0.224
558	0.224
558	0.225
559	0.225
559	0.225
560	0.225
560	0.225
560	0.225
561	0.225
561	0.225
562	0.224
562	0.224
563	0.223
563	0.222
564	0.222
564	0.221
564	0.221
565	0.221
565	0.221
566	0.22
566	0.22
567	0.22
567	0.22
568	0.22
568	0.22
568	0.22
569	0.219
569	0.219
570	0.218
570	0.217
571	0.217
571	0.217
572	0.216
572	0.216
573	0.216
573	0.216
573	0.215
574	0.215
574	0.215
575	0.215
575	0.215
576	0.215
576	0.214
577	0.214
577	0.213
577	0.213
578	0.212
578	0.212
579	0.212
579	0.212
580	0.212
580	0.211
581	0.21
581	0.21
581	0.21
582	0.211
582	0.211
583	0.211
583	0.211
584	0.21
584	0.209
585	0.209
585	0.209
585	0.209
586	0.209
586	0.208
587	0.208
587	0.207
588	0.207
588	0.206
589	0.206
589	0.206
590	0.206
590	0.206
590	0.206
591	0.206
591	0.206
592	0.206
592	0.205
593	0.205
593	0.205
594	0.204
594	0.204
594	0.203
595	0.203
595	0.202
596	0.202
596	0.202
597	0.203
597	0.204
598	0.203
598	0.203
598	0.203
599	0.203
599	0.203
600	0.202
600	0.202
601	0.202
601	0.202
602	0.201
602	0.2
602	0.2
603	0.199
603	0.199
604	0.2
604	0.2
605	0.2
605	0.2
606	0.199
606	0.199
606	0.198
607	0.198
607	0.198
608	0.198
608	0.198
609	0.197
609	0.197
610	0.197
610	0.196
610	0.196
611	0.196
611	0.197
612	0.197
612	0.197
613	0.197
613	0.197
614	0.197
614	0.196
614	0.197
615	0.197
615	0.196
616	0.196
616	0.196
617	0.196
617	0.196
618	0.196
618	0.196
618	0.196
619	0.196
619	0.196
620	0.197
620	0.197
621	0.196
621	0.196
622	0.195
622	0.195
622	0.194
623	0.194
623	0.194
624	0.193
624	0.192
625	0.192
625	0.192
626	0.192
626	0.192
626	0.192
627	0.192
627	0.192
628	0.192
628	0.191
629	0.192
629	0.191
630	0.191
630	0.191
630	0.191
631	0.191
631	0.19
632	0.19
632	0.19
633	0.19
633	0.19
634	0.19
634	0.19
634	0.19
635	0.19
635	0.19
636	0.19
636	0.19
637	0.19
637	0.19
638	0.189
638	0.189
638	0.189
639	0.189
639	0.189
640	0.189
640	0.188
641	0.188
641	0.188
642	0.188
642	0.188
642	0.189
643	0.189
643	0.189
644	0.189
644	0.19
645	0.19
645	0.189
646	0.189
646	0.189
646	0.189
647	0.188
647	0.188
648	0.187
648	0.187
649	0.186
649	0.186
650	0.186
650	0.186
650	0.186
651	0.186
651	0.186
652	0.186
652	0.186
653	0.187
653	0.188
653	0.194
654	0.152
654	0.122
655	0.122
655	0.123
656	0.123
656	0.123
657	0.124
657	0.124
657	0.124
658	0.123
658	0.113
659	0.142
659	0.183
660	0.188
660	0.188
661	0.188
661	0.187
661	0.187
662	0.187
662	0.187
663	0.186
663	0.186
664	0.186
664	0.185
665	0.185
665	0.185
665	0.185
666	0.185
666	0.185
667	0.186
667	0.186
668	0.186
668	0.187
669	0.187
669	0.187
669	0.188
670	0.188
670	0.188
671	0.188
671	0.188
672	0.187
672	0.186
672	0.186
673	0.185
673	0.185
674	0.185
674	0.184
675	0.184
675	0.184
676	0.185
676	0.185
676	0.185
677	0.185
677	0.185
678	0.185
678	0.185
679	0.185
679	0.185
680	0.185
680	0.185
680	0.184
681	0.184
681	0.185
682	0.185
682	0.185
683	0.186
683	0.186
684	0.187
684	0.186
684	0.186
685	0.187
685	0.187
686	0.187
686	0.187
687	0.187
687	0.187
687	0.187
688	0.187
688	0.187
689	0.188
689	0.188
690	0.188
690	0.187
691	0.187
691	0.187
691	0.187
692	0.187
692	0.187
693	0.188
693	0.188
694	0.188
694	0.187
695	0.188
695	0.189
695	0.19
696	0.189
696	0.19
697	0.19
697	0.189
698	0.189
698	0.188
698	0.188
699	0.188
699	0.188
700	0.187
700	0.187
701	0.187
701	0.187
702	0.187
702	0.188
702	0.188
703	0.188
703	0.188
704	0.188
704	0.188
705	0.189
705	0.189
705	0.188
706	0.189
706	0.188
707	0.188
707	0.188
708	0.189
708	0.189
709	0.189
709	0.189
709	0.188
710	0.189
710	0.189
711	0.19
711	0.19
712	0.191
712	0.191
713	0.191
713	0.191
713	0.191
714	0.191
714	0.191
715	0.19
715	0.19
716	0.189
716	0.189
716	0.188
717	0.187
717	0.187
718	0.186
718	0.186
719	0.187
719	0.187
720	0.187
720	0.187
720	0.188
721	0.188
721	0.189
722	0.19
722	0.19
723	0.191
723	0.191
723	0.191
724	0.191
724	0.191
725	0.19
725	0.19
726	0.189
726	0.189
727	0.188
727	0.188
727	0.188
728	0.187
728	0.187
729	0.188
729	0.188
730	0.188
730	0.189
730	0.189
731	0.19
731	0.191
732	0.192
732	0.192
733	0.192
733	0.193
734	0.194
734	0.194
734	0.194
735	0.195
735	0.194
736	0.194
736	0.194
737	0.194
737	0.194
737	0.193
738	0.193
738	0.192
739	0.191
739	0.191
740	0.191
740	0.191
741	0.191
741	0.191
741	0.191
742	0.191
742	0.192
743	0.193
743	0.194
744	0.195
744	0.196
744	0.196
745	0.196
745	0.196
746	0.196
746	0.197
747	0.196
747	0.196
748	0.196
748	0.196
748	0.195
749	0.195
749	0.195
750	0.195
750	0.195
751	0.195
751	0.196
751	0.196
752	0.196
752	0.195
753	0.195
753	0.194
754	0.194
754	0.194
754	0.194
755	0.194
755	0.194
756	0.193
756	0.193
757	0.193
757	0.193
758	0.193
758	0.194
758	0.194
759	0.195
759	0.194
760	0.194
760	0.194
761	0.195
761	0.196
761	0.196
762	0.196
762	0.196
763	0.196
763	0.196
764	0.196
764	0.196
764	0.196
765	0.196
765	0.196
766	0.196
766	0.196
767	0.196
767	0.195
768	0.195
768	0.195
768	0.195
769	0.195
769	0.196
770	0.196
770	0.197
771	0.198
771	0.198
771	0.199
772	0.2
772	0.201
773	0.201
773	0.201
774	0.201
774	0.202
775	0.202
775	0.202
775	0.202
776	0.202
776	0.202
777	0.202
777	0.202
778	0.202
778	0.202
778	0.202
779	0.202
779	0.202
780	0.202
780	0.201
781	0.201
781	0.201
781	0.201
782	0.201
782	0.201
783	0.202
783	0.203
784	0.203
784	0.203
784	0.203
785	0.204
785	0.204
786	0.204
786	0.204
787	0.204
787	0.204
788	0.203
788	0.202
788	0.202
789	0.202
789	0.202
790	0.201
790	0.201
791	0.201
791	0.201
791	0.201
792	0.202
792	0.202
793	0.202
793	0.203
794	0.202
794	0.202
794	0.202
795	0.203
795	0.203
796	0.203
796	0.204
797	0.204
797	0.204
797	0.204
798	0.204
798	0.205
799	0.205
799	0.205
800	0.205
800	0.204
801	0.204
801	0.204
801	0.203
802	0.204
802	0.204
803	0.204
803	0.204
804	0.204
804	0.204
804	0.205
805	0.205
805	0.205
806	0.205
806	0.205
807	0.205
807	0.205
807	0.205
808	0.206
808	0.205
809	0.205
809	0.205
810	0.205
810	0.205
810	0.205
811	0.205
811	0.206
812	0.207
812	0.207
813	0.208
813	0.208
813	0.209
814	0.21
814	0.211
815	0.211
815	0.212
816	0.212
816	0.211
817	0.21
817	0.21
817	0.21
818	0.209
818	0.209
819	0.208
819	0.207
820	0.207
820	0.206
820	0.206
821	0.206
821	0.206
822	0.206
822	0.206
823	0.207
823	0.207
823	0.208
824	0.209
824	0.21
825	0.211
825	0.212
826	0.212
826	0.212
826	0.212
827	0.213
827	0.213
828	0.213
828	0.214
829	0.214
829	0.214
829	0.214
830	0.215
830	0.215
831	0.216
831	0.217
832	0.217
832	0.217
832	0.217
833	0.217
833	0.217
834	0.217
834	0.216
835	0.216
835	0.215
835	0.215
836	0.214
836	0.214
837	0.214
837	0.213
838	0.213
838	0.212
839	0.212
839	0.211
839	0.21
840	0.209
840	0.208
841	0.208
841	0.207
842	0.206
842	0.206
842	0.205
843	0.205
843	0.205
844	0.205
844	0.204
845	0.204
845	0.204
845	0.204
846	0.204
846	0.205
847	0.205
847	0.205
848	0.205
848	0.206
848	0.206
849	0.207
849	0.207
850	0.207
850	0.207
851	0.208
851	0.208
851	0.208
852	0.208
852	0.208
853	0.208
853	0.208
854	0.208
854	0.208
854	0.209
855	0.209
855	0.21
856	0.21
856	0.211
857	0.212
857	0.213
857	0.214
858	0.214
858	0.214
859	0.214
859	0.214
860	0.214
860	0.213
860	0.212
861	0.212
861	0.211
862	0.21
862	0.209
863	0.208
863	0.208
863	0.207
864	0.207
864	0.207
865	0.207
865	0.207
866	0.207
866	0.208
866	0.208
867	0.209
867	0.21
868	0.21
868	0.211
869	0.211
869	0.211
869	0.211
870	0.21
870	0.21
871	0.21
871	0.21
872	0.209
872	0.209
872	0.209
873	0.208
873	0.208
874	0.207
874	0.207
875	0.207
875	0.207
875	0.207
876	0.207
876	0.207
877	0.206
877	0.206
878	0.206
878	0.206
878	0.207
879	0.207
879	0.207
880	0.207
880	0.207
881	0.207
881	0.207
881	0.208
882	0.208
882	0.208
883	0.208
883	0.209
884	0.209
884	0.209
884	0.209
885	0.209
885	0.209
886	0.208
886	0.208
887	0.208
887	0.207
887	0.206
888	0.205
888	0.205
889	0.204
889	0.204
890	0.204
890	0.203
890	0.203
891	0.203
891	0.203
892	0.203
892	0.203
893	0.203
893	0.202
893	0.202
894	0.202
894	0.202
895	0.202
895	0.202
895	0.202
896	0.202
896	0.202
897	0.202
897	0.202
898	0.202
898	0.201
898	0.201
899	0.2
899	0.2
900	0.199
900	0.198
901	0.198
901	0.197
901	0.197
902	0.196
902	0.196
903	0.196
903	0.195
904	0.195
904	0.195
904	0.195
905	0.194
905	0.194
906	0.194
906	0.194
907	0.195
907	0.195
907	0.195
908	0.195
908	0.196
909	0.196
909	0.196
910	0.195
910	0.195
910	0.195
911	0.195
911	0.194
912	0.194
912	0.193
913	0.193
913	0.193
913	0.192
914	0.192
914	0.192
915	0.192
915	0.192
916	0.192
916	0.192
916	0.192
917	0.192
917	0.192
918	0.191
918	0.191
918	0.19
919	0.19
919	0.189
920	0.189
920	0.188
921	0.187
921	0.187
921	0.187
922	0.186
922	0.186
923	0.186
923	0.186
924	0.186
924	0.186
924	0.186
925	0.187
925	0.187
926	0.187
926	0.188
927	0.188
927	0.188
927	0.188
928	0.188
928	0.189
929	0.189
929	0.189
930	0.189
930	0.189
930	0.189
931	0.189
931	0.189
932	0.188
932	0.188
933	0.188
933	0.188
933	0.187
934	0.187
934	0.186
935	0.186
935	0.185
935	0.185
936	0.184
936	0.183
937	0.182
937	0.182
938	0.181
938	0.181
938	0.18
939	0.18
939	0.179
940	0.179
940	0.179
941	0.179
941	0.179
941	0.179
942	0.179
942	0.179
943	0.179
943	0.179
944	0.18
944	0.18
944	0.18
945	0.18
945	0.18
946	0.18
946	0.179
946	0.179
947	0.179
947	0.178
948	0.178
948	0.177
949	0.176
949	0.176
949	0.175
950	0.174
950	0.173
951	0.172
951	0.171
952	0.171
952	0.17
952	0.169
953	0.169
953	0.169
954	0.168
954	0.168
955	0.169
955	0.169
955	0.169
956	0.169
956	0.17
957	0.17
957	0.171
957	0.171
958	0.171
958	0.171
959	0.171
959	0.171
960	0.171
960	0.171
960	0.171
961	0.17
961	0.17
962	0.17
962	0.17
963	0.17
963	0.17
963	0.17
964	0.17
964	0.171
965	0.171
965	0.17
966	0.171
966	0.17
966	0.17
967	0.17
967	0.169
968	0.169
968	0.168
968	0.168
969	0.167
969	0.166
970	0.165
970	0.164
971	0.163
971	0.162
971	0.161
972	0.16
972	0.16
973	0.159
973	0.159
974	0.159
974	0.16
974	0.16
975	0.161
975	0.161
976	0.162
976	0.163
976	0.163
977	0.163
977	0.164
978	0.163
978	0.163
979	0.163
979	0.163
979	0.163
980	0.163
980	0.162
981	0.162
981	0.161
982	0.161
982	0.161
982	0.161
983	0.16
983	0.16
984	0.16
984	0.16
984	0.159
985	0.159
985	0.159
986	0.159
986	0.159
987	0.159
987	0.158
987	0.158
988	0.158
988	0.158
989	0.157
989	0.157
990	0.157
990	0.156
990	0.156
991	0.155
991	0.155
992	0.154
992	0.153
992	0.152
993	0.151
993	0.15
994	0.149
994	0.148
995	0.148
995	0.147
995	0.147
996	0.147
996	0.147
997	0.147
997	0.147
997	0.148
998	0.148
998	0.149
999	0.15
999	0.15
1000	0.151
1000	0.152
1000	0.152
1001	0.153
1001	0.153
1002	0.153
1002	0.153
1003	0.153
1003	0.152
1003	0.151
1004	0.151
1004	0.15
1005	0.148
1005	0.148
1005	0.146
1006	0.146
1006	0.145
1007	0.144
1007	0.144
1008	0.144
1008	0.143
1008	0.143
1009	0.144
1009	0.144
1010	0.144
1010	0.145
1010	0.145
1011	0.145
1011	0.144
1012	0.144
1012	0.144
1013	0.143
1013	0.143
1013	0.142
1014	0.142
1014	0.141
1015	0.14
1015	0.14
1016	0.139
1016	0.139
1016	0.139
1017	0.138
1017	0.138
1018	0.137
1018	0.137
1018	0.136
1019	0.136
1019	0.136
1020	0.136
1020	0.136
1021	0.136
1021	0.136
1021	0.136
1022	0.137
1022	0.137
1023	0.137
1023	0.137
1023	0.138
1024	0.138
1024	0.138
1025	0.138
1025	0.138
1026	0.138
1026	0.138
1026	0.138
1027	0.138
1027	0.138
1028	0.139
1028	0.139
1028	0.139
1029	0.139
1029	0.139
1030	0.139
1030	0.139
1031	0.139
1031	0.139
1031	0.139
1032	0.139
1032	0.139
1033	0.139
1033	0.139
1033	0.139
1034	0.139
1034	0.138
1035	0.138
1035	0.137
1036	0.137
1036	0.137
1036	0.136
1037	0.136
1037	0.136
1038	0.135
1038	0.135
1039	0.134
1039	0.134
1039	0.134
1040	0.134
1040	0.133
1041	0.133
1041	0.133
1041	0.132
1042	0.132
1042	0.132
1043	0.132
1043	0.131
1044	0.131
1044	0.131
1044	0.131
1045	0.13
1045	0.13
1046	0.13
1046	0.13
1046	0.13
1047	0.13
1047	0.13
1048	0.13
1048	0.13
1049	0.13
1049	0.13
1049	0.13
1050	0.13
1050	0.13
1051	0.129
1051	0.129
1051	0.129
1052	0.128
1052	0.128
1053	0.127
1053	0.126
1053	0.125
1054	0.124
1054	0.124
1055	0.123
1055	0.123
1056	0.122
1056	0.121
1056	0.12
1057	0.119
1057	0.118
1058	0.117
1058	0.116
1058	0.115
1059	0.114
1059	0.114
1060	0.113
1060	0.112
1061	0.111
1061	0.111
1061	0.111
1062	0.11
1062	0.11
1063	0.11
1063	0.109
1063	0.109
1064	0.109
1064	0.109
1065	0.108
1065	0.108
1066	0.108
1066	0.108
1066	0.108
1067	0.107
1067	0.107
1068	0.107
1068	0.107
1068	0.107
1069	0.107
1069	0.107
1070	0.107
1070	0.107
1071	0.106
1071	0.106
1071	0.106
1072	0.106
1072	0.106
1073	0.105
1073	0.104
1073	0.105
1074	0.105
1074	0.105
1075	0.105
1075	0.106
1076	0.106
1076	0.107
1076	0.107
1077	0.107
1077	0.107
1078	0.107
1078	0.107
1078	0.107
1079	0.106
1079	0.106
1080	0.105
1080	0.105
1080	0.104
1081	0.104
1081	0.103
1082	0.103
1082	0.104
1083	0.103
1083	0.103
1083	0.103
1084	0.103
1084	0.104
1085	0.103
1085	0.103
1085	0.103
1086	0.104
1086	0.103
1087	0.103
1087	0.102
1088	0.102
1088	0.102
1088	0.103
1089	0.101
1089	0.101
1090	0.1
1090	0.099
1090	0.098
1091	0.098
1091	0.097
1092	0.097
1092	0.096
1092	0.095
1093	0.094
1093	0.095
1094	0.095
1094	0.094
1095	0.094
1095	0.093
1095	0.093
1096	0.092
1096	0.091
1097	0.09
1097	0.089
1097	0.089
1098	0.087
1098	0.086
1099	0.085
1099	0.083
1100	0.082
1100	0.08
1100	0.079
1101	0.078
1101	0.077
1102	0.077
1102	0.075
1102	0.074
1103	0.073
1103	0.073
1104	0.073
1104	0.072
1104	0.072
1105	0.071
1105	0.07
1106	0.068
1106	0.066
1107	0.065
1107	0.064
1107	0.063
1108	0.062
1108	0.062
1109	0.061
1109	0.059
1109	0.059
1110	0.06
1110	0.059
1111	0.059
1111	0.059
