Data from reversibility-20sec_Absorbance__8122__000000000008122.txt Node

Date: Thu Dec 07 09:20:25 CET 2023
User: Marek
Spectrometer: MAYP115816
Trigger mode: 0
Integration Time (sec): 2.000000E-1
Scans to average: 10
Electric dark correction enabled: true
Nonlinearity correction enabled: true
Boxcar width: 5
XAxis mode: Wavelengths
Number of Pixels in Spectrum: 2068
>>>>>Begin Spectral Data<<<<<
199	-0.095
199	-0.079
200	-0.015
200	0.033
201	0.064
201	0.078
202	0.084
202	0.097
203	0.106
203	0.112
204	0.127
204	0.138
205	0.153
205	0.16
205	0.158
206	0.153
206	0.154
207	0.158
207	0.155
208	0.153
208	0.151
209	0.152
209	0.15
210	0.148
210	0.147
211	0.148
211	0.155
212	0.154
212	0.155
213	0.158
213	0.163
213	0.165
214	0.167
214	0.172
215	0.172
215	0.173
216	0.173
216	0.167
217	0.17
217	0.174
218	0.174
218	0.175
219	0.179
219	0.181
220	0.182
220	0.185
221	0.185
221	0.189
221	0.199
222	0.205
222	0.206
223	0.21
223	0.213
224	0.217
224	0.222
225	0.228
225	0.237
226	0.246
226	0.257
227	0.267
227	0.278
228	0.292
228	0.308
229	0.325
229	0.347
229	0.37
230	0.395
230	0.428
231	0.461
231	0.5
232	0.536
232	0.579
233	0.622
233	0.672
234	0.721
234	0.774
235	0.831
235	0.886
236	0.935
236	0.986
236	1.036
237	1.086
237	1.135
238	1.18
238	1.225
239	1.274
239	1.314
240	1.351
240	1.387
241	1.42
241	1.454
242	1.486
242	1.52
243	1.55
243	1.576
243	1.601
244	1.62
244	1.642
245	1.661
245	1.683
246	1.705
246	1.72
247	1.733
247	1.745
248	1.757
248	1.769
249	1.778
249	1.783
250	1.79
250	1.797
250	1.798
251	1.801
251	1.804
252	1.808
252	1.81
253	1.809
253	1.807
254	1.805
254	1.807
255	1.805
255	1.803
256	1.8
256	1.8
257	1.798
257	1.796
258	1.795
258	1.795
258	1.797
259	1.797
259	1.796
260	1.795
260	1.796
261	1.798
261	1.801
262	1.804
262	1.805
263	1.807
263	1.809
264	1.809
264	1.811
265	1.812
265	1.814
265	1.816
266	1.816
266	1.814
267	1.81
267	1.812
268	1.811
268	1.812
269	1.814
269	1.812
270	1.812
270	1.809
271	1.806
271	1.805
272	1.803
272	1.803
272	1.798
273	1.793
273	1.787
274	1.78
274	1.774
275	1.766
275	1.762
276	1.755
276	1.747
277	1.739
277	1.729
278	1.717
278	1.705
278	1.69
279	1.674
279	1.654
280	1.628
280	1.597
281	1.56
281	1.52
282	1.477
282	1.432
283	1.389
283	1.347
284	1.305
284	1.265
285	1.227
285	1.193
285	1.162
286	1.135
286	1.112
287	1.091
287	1.074
288	1.059
288	1.046
289	1.035
289	1.026
290	1.018
290	1.011
291	1.005
291	0.999
292	0.994
292	0.99
292	0.986
293	0.982
293	0.978
294	0.974
294	0.971
295	0.967
295	0.964
296	0.961
296	0.958
297	0.954
297	0.951
298	0.948
298	0.945
298	0.942
299	0.939
299	0.936
300	0.933
300	0.93
301	0.928
301	0.925
302	0.922
302	0.92
303	0.918
303	0.915
304	0.913
304	0.91
305	0.908
305	0.905
305	0.903
306	0.901
306	0.898
307	0.896
307	0.893
308	0.89
308	0.887
309	0.885
309	0.882
310	0.879
310	0.876
311	0.873
311	0.869
311	0.866
312	0.863
312	0.859
313	0.855
313	0.851
314	0.847
314	0.843
315	0.839
315	0.834
316	0.83
316	0.825
317	0.821
317	0.815
318	0.81
318	0.805
318	0.8
319	0.795
319	0.789
320	0.783
320	0.777
321	0.771
321	0.765
322	0.759
322	0.752
323	0.746
323	0.739
324	0.732
324	0.725
324	0.718
325	0.711
325	0.704
326	0.697
326	0.69
327	0.683
327	0.676
328	0.669
328	0.661
329	0.654
329	0.647
330	0.64
330	0.632
330	0.625
331	0.618
331	0.611
332	0.604
332	0.596
333	0.589
333	0.582
334	0.575
334	0.568
335	0.561
335	0.554
336	0.547
336	0.54
336	0.533
337	0.527
337	0.52
338	0.514
338	0.507
339	0.501
339	0.495
340	0.489
340	0.483
341	0.477
341	0.472
342	0.466
342	0.461
342	0.455
343	0.45
343	0.444
344	0.439
344	0.434
345	0.429
345	0.424
346	0.42
346	0.415
347	0.411
347	0.406
348	0.402
348	0.398
348	0.394
349	0.39
349	0.387
350	0.383
350	0.379
351	0.376
351	0.372
352	0.369
352	0.366
353	0.363
353	0.36
354	0.357
354	0.354
354	0.351
355	0.348
355	0.345
356	0.342
356	0.339
357	0.336
357	0.333
358	0.331
358	0.328
359	0.326
359	0.323
360	0.321
360	0.319
360	0.317
361	0.316
361	0.314
362	0.312
362	0.31
363	0.309
363	0.307
364	0.305
364	0.303
365	0.301
365	0.299
366	0.298
366	0.296
366	0.294
367	0.293
367	0.291
368	0.29
368	0.288
369	0.286
369	0.285
370	0.284
370	0.282
371	0.281
371	0.28
372	0.279
372	0.278
372	0.276
373	0.275
373	0.275
374	0.274
374	0.273
375	0.272
375	0.271
376	0.27
376	0.269
377	0.268
377	0.267
378	0.266
378	0.265
378	0.264
379	0.263
379	0.263
380	0.262
380	0.261
381	0.261
381	0.26
382	0.26
382	0.259
383	0.259
383	0.258
383	0.258
384	0.257
384	0.257
385	0.256
385	0.256
386	0.255
386	0.255
387	0.255
387	0.254
388	0.254
388	0.253
389	0.253
389	0.253
389	0.253
390	0.252
390	0.252
391	0.251
391	0.251
392	0.251
392	0.25
393	0.25
393	0.249
394	0.249
394	0.249
394	0.248
395	0.248
395	0.248
396	0.247
396	0.247
397	0.247
397	0.246
398	0.246
398	0.246
399	0.246
399	0.245
400	0.245
400	0.245
400	0.244
401	0.244
401	0.244
402	0.244
402	0.244
403	0.243
403	0.243
404	0.243
404	0.243
405	0.242
405	0.242
405	0.242
406	0.242
406	0.241
407	0.241
407	0.241
408	0.241
408	0.24
409	0.24
409	0.24
410	0.24
410	0.239
411	0.239
411	0.239
411	0.239
412	0.238
412	0.238
413	0.238
413	0.237
414	0.237
414	0.237
415	0.236
415	0.236
416	0.236
416	0.236
416	0.235
417	0.235
417	0.235
418	0.234
418	0.234
419	0.233
419	0.233
420	0.233
420	0.232
421	0.232
421	0.231
421	0.231
422	0.231
422	0.231
423	0.23
423	0.23
424	0.229
424	0.229
425	0.229
425	0.229
426	0.228
426	0.228
427	0.228
427	0.227
427	0.227
428	0.227
428	0.226
429	0.226
429	0.226
430	0.225
430	0.225
431	0.225
431	0.225
432	0.225
432	0.225
432	0.224
433	0.224
433	0.224
434	0.224
434	0.223
435	0.223
435	0.223
436	0.223
436	0.223
437	0.222
437	0.222
437	0.222
438	0.222
438	0.221
439	0.221
439	0.221
440	0.22
440	0.22
441	0.219
441	0.219
442	0.219
442	0.219
442	0.218
443	0.218
443	0.218
444	0.218
444	0.218
445	0.217
445	0.217
446	0.217
446	0.217
447	0.217
447	0.217
447	0.217
448	0.216
448	0.216
449	0.216
449	0.216
450	0.216
450	0.215
451	0.215
451	0.215
452	0.215
452	0.215
452	0.215
453	0.215
453	0.214
454	0.214
454	0.214
455	0.213
455	0.213
456	0.213
456	0.213
457	0.213
457	0.212
458	0.212
458	0.212
458	0.211
459	0.211
459	0.211
460	0.211
460	0.211
461	0.211
461	0.211
462	0.211
462	0.211
463	0.21
463	0.21
463	0.21
464	0.21
464	0.209
465	0.209
465	0.209
466	0.208
466	0.208
467	0.208
467	0.208
467	0.208
468	0.208
468	0.208
469	0.208
469	0.208
470	0.208
470	0.209
471	0.208
471	0.208
472	0.208
472	0.208
472	0.208
473	0.208
473	0.208
474	0.208
474	0.208
475	0.208
475	0.207
476	0.207
476	0.207
477	0.207
477	0.207
477	0.207
478	0.207
478	0.207
479	0.208
479	0.208
480	0.208
480	0.208
481	0.208
481	0.207
482	0.207
482	0.207
482	0.207
483	0.207
483	0.208
484	0.208
484	0.207
485	0.207
485	0.207
486	0.207
486	0.207
487	0.207
487	0.207
487	0.208
488	0.208
488	0.208
489	0.208
489	0.209
490	0.209
490	0.21
491	0.21
491	0.211
492	0.211
492	0.211
492	0.212
493	0.212
493	0.213
494	0.213
494	0.213
495	0.214
495	0.214
496	0.214
496	0.214
496	0.215
497	0.215
497	0.215
498	0.215
498	0.216
499	0.216
499	0.217
500	0.217
500	0.218
501	0.218
501	0.219
501	0.219
502	0.219
502	0.22
503	0.22
503	0.221
504	0.221
504	0.221
505	0.222
505	0.222
506	0.222
506	0.223
506	0.223
507	0.223
507	0.224
508	0.224
508	0.224
509	0.224
509	0.225
510	0.225
510	0.225
511	0.226
511	0.226
511	0.226
512	0.227
512	0.227
513	0.228
513	0.228
514	0.229
514	0.229
515	0.23
515	0.23
515	0.23
516	0.231
516	0.231
517	0.232
517	0.232
518	0.233
518	0.233
519	0.233
519	0.233
520	0.233
520	0.233
520	0.234
521	0.234
521	0.234
522	0.234
522	0.234
523	0.234
523	0.234
524	0.234
524	0.234
524	0.234
525	0.235
525	0.235
526	0.235
526	0.235
527	0.235
527	0.235
528	0.235
528	0.235
529	0.235
529	0.235
529	0.235
530	0.235
530	0.234
531	0.234
531	0.234
532	0.234
532	0.233
533	0.233
533	0.233
533	0.232
534	0.232
534	0.232
535	0.232
535	0.232
536	0.232
536	0.231
537	0.231
537	0.231
538	0.231
538	0.231
538	0.23
539	0.23
539	0.23
540	0.23
540	0.229
541	0.229
541	0.229
542	0.229
542	0.228
542	0.228
543	0.228
543	0.228
544	0.227
544	0.227
545	0.227
545	0.227
546	0.226
546	0.226
547	0.225
547	0.224
547	0.224
548	0.223
548	0.223
549	0.223
549	0.222
550	0.222
550	0.222
551	0.221
551	0.221
551	0.221
552	0.221
552	0.22
553	0.22
553	0.22
554	0.219
554	0.218
555	0.217
555	0.217
556	0.216
556	0.216
556	0.215
557	0.215
557	0.215
558	0.215
558	0.215
559	0.215
559	0.215
560	0.215
560	0.215
560	0.214
561	0.214
561	0.214
562	0.213
562	0.212
563	0.211
563	0.21
564	0.209
564	0.209
564	0.208
565	0.208
565	0.207
566	0.207
566	0.207
567	0.206
567	0.206
568	0.206
568	0.206
568	0.205
569	0.205
569	0.204
570	0.203
570	0.202
571	0.202
571	0.201
572	0.2
572	0.2
573	0.2
573	0.199
573	0.199
574	0.198
574	0.198
575	0.198
575	0.198
576	0.198
576	0.197
577	0.196
577	0.196
577	0.195
578	0.195
578	0.194
579	0.195
579	0.195
580	0.194
580	0.193
581	0.193
581	0.193
581	0.193
582	0.193
582	0.193
583	0.193
583	0.192
584	0.192
584	0.19
585	0.19
585	0.19
585	0.19
586	0.189
586	0.189
587	0.188
587	0.187
588	0.187
588	0.186
589	0.186
589	0.186
590	0.186
590	0.186
590	0.187
591	0.187
591	0.186
592	0.186
592	0.186
593	0.185
593	0.185
594	0.184
594	0.184
594	0.183
595	0.183
595	0.182
596	0.181
596	0.181
597	0.182
597	0.182
598	0.182
598	0.182
598	0.182
599	0.182
599	0.181
600	0.181
600	0.181
601	0.18
601	0.18
602	0.18
602	0.179
602	0.179
603	0.179
603	0.179
604	0.179
604	0.179
605	0.179
605	0.179
606	0.178
606	0.177
606	0.177
607	0.177
607	0.177
608	0.176
608	0.175
609	0.175
609	0.175
610	0.174
610	0.174
610	0.174
611	0.174
611	0.174
612	0.174
612	0.174
613	0.174
613	0.174
614	0.174
614	0.174
614	0.174
615	0.174
615	0.174
616	0.174
616	0.174
617	0.174
617	0.174
618	0.173
618	0.173
618	0.173
619	0.174
619	0.173
620	0.173
620	0.173
621	0.173
621	0.172
622	0.171
622	0.171
622	0.171
623	0.17
623	0.17
624	0.17
624	0.17
625	0.17
625	0.17
626	0.17
626	0.17
626	0.17
627	0.17
627	0.17
628	0.17
628	0.169
629	0.169
629	0.169
630	0.169
630	0.168
630	0.169
631	0.168
631	0.168
632	0.168
632	0.167
633	0.168
633	0.168
634	0.168
634	0.168
634	0.168
635	0.167
635	0.167
636	0.167
636	0.166
637	0.166
637	0.166
638	0.165
638	0.165
638	0.164
639	0.164
639	0.164
640	0.164
640	0.164
641	0.164
641	0.164
642	0.163
642	0.163
642	0.164
643	0.164
643	0.164
644	0.164
644	0.164
645	0.165
645	0.165
646	0.165
646	0.165
646	0.165
647	0.165
647	0.164
648	0.164
648	0.163
649	0.163
649	0.163
650	0.162
650	0.162
650	0.162
651	0.162
651	0.162
652	0.163
652	0.163
653	0.164
653	0.165
653	0.17
654	0.135
654	0.108
655	0.108
655	0.108
656	0.109
656	0.109
657	0.109
657	0.11
657	0.11
658	0.108
658	0.1
659	0.125
659	0.159
660	0.164
660	0.164
661	0.164
661	0.163
661	0.162
662	0.162
662	0.162
663	0.161
663	0.161
664	0.161
664	0.161
665	0.161
665	0.161
665	0.161
666	0.162
666	0.162
667	0.162
667	0.162
668	0.162
668	0.162
669	0.162
669	0.162
669	0.163
670	0.163
670	0.163
671	0.162
671	0.162
672	0.162
672	0.161
672	0.161
673	0.161
673	0.161
674	0.16
674	0.16
675	0.16
675	0.16
676	0.16
676	0.161
676	0.161
677	0.161
677	0.161
678	0.161
678	0.161
679	0.16
679	0.16
680	0.16
680	0.16
680	0.159
681	0.159
681	0.159
682	0.159
682	0.159
683	0.159
683	0.159
684	0.159
684	0.159
684	0.159
685	0.159
685	0.16
686	0.16
686	0.16
687	0.16
687	0.16
687	0.161
688	0.161
688	0.161
689	0.162
689	0.162
690	0.162
690	0.162
691	0.162
691	0.162
691	0.162
692	0.162
692	0.162
693	0.163
693	0.163
694	0.163
694	0.163
695	0.164
695	0.165
695	0.166
696	0.166
696	0.166
697	0.166
697	0.166
698	0.166
698	0.166
698	0.166
699	0.166
699	0.165
700	0.165
700	0.165
701	0.164
701	0.163
702	0.163
702	0.162
702	0.162
703	0.161
703	0.16
704	0.16
704	0.159
705	0.159
705	0.159
705	0.159
706	0.159
706	0.159
707	0.159
707	0.159
708	0.16
708	0.161
709	0.161
709	0.161
709	0.161
710	0.162
710	0.162
711	0.163
711	0.164
712	0.164
712	0.164
713	0.164
713	0.165
713	0.165
714	0.164
714	0.164
715	0.164
715	0.164
716	0.163
716	0.163
716	0.162
717	0.161
717	0.161
718	0.16
718	0.16
719	0.161
719	0.161
720	0.161
720	0.162
720	0.163
721	0.163
721	0.164
722	0.165
722	0.166
723	0.166
723	0.166
723	0.166
724	0.165
724	0.165
725	0.164
725	0.163
726	0.162
726	0.162
727	0.161
727	0.16
727	0.16
728	0.16
728	0.16
729	0.16
729	0.16
730	0.16
730	0.161
730	0.161
731	0.162
731	0.162
732	0.163
732	0.163
733	0.164
733	0.164
734	0.165
734	0.166
734	0.166
735	0.167
735	0.167
736	0.167
736	0.167
737	0.167
737	0.167
737	0.167
738	0.166
738	0.165
739	0.165
739	0.165
740	0.165
740	0.165
741	0.165
741	0.165
741	0.166
742	0.166
742	0.167
743	0.168
743	0.169
744	0.17
744	0.17
744	0.17
745	0.17
745	0.17
746	0.17
746	0.17
747	0.17
747	0.169
748	0.169
748	0.169
748	0.168
749	0.168
749	0.168
750	0.168
750	0.168
751	0.169
751	0.169
751	0.169
752	0.169
752	0.169
753	0.169
753	0.169
754	0.169
754	0.168
754	0.168
755	0.168
755	0.168
756	0.168
756	0.167
757	0.166
757	0.166
758	0.166
758	0.166
758	0.167
759	0.167
759	0.166
760	0.166
760	0.166
761	0.167
761	0.167
761	0.168
762	0.168
762	0.168
763	0.168
763	0.168
764	0.168
764	0.168
764	0.168
765	0.168
765	0.168
766	0.168
766	0.168
767	0.167
767	0.166
768	0.166
768	0.166
768	0.166
769	0.166
769	0.166
770	0.166
770	0.166
771	0.167
771	0.167
771	0.168
772	0.168
772	0.169
773	0.169
773	0.169
774	0.169
774	0.17
775	0.17
775	0.17
775	0.17
776	0.171
776	0.171
777	0.172
777	0.172
778	0.173
778	0.173
778	0.173
779	0.173
779	0.173
780	0.172
780	0.171
781	0.171
781	0.17
781	0.169
782	0.169
782	0.169
783	0.169
783	0.169
784	0.169
784	0.17
784	0.17
785	0.171
785	0.171
786	0.171
786	0.172
787	0.172
787	0.172
788	0.172
788	0.171
788	0.171
789	0.171
789	0.171
790	0.171
790	0.171
791	0.17
791	0.17
791	0.17
792	0.171
792	0.17
793	0.17
793	0.17
794	0.17
794	0.17
794	0.17
795	0.17
795	0.17
796	0.17
796	0.17
797	0.17
797	0.17
797	0.171
798	0.171
798	0.171
799	0.171
799	0.171
800	0.17
800	0.17
801	0.17
801	0.17
801	0.17
802	0.17
802	0.171
803	0.171
803	0.171
804	0.172
804	0.172
804	0.173
805	0.173
805	0.173
806	0.173
806	0.173
807	0.173
807	0.173
807	0.172
808	0.172
808	0.172
809	0.172
809	0.172
810	0.172
810	0.171
810	0.171
811	0.171
811	0.172
812	0.173
812	0.173
813	0.173
813	0.174
813	0.174
814	0.175
814	0.176
815	0.177
815	0.177
816	0.177
816	0.176
817	0.176
817	0.176
817	0.176
818	0.175
818	0.175
819	0.174
819	0.173
820	0.172
820	0.171
820	0.171
821	0.171
821	0.171
822	0.171
822	0.171
823	0.172
823	0.172
823	0.172
824	0.174
824	0.175
825	0.176
825	0.177
826	0.178
826	0.178
826	0.178
827	0.179
827	0.179
828	0.18
828	0.18
829	0.18
829	0.18
829	0.18
830	0.18
830	0.18
831	0.181
831	0.18
832	0.18
832	0.18
832	0.18
833	0.18
833	0.179
834	0.179
834	0.179
835	0.178
835	0.178
835	0.177
836	0.177
836	0.177
837	0.177
837	0.176
838	0.176
838	0.175
839	0.175
839	0.174
839	0.173
840	0.172
840	0.172
841	0.171
841	0.17
842	0.169
842	0.169
842	0.168
843	0.168
843	0.167
844	0.167
844	0.166
845	0.166
845	0.166
845	0.166
846	0.166
846	0.166
847	0.167
847	0.167
848	0.167
848	0.167
848	0.167
849	0.167
849	0.167
850	0.166
850	0.166
851	0.166
851	0.166
851	0.165
852	0.165
852	0.164
853	0.164
853	0.164
854	0.164
854	0.165
854	0.166
855	0.166
855	0.167
856	0.168
856	0.169
857	0.17
857	0.171
857	0.172
858	0.172
858	0.172
859	0.173
859	0.173
860	0.173
860	0.172
860	0.172
861	0.172
861	0.171
862	0.17
862	0.169
863	0.169
863	0.168
863	0.168
864	0.168
864	0.168
865	0.168
865	0.167
866	0.167
866	0.167
866	0.167
867	0.167
867	0.167
868	0.167
868	0.167
869	0.168
869	0.167
869	0.167
870	0.167
870	0.167
871	0.167
871	0.167
872	0.167
872	0.167
872	0.166
873	0.166
873	0.165
874	0.165
874	0.164
875	0.164
875	0.164
875	0.163
876	0.163
876	0.162
877	0.162
877	0.161
878	0.161
878	0.161
878	0.162
879	0.162
879	0.162
880	0.162
880	0.163
881	0.163
881	0.164
881	0.164
882	0.164
882	0.165
883	0.165
883	0.165
884	0.165
884	0.165
884	0.165
885	0.165
885	0.164
886	0.164
886	0.163
887	0.163
887	0.162
887	0.161
888	0.161
888	0.16
889	0.16
889	0.159
890	0.159
890	0.159
890	0.159
891	0.159
891	0.159
892	0.159
892	0.159
893	0.159
893	0.159
893	0.158
894	0.158
894	0.157
895	0.157
895	0.157
895	0.156
896	0.156
896	0.156
897	0.156
897	0.156
898	0.156
898	0.155
898	0.155
899	0.155
899	0.155
900	0.154
900	0.154
901	0.154
901	0.154
901	0.154
902	0.154
902	0.154
903	0.154
903	0.154
904	0.154
904	0.154
904	0.154
905	0.154
905	0.153
906	0.153
906	0.153
907	0.153
907	0.153
907	0.152
908	0.152
908	0.152
909	0.151
909	0.151
910	0.151
910	0.151
910	0.15
911	0.15
911	0.15
912	0.149
912	0.149
913	0.148
913	0.148
913	0.147
914	0.147
914	0.147
915	0.147
915	0.146
916	0.146
916	0.146
916	0.146
917	0.145
917	0.145
918	0.145
918	0.145
918	0.144
919	0.144
919	0.144
920	0.144
920	0.144
921	0.145
921	0.145
921	0.145
922	0.145
922	0.145
923	0.146
923	0.146
924	0.146
924	0.146
924	0.146
925	0.147
925	0.146
926	0.146
926	0.146
927	0.147
927	0.147
927	0.146
928	0.146
928	0.147
929	0.147
929	0.147
930	0.146
930	0.146
930	0.146
931	0.146
931	0.146
932	0.145
932	0.145
933	0.145
933	0.145
933	0.145
934	0.145
934	0.145
935	0.145
935	0.144
935	0.144
936	0.144
936	0.143
937	0.143
937	0.142
938	0.141
938	0.141
938	0.14
939	0.139
939	0.138
940	0.137
940	0.137
941	0.137
941	0.137
941	0.138
942	0.138
942	0.138
943	0.138
943	0.139
944	0.139
944	0.139
944	0.14
945	0.14
945	0.14
946	0.14
946	0.139
946	0.139
947	0.139
947	0.138
948	0.138
948	0.137
949	0.137
949	0.136
949	0.135
950	0.135
950	0.135
951	0.134
951	0.133
952	0.133
952	0.132
952	0.132
953	0.131
953	0.131
954	0.131
954	0.131
955	0.131
955	0.131
955	0.131
956	0.132
956	0.133
957	0.133
957	0.134
957	0.135
958	0.136
958	0.136
959	0.137
959	0.137
960	0.138
960	0.138
960	0.138
961	0.138
961	0.138
962	0.138
962	0.137
963	0.137
963	0.137
963	0.136
964	0.136
964	0.136
965	0.136
965	0.135
966	0.135
966	0.134
966	0.134
967	0.134
967	0.133
968	0.133
968	0.133
968	0.132
969	0.131
969	0.131
970	0.13
970	0.129
971	0.128
971	0.128
971	0.127
972	0.126
972	0.125
973	0.125
973	0.124
974	0.124
974	0.124
974	0.124
975	0.124
975	0.124
976	0.125
976	0.125
976	0.125
977	0.125
977	0.125
978	0.125
978	0.125
979	0.125
979	0.124
979	0.125
980	0.125
980	0.125
981	0.125
981	0.125
982	0.125
982	0.125
982	0.126
983	0.126
983	0.126
984	0.126
984	0.126
984	0.126
985	0.126
985	0.126
986	0.126
986	0.126
987	0.126
987	0.126
987	0.125
988	0.125
988	0.125
989	0.125
989	0.125
990	0.125
990	0.125
990	0.125
991	0.125
991	0.125
992	0.124
992	0.124
992	0.123
993	0.123
993	0.122
994	0.121
994	0.12
995	0.119
995	0.118
995	0.118
996	0.118
996	0.118
997	0.118
997	0.119
997	0.119
998	0.12
998	0.12
999	0.121
999	0.122
1000	0.123
1000	0.124
1000	0.124
1001	0.125
1001	0.125
1002	0.125
1002	0.125
1003	0.125
1003	0.125
1003	0.124
1004	0.124
1004	0.123
1005	0.122
1005	0.122
1005	0.121
1006	0.12
1006	0.12
1007	0.12
1007	0.119
1008	0.119
1008	0.118
1008	0.118
1009	0.118
1009	0.118
1010	0.117
1010	0.117
1010	0.117
1011	0.116
1011	0.116
1012	0.115
1012	0.115
1013	0.114
1013	0.114
1013	0.113
1014	0.112
1014	0.112
1015	0.111
1015	0.111
1016	0.11
1016	0.11
1016	0.11
1017	0.109
1017	0.109
1018	0.109
1018	0.108
1018	0.108
1019	0.108
1019	0.108
1020	0.108
1020	0.108
1021	0.109
1021	0.109
1021	0.11
1022	0.11
1022	0.11
1023	0.111
1023	0.111
1023	0.111
1024	0.112
1024	0.112
1025	0.112
1025	0.112
1026	0.112
1026	0.112
1026	0.112
1027	0.112
1027	0.112
1028	0.112
1028	0.112
1028	0.112
1029	0.112
1029	0.112
1030	0.112
1030	0.112
1031	0.112
1031	0.112
1031	0.112
1032	0.112
1032	0.112
1033	0.112
1033	0.112
1033	0.112
1034	0.112
1034	0.112
1035	0.112
1035	0.112
1036	0.111
1036	0.111
1036	0.111
1037	0.111
1037	0.111
1038	0.11
1038	0.11
1039	0.11
1039	0.109
1039	0.109
1040	0.109
1040	0.109
1041	0.108
1041	0.108
1041	0.108
1042	0.108
1042	0.107
1043	0.107
1043	0.107
1044	0.107
1044	0.106
1044	0.106
1045	0.106
1045	0.105
1046	0.105
1046	0.105
1046	0.104
1047	0.104
1047	0.103
1048	0.103
1048	0.103
1049	0.103
1049	0.103
1049	0.102
1050	0.102
1050	0.101
1051	0.101
1051	0.101
1051	0.101
1052	0.101
1052	0.1
1053	0.1
1053	0.099
1053	0.099
1054	0.098
1054	0.098
1055	0.098
1055	0.098
1056	0.097
1056	0.097
1056	0.096
1057	0.096
1057	0.095
1058	0.095
1058	0.094
1058	0.093
1059	0.093
1059	0.093
1060	0.092
1060	0.092
1061	0.091
1061	0.091
1061	0.091
1062	0.09
1062	0.09
1063	0.09
1063	0.09
1063	0.09
1064	0.09
1064	0.09
1065	0.09
1065	0.09
1066	0.09
1066	0.09
1066	0.09
1067	0.089
1067	0.089
1068	0.089
1068	0.09
1068	0.09
1069	0.09
1069	0.09
1070	0.09
1070	0.089
1071	0.089
1071	0.089
1071	0.089
1072	0.089
1072	0.088
1073	0.087
1073	0.087
1073	0.087
1074	0.087
1074	0.087
1075	0.087
1075	0.088
1076	0.088
1076	0.088
1076	0.089
1077	0.089
1077	0.09
1078	0.09
1078	0.09
1078	0.09
1079	0.09
1079	0.089
1080	0.089
1080	0.088
1080	0.088
1081	0.088
1081	0.087
1082	0.087
1082	0.087
1083	0.087
1083	0.087
1083	0.086
1084	0.087
1084	0.087
1085	0.087
1085	0.087
1085	0.087
1086	0.087
1086	0.087
1087	0.087
1087	0.087
1088	0.087
1088	0.087
1088	0.087
1089	0.086
1089	0.086
1090	0.085
1090	0.085
1090	0.084
1091	0.084
1091	0.083
1092	0.084
1092	0.084
1092	0.083
1093	0.083
1093	0.084
1094	0.084
1094	0.084
1095	0.083
1095	0.084
1095	0.083
1096	0.083
1096	0.081
1097	0.081
1097	0.08
1097	0.079
1098	0.078
1098	0.077
1099	0.076
1099	0.075
1100	0.074
1100	0.073
1100	0.072
1101	0.072
1101	0.07
1102	0.07
1102	0.069
1102	0.068
1103	0.067
1103	0.067
1104	0.066
1104	0.066
1104	0.066
1105	0.065
1105	0.063
1106	0.062
1106	0.06
1107	0.06
1107	0.059
1107	0.058
1108	0.057
1108	0.057
1109	0.055
1109	0.054
1109	0.054
1110	0.055
1110	0.055
1111	0.055
1111	0.054
