Data from reversibility-20sec_Absorbance__5799__000000000005799.txt Node

Date: Wed Dec 06 20:26:05 CET 2023
User: Marek
Spectrometer: MAYP115816
Trigger mode: 0
Integration Time (sec): 2.000000E-1
Scans to average: 10
Electric dark correction enabled: true
Nonlinearity correction enabled: true
Boxcar width: 5
XAxis mode: Wavelengths
Number of Pixels in Spectrum: 2068
>>>>>Begin Spectral Data<<<<<
199	-0.138
199	-0.103
200	-0.046
200	0.011
201	0.041
201	0.055
202	0.065
202	0.075
203	0.081
203	0.084
204	0.102
204	0.116
205	0.128
205	0.135
205	0.132
206	0.128
206	0.131
207	0.133
207	0.132
208	0.131
208	0.13
209	0.128
209	0.122
210	0.121
210	0.121
211	0.12
211	0.125
212	0.121
212	0.123
213	0.125
213	0.123
213	0.123
214	0.127
214	0.13
215	0.133
215	0.133
216	0.134
216	0.132
217	0.134
217	0.133
218	0.13
218	0.136
219	0.141
219	0.142
220	0.145
220	0.143
221	0.144
221	0.147
221	0.152
222	0.156
222	0.159
223	0.167
223	0.17
224	0.174
224	0.179
225	0.187
225	0.198
226	0.205
226	0.218
227	0.225
227	0.239
228	0.254
228	0.268
229	0.281
229	0.305
229	0.331
230	0.353
230	0.383
231	0.418
231	0.453
232	0.493
232	0.535
233	0.578
233	0.626
234	0.679
234	0.73
235	0.783
235	0.837
236	0.889
236	0.938
236	0.989
237	1.039
237	1.087
238	1.135
238	1.183
239	1.23
239	1.27
240	1.309
240	1.346
241	1.383
241	1.418
242	1.451
242	1.483
243	1.514
243	1.539
243	1.564
244	1.586
244	1.607
245	1.625
245	1.647
246	1.664
246	1.68
247	1.692
247	1.704
248	1.717
248	1.729
249	1.736
249	1.742
250	1.75
250	1.758
250	1.759
251	1.762
251	1.764
252	1.769
252	1.77
253	1.77
253	1.767
254	1.765
254	1.767
255	1.765
255	1.765
256	1.765
256	1.764
257	1.764
257	1.763
258	1.762
258	1.761
258	1.763
259	1.763
259	1.763
260	1.764
260	1.765
261	1.766
261	1.769
262	1.772
262	1.773
263	1.779
263	1.781
264	1.783
264	1.786
265	1.787
265	1.788
265	1.789
266	1.789
266	1.788
267	1.786
267	1.789
268	1.787
268	1.787
269	1.789
269	1.788
270	1.787
270	1.784
271	1.783
271	1.781
272	1.778
272	1.776
272	1.771
273	1.764
273	1.757
274	1.75
274	1.743
275	1.736
275	1.73
276	1.721
276	1.713
277	1.706
277	1.696
278	1.684
278	1.671
278	1.657
279	1.639
279	1.616
280	1.588
280	1.554
281	1.515
281	1.473
282	1.428
282	1.382
283	1.339
283	1.296
284	1.255
284	1.216
285	1.18
285	1.147
285	1.118
286	1.092
286	1.069
287	1.05
287	1.034
288	1.02
288	1.008
289	0.998
289	0.989
290	0.982
290	0.976
291	0.971
291	0.966
292	0.962
292	0.958
292	0.954
293	0.95
293	0.947
294	0.944
294	0.941
295	0.938
295	0.935
296	0.931
296	0.929
297	0.926
297	0.923
298	0.92
298	0.918
298	0.915
299	0.913
299	0.91
300	0.907
300	0.905
301	0.903
301	0.901
302	0.898
302	0.896
303	0.894
303	0.892
304	0.889
304	0.887
305	0.885
305	0.883
305	0.881
306	0.879
306	0.876
307	0.874
307	0.871
308	0.869
308	0.867
309	0.864
309	0.861
310	0.859
310	0.856
311	0.853
311	0.85
311	0.847
312	0.844
312	0.84
313	0.837
313	0.833
314	0.83
314	0.826
315	0.822
315	0.818
316	0.814
316	0.809
317	0.805
317	0.8
318	0.795
318	0.79
318	0.785
319	0.78
319	0.774
320	0.769
320	0.763
321	0.757
321	0.751
322	0.745
322	0.739
323	0.733
323	0.726
324	0.72
324	0.714
324	0.707
325	0.7
325	0.694
326	0.687
326	0.68
327	0.673
327	0.666
328	0.66
328	0.653
329	0.646
329	0.639
330	0.632
330	0.625
330	0.618
331	0.611
331	0.604
332	0.597
332	0.59
333	0.583
333	0.576
334	0.569
334	0.562
335	0.556
335	0.549
336	0.542
336	0.536
336	0.529
337	0.523
337	0.517
338	0.511
338	0.505
339	0.499
339	0.493
340	0.487
340	0.482
341	0.476
341	0.47
342	0.465
342	0.46
342	0.454
343	0.449
343	0.444
344	0.439
344	0.434
345	0.429
345	0.425
346	0.42
346	0.416
347	0.412
347	0.408
348	0.404
348	0.4
348	0.396
349	0.393
349	0.389
350	0.385
350	0.382
351	0.378
351	0.375
352	0.372
352	0.369
353	0.366
353	0.363
354	0.36
354	0.358
354	0.355
355	0.352
355	0.349
356	0.346
356	0.344
357	0.34
357	0.338
358	0.335
358	0.333
359	0.33
359	0.328
360	0.326
360	0.324
360	0.322
361	0.321
361	0.319
362	0.318
362	0.316
363	0.314
363	0.313
364	0.311
364	0.309
365	0.307
365	0.306
366	0.304
366	0.303
366	0.301
367	0.299
367	0.298
368	0.296
368	0.295
369	0.293
369	0.292
370	0.291
370	0.289
371	0.288
371	0.287
372	0.286
372	0.285
372	0.284
373	0.283
373	0.282
374	0.281
374	0.28
375	0.279
375	0.278
376	0.277
376	0.277
377	0.276
377	0.275
378	0.274
378	0.274
378	0.273
379	0.272
379	0.272
380	0.271
380	0.27
381	0.27
381	0.269
382	0.269
382	0.268
383	0.267
383	0.267
383	0.266
384	0.266
384	0.265
385	0.265
385	0.265
386	0.264
386	0.264
387	0.263
387	0.263
388	0.263
388	0.262
389	0.262
389	0.262
389	0.261
390	0.261
390	0.26
391	0.26
391	0.26
392	0.26
392	0.259
393	0.259
393	0.259
394	0.258
394	0.258
394	0.258
395	0.258
395	0.257
396	0.257
396	0.257
397	0.256
397	0.256
398	0.256
398	0.256
399	0.255
399	0.255
400	0.255
400	0.254
400	0.254
401	0.254
401	0.254
402	0.254
402	0.253
403	0.253
403	0.253
404	0.253
404	0.253
405	0.252
405	0.252
405	0.252
406	0.252
406	0.251
407	0.251
407	0.251
408	0.25
408	0.25
409	0.25
409	0.25
410	0.249
410	0.249
411	0.249
411	0.248
411	0.248
412	0.248
412	0.248
413	0.248
413	0.247
414	0.247
414	0.247
415	0.246
415	0.246
416	0.246
416	0.246
416	0.245
417	0.245
417	0.245
418	0.244
418	0.244
419	0.244
419	0.243
420	0.243
420	0.243
421	0.242
421	0.242
421	0.242
422	0.241
422	0.241
423	0.24
423	0.24
424	0.24
424	0.239
425	0.239
425	0.239
426	0.239
426	0.238
427	0.238
427	0.238
427	0.237
428	0.237
428	0.237
429	0.237
429	0.236
430	0.236
430	0.235
431	0.235
431	0.235
432	0.235
432	0.235
432	0.235
433	0.234
433	0.234
434	0.234
434	0.234
435	0.234
435	0.234
436	0.233
436	0.233
437	0.233
437	0.232
437	0.232
438	0.232
438	0.232
439	0.232
439	0.231
440	0.231
440	0.231
441	0.231
441	0.23
442	0.23
442	0.23
442	0.23
443	0.229
443	0.229
444	0.229
444	0.229
445	0.228
445	0.228
446	0.228
446	0.228
447	0.227
447	0.227
447	0.227
448	0.227
448	0.227
449	0.226
449	0.226
450	0.226
450	0.226
451	0.226
451	0.226
452	0.226
452	0.226
452	0.226
453	0.225
453	0.225
454	0.225
454	0.225
455	0.224
455	0.224
456	0.224
456	0.224
457	0.223
457	0.223
458	0.223
458	0.223
458	0.222
459	0.222
459	0.222
460	0.222
460	0.221
461	0.221
461	0.221
462	0.221
462	0.221
463	0.22
463	0.22
463	0.22
464	0.219
464	0.218
465	0.218
465	0.218
466	0.218
466	0.218
467	0.218
467	0.217
467	0.217
468	0.217
468	0.217
469	0.217
469	0.217
470	0.218
470	0.218
471	0.218
471	0.218
472	0.218
472	0.218
472	0.218
473	0.218
473	0.217
474	0.217
474	0.217
475	0.217
475	0.217
476	0.217
476	0.217
477	0.217
477	0.216
477	0.216
478	0.216
478	0.216
479	0.216
479	0.216
480	0.216
480	0.216
481	0.216
481	0.216
482	0.216
482	0.216
482	0.216
483	0.216
483	0.216
484	0.216
484	0.216
485	0.216
485	0.216
486	0.215
486	0.215
487	0.215
487	0.215
487	0.216
488	0.216
488	0.216
489	0.216
489	0.216
490	0.217
490	0.217
491	0.217
491	0.218
492	0.218
492	0.218
492	0.219
493	0.219
493	0.219
494	0.219
494	0.219
495	0.219
495	0.22
496	0.22
496	0.221
496	0.221
497	0.221
497	0.221
498	0.222
498	0.222
499	0.223
499	0.223
500	0.224
500	0.224
501	0.224
501	0.224
501	0.225
502	0.225
502	0.225
503	0.226
503	0.226
504	0.226
504	0.226
505	0.227
505	0.227
506	0.227
506	0.228
506	0.228
507	0.228
507	0.229
508	0.229
508	0.229
509	0.229
509	0.229
510	0.23
510	0.23
511	0.231
511	0.231
511	0.232
512	0.232
512	0.232
513	0.233
513	0.233
514	0.234
514	0.234
515	0.235
515	0.235
515	0.235
516	0.236
516	0.236
517	0.237
517	0.237
518	0.238
518	0.238
519	0.238
519	0.238
520	0.239
520	0.239
520	0.239
521	0.239
521	0.239
522	0.239
522	0.239
523	0.239
523	0.24
524	0.24
524	0.24
524	0.24
525	0.24
525	0.24
526	0.24
526	0.241
527	0.241
527	0.241
528	0.241
528	0.242
529	0.242
529	0.242
529	0.242
530	0.242
530	0.242
531	0.242
531	0.242
532	0.242
532	0.242
533	0.242
533	0.242
533	0.242
534	0.242
534	0.242
535	0.242
535	0.242
536	0.242
536	0.242
537	0.242
537	0.242
538	0.242
538	0.242
538	0.242
539	0.242
539	0.242
540	0.242
540	0.241
541	0.241
541	0.241
542	0.241
542	0.241
542	0.241
543	0.241
543	0.241
544	0.24
544	0.24
545	0.24
545	0.24
546	0.24
546	0.24
547	0.239
547	0.239
547	0.239
548	0.239
548	0.239
549	0.239
549	0.239
550	0.239
550	0.238
551	0.238
551	0.238
551	0.238
552	0.237
552	0.237
553	0.237
553	0.236
554	0.236
554	0.235
555	0.235
555	0.234
556	0.234
556	0.234
556	0.234
557	0.234
557	0.234
558	0.234
558	0.234
559	0.235
559	0.235
560	0.235
560	0.235
560	0.235
561	0.235
561	0.235
562	0.234
562	0.234
563	0.233
563	0.232
564	0.231
564	0.231
564	0.231
565	0.231
565	0.23
566	0.23
566	0.23
567	0.23
567	0.23
568	0.23
568	0.23
568	0.23
569	0.229
569	0.229
570	0.228
570	0.227
571	0.227
571	0.227
572	0.226
572	0.225
573	0.225
573	0.225
573	0.224
574	0.224
574	0.224
575	0.224
575	0.224
576	0.224
576	0.223
577	0.223
577	0.223
577	0.222
578	0.222
578	0.222
579	0.222
579	0.222
580	0.222
580	0.221
581	0.22
581	0.22
581	0.22
582	0.22
582	0.22
583	0.221
583	0.221
584	0.22
584	0.219
585	0.219
585	0.219
585	0.219
586	0.219
586	0.218
587	0.217
587	0.217
588	0.216
588	0.216
589	0.215
589	0.215
590	0.215
590	0.215
590	0.216
591	0.216
591	0.216
592	0.215
592	0.215
593	0.215
593	0.214
594	0.214
594	0.213
594	0.213
595	0.213
595	0.212
596	0.212
596	0.212
597	0.213
597	0.213
598	0.213
598	0.213
598	0.213
599	0.213
599	0.212
600	0.212
600	0.211
601	0.211
601	0.211
602	0.21
602	0.21
602	0.209
603	0.209
603	0.209
604	0.209
604	0.209
605	0.209
605	0.209
606	0.209
606	0.209
606	0.208
607	0.208
607	0.208
608	0.208
608	0.207
609	0.207
609	0.207
610	0.206
610	0.206
610	0.206
611	0.206
611	0.206
612	0.206
612	0.206
613	0.206
613	0.206
614	0.206
614	0.206
614	0.206
615	0.206
615	0.206
616	0.206
616	0.206
617	0.206
617	0.206
618	0.205
618	0.206
618	0.206
619	0.206
619	0.206
620	0.206
620	0.206
621	0.206
621	0.205
622	0.205
622	0.204
622	0.204
623	0.203
623	0.203
624	0.203
624	0.202
625	0.202
625	0.201
626	0.201
626	0.201
626	0.201
627	0.201
627	0.2
628	0.2
628	0.2
629	0.199
629	0.199
630	0.199
630	0.198
630	0.198
631	0.198
631	0.198
632	0.198
632	0.198
633	0.198
633	0.198
634	0.199
634	0.199
634	0.199
635	0.199
635	0.199
636	0.199
636	0.2
637	0.199
637	0.199
638	0.199
638	0.198
638	0.198
639	0.198
639	0.197
640	0.197
640	0.197
641	0.197
641	0.197
642	0.196
642	0.196
642	0.196
643	0.196
643	0.196
644	0.196
644	0.196
645	0.196
645	0.196
646	0.196
646	0.196
646	0.196
647	0.196
647	0.195
648	0.195
648	0.194
649	0.194
649	0.194
650	0.194
650	0.194
650	0.194
651	0.194
651	0.194
652	0.194
652	0.194
653	0.195
653	0.196
653	0.203
654	0.159
654	0.127
655	0.128
655	0.128
656	0.129
656	0.129
657	0.13
657	0.13
657	0.13
658	0.129
658	0.118
659	0.149
659	0.192
660	0.196
660	0.196
661	0.196
661	0.196
661	0.195
662	0.195
662	0.194
663	0.194
663	0.194
664	0.194
664	0.194
665	0.194
665	0.194
665	0.194
666	0.194
666	0.195
667	0.195
667	0.195
668	0.196
668	0.196
669	0.197
669	0.197
669	0.197
670	0.198
670	0.198
671	0.198
671	0.197
672	0.197
672	0.197
672	0.196
673	0.196
673	0.196
674	0.195
674	0.195
675	0.194
675	0.194
676	0.194
676	0.194
676	0.193
677	0.193
677	0.193
678	0.193
678	0.193
679	0.193
679	0.193
680	0.193
680	0.193
680	0.193
681	0.193
681	0.194
682	0.194
682	0.195
683	0.195
683	0.196
684	0.196
684	0.196
684	0.196
685	0.197
685	0.197
686	0.197
686	0.197
687	0.197
687	0.197
687	0.197
688	0.197
688	0.197
689	0.197
689	0.197
690	0.197
690	0.196
691	0.196
691	0.196
691	0.196
692	0.196
692	0.196
693	0.196
693	0.196
694	0.196
694	0.196
695	0.196
695	0.197
695	0.197
696	0.197
696	0.197
697	0.197
697	0.197
698	0.197
698	0.197
698	0.197
699	0.197
699	0.196
700	0.196
700	0.196
701	0.197
701	0.197
702	0.197
702	0.198
702	0.198
703	0.198
703	0.198
704	0.199
704	0.199
705	0.199
705	0.199
705	0.199
706	0.199
706	0.2
707	0.2
707	0.2
708	0.2
708	0.2
709	0.2
709	0.2
709	0.2
710	0.2
710	0.2
711	0.2
711	0.2
712	0.2
712	0.2
713	0.2
713	0.2
713	0.2
714	0.199
714	0.199
715	0.199
715	0.198
716	0.198
716	0.198
716	0.197
717	0.197
717	0.197
718	0.196
718	0.196
719	0.197
719	0.197
720	0.197
720	0.198
720	0.198
721	0.198
721	0.199
722	0.2
722	0.2
723	0.2
723	0.201
723	0.201
724	0.201
724	0.2
725	0.2
725	0.2
726	0.199
726	0.199
727	0.199
727	0.199
727	0.199
728	0.199
728	0.198
729	0.199
729	0.199
730	0.199
730	0.199
730	0.2
731	0.2
731	0.201
732	0.201
732	0.202
733	0.202
733	0.202
734	0.203
734	0.203
734	0.203
735	0.204
735	0.204
736	0.204
736	0.204
737	0.204
737	0.204
737	0.204
738	0.204
738	0.203
739	0.203
739	0.202
740	0.202
740	0.202
741	0.203
741	0.203
741	0.203
742	0.203
742	0.203
743	0.205
743	0.205
744	0.206
744	0.207
744	0.207
745	0.207
745	0.207
746	0.208
746	0.208
747	0.208
747	0.208
748	0.208
748	0.208
748	0.208
749	0.207
749	0.207
750	0.207
750	0.206
751	0.206
751	0.206
751	0.206
752	0.205
752	0.204
753	0.204
753	0.203
754	0.203
754	0.203
754	0.203
755	0.203
755	0.204
756	0.204
756	0.203
757	0.203
757	0.203
758	0.204
758	0.204
758	0.205
759	0.205
759	0.205
760	0.205
760	0.205
761	0.205
761	0.206
761	0.206
762	0.206
762	0.206
763	0.207
763	0.206
764	0.206
764	0.206
764	0.206
765	0.206
765	0.206
766	0.206
766	0.206
767	0.206
767	0.205
768	0.204
768	0.204
768	0.204
769	0.204
769	0.205
770	0.205
770	0.206
771	0.206
771	0.207
771	0.207
772	0.208
772	0.209
773	0.21
773	0.21
774	0.211
774	0.211
775	0.212
775	0.212
775	0.212
776	0.212
776	0.212
777	0.212
777	0.212
778	0.212
778	0.212
778	0.212
779	0.212
779	0.212
780	0.211
780	0.211
781	0.211
781	0.211
781	0.211
782	0.211
782	0.211
783	0.212
783	0.212
784	0.212
784	0.213
784	0.213
785	0.214
785	0.214
786	0.215
786	0.215
787	0.215
787	0.214
788	0.214
788	0.213
788	0.212
789	0.211
789	0.211
790	0.21
790	0.21
791	0.209
791	0.209
791	0.209
792	0.21
792	0.21
793	0.21
793	0.211
794	0.211
794	0.211
794	0.211
795	0.211
795	0.211
796	0.212
796	0.212
797	0.212
797	0.213
797	0.213
798	0.213
798	0.214
799	0.214
799	0.214
800	0.213
800	0.213
801	0.213
801	0.213
801	0.213
802	0.213
802	0.213
803	0.213
803	0.213
804	0.214
804	0.214
804	0.214
805	0.214
805	0.214
806	0.213
806	0.213
807	0.213
807	0.213
807	0.213
808	0.213
808	0.213
809	0.213
809	0.214
810	0.214
810	0.215
810	0.215
811	0.216
811	0.216
812	0.217
812	0.218
813	0.218
813	0.218
813	0.219
814	0.22
814	0.22
815	0.221
815	0.221
816	0.222
816	0.221
817	0.221
817	0.221
817	0.22
818	0.22
818	0.22
819	0.219
819	0.219
820	0.218
820	0.217
820	0.217
821	0.217
821	0.218
822	0.218
822	0.218
823	0.218
823	0.218
823	0.219
824	0.22
824	0.22
825	0.221
825	0.222
826	0.222
826	0.222
826	0.222
827	0.222
827	0.223
828	0.223
828	0.223
829	0.223
829	0.223
829	0.223
830	0.223
830	0.224
831	0.225
831	0.225
832	0.225
832	0.225
832	0.225
833	0.225
833	0.225
834	0.225
834	0.225
835	0.224
835	0.224
835	0.224
836	0.224
836	0.224
837	0.223
837	0.223
838	0.223
838	0.223
839	0.222
839	0.221
839	0.221
840	0.22
840	0.219
841	0.218
841	0.217
842	0.217
842	0.216
842	0.215
843	0.215
843	0.214
844	0.214
844	0.214
845	0.213
845	0.213
845	0.213
846	0.213
846	0.213
847	0.213
847	0.214
848	0.214
848	0.214
848	0.215
849	0.216
849	0.216
850	0.217
850	0.217
851	0.217
851	0.218
851	0.218
852	0.218
852	0.217
853	0.217
853	0.217
854	0.217
854	0.218
854	0.218
855	0.219
855	0.22
856	0.22
856	0.221
857	0.221
857	0.222
857	0.222
858	0.223
858	0.222
859	0.222
859	0.221
860	0.221
860	0.22
860	0.219
861	0.219
861	0.219
862	0.218
862	0.218
863	0.217
863	0.217
863	0.217
864	0.217
864	0.217
865	0.217
865	0.217
866	0.217
866	0.217
866	0.217
867	0.218
867	0.219
868	0.22
868	0.22
869	0.221
869	0.221
869	0.221
870	0.222
870	0.222
871	0.222
871	0.223
872	0.223
872	0.223
872	0.222
873	0.222
873	0.221
874	0.221
874	0.22
875	0.22
875	0.219
875	0.219
876	0.218
876	0.218
877	0.217
877	0.217
878	0.217
878	0.217
878	0.217
879	0.217
879	0.217
880	0.218
880	0.218
881	0.218
881	0.218
881	0.218
882	0.218
882	0.218
883	0.218
883	0.218
884	0.219
884	0.219
884	0.219
885	0.218
885	0.218
886	0.218
886	0.218
887	0.217
887	0.217
887	0.216
888	0.215
888	0.214
889	0.213
889	0.213
890	0.213
890	0.212
890	0.212
891	0.211
891	0.211
892	0.211
892	0.211
893	0.211
893	0.211
893	0.211
894	0.211
894	0.211
895	0.211
895	0.211
895	0.211
896	0.211
896	0.212
897	0.212
897	0.212
898	0.212
898	0.212
898	0.212
899	0.211
899	0.211
900	0.211
900	0.21
901	0.209
901	0.209
901	0.208
902	0.208
902	0.207
903	0.206
903	0.206
904	0.206
904	0.205
904	0.205
905	0.204
905	0.204
906	0.204
906	0.204
907	0.204
907	0.204
907	0.204
908	0.204
908	0.204
909	0.204
909	0.204
910	0.204
910	0.204
910	0.203
911	0.203
911	0.203
912	0.202
912	0.202
913	0.202
913	0.202
913	0.202
914	0.202
914	0.201
915	0.202
915	0.201
916	0.201
916	0.201
916	0.201
917	0.201
917	0.2
918	0.2
918	0.2
918	0.199
919	0.199
919	0.198
920	0.198
920	0.198
921	0.197
921	0.197
921	0.197
922	0.196
922	0.196
923	0.196
923	0.197
924	0.197
924	0.197
924	0.198
925	0.198
925	0.199
926	0.199
926	0.2
927	0.2
927	0.2
927	0.2
928	0.2
928	0.2
929	0.2
929	0.199
930	0.199
930	0.198
930	0.197
931	0.197
931	0.196
932	0.196
932	0.195
933	0.195
933	0.195
933	0.195
934	0.194
934	0.194
935	0.194
935	0.193
935	0.193
936	0.192
936	0.192
937	0.192
937	0.191
938	0.19
938	0.19
938	0.189
939	0.188
939	0.187
940	0.187
940	0.186
941	0.186
941	0.185
941	0.185
942	0.185
942	0.185
943	0.185
943	0.185
944	0.185
944	0.185
944	0.185
945	0.185
945	0.185
946	0.185
946	0.185
946	0.185
947	0.186
947	0.185
948	0.185
948	0.185
949	0.185
949	0.184
949	0.184
950	0.183
950	0.183
951	0.182
951	0.182
952	0.181
952	0.181
952	0.18
953	0.18
953	0.18
954	0.18
954	0.179
955	0.179
955	0.179
955	0.179
956	0.179
956	0.179
957	0.178
957	0.178
957	0.178
958	0.177
958	0.177
959	0.176
959	0.176
960	0.175
960	0.175
960	0.174
961	0.174
961	0.174
962	0.173
962	0.173
963	0.173
963	0.173
963	0.173
964	0.173
964	0.173
965	0.174
965	0.174
966	0.174
966	0.174
966	0.174
967	0.174
967	0.174
968	0.174
968	0.174
968	0.174
969	0.173
969	0.172
970	0.172
970	0.171
971	0.17
971	0.17
971	0.169
972	0.169
972	0.168
973	0.168
973	0.168
974	0.168
974	0.168
974	0.168
975	0.168
975	0.168
976	0.169
976	0.169
976	0.169
977	0.169
977	0.169
978	0.169
978	0.169
979	0.168
979	0.168
979	0.168
980	0.167
980	0.167
981	0.166
981	0.165
982	0.164
982	0.164
982	0.163
983	0.163
983	0.163
984	0.162
984	0.162
984	0.162
985	0.162
985	0.162
986	0.161
986	0.161
987	0.161
987	0.161
987	0.161
988	0.161
988	0.16
989	0.16
989	0.159
990	0.159
990	0.158
990	0.157
991	0.157
991	0.156
992	0.155
992	0.153
992	0.152
993	0.151
993	0.15
994	0.149
994	0.148
995	0.147
995	0.146
995	0.146
996	0.146
996	0.146
997	0.146
997	0.147
997	0.147
998	0.148
998	0.148
999	0.149
999	0.15
1000	0.151
1000	0.152
1000	0.152
1001	0.153
1001	0.153
1002	0.152
1002	0.152
1003	0.152
1003	0.151
1003	0.15
1004	0.149
1004	0.148
1005	0.147
1005	0.147
1005	0.146
1006	0.145
1006	0.145
1007	0.144
1007	0.144
1008	0.144
1008	0.144
1008	0.144
1009	0.145
1009	0.145
1010	0.145
1010	0.146
1010	0.146
1011	0.145
1011	0.145
1012	0.145
1012	0.145
1013	0.145
1013	0.144
1013	0.143
1014	0.143
1014	0.142
1015	0.142
1015	0.142
1016	0.142
1016	0.142
1016	0.141
1017	0.141
1017	0.141
1018	0.141
1018	0.14
1018	0.14
1019	0.14
1019	0.14
1020	0.14
1020	0.14
1021	0.14
1021	0.14
1021	0.14
1022	0.141
1022	0.141
1023	0.141
1023	0.142
1023	0.142
1024	0.142
1024	0.142
1025	0.142
1025	0.142
1026	0.143
1026	0.143
1026	0.142
1027	0.142
1027	0.142
1028	0.142
1028	0.142
1028	0.142
1029	0.142
1029	0.142
1030	0.141
1030	0.141
1031	0.141
1031	0.141
1031	0.141
1032	0.141
1032	0.141
1033	0.141
1033	0.141
1033	0.141
1034	0.141
1034	0.14
1035	0.14
1035	0.139
1036	0.139
1036	0.139
1036	0.138
1037	0.138
1037	0.138
1038	0.138
1038	0.137
1039	0.137
1039	0.137
1039	0.137
1040	0.137
1040	0.137
1041	0.137
1041	0.137
1041	0.137
1042	0.136
1042	0.136
1043	0.136
1043	0.136
1044	0.135
1044	0.135
1044	0.135
1045	0.134
1045	0.134
1046	0.134
1046	0.134
1046	0.135
1047	0.135
1047	0.135
1048	0.135
1048	0.135
1049	0.135
1049	0.135
1049	0.134
1050	0.134
1050	0.133
1051	0.133
1051	0.132
1051	0.132
1052	0.131
1052	0.13
1053	0.129
1053	0.128
1053	0.127
1054	0.126
1054	0.126
1055	0.125
1055	0.125
1056	0.124
1056	0.124
1056	0.123
1057	0.122
1057	0.122
1058	0.121
1058	0.12
1058	0.119
1059	0.119
1059	0.118
1060	0.117
1060	0.117
1061	0.116
1061	0.116
1061	0.115
1062	0.115
1062	0.115
1063	0.114
1063	0.114
1063	0.114
1064	0.113
1064	0.113
1065	0.113
1065	0.112
1066	0.112
1066	0.112
1066	0.111
1067	0.111
1067	0.11
1068	0.11
1068	0.109
1068	0.109
1069	0.109
1069	0.108
1070	0.108
1070	0.107
1071	0.106
1071	0.106
1071	0.105
1072	0.105
1072	0.104
1073	0.103
1073	0.103
1073	0.102
1074	0.103
1074	0.103
1075	0.103
1075	0.103
1076	0.103
1076	0.104
1076	0.104
1077	0.105
1077	0.104
1078	0.104
1078	0.104
1078	0.104
1079	0.103
1079	0.103
1080	0.102
1080	0.102
1080	0.101
1081	0.1
1081	0.1
1082	0.1
1082	0.1
1083	0.1
1083	0.1
1083	0.1
1084	0.099
1084	0.1
1085	0.1
1085	0.1
1085	0.1
1086	0.1
1086	0.099
1087	0.099
1087	0.099
1088	0.098
1088	0.098
1088	0.098
1089	0.098
1089	0.097
1090	0.096
1090	0.095
1090	0.093
1091	0.093
1091	0.093
1092	0.092
1092	0.093
1092	0.093
1093	0.092
1093	0.092
1094	0.092
1094	0.092
1095	0.092
1095	0.091
1095	0.091
1096	0.09
1096	0.089
1097	0.089
1097	0.088
1097	0.087
1098	0.086
1098	0.085
1099	0.084
1099	0.082
1100	0.081
1100	0.08
1100	0.078
1101	0.077
1101	0.076
1102	0.074
1102	0.072
1102	0.07
1103	0.07
1103	0.069
1104	0.068
1104	0.068
1104	0.067
1105	0.066
1105	0.064
1106	0.062
1106	0.061
1107	0.061
1107	0.061
1107	0.059
1108	0.058
1108	0.057
1109	0.055
1109	0.054
1109	0.053
1110	0.055
1110	0.055
1111	0.056
1111	0.053
