Data from reversibility-20sec_Absorbance__2557__000000000002557.txt Node

Date: Wed Dec 06 02:25:26 CET 2023
User: Marek
Spectrometer: MAYP115816
Trigger mode: 0
Integration Time (sec): 2.000000E-1
Scans to average: 10
Electric dark correction enabled: true
Nonlinearity correction enabled: true
Boxcar width: 5
XAxis mode: Wavelengths
Number of Pixels in Spectrum: 2068
>>>>>Begin Spectral Data<<<<<
199	-0.122
199	-0.104
200	-0.036
200	0.017
201	0.043
201	0.059
202	0.069
202	0.079
203	0.088
203	0.09
204	0.102
204	0.115
205	0.128
205	0.135
205	0.135
206	0.136
206	0.134
207	0.138
207	0.138
208	0.136
208	0.14
209	0.142
209	0.142
210	0.143
210	0.144
211	0.142
211	0.145
212	0.144
212	0.144
213	0.146
213	0.148
213	0.146
214	0.152
214	0.152
215	0.153
215	0.151
216	0.152
216	0.149
217	0.154
217	0.157
218	0.157
218	0.16
219	0.165
219	0.166
220	0.167
220	0.167
221	0.167
221	0.173
221	0.177
222	0.181
222	0.184
223	0.19
223	0.192
224	0.196
224	0.203
225	0.212
225	0.223
226	0.235
226	0.243
227	0.255
227	0.267
228	0.282
228	0.295
229	0.311
229	0.335
229	0.357
230	0.383
230	0.41
231	0.44
231	0.48
232	0.516
232	0.558
233	0.602
233	0.654
234	0.707
234	0.76
235	0.81
235	0.864
236	0.918
236	0.973
236	1.027
237	1.08
237	1.13
238	1.179
238	1.224
239	1.274
239	1.32
240	1.367
240	1.404
241	1.445
241	1.482
242	1.517
242	1.558
243	1.595
243	1.624
243	1.656
244	1.679
244	1.702
245	1.72
245	1.747
246	1.766
246	1.785
247	1.799
247	1.811
248	1.828
248	1.845
249	1.856
249	1.863
250	1.874
250	1.885
250	1.89
251	1.897
251	1.901
252	1.908
252	1.911
253	1.912
253	1.91
254	1.908
254	1.912
255	1.909
255	1.911
256	1.911
256	1.91
257	1.911
257	1.91
258	1.91
258	1.909
258	1.911
259	1.913
259	1.916
260	1.916
260	1.918
261	1.921
261	1.925
262	1.93
262	1.933
263	1.939
263	1.943
264	1.945
264	1.947
265	1.949
265	1.951
265	1.953
266	1.954
266	1.956
267	1.955
267	1.956
268	1.955
268	1.957
269	1.96
269	1.96
270	1.962
270	1.962
271	1.961
271	1.96
272	1.958
272	1.957
272	1.952
273	1.946
273	1.937
274	1.929
274	1.922
275	1.912
275	1.905
276	1.896
276	1.889
277	1.88
277	1.871
278	1.859
278	1.844
278	1.829
279	1.808
279	1.783
280	1.752
280	1.713
281	1.669
281	1.62
282	1.571
282	1.521
283	1.473
283	1.427
284	1.383
284	1.341
285	1.303
285	1.269
285	1.238
286	1.211
286	1.188
287	1.167
287	1.15
288	1.135
288	1.123
289	1.112
289	1.103
290	1.095
290	1.088
291	1.082
291	1.077
292	1.072
292	1.068
292	1.064
293	1.06
293	1.057
294	1.054
294	1.051
295	1.048
295	1.045
296	1.043
296	1.04
297	1.037
297	1.034
298	1.031
298	1.029
298	1.026
299	1.024
299	1.021
300	1.018
300	1.015
301	1.013
301	1.01
302	1.008
302	1.006
303	1.004
303	1.001
304	0.999
304	0.996
305	0.994
305	0.992
305	0.99
306	0.987
306	0.985
307	0.983
307	0.98
308	0.978
308	0.976
309	0.973
309	0.971
310	0.968
310	0.965
311	0.962
311	0.959
311	0.955
312	0.952
312	0.949
313	0.945
313	0.941
314	0.937
314	0.933
315	0.929
315	0.924
316	0.92
316	0.916
317	0.911
317	0.906
318	0.901
318	0.896
318	0.891
319	0.886
319	0.88
320	0.874
320	0.868
321	0.862
321	0.856
322	0.85
322	0.844
323	0.837
323	0.83
324	0.824
324	0.817
324	0.81
325	0.803
325	0.796
326	0.789
326	0.782
327	0.775
327	0.769
328	0.762
328	0.755
329	0.748
329	0.741
330	0.733
330	0.726
330	0.719
331	0.712
331	0.705
332	0.698
332	0.691
333	0.684
333	0.676
334	0.67
334	0.663
335	0.656
335	0.649
336	0.642
336	0.636
336	0.629
337	0.623
337	0.616
338	0.61
338	0.604
339	0.598
339	0.591
340	0.586
340	0.58
341	0.574
341	0.569
342	0.563
342	0.558
342	0.552
343	0.547
343	0.542
344	0.537
344	0.532
345	0.527
345	0.522
346	0.517
346	0.513
347	0.508
347	0.504
348	0.499
348	0.496
348	0.492
349	0.488
349	0.484
350	0.48
350	0.477
351	0.473
351	0.47
352	0.467
352	0.464
353	0.461
353	0.458
354	0.455
354	0.452
354	0.449
355	0.446
355	0.443
356	0.44
356	0.438
357	0.434
357	0.432
358	0.429
358	0.426
359	0.424
359	0.421
360	0.419
360	0.417
360	0.415
361	0.413
361	0.411
362	0.41
362	0.408
363	0.406
363	0.404
364	0.402
364	0.4
365	0.399
365	0.397
366	0.395
366	0.393
366	0.391
367	0.39
367	0.388
368	0.386
368	0.385
369	0.383
369	0.382
370	0.38
370	0.379
371	0.377
371	0.376
372	0.375
372	0.373
372	0.372
373	0.371
373	0.37
374	0.369
374	0.368
375	0.367
375	0.366
376	0.365
376	0.364
377	0.363
377	0.362
378	0.361
378	0.359
378	0.358
379	0.358
379	0.357
380	0.356
380	0.355
381	0.354
381	0.354
382	0.353
382	0.352
383	0.352
383	0.351
383	0.35
384	0.35
384	0.349
385	0.348
385	0.348
386	0.347
386	0.346
387	0.346
387	0.345
388	0.345
388	0.344
389	0.344
389	0.343
389	0.343
390	0.342
390	0.342
391	0.341
391	0.341
392	0.341
392	0.34
393	0.34
393	0.339
394	0.339
394	0.338
394	0.338
395	0.338
395	0.337
396	0.337
396	0.336
397	0.336
397	0.335
398	0.335
398	0.334
399	0.334
399	0.333
400	0.333
400	0.333
400	0.332
401	0.332
401	0.332
402	0.331
402	0.331
403	0.331
403	0.33
404	0.33
404	0.329
405	0.329
405	0.329
405	0.328
406	0.328
406	0.327
407	0.327
407	0.327
408	0.326
408	0.326
409	0.326
409	0.325
410	0.325
410	0.324
411	0.324
411	0.324
411	0.323
412	0.323
412	0.323
413	0.322
413	0.322
414	0.322
414	0.321
415	0.321
415	0.321
416	0.32
416	0.32
416	0.32
417	0.319
417	0.319
418	0.319
418	0.318
419	0.318
419	0.318
420	0.317
420	0.317
421	0.316
421	0.316
421	0.315
422	0.315
422	0.315
423	0.314
423	0.314
424	0.313
424	0.313
425	0.313
425	0.313
426	0.312
426	0.312
427	0.312
427	0.311
427	0.311
428	0.311
428	0.31
429	0.31
429	0.31
430	0.309
430	0.309
431	0.309
431	0.309
432	0.309
432	0.309
432	0.308
433	0.308
433	0.307
434	0.307
434	0.307
435	0.307
435	0.307
436	0.307
436	0.307
437	0.307
437	0.306
437	0.306
438	0.306
438	0.306
439	0.306
439	0.305
440	0.305
440	0.304
441	0.304
441	0.303
442	0.303
442	0.303
442	0.303
443	0.302
443	0.302
444	0.302
444	0.302
445	0.302
445	0.301
446	0.301
446	0.301
447	0.3
447	0.3
447	0.3
448	0.3
448	0.3
449	0.3
449	0.3
450	0.3
450	0.299
451	0.299
451	0.299
452	0.299
452	0.299
452	0.299
453	0.299
453	0.298
454	0.298
454	0.298
455	0.297
455	0.297
456	0.297
456	0.297
457	0.296
457	0.296
458	0.296
458	0.296
458	0.296
459	0.296
459	0.296
460	0.296
460	0.296
461	0.295
461	0.295
462	0.295
462	0.295
463	0.295
463	0.295
463	0.294
464	0.294
464	0.294
465	0.294
465	0.294
466	0.294
466	0.294
467	0.294
467	0.294
467	0.293
468	0.293
468	0.294
469	0.294
469	0.294
470	0.294
470	0.294
471	0.295
471	0.295
472	0.295
472	0.295
472	0.295
473	0.295
473	0.295
474	0.295
474	0.295
475	0.295
475	0.295
476	0.295
476	0.295
477	0.295
477	0.295
477	0.295
478	0.295
478	0.295
479	0.295
479	0.295
480	0.295
480	0.296
481	0.296
481	0.296
482	0.296
482	0.296
482	0.297
483	0.297
483	0.298
484	0.298
484	0.298
485	0.298
485	0.299
486	0.299
486	0.299
487	0.3
487	0.3
487	0.3
488	0.3
488	0.301
489	0.301
489	0.302
490	0.303
490	0.304
491	0.304
491	0.305
492	0.306
492	0.306
492	0.307
493	0.308
493	0.308
494	0.309
494	0.31
495	0.31
495	0.311
496	0.312
496	0.312
496	0.313
497	0.313
497	0.314
498	0.315
498	0.315
499	0.316
499	0.316
500	0.317
500	0.319
501	0.319
501	0.32
501	0.321
502	0.322
502	0.322
503	0.323
503	0.324
504	0.324
504	0.325
505	0.325
505	0.326
506	0.326
506	0.327
506	0.327
507	0.328
507	0.329
508	0.329
508	0.33
509	0.331
509	0.331
510	0.332
510	0.333
511	0.334
511	0.334
511	0.335
512	0.336
512	0.337
513	0.337
513	0.338
514	0.338
514	0.339
515	0.34
515	0.34
515	0.34
516	0.341
516	0.341
517	0.342
517	0.342
518	0.343
518	0.343
519	0.344
519	0.344
520	0.344
520	0.345
520	0.345
521	0.345
521	0.345
522	0.346
522	0.346
523	0.346
523	0.346
524	0.346
524	0.346
524	0.346
525	0.346
525	0.345
526	0.345
526	0.345
527	0.345
527	0.344
528	0.344
528	0.344
529	0.344
529	0.344
529	0.344
530	0.343
530	0.343
531	0.343
531	0.342
532	0.342
532	0.341
533	0.341
533	0.34
533	0.34
534	0.339
534	0.339
535	0.338
535	0.338
536	0.337
536	0.337
537	0.336
537	0.336
538	0.335
538	0.335
538	0.334
539	0.333
539	0.332
540	0.332
540	0.331
541	0.33
541	0.33
542	0.329
542	0.328
542	0.328
543	0.327
543	0.327
544	0.326
544	0.325
545	0.324
545	0.324
546	0.323
546	0.322
547	0.321
547	0.32
547	0.319
548	0.319
548	0.318
549	0.317
549	0.316
550	0.315
550	0.314
551	0.313
551	0.312
551	0.312
552	0.311
552	0.31
553	0.309
553	0.309
554	0.308
554	0.307
555	0.306
555	0.305
556	0.304
556	0.303
556	0.302
557	0.302
557	0.301
558	0.3
558	0.3
559	0.299
559	0.299
560	0.298
560	0.297
560	0.296
561	0.296
561	0.295
562	0.294
562	0.293
563	0.292
563	0.291
564	0.29
564	0.289
564	0.288
565	0.288
565	0.287
566	0.286
566	0.285
567	0.285
567	0.284
568	0.284
568	0.283
568	0.282
569	0.282
569	0.281
570	0.28
570	0.279
571	0.278
571	0.277
572	0.276
572	0.276
573	0.276
573	0.275
573	0.274
574	0.274
574	0.273
575	0.273
575	0.273
576	0.272
576	0.271
577	0.27
577	0.27
577	0.269
578	0.268
578	0.268
579	0.267
579	0.267
580	0.266
580	0.265
581	0.264
581	0.264
581	0.263
582	0.263
582	0.263
583	0.263
583	0.262
584	0.261
584	0.26
585	0.259
585	0.259
585	0.258
586	0.258
586	0.257
587	0.256
587	0.255
588	0.254
588	0.254
589	0.253
589	0.253
590	0.253
590	0.253
590	0.253
591	0.253
591	0.252
592	0.251
592	0.25
593	0.25
593	0.249
594	0.248
594	0.248
594	0.247
595	0.247
595	0.246
596	0.245
596	0.246
597	0.246
597	0.247
598	0.246
598	0.246
598	0.246
599	0.245
599	0.245
600	0.244
600	0.244
601	0.243
601	0.243
602	0.242
602	0.241
602	0.241
603	0.24
603	0.24
604	0.24
604	0.24
605	0.24
605	0.24
606	0.239
606	0.238
606	0.238
607	0.238
607	0.237
608	0.237
608	0.236
609	0.235
609	0.235
610	0.234
610	0.233
610	0.233
611	0.233
611	0.233
612	0.233
612	0.233
613	0.233
613	0.233
614	0.233
614	0.232
614	0.233
615	0.232
615	0.232
616	0.232
616	0.232
617	0.232
617	0.231
618	0.231
618	0.231
618	0.231
619	0.231
619	0.231
620	0.231
620	0.231
621	0.23
621	0.23
622	0.229
622	0.229
622	0.228
623	0.228
623	0.227
624	0.227
624	0.226
625	0.225
625	0.225
626	0.225
626	0.224
626	0.224
627	0.224
627	0.224
628	0.224
628	0.224
629	0.223
629	0.223
630	0.223
630	0.223
630	0.223
631	0.223
631	0.223
632	0.223
632	0.222
633	0.222
633	0.222
634	0.222
634	0.222
634	0.222
635	0.221
635	0.221
636	0.221
636	0.221
637	0.22
637	0.22
638	0.22
638	0.219
638	0.219
639	0.218
639	0.218
640	0.218
640	0.218
641	0.217
641	0.217
642	0.217
642	0.217
642	0.218
643	0.218
643	0.218
644	0.218
644	0.218
645	0.218
645	0.218
646	0.218
646	0.217
646	0.217
647	0.216
647	0.216
648	0.215
648	0.215
649	0.215
649	0.215
650	0.215
650	0.215
650	0.215
651	0.215
651	0.215
652	0.215
652	0.215
653	0.216
653	0.218
653	0.224
654	0.174
654	0.139
655	0.14
655	0.141
656	0.141
656	0.141
657	0.142
657	0.142
657	0.142
658	0.141
658	0.129
659	0.164
659	0.212
660	0.217
660	0.217
661	0.216
661	0.216
661	0.215
662	0.214
662	0.214
663	0.213
663	0.213
664	0.213
664	0.213
665	0.213
665	0.213
665	0.213
666	0.214
666	0.214
667	0.214
667	0.215
668	0.215
668	0.216
669	0.216
669	0.216
669	0.216
670	0.217
670	0.216
671	0.216
671	0.216
672	0.215
672	0.215
672	0.214
673	0.214
673	0.214
674	0.214
674	0.214
675	0.213
675	0.213
676	0.213
676	0.214
676	0.214
677	0.214
677	0.214
678	0.214
678	0.214
679	0.213
679	0.213
680	0.213
680	0.213
680	0.213
681	0.213
681	0.214
682	0.214
682	0.214
683	0.214
683	0.215
684	0.215
684	0.215
684	0.214
685	0.215
685	0.215
686	0.215
686	0.215
687	0.215
687	0.214
687	0.214
688	0.214
688	0.214
689	0.214
689	0.215
690	0.214
690	0.214
691	0.214
691	0.215
691	0.215
692	0.215
692	0.216
693	0.216
693	0.217
694	0.216
694	0.216
695	0.217
695	0.217
695	0.217
696	0.217
696	0.216
697	0.216
697	0.216
698	0.215
698	0.215
698	0.215
699	0.215
699	0.214
700	0.214
700	0.214
701	0.215
701	0.215
702	0.215
702	0.215
702	0.215
703	0.215
703	0.215
704	0.215
704	0.216
705	0.216
705	0.216
705	0.215
706	0.215
706	0.215
707	0.215
707	0.215
708	0.215
708	0.215
709	0.215
709	0.215
709	0.214
710	0.214
710	0.214
711	0.215
711	0.215
712	0.215
712	0.215
713	0.215
713	0.215
713	0.215
714	0.215
714	0.216
715	0.216
715	0.215
716	0.215
716	0.215
716	0.214
717	0.214
717	0.213
718	0.213
718	0.212
719	0.212
719	0.212
720	0.213
720	0.213
720	0.213
721	0.213
721	0.214
722	0.214
722	0.215
723	0.215
723	0.216
723	0.216
724	0.216
724	0.216
725	0.216
725	0.216
726	0.215
726	0.215
727	0.214
727	0.214
727	0.214
728	0.213
728	0.213
729	0.213
729	0.213
730	0.214
730	0.214
730	0.215
731	0.215
731	0.216
732	0.217
732	0.217
733	0.217
733	0.217
734	0.217
734	0.217
734	0.217
735	0.217
735	0.216
736	0.215
736	0.215
737	0.214
737	0.213
737	0.213
738	0.212
738	0.212
739	0.211
739	0.211
740	0.211
740	0.211
741	0.212
741	0.212
741	0.212
742	0.213
742	0.213
743	0.214
743	0.215
744	0.215
744	0.215
744	0.215
745	0.215
745	0.215
746	0.215
746	0.215
747	0.215
747	0.215
748	0.216
748	0.216
748	0.217
749	0.217
749	0.218
750	0.219
750	0.219
751	0.219
751	0.22
751	0.22
752	0.22
752	0.219
753	0.219
753	0.218
754	0.218
754	0.217
754	0.217
755	0.217
755	0.216
756	0.216
756	0.214
757	0.214
757	0.214
758	0.214
758	0.214
758	0.214
759	0.214
759	0.214
760	0.214
760	0.214
761	0.215
761	0.216
761	0.217
762	0.218
762	0.218
763	0.219
763	0.219
764	0.22
764	0.22
764	0.22
765	0.22
765	0.22
766	0.22
766	0.22
767	0.22
767	0.219
768	0.218
768	0.218
768	0.218
769	0.217
769	0.217
770	0.217
770	0.217
771	0.217
771	0.217
771	0.217
772	0.217
772	0.218
773	0.218
773	0.218
774	0.219
774	0.219
775	0.22
775	0.22
775	0.22
776	0.22
776	0.221
777	0.221
777	0.221
778	0.221
778	0.22
778	0.22
779	0.22
779	0.219
780	0.219
780	0.218
781	0.218
781	0.218
781	0.218
782	0.218
782	0.218
783	0.218
783	0.218
784	0.218
784	0.218
784	0.218
785	0.218
785	0.218
786	0.218
786	0.218
787	0.218
787	0.218
788	0.218
788	0.218
788	0.218
789	0.218
789	0.218
790	0.219
790	0.219
791	0.219
791	0.219
791	0.219
792	0.22
792	0.22
793	0.22
793	0.221
794	0.22
794	0.22
794	0.22
795	0.221
795	0.221
796	0.221
796	0.221
797	0.221
797	0.221
797	0.221
798	0.221
798	0.221
799	0.221
799	0.22
800	0.22
800	0.219
801	0.219
801	0.218
801	0.218
802	0.218
802	0.218
803	0.218
803	0.218
804	0.218
804	0.218
804	0.219
805	0.219
805	0.219
806	0.219
806	0.22
807	0.22
807	0.22
807	0.22
808	0.22
808	0.22
809	0.219
809	0.22
810	0.22
810	0.22
810	0.22
811	0.22
811	0.221
812	0.221
812	0.222
813	0.222
813	0.222
813	0.222
814	0.222
814	0.222
815	0.222
815	0.222
816	0.222
816	0.221
817	0.22
817	0.22
817	0.219
818	0.219
818	0.219
819	0.219
819	0.219
820	0.218
820	0.218
820	0.218
821	0.218
821	0.218
822	0.218
822	0.218
823	0.219
823	0.219
823	0.219
824	0.22
824	0.221
825	0.221
825	0.222
826	0.222
826	0.221
826	0.221
827	0.221
827	0.221
828	0.221
828	0.22
829	0.219
829	0.219
829	0.218
830	0.218
830	0.218
831	0.219
831	0.219
832	0.219
832	0.22
832	0.22
833	0.22
833	0.22
834	0.22
834	0.22
835	0.22
835	0.219
835	0.219
836	0.219
836	0.219
837	0.219
837	0.219
838	0.219
838	0.219
839	0.218
839	0.217
839	0.217
840	0.216
840	0.214
841	0.213
841	0.212
842	0.211
842	0.21
842	0.209
843	0.209
843	0.208
844	0.208
844	0.208
845	0.208
845	0.207
845	0.208
846	0.208
846	0.208
847	0.208
847	0.208
848	0.208
848	0.208
848	0.209
849	0.209
849	0.209
850	0.209
850	0.208
851	0.208
851	0.208
851	0.208
852	0.207
852	0.207
853	0.206
853	0.206
854	0.206
854	0.206
854	0.206
855	0.207
855	0.207
856	0.208
856	0.208
857	0.209
857	0.209
857	0.209
858	0.21
858	0.209
859	0.209
859	0.208
860	0.207
860	0.207
860	0.206
861	0.204
861	0.203
862	0.202
862	0.201
863	0.2
863	0.199
863	0.199
864	0.198
864	0.197
865	0.197
865	0.197
866	0.197
866	0.196
866	0.196
867	0.196
867	0.197
868	0.196
868	0.196
869	0.196
869	0.196
869	0.195
870	0.195
870	0.195
871	0.195
871	0.194
872	0.194
872	0.194
872	0.194
873	0.194
873	0.193
874	0.192
874	0.192
875	0.191
875	0.191
875	0.19
876	0.19
876	0.19
877	0.189
877	0.189
878	0.189
878	0.19
878	0.19
879	0.191
879	0.192
880	0.192
880	0.192
881	0.192
881	0.192
881	0.192
882	0.192
882	0.192
883	0.191
883	0.191
884	0.191
884	0.19
884	0.189
885	0.189
885	0.188
886	0.187
886	0.186
887	0.186
887	0.185
887	0.184
888	0.183
888	0.183
889	0.182
889	0.182
890	0.181
890	0.181
890	0.181
891	0.18
891	0.18
892	0.18
892	0.18
893	0.18
893	0.18
893	0.18
894	0.18
894	0.179
895	0.179
895	0.179
895	0.178
896	0.178
896	0.177
897	0.177
897	0.176
898	0.175
898	0.175
898	0.174
899	0.174
899	0.173
900	0.173
900	0.173
901	0.173
901	0.173
901	0.172
902	0.172
902	0.172
903	0.171
903	0.171
904	0.171
904	0.17
904	0.17
905	0.17
905	0.17
906	0.169
906	0.17
907	0.17
907	0.171
907	0.171
908	0.171
908	0.172
909	0.172
909	0.172
910	0.172
910	0.171
910	0.171
911	0.17
911	0.17
912	0.169
912	0.169
913	0.168
913	0.167
913	0.167
914	0.166
914	0.166
915	0.166
915	0.165
916	0.165
916	0.165
916	0.164
917	0.164
917	0.163
918	0.162
918	0.162
918	0.161
919	0.16
919	0.16
920	0.159
920	0.158
921	0.157
921	0.156
921	0.155
922	0.155
922	0.154
923	0.154
923	0.153
924	0.153
924	0.153
924	0.153
925	0.153
925	0.153
926	0.154
926	0.154
927	0.154
927	0.154
927	0.154
928	0.154
928	0.155
929	0.155
929	0.155
930	0.154
930	0.155
930	0.154
931	0.154
931	0.155
932	0.155
932	0.155
933	0.155
933	0.155
933	0.154
934	0.154
934	0.154
935	0.153
935	0.153
935	0.152
936	0.152
936	0.151
937	0.151
937	0.15
938	0.149
938	0.149
938	0.148
939	0.148
939	0.148
940	0.147
940	0.147
941	0.147
941	0.146
941	0.146
942	0.146
942	0.146
943	0.146
943	0.146
944	0.146
944	0.146
944	0.146
945	0.146
945	0.146
946	0.146
946	0.146
946	0.146
947	0.146
947	0.146
948	0.146
948	0.146
949	0.145
949	0.145
949	0.145
950	0.144
950	0.144
951	0.143
951	0.142
952	0.14
952	0.139
952	0.138
953	0.137
953	0.136
954	0.135
954	0.134
955	0.133
955	0.133
955	0.132
956	0.132
956	0.132
957	0.132
957	0.132
957	0.132
958	0.132
958	0.132
959	0.132
959	0.132
960	0.131
960	0.131
960	0.131
961	0.131
961	0.13
962	0.13
962	0.129
963	0.129
963	0.129
963	0.129
964	0.129
964	0.129
965	0.129
965	0.13
966	0.13
966	0.131
966	0.131
967	0.132
967	0.132
968	0.133
968	0.133
968	0.134
969	0.134
969	0.134
970	0.134
970	0.134
971	0.133
971	0.133
971	0.133
972	0.133
972	0.133
973	0.132
973	0.132
974	0.132
974	0.132
974	0.132
975	0.132
975	0.132
976	0.132
976	0.132
976	0.132
977	0.132
977	0.132
978	0.132
978	0.132
979	0.132
979	0.131
979	0.131
980	0.131
980	0.13
981	0.13
981	0.129
982	0.129
982	0.128
982	0.128
983	0.127
983	0.126
984	0.125
984	0.125
984	0.124
985	0.123
985	0.122
986	0.121
986	0.121
987	0.12
987	0.119
987	0.119
988	0.119
988	0.118
989	0.118
989	0.118
990	0.117
990	0.117
990	0.117
991	0.116
991	0.116
992	0.115
992	0.115
992	0.114
993	0.113
993	0.113
994	0.112
994	0.111
995	0.111
995	0.111
995	0.11
996	0.111
996	0.111
997	0.111
997	0.112
997	0.112
998	0.113
998	0.114
999	0.114
999	0.115
1000	0.116
1000	0.116
1000	0.116
1001	0.116
1001	0.116
1002	0.116
1002	0.116
1003	0.115
1003	0.115
1003	0.114
1004	0.113
1004	0.112
1005	0.111
1005	0.11
1005	0.109
1006	0.108
1006	0.108
1007	0.107
1007	0.107
1008	0.107
1008	0.107
1008	0.107
1009	0.107
1009	0.107
1010	0.108
1010	0.108
1010	0.108
1011	0.108
1011	0.108
1012	0.109
1012	0.109
1013	0.109
1013	0.108
1013	0.108
1014	0.108
1014	0.108
1015	0.108
1015	0.108
1016	0.108
1016	0.107
1016	0.107
1017	0.106
1017	0.106
1018	0.106
1018	0.105
1018	0.105
1019	0.105
1019	0.104
1020	0.104
1020	0.104
1021	0.104
1021	0.104
1021	0.104
1022	0.105
1022	0.104
1023	0.104
1023	0.104
1023	0.104
1024	0.104
1024	0.104
1025	0.104
1025	0.103
1026	0.103
1026	0.102
1026	0.102
1027	0.101
1027	0.101
1028	0.1
1028	0.1
1028	0.1
1029	0.099
1029	0.099
1030	0.099
1030	0.099
1031	0.099
1031	0.1
1031	0.1
1032	0.1
1032	0.1
1033	0.1
1033	0.1
1033	0.1
1034	0.1
1034	0.1
1035	0.1
1035	0.1
1036	0.099
1036	0.099
1036	0.099
1037	0.099
1037	0.099
1038	0.099
1038	0.099
1039	0.099
1039	0.1
1039	0.1
1040	0.1
1040	0.101
1041	0.101
1041	0.101
1041	0.101
1042	0.102
1042	0.102
1043	0.102
1043	0.103
1044	0.103
1044	0.103
1044	0.103
1045	0.104
1045	0.104
1046	0.104
1046	0.105
1046	0.105
1047	0.105
1047	0.106
1048	0.106
1048	0.107
1049	0.107
1049	0.107
1049	0.108
1050	0.108
1050	0.108
1051	0.108
1051	0.108
1051	0.108
1052	0.107
1052	0.107
1053	0.105
1053	0.104
1053	0.103
1054	0.103
1054	0.102
1055	0.101
1055	0.1
1056	0.099
1056	0.098
1056	0.097
1057	0.096
1057	0.095
1058	0.094
1058	0.093
1058	0.092
1059	0.091
1059	0.09
1060	0.089
1060	0.089
1061	0.088
1061	0.088
1061	0.088
1062	0.087
1062	0.087
1063	0.087
1063	0.087
1063	0.087
1064	0.086
1064	0.086
1065	0.085
1065	0.085
1066	0.085
1066	0.084
1066	0.084
1067	0.083
1067	0.083
1068	0.082
1068	0.082
1068	0.083
1069	0.082
1069	0.082
1070	0.081
1070	0.081
1071	0.08
1071	0.08
1071	0.079
1072	0.079
1072	0.078
1073	0.077
1073	0.076
1073	0.076
1074	0.076
1074	0.076
1075	0.076
1075	0.076
1076	0.076
1076	0.077
1076	0.077
1077	0.078
1077	0.078
1078	0.078
1078	0.078
1078	0.079
1079	0.079
1079	0.079
1080	0.079
1080	0.08
1080	0.08
1081	0.08
1081	0.08
1082	0.08
1082	0.081
1083	0.081
1083	0.081
1083	0.081
1084	0.08
1084	0.08
1085	0.08
1085	0.08
1085	0.08
1086	0.079
1086	0.078
1087	0.077
1087	0.077
1088	0.076
1088	0.075
1088	0.075
1089	0.074
1089	0.073
1090	0.072
1090	0.071
1090	0.07
1091	0.07
1091	0.069
1092	0.069
1092	0.069
1092	0.069
1093	0.067
1093	0.068
1094	0.068
1094	0.067
1095	0.067
1095	0.067
1095	0.067
1096	0.067
1096	0.067
1097	0.067
1097	0.066
1097	0.066
1098	0.066
1098	0.065
1099	0.065
1099	0.065
1100	0.064
1100	0.064
1100	0.062
1101	0.061
1101	0.061
1102	0.06
1102	0.06
1102	0.058
1103	0.058
1103	0.058
1104	0.057
1104	0.057
1104	0.056
1105	0.056
1105	0.054
1106	0.052
1106	0.05
1107	0.049
1107	0.048
1107	0.047
1108	0.046
1108	0.045
1109	0.042
1109	0.041
1109	0.04
1110	0.043
1110	0.042
1111	0.043
1111	0.044
