Data from reversibility-20sec_Absorbance__6574__000000000006574.txt Node

Date: Thu Dec 07 00:44:26 CET 2023
User: Marek
Spectrometer: MAYP115816
Trigger mode: 0
Integration Time (sec): 2.000000E-1
Scans to average: 10
Electric dark correction enabled: true
Nonlinearity correction enabled: true
Boxcar width: 5
XAxis mode: Wavelengths
Number of Pixels in Spectrum: 2068
>>>>>Begin Spectral Data<<<<<
199	-0.175
199	-0.132
200	-0.066
200	-0.022
201	0.004
201	0.021
202	0.031
202	0.042
203	0.048
203	0.053
204	0.065
204	0.08
205	0.087
205	0.092
205	0.092
206	0.09
206	0.089
207	0.091
207	0.09
208	0.09
208	0.087
209	0.088
209	0.084
210	0.086
210	0.086
211	0.087
211	0.091
212	0.09
212	0.094
213	0.095
213	0.098
213	0.098
214	0.105
214	0.107
215	0.109
215	0.109
216	0.11
216	0.11
217	0.114
217	0.114
218	0.112
218	0.117
219	0.123
219	0.12
220	0.125
220	0.123
221	0.126
221	0.13
221	0.135
222	0.139
222	0.144
223	0.151
223	0.155
224	0.16
224	0.17
225	0.178
225	0.191
226	0.202
226	0.213
227	0.222
227	0.232
228	0.247
228	0.26
229	0.279
229	0.301
229	0.324
230	0.349
230	0.375
231	0.405
231	0.44
232	0.477
232	0.518
233	0.563
233	0.612
234	0.663
234	0.715
235	0.772
235	0.824
236	0.876
236	0.927
236	0.981
237	1.034
237	1.083
238	1.129
238	1.178
239	1.221
239	1.262
240	1.298
240	1.335
241	1.372
241	1.408
242	1.437
242	1.47
243	1.498
243	1.524
243	1.546
244	1.567
244	1.587
245	1.604
245	1.626
246	1.644
246	1.661
247	1.675
247	1.689
248	1.704
248	1.718
249	1.729
249	1.736
250	1.746
250	1.754
250	1.757
251	1.763
251	1.768
252	1.775
252	1.777
253	1.778
253	1.777
254	1.777
254	1.78
255	1.779
255	1.778
256	1.78
256	1.777
257	1.775
257	1.773
258	1.772
258	1.772
258	1.772
259	1.771
259	1.77
260	1.769
260	1.77
261	1.771
261	1.774
262	1.776
262	1.777
263	1.779
263	1.78
264	1.781
264	1.784
265	1.784
265	1.787
265	1.785
266	1.785
266	1.784
267	1.782
267	1.783
268	1.782
268	1.781
269	1.784
269	1.781
270	1.781
270	1.78
271	1.779
271	1.778
272	1.777
272	1.777
272	1.774
273	1.77
273	1.765
274	1.759
274	1.754
275	1.747
275	1.742
276	1.734
276	1.728
277	1.721
277	1.71
278	1.699
278	1.688
278	1.676
279	1.661
279	1.645
280	1.625
280	1.6
281	1.572
281	1.539
282	1.502
282	1.466
283	1.429
283	1.391
284	1.354
284	1.319
285	1.285
285	1.253
285	1.224
286	1.198
286	1.175
287	1.155
287	1.138
288	1.123
288	1.11
289	1.099
289	1.089
290	1.08
290	1.072
291	1.065
291	1.059
292	1.053
292	1.048
292	1.043
293	1.039
293	1.035
294	1.031
294	1.027
295	1.024
295	1.02
296	1.017
296	1.013
297	1.01
297	1.007
298	1.004
298	1
298	0.997
299	0.994
299	0.991
300	0.988
300	0.984
301	0.981
301	0.978
302	0.975
302	0.972
303	0.97
303	0.967
304	0.964
304	0.962
305	0.959
305	0.957
305	0.954
306	0.951
306	0.948
307	0.946
307	0.943
308	0.941
308	0.937
309	0.935
309	0.931
310	0.928
310	0.925
311	0.922
311	0.919
311	0.916
312	0.912
312	0.908
313	0.904
313	0.901
314	0.897
314	0.892
315	0.888
315	0.883
316	0.879
316	0.874
317	0.869
317	0.865
318	0.86
318	0.854
318	0.849
319	0.844
319	0.838
320	0.833
320	0.827
321	0.821
321	0.815
322	0.808
322	0.802
323	0.795
323	0.789
324	0.783
324	0.776
324	0.769
325	0.762
325	0.756
326	0.749
326	0.742
327	0.735
327	0.728
328	0.721
328	0.714
329	0.707
329	0.7
330	0.693
330	0.686
330	0.679
331	0.672
331	0.665
332	0.658
332	0.651
333	0.644
333	0.637
334	0.631
334	0.624
335	0.617
335	0.61
336	0.604
336	0.597
336	0.591
337	0.584
337	0.578
338	0.572
338	0.566
339	0.56
339	0.554
340	0.548
340	0.542
341	0.536
341	0.531
342	0.525
342	0.52
342	0.515
343	0.509
343	0.504
344	0.499
344	0.494
345	0.489
345	0.485
346	0.48
346	0.476
347	0.471
347	0.467
348	0.463
348	0.459
348	0.455
349	0.451
349	0.448
350	0.444
350	0.44
351	0.437
351	0.434
352	0.43
352	0.427
353	0.424
353	0.421
354	0.418
354	0.415
354	0.412
355	0.409
355	0.406
356	0.403
356	0.4
357	0.396
357	0.394
358	0.391
358	0.388
359	0.386
359	0.384
360	0.382
360	0.38
360	0.378
361	0.376
361	0.374
362	0.372
362	0.371
363	0.369
363	0.367
364	0.365
364	0.363
365	0.361
365	0.359
366	0.358
366	0.356
366	0.354
367	0.353
367	0.351
368	0.349
368	0.347
369	0.346
369	0.344
370	0.343
370	0.341
371	0.34
371	0.338
372	0.337
372	0.336
372	0.334
373	0.333
373	0.332
374	0.331
374	0.33
375	0.329
375	0.328
376	0.327
376	0.326
377	0.325
377	0.324
378	0.323
378	0.322
378	0.321
379	0.32
379	0.319
380	0.318
380	0.318
381	0.317
381	0.316
382	0.315
382	0.315
383	0.314
383	0.314
383	0.313
384	0.312
384	0.312
385	0.311
385	0.311
386	0.31
386	0.309
387	0.309
387	0.308
388	0.308
388	0.307
389	0.307
389	0.306
389	0.306
390	0.305
390	0.305
391	0.304
391	0.304
392	0.303
392	0.303
393	0.302
393	0.302
394	0.301
394	0.301
394	0.301
395	0.3
395	0.3
396	0.299
396	0.299
397	0.298
397	0.298
398	0.297
398	0.297
399	0.296
399	0.296
400	0.295
400	0.295
400	0.295
401	0.294
401	0.294
402	0.293
402	0.293
403	0.293
403	0.292
404	0.292
404	0.291
405	0.291
405	0.291
405	0.291
406	0.29
406	0.29
407	0.29
407	0.29
408	0.289
408	0.289
409	0.289
409	0.288
410	0.288
410	0.288
411	0.287
411	0.287
411	0.286
412	0.286
412	0.286
413	0.285
413	0.285
414	0.285
414	0.284
415	0.284
415	0.284
416	0.284
416	0.283
416	0.283
417	0.282
417	0.282
418	0.282
418	0.281
419	0.281
419	0.281
420	0.28
420	0.279
421	0.279
421	0.279
421	0.278
422	0.278
422	0.277
423	0.277
423	0.277
424	0.276
424	0.276
425	0.276
425	0.276
426	0.276
426	0.275
427	0.275
427	0.275
427	0.274
428	0.274
428	0.274
429	0.273
429	0.273
430	0.273
430	0.272
431	0.272
431	0.272
432	0.272
432	0.272
432	0.272
433	0.271
433	0.271
434	0.271
434	0.271
435	0.271
435	0.27
436	0.27
436	0.27
437	0.27
437	0.269
437	0.269
438	0.269
438	0.269
439	0.268
439	0.268
440	0.268
440	0.268
441	0.267
441	0.267
442	0.267
442	0.267
442	0.267
443	0.267
443	0.266
444	0.266
444	0.266
445	0.266
445	0.266
446	0.266
446	0.266
447	0.266
447	0.265
447	0.265
448	0.265
448	0.265
449	0.265
449	0.265
450	0.265
450	0.265
451	0.265
451	0.265
452	0.265
452	0.265
452	0.265
453	0.264
453	0.264
454	0.264
454	0.264
455	0.264
455	0.264
456	0.264
456	0.264
457	0.264
457	0.264
458	0.263
458	0.263
458	0.264
459	0.263
459	0.264
460	0.264
460	0.264
461	0.264
461	0.264
462	0.264
462	0.264
463	0.264
463	0.264
463	0.264
464	0.264
464	0.263
465	0.263
465	0.263
466	0.263
466	0.264
467	0.264
467	0.264
467	0.264
468	0.264
468	0.265
469	0.265
469	0.265
470	0.266
470	0.266
471	0.266
471	0.267
472	0.267
472	0.267
472	0.267
473	0.268
473	0.268
474	0.268
474	0.268
475	0.268
475	0.269
476	0.269
476	0.269
477	0.27
477	0.27
477	0.27
478	0.271
478	0.271
479	0.271
479	0.272
480	0.272
480	0.273
481	0.273
481	0.274
482	0.274
482	0.274
482	0.275
483	0.276
483	0.276
484	0.277
484	0.277
485	0.278
485	0.278
486	0.278
486	0.279
487	0.28
487	0.28
487	0.281
488	0.282
488	0.282
489	0.283
489	0.285
490	0.286
490	0.287
491	0.288
491	0.289
492	0.29
492	0.291
492	0.292
493	0.293
493	0.294
494	0.295
494	0.297
495	0.297
495	0.298
496	0.299
496	0.3
496	0.301
497	0.302
497	0.303
498	0.304
498	0.305
499	0.306
499	0.307
500	0.309
500	0.31
501	0.311
501	0.312
501	0.313
502	0.314
502	0.315
503	0.316
503	0.317
504	0.318
504	0.319
505	0.32
505	0.321
506	0.322
506	0.323
506	0.324
507	0.325
507	0.326
508	0.326
508	0.327
509	0.328
509	0.329
510	0.33
510	0.331
511	0.332
511	0.333
511	0.334
512	0.335
512	0.335
513	0.336
513	0.337
514	0.338
514	0.339
515	0.339
515	0.34
515	0.34
516	0.341
516	0.342
517	0.343
517	0.343
518	0.343
518	0.343
519	0.344
519	0.344
520	0.344
520	0.344
520	0.345
521	0.345
521	0.344
522	0.344
522	0.344
523	0.344
523	0.344
524	0.343
524	0.344
524	0.343
525	0.343
525	0.343
526	0.342
526	0.342
527	0.342
527	0.342
528	0.341
528	0.34
529	0.34
529	0.339
529	0.338
530	0.338
530	0.337
531	0.336
531	0.335
532	0.334
532	0.332
533	0.331
533	0.33
533	0.33
534	0.328
534	0.327
535	0.326
535	0.326
536	0.324
536	0.323
537	0.322
537	0.321
538	0.32
538	0.318
538	0.317
539	0.316
539	0.314
540	0.313
540	0.311
541	0.31
541	0.308
542	0.307
542	0.305
542	0.303
543	0.302
543	0.3
544	0.299
544	0.297
545	0.296
545	0.294
546	0.293
546	0.291
547	0.289
547	0.287
547	0.285
548	0.284
548	0.282
549	0.281
549	0.279
550	0.277
550	0.276
551	0.274
551	0.272
551	0.27
552	0.269
552	0.267
553	0.265
553	0.264
554	0.262
554	0.26
555	0.258
555	0.256
556	0.255
556	0.253
556	0.252
557	0.25
557	0.249
558	0.248
558	0.246
559	0.245
559	0.244
560	0.242
560	0.241
560	0.24
561	0.239
561	0.237
562	0.235
562	0.234
563	0.232
563	0.23
564	0.229
564	0.227
564	0.226
565	0.225
565	0.223
566	0.222
566	0.22
567	0.219
567	0.218
568	0.216
568	0.215
568	0.213
569	0.212
569	0.21
570	0.209
570	0.207
571	0.206
571	0.205
572	0.203
572	0.202
573	0.201
573	0.2
573	0.199
574	0.198
574	0.197
575	0.196
575	0.196
576	0.195
576	0.193
577	0.192
577	0.191
577	0.19
578	0.189
578	0.188
579	0.188
579	0.187
580	0.186
580	0.184
581	0.183
581	0.182
581	0.181
582	0.181
582	0.18
583	0.18
583	0.179
584	0.178
584	0.176
585	0.175
585	0.175
585	0.174
586	0.173
586	0.172
587	0.171
587	0.17
588	0.169
588	0.168
589	0.167
589	0.167
590	0.167
590	0.166
590	0.166
591	0.166
591	0.165
592	0.164
592	0.163
593	0.162
593	0.162
594	0.161
594	0.16
594	0.159
595	0.158
595	0.157
596	0.156
596	0.156
597	0.156
597	0.156
598	0.155
598	0.155
598	0.154
599	0.154
599	0.153
600	0.153
600	0.152
601	0.152
601	0.151
602	0.15
602	0.149
602	0.149
603	0.148
603	0.148
604	0.148
604	0.147
605	0.147
605	0.147
606	0.146
606	0.145
606	0.145
607	0.145
607	0.144
608	0.144
608	0.143
609	0.142
609	0.142
610	0.141
610	0.14
610	0.14
611	0.14
611	0.14
612	0.139
612	0.139
613	0.139
613	0.139
614	0.139
614	0.138
614	0.138
615	0.138
615	0.138
616	0.137
616	0.137
617	0.137
617	0.136
618	0.136
618	0.136
618	0.135
619	0.136
619	0.136
620	0.136
620	0.135
621	0.135
621	0.134
622	0.134
622	0.133
622	0.132
623	0.131
623	0.131
624	0.13
624	0.13
625	0.129
625	0.129
626	0.128
626	0.128
626	0.128
627	0.128
627	0.128
628	0.127
628	0.127
629	0.127
629	0.127
630	0.127
630	0.126
630	0.126
631	0.126
631	0.126
632	0.125
632	0.125
633	0.125
633	0.125
634	0.125
634	0.125
634	0.125
635	0.124
635	0.124
636	0.124
636	0.125
637	0.124
637	0.124
638	0.123
638	0.123
638	0.123
639	0.122
639	0.122
640	0.122
640	0.122
641	0.121
641	0.121
642	0.12
642	0.121
642	0.121
643	0.12
643	0.12
644	0.12
644	0.12
645	0.12
645	0.12
646	0.119
646	0.119
646	0.119
647	0.118
647	0.118
648	0.117
648	0.116
649	0.116
649	0.116
650	0.115
650	0.115
650	0.115
651	0.115
651	0.115
652	0.115
652	0.115
653	0.116
653	0.118
653	0.123
654	0.099
654	0.08
655	0.078
655	0.078
656	0.079
656	0.079
657	0.079
657	0.08
657	0.08
658	0.079
658	0.071
659	0.088
659	0.112
660	0.117
660	0.118
661	0.117
661	0.117
661	0.116
662	0.116
662	0.115
663	0.115
663	0.115
664	0.114
664	0.114
665	0.114
665	0.114
665	0.114
666	0.114
666	0.114
667	0.114
667	0.114
668	0.115
668	0.115
669	0.115
669	0.115
669	0.115
670	0.116
670	0.115
671	0.115
671	0.114
672	0.114
672	0.113
672	0.113
673	0.112
673	0.112
674	0.111
674	0.11
675	0.11
675	0.11
676	0.111
676	0.111
676	0.111
677	0.111
677	0.111
678	0.111
678	0.111
679	0.111
679	0.11
680	0.11
680	0.11
680	0.11
681	0.11
681	0.11
682	0.11
682	0.11
683	0.11
683	0.111
684	0.112
684	0.112
684	0.111
685	0.112
685	0.112
686	0.112
686	0.112
687	0.111
687	0.111
687	0.111
688	0.111
688	0.11
689	0.111
689	0.111
690	0.111
690	0.11
691	0.11
691	0.11
691	0.11
692	0.11
692	0.11
693	0.111
693	0.111
694	0.111
694	0.11
695	0.111
695	0.112
695	0.112
696	0.112
696	0.112
697	0.113
697	0.112
698	0.112
698	0.112
698	0.112
699	0.112
699	0.112
700	0.111
700	0.111
701	0.111
701	0.111
702	0.11
702	0.11
702	0.11
703	0.11
703	0.109
704	0.109
704	0.109
705	0.109
705	0.108
705	0.108
706	0.108
706	0.109
707	0.109
707	0.109
708	0.109
708	0.109
709	0.109
709	0.109
709	0.109
710	0.108
710	0.109
711	0.109
711	0.109
712	0.109
712	0.108
713	0.108
713	0.108
713	0.108
714	0.107
714	0.107
715	0.106
715	0.106
716	0.105
716	0.105
716	0.105
717	0.104
717	0.104
718	0.104
718	0.103
719	0.104
719	0.104
720	0.105
720	0.105
720	0.106
721	0.106
721	0.107
722	0.108
722	0.108
723	0.108
723	0.108
723	0.108
724	0.107
724	0.107
725	0.106
725	0.105
726	0.105
726	0.104
727	0.103
727	0.103
727	0.103
728	0.102
728	0.102
729	0.103
729	0.103
730	0.103
730	0.103
730	0.104
731	0.104
731	0.105
732	0.106
732	0.106
733	0.106
733	0.107
734	0.107
734	0.107
734	0.108
735	0.108
735	0.107
736	0.107
736	0.106
737	0.106
737	0.105
737	0.105
738	0.104
738	0.103
739	0.103
739	0.103
740	0.102
740	0.102
741	0.102
741	0.102
741	0.103
742	0.103
742	0.103
743	0.104
743	0.105
744	0.105
744	0.105
744	0.105
745	0.105
745	0.105
746	0.105
746	0.105
747	0.104
747	0.104
748	0.103
748	0.103
748	0.103
749	0.103
749	0.103
750	0.103
750	0.103
751	0.102
751	0.103
751	0.103
752	0.102
752	0.102
753	0.101
753	0.101
754	0.1
754	0.1
754	0.1
755	0.1
755	0.1
756	0.099
756	0.099
757	0.098
757	0.099
758	0.099
758	0.099
758	0.099
759	0.099
759	0.099
760	0.099
760	0.099
761	0.099
761	0.099
761	0.099
762	0.099
762	0.099
763	0.099
763	0.098
764	0.098
764	0.097
764	0.097
765	0.097
765	0.096
766	0.096
766	0.096
767	0.096
767	0.095
768	0.094
768	0.094
768	0.095
769	0.095
769	0.096
770	0.096
770	0.097
771	0.097
771	0.098
771	0.099
772	0.1
772	0.101
773	0.101
773	0.101
774	0.101
774	0.102
775	0.102
775	0.102
775	0.102
776	0.101
776	0.102
777	0.102
777	0.102
778	0.102
778	0.101
778	0.101
779	0.101
779	0.1
780	0.099
780	0.099
781	0.098
781	0.097
781	0.096
782	0.096
782	0.095
783	0.095
783	0.095
784	0.095
784	0.095
784	0.095
785	0.095
785	0.095
786	0.095
786	0.095
787	0.095
787	0.094
788	0.094
788	0.093
788	0.092
789	0.091
789	0.091
790	0.091
790	0.09
791	0.09
791	0.09
791	0.09
792	0.09
792	0.09
793	0.09
793	0.089
794	0.089
794	0.089
794	0.088
795	0.088
795	0.088
796	0.088
796	0.088
797	0.088
797	0.088
797	0.089
798	0.089
798	0.09
799	0.09
799	0.09
800	0.089
800	0.089
801	0.089
801	0.089
801	0.088
802	0.089
802	0.089
803	0.089
803	0.089
804	0.089
804	0.089
804	0.089
805	0.089
805	0.088
806	0.088
806	0.088
807	0.088
807	0.087
807	0.087
808	0.087
808	0.087
809	0.086
809	0.086
810	0.086
810	0.086
810	0.086
811	0.086
811	0.086
812	0.086
812	0.086
813	0.086
813	0.086
813	0.086
814	0.086
814	0.086
815	0.086
815	0.086
816	0.086
816	0.085
817	0.084
817	0.084
817	0.084
818	0.084
818	0.084
819	0.084
819	0.084
820	0.083
820	0.083
820	0.084
821	0.084
821	0.084
822	0.084
822	0.084
823	0.084
823	0.083
823	0.084
824	0.084
824	0.085
825	0.085
825	0.086
826	0.086
826	0.086
826	0.086
827	0.087
827	0.087
828	0.087
828	0.087
829	0.087
829	0.087
829	0.087
830	0.087
830	0.088
831	0.088
831	0.089
832	0.088
832	0.089
832	0.089
833	0.088
833	0.088
834	0.088
834	0.087
835	0.087
835	0.086
835	0.086
836	0.085
836	0.085
837	0.084
837	0.084
838	0.083
838	0.083
839	0.082
839	0.081
839	0.08
840	0.079
840	0.078
841	0.078
841	0.077
842	0.076
842	0.075
842	0.074
843	0.074
843	0.073
844	0.072
844	0.072
845	0.071
845	0.071
845	0.071
846	0.071
846	0.071
847	0.071
847	0.071
848	0.071
848	0.072
848	0.072
849	0.073
849	0.073
850	0.074
850	0.074
851	0.075
851	0.075
851	0.075
852	0.075
852	0.074
853	0.074
853	0.074
854	0.074
854	0.074
854	0.074
855	0.075
855	0.075
856	0.075
856	0.076
857	0.076
857	0.077
857	0.077
858	0.078
858	0.077
859	0.077
859	0.076
860	0.076
860	0.075
860	0.075
861	0.074
861	0.074
862	0.073
862	0.072
863	0.071
863	0.071
863	0.071
864	0.07
864	0.07
865	0.07
865	0.07
866	0.07
866	0.07
866	0.07
867	0.07
867	0.071
868	0.071
868	0.072
869	0.072
869	0.072
869	0.071
870	0.071
870	0.071
871	0.071
871	0.07
872	0.07
872	0.069
872	0.069
873	0.068
873	0.067
874	0.066
874	0.066
875	0.066
875	0.066
875	0.066
876	0.066
876	0.066
877	0.066
877	0.067
878	0.067
878	0.067
878	0.067
879	0.067
879	0.067
880	0.067
880	0.067
881	0.067
881	0.067
881	0.068
882	0.067
882	0.067
883	0.068
883	0.068
884	0.068
884	0.068
884	0.068
885	0.068
885	0.068
886	0.068
886	0.067
887	0.067
887	0.066
887	0.065
888	0.065
888	0.064
889	0.063
889	0.063
890	0.062
890	0.062
890	0.062
891	0.062
891	0.062
892	0.061
892	0.061
893	0.061
893	0.061
893	0.06
894	0.06
894	0.06
895	0.06
895	0.06
895	0.06
896	0.06
896	0.06
897	0.061
897	0.061
898	0.062
898	0.062
898	0.062
899	0.062
899	0.063
900	0.063
900	0.063
901	0.062
901	0.062
901	0.062
902	0.062
902	0.061
903	0.061
903	0.061
904	0.061
904	0.06
904	0.06
905	0.06
905	0.059
906	0.059
906	0.059
907	0.06
907	0.06
907	0.06
908	0.06
908	0.06
909	0.06
909	0.06
910	0.06
910	0.06
910	0.059
911	0.059
911	0.058
912	0.058
912	0.057
913	0.057
913	0.057
913	0.056
914	0.056
914	0.056
915	0.056
915	0.056
916	0.056
916	0.056
916	0.056
917	0.056
917	0.056
918	0.055
918	0.055
918	0.054
919	0.054
919	0.053
920	0.053
920	0.053
921	0.052
921	0.052
921	0.051
922	0.051
922	0.051
923	0.051
923	0.052
924	0.052
924	0.053
924	0.053
925	0.054
925	0.055
926	0.055
926	0.056
927	0.057
927	0.057
927	0.058
928	0.058
928	0.058
929	0.059
929	0.059
930	0.059
930	0.059
930	0.059
931	0.059
931	0.059
932	0.059
932	0.059
933	0.06
933	0.06
933	0.059
934	0.059
934	0.059
935	0.058
935	0.058
935	0.057
936	0.057
936	0.056
937	0.056
937	0.055
938	0.054
938	0.053
938	0.053
939	0.052
939	0.052
940	0.052
940	0.052
941	0.052
941	0.053
941	0.053
942	0.053
942	0.054
943	0.054
943	0.054
944	0.054
944	0.054
944	0.055
945	0.055
945	0.055
946	0.055
946	0.055
946	0.055
947	0.055
947	0.055
948	0.055
948	0.055
949	0.054
949	0.054
949	0.054
950	0.053
950	0.053
951	0.052
951	0.052
952	0.051
952	0.051
952	0.051
953	0.051
953	0.051
954	0.051
954	0.051
955	0.051
955	0.051
955	0.051
956	0.051
956	0.052
957	0.052
957	0.052
957	0.052
958	0.053
958	0.052
959	0.052
959	0.052
960	0.052
960	0.052
960	0.052
961	0.051
961	0.051
962	0.051
962	0.051
963	0.05
963	0.05
963	0.051
964	0.051
964	0.051
965	0.051
965	0.052
966	0.052
966	0.052
966	0.053
967	0.053
967	0.053
968	0.053
968	0.053
968	0.053
969	0.052
969	0.052
970	0.051
970	0.05
971	0.05
971	0.049
971	0.049
972	0.048
972	0.048
973	0.047
973	0.047
974	0.047
974	0.047
974	0.047
975	0.048
975	0.048
976	0.049
976	0.05
976	0.05
977	0.051
977	0.051
978	0.051
978	0.051
979	0.051
979	0.051
979	0.051
980	0.05
980	0.05
981	0.049
981	0.049
982	0.048
982	0.048
982	0.048
983	0.048
983	0.047
984	0.047
984	0.047
984	0.047
985	0.048
985	0.048
986	0.048
986	0.048
987	0.049
987	0.049
987	0.049
988	0.049
988	0.049
989	0.049
989	0.049
990	0.049
990	0.048
990	0.048
991	0.048
991	0.047
992	0.046
992	0.046
992	0.045
993	0.044
993	0.043
994	0.042
994	0.042
995	0.041
995	0.04
995	0.04
996	0.04
996	0.039
997	0.04
997	0.04
997	0.041
998	0.041
998	0.042
999	0.042
999	0.043
1000	0.044
1000	0.045
1000	0.045
1001	0.045
1001	0.045
1002	0.045
1002	0.044
1003	0.044
1003	0.043
1003	0.042
1004	0.041
1004	0.04
1005	0.039
1005	0.038
1005	0.037
1006	0.036
1006	0.035
1007	0.035
1007	0.034
1008	0.034
1008	0.034
1008	0.034
1009	0.035
1009	0.035
1010	0.035
1010	0.036
1010	0.036
1011	0.036
1011	0.036
1012	0.036
1012	0.036
1013	0.036
1013	0.036
1013	0.035
1014	0.035
1014	0.035
1015	0.034
1015	0.034
1016	0.034
1016	0.034
1016	0.034
1017	0.035
1017	0.035
1018	0.035
1018	0.035
1018	0.036
1019	0.037
1019	0.037
1020	0.038
1020	0.038
1021	0.039
1021	0.039
1021	0.04
1022	0.04
1022	0.04
1023	0.041
1023	0.041
1023	0.041
1024	0.041
1024	0.041
1025	0.041
1025	0.041
1026	0.041
1026	0.041
1026	0.041
1027	0.041
1027	0.041
1028	0.041
1028	0.041
1028	0.04
1029	0.041
1029	0.04
1030	0.041
1030	0.041
1031	0.041
1031	0.041
1031	0.041
1032	0.042
1032	0.042
1033	0.043
1033	0.043
1033	0.043
1034	0.043
1034	0.044
1035	0.044
1035	0.044
1036	0.044
1036	0.044
1036	0.044
1037	0.044
1037	0.043
1038	0.043
1038	0.043
1039	0.043
1039	0.042
1039	0.042
1040	0.042
1040	0.042
1041	0.042
1041	0.042
1041	0.042
1042	0.041
1042	0.041
1043	0.041
1043	0.041
1044	0.041
1044	0.041
1044	0.04
1045	0.04
1045	0.04
1046	0.04
1046	0.04
1046	0.04
1047	0.04
1047	0.041
1048	0.041
1048	0.041
1049	0.041
1049	0.041
1049	0.042
1050	0.042
1050	0.042
1051	0.042
1051	0.041
1051	0.041
1052	0.041
1052	0.04
1053	0.039
1053	0.039
1053	0.038
1054	0.038
1054	0.037
1055	0.037
1055	0.036
1056	0.036
1056	0.035
1056	0.035
1057	0.034
1057	0.034
1058	0.033
1058	0.033
1058	0.032
1059	0.032
1059	0.031
1060	0.031
1060	0.03
1061	0.03
1061	0.03
1061	0.03
1062	0.029
1062	0.029
1063	0.029
1063	0.029
1063	0.029
1064	0.029
1064	0.029
1065	0.029
1065	0.029
1066	0.029
1066	0.028
1066	0.028
1067	0.028
1067	0.028
1068	0.028
1068	0.028
1068	0.028
1069	0.028
1069	0.028
1070	0.028
1070	0.028
1071	0.028
1071	0.028
1071	0.027
1072	0.027
1072	0.027
1073	0.027
1073	0.027
1073	0.026
1074	0.026
1074	0.027
1075	0.027
1075	0.027
1076	0.027
1076	0.028
1076	0.028
1077	0.028
1077	0.028
1078	0.029
1078	0.029
1078	0.029
1079	0.029
1079	0.029
1080	0.029
1080	0.029
1080	0.028
1081	0.028
1081	0.029
1082	0.029
1082	0.029
1083	0.029
1083	0.029
1083	0.029
1084	0.028
1084	0.029
1085	0.029
1085	0.029
1085	0.029
1086	0.029
1086	0.029
1087	0.029
1087	0.028
1088	0.029
1088	0.029
1088	0.029
1089	0.029
1089	0.029
1090	0.028
1090	0.027
1090	0.026
1091	0.026
1091	0.026
1092	0.026
1092	0.026
1092	0.025
1093	0.024
1093	0.024
1094	0.023
1094	0.023
1095	0.022
1095	0.022
1095	0.022
1096	0.021
1096	0.02
1097	0.02
1097	0.02
1097	0.019
1098	0.019
1098	0.018
1099	0.018
1099	0.017
1100	0.016
1100	0.015
1100	0.013
1101	0.012
1101	0.011
1102	0.01
1102	0.008
1102	0.007
1103	0.006
1103	0.006
1104	0.005
1104	0.005
1104	0.004
1105	0.003
1105	0.002
1106	0
1106	-0
1107	-0
1107	-0.001
1107	-0.002
1108	-0.002
1108	-0.003
1109	-0.004
1109	-0.004
1109	-0.005
1110	-0.004
1110	-0.002
1111	-0.003
1111	-0.006
