Data from reversibility-20sec_Absorbance__6919__000000000006919.txt Node

Date: Thu Dec 07 02:39:25 CET 2023
User: Marek
Spectrometer: MAYP115816
Trigger mode: 0
Integration Time (sec): 2.000000E-1
Scans to average: 10
Electric dark correction enabled: true
Nonlinearity correction enabled: true
Boxcar width: 5
XAxis mode: Wavelengths
Number of Pixels in Spectrum: 2068
>>>>>Begin Spectral Data<<<<<
199	-0.092
199	-0.072
200	-0.018
200	0.031
201	0.06
201	0.074
202	0.083
202	0.093
203	0.103
203	0.106
204	0.118
204	0.13
205	0.141
205	0.149
205	0.149
206	0.148
206	0.15
207	0.151
207	0.15
208	0.144
208	0.144
209	0.147
209	0.142
210	0.145
210	0.144
211	0.145
211	0.148
212	0.147
212	0.148
213	0.152
213	0.158
213	0.156
214	0.162
214	0.164
215	0.163
215	0.163
216	0.162
216	0.16
217	0.164
217	0.166
218	0.164
218	0.163
219	0.168
219	0.167
220	0.171
220	0.171
221	0.172
221	0.175
221	0.179
222	0.182
222	0.186
223	0.193
223	0.2
224	0.206
224	0.208
225	0.218
225	0.228
226	0.237
226	0.246
227	0.255
227	0.266
228	0.28
228	0.295
229	0.31
229	0.334
229	0.361
230	0.383
230	0.416
231	0.45
231	0.488
232	0.525
232	0.569
233	0.611
233	0.659
234	0.712
234	0.764
235	0.816
235	0.87
236	0.918
236	0.968
236	1.019
237	1.072
237	1.122
238	1.166
238	1.213
239	1.257
239	1.298
240	1.336
240	1.37
241	1.406
241	1.442
242	1.473
242	1.507
243	1.535
243	1.561
243	1.585
244	1.608
244	1.628
245	1.647
245	1.669
246	1.686
246	1.702
247	1.713
247	1.724
248	1.737
248	1.749
249	1.758
249	1.764
250	1.771
250	1.779
250	1.784
251	1.788
251	1.79
252	1.795
252	1.793
253	1.793
253	1.791
254	1.79
254	1.793
255	1.79
255	1.789
256	1.788
256	1.787
257	1.786
257	1.784
258	1.786
258	1.786
258	1.786
259	1.785
259	1.783
260	1.784
260	1.784
261	1.785
261	1.787
262	1.789
262	1.791
263	1.794
263	1.795
264	1.794
264	1.796
265	1.797
265	1.798
265	1.799
266	1.799
266	1.8
267	1.798
267	1.798
268	1.797
268	1.799
269	1.802
269	1.801
270	1.8
270	1.798
271	1.795
271	1.794
272	1.79
272	1.788
272	1.785
273	1.779
273	1.772
274	1.764
274	1.757
275	1.749
275	1.743
276	1.736
276	1.728
277	1.72
277	1.71
278	1.698
278	1.686
278	1.671
279	1.654
279	1.633
280	1.606
280	1.574
281	1.535
281	1.492
282	1.448
282	1.403
283	1.359
283	1.316
284	1.275
284	1.235
285	1.197
285	1.163
285	1.134
286	1.107
286	1.084
287	1.064
287	1.047
288	1.032
288	1.02
289	1.01
289	1.001
290	0.993
290	0.987
291	0.981
291	0.976
292	0.971
292	0.967
292	0.963
293	0.959
293	0.955
294	0.952
294	0.949
295	0.946
295	0.943
296	0.94
296	0.937
297	0.934
297	0.932
298	0.929
298	0.926
298	0.923
299	0.92
299	0.918
300	0.915
300	0.912
301	0.909
301	0.907
302	0.904
302	0.902
303	0.9
303	0.897
304	0.895
304	0.893
305	0.89
305	0.888
305	0.886
306	0.884
306	0.881
307	0.879
307	0.877
308	0.874
308	0.872
309	0.869
309	0.867
310	0.864
310	0.861
311	0.858
311	0.855
311	0.852
312	0.848
312	0.845
313	0.841
313	0.838
314	0.834
314	0.83
315	0.825
315	0.821
316	0.817
316	0.812
317	0.808
317	0.803
318	0.798
318	0.793
318	0.788
319	0.782
319	0.777
320	0.771
320	0.766
321	0.76
321	0.754
322	0.747
322	0.741
323	0.735
323	0.728
324	0.722
324	0.715
324	0.708
325	0.701
325	0.694
326	0.687
326	0.681
327	0.674
327	0.667
328	0.66
328	0.653
329	0.645
329	0.638
330	0.631
330	0.624
330	0.617
331	0.61
331	0.603
332	0.596
332	0.589
333	0.582
333	0.575
334	0.569
334	0.562
335	0.555
335	0.548
336	0.541
336	0.535
336	0.528
337	0.522
337	0.515
338	0.509
338	0.503
339	0.497
339	0.491
340	0.485
340	0.479
341	0.473
341	0.468
342	0.462
342	0.457
342	0.452
343	0.446
343	0.441
344	0.436
344	0.431
345	0.426
345	0.421
346	0.417
346	0.412
347	0.408
347	0.404
348	0.4
348	0.396
348	0.392
349	0.388
349	0.385
350	0.381
350	0.378
351	0.374
351	0.371
352	0.368
352	0.365
353	0.362
353	0.359
354	0.356
354	0.353
354	0.35
355	0.347
355	0.344
356	0.341
356	0.339
357	0.335
357	0.333
358	0.33
358	0.328
359	0.326
359	0.323
360	0.321
360	0.319
360	0.318
361	0.316
361	0.314
362	0.313
362	0.311
363	0.309
363	0.308
364	0.306
364	0.304
365	0.302
365	0.3
366	0.299
366	0.297
366	0.295
367	0.293
367	0.292
368	0.29
368	0.289
369	0.287
369	0.286
370	0.285
370	0.283
371	0.282
371	0.281
372	0.28
372	0.279
372	0.278
373	0.277
373	0.276
374	0.275
374	0.274
375	0.273
375	0.272
376	0.272
376	0.271
377	0.27
377	0.269
378	0.268
378	0.267
378	0.266
379	0.265
379	0.265
380	0.264
380	0.263
381	0.263
381	0.262
382	0.262
382	0.261
383	0.261
383	0.26
383	0.26
384	0.259
384	0.259
385	0.258
385	0.258
386	0.258
386	0.257
387	0.257
387	0.257
388	0.256
388	0.256
389	0.256
389	0.256
389	0.255
390	0.255
390	0.254
391	0.254
391	0.254
392	0.253
392	0.253
393	0.253
393	0.252
394	0.252
394	0.251
394	0.251
395	0.251
395	0.25
396	0.25
396	0.25
397	0.249
397	0.249
398	0.249
398	0.248
399	0.248
399	0.248
400	0.248
400	0.247
400	0.247
401	0.247
401	0.247
402	0.247
402	0.247
403	0.246
403	0.246
404	0.245
404	0.245
405	0.245
405	0.245
405	0.245
406	0.244
406	0.244
407	0.244
407	0.244
408	0.244
408	0.243
409	0.243
409	0.243
410	0.243
410	0.242
411	0.242
411	0.242
411	0.242
412	0.241
412	0.241
413	0.241
413	0.24
414	0.24
414	0.239
415	0.239
415	0.239
416	0.239
416	0.238
416	0.238
417	0.238
417	0.237
418	0.237
418	0.237
419	0.237
419	0.236
420	0.236
420	0.235
421	0.235
421	0.235
421	0.234
422	0.234
422	0.234
423	0.233
423	0.233
424	0.233
424	0.232
425	0.232
425	0.232
426	0.232
426	0.231
427	0.231
427	0.23
427	0.23
428	0.23
428	0.229
429	0.229
429	0.229
430	0.228
430	0.228
431	0.228
431	0.228
432	0.228
432	0.227
432	0.227
433	0.227
433	0.227
434	0.227
434	0.227
435	0.227
435	0.226
436	0.226
436	0.226
437	0.226
437	0.225
437	0.225
438	0.225
438	0.224
439	0.224
439	0.224
440	0.223
440	0.223
441	0.223
441	0.223
442	0.222
442	0.222
442	0.222
443	0.222
443	0.222
444	0.221
444	0.221
445	0.221
445	0.221
446	0.221
446	0.22
447	0.22
447	0.22
447	0.22
448	0.22
448	0.219
449	0.219
449	0.219
450	0.219
450	0.218
451	0.218
451	0.218
452	0.218
452	0.218
452	0.218
453	0.218
453	0.218
454	0.217
454	0.217
455	0.217
455	0.216
456	0.216
456	0.216
457	0.216
457	0.215
458	0.215
458	0.215
458	0.215
459	0.215
459	0.215
460	0.214
460	0.214
461	0.214
461	0.214
462	0.213
462	0.213
463	0.213
463	0.213
463	0.213
464	0.212
464	0.212
465	0.211
465	0.211
466	0.211
466	0.211
467	0.211
467	0.211
467	0.211
468	0.211
468	0.211
469	0.211
469	0.211
470	0.211
470	0.211
471	0.211
471	0.211
472	0.211
472	0.211
472	0.211
473	0.211
473	0.21
474	0.21
474	0.21
475	0.21
475	0.21
476	0.21
476	0.21
477	0.21
477	0.21
477	0.21
478	0.21
478	0.21
479	0.21
479	0.21
480	0.21
480	0.21
481	0.21
481	0.21
482	0.21
482	0.21
482	0.21
483	0.21
483	0.21
484	0.21
484	0.21
485	0.21
485	0.209
486	0.209
486	0.209
487	0.209
487	0.209
487	0.21
488	0.21
488	0.21
489	0.21
489	0.21
490	0.211
490	0.211
491	0.212
491	0.212
492	0.212
492	0.213
492	0.213
493	0.213
493	0.214
494	0.214
494	0.214
495	0.214
495	0.215
496	0.215
496	0.215
496	0.216
497	0.216
497	0.216
498	0.216
498	0.216
499	0.217
499	0.217
500	0.218
500	0.218
501	0.219
501	0.219
501	0.219
502	0.22
502	0.22
503	0.22
503	0.221
504	0.221
504	0.222
505	0.222
505	0.222
506	0.222
506	0.223
506	0.223
507	0.223
507	0.224
508	0.224
508	0.224
509	0.224
509	0.225
510	0.225
510	0.225
511	0.226
511	0.226
511	0.227
512	0.227
512	0.228
513	0.228
513	0.229
514	0.229
514	0.23
515	0.23
515	0.23
515	0.23
516	0.231
516	0.231
517	0.232
517	0.232
518	0.232
518	0.232
519	0.233
519	0.233
520	0.233
520	0.233
520	0.234
521	0.234
521	0.234
522	0.234
522	0.234
523	0.235
523	0.235
524	0.235
524	0.235
524	0.235
525	0.235
525	0.235
526	0.235
526	0.235
527	0.236
527	0.236
528	0.236
528	0.236
529	0.236
529	0.236
529	0.235
530	0.235
530	0.235
531	0.235
531	0.235
532	0.235
532	0.235
533	0.235
533	0.235
533	0.235
534	0.235
534	0.235
535	0.235
535	0.235
536	0.235
536	0.235
537	0.235
537	0.235
538	0.235
538	0.234
538	0.234
539	0.234
539	0.234
540	0.234
540	0.233
541	0.233
541	0.233
542	0.233
542	0.233
542	0.233
543	0.232
543	0.232
544	0.232
544	0.232
545	0.232
545	0.232
546	0.232
546	0.231
547	0.231
547	0.23
547	0.23
548	0.23
548	0.229
549	0.229
549	0.229
550	0.228
550	0.228
551	0.228
551	0.228
551	0.228
552	0.227
552	0.227
553	0.227
553	0.226
554	0.226
554	0.226
555	0.225
555	0.224
556	0.224
556	0.223
556	0.223
557	0.223
557	0.223
558	0.223
558	0.223
559	0.223
559	0.223
560	0.223
560	0.223
560	0.223
561	0.223
561	0.223
562	0.222
562	0.221
563	0.22
563	0.22
564	0.219
564	0.218
564	0.218
565	0.217
565	0.217
566	0.216
566	0.216
567	0.216
567	0.216
568	0.216
568	0.216
568	0.215
569	0.215
569	0.215
570	0.214
570	0.213
571	0.212
571	0.212
572	0.211
572	0.211
573	0.211
573	0.211
573	0.21
574	0.21
574	0.21
575	0.21
575	0.21
576	0.21
576	0.209
577	0.208
577	0.208
577	0.207
578	0.207
578	0.206
579	0.207
579	0.207
580	0.206
580	0.205
581	0.205
581	0.205
581	0.205
582	0.205
582	0.205
583	0.205
583	0.205
584	0.204
584	0.203
585	0.203
585	0.203
585	0.203
586	0.202
586	0.202
587	0.201
587	0.201
588	0.2
588	0.2
589	0.199
589	0.2
590	0.199
590	0.199
590	0.2
591	0.2
591	0.199
592	0.199
592	0.198
593	0.198
593	0.198
594	0.197
594	0.196
594	0.196
595	0.195
595	0.195
596	0.194
596	0.195
597	0.196
597	0.196
598	0.196
598	0.196
598	0.196
599	0.196
599	0.196
600	0.195
600	0.195
601	0.195
601	0.195
602	0.194
602	0.193
602	0.193
603	0.192
603	0.192
604	0.192
604	0.192
605	0.192
605	0.192
606	0.192
606	0.191
606	0.191
607	0.191
607	0.191
608	0.19
608	0.19
609	0.19
609	0.19
610	0.189
610	0.189
610	0.189
611	0.189
611	0.189
612	0.189
612	0.189
613	0.189
613	0.189
614	0.188
614	0.188
614	0.188
615	0.188
615	0.188
616	0.188
616	0.188
617	0.188
617	0.188
618	0.188
618	0.188
618	0.188
619	0.188
619	0.188
620	0.189
620	0.188
621	0.188
621	0.187
622	0.187
622	0.186
622	0.186
623	0.185
623	0.185
624	0.185
624	0.184
625	0.184
625	0.184
626	0.184
626	0.184
626	0.184
627	0.184
627	0.184
628	0.184
628	0.184
629	0.184
629	0.183
630	0.183
630	0.183
630	0.183
631	0.183
631	0.183
632	0.182
632	0.182
633	0.182
633	0.182
634	0.182
634	0.182
634	0.182
635	0.182
635	0.181
636	0.181
636	0.181
637	0.181
637	0.181
638	0.181
638	0.18
638	0.18
639	0.179
639	0.179
640	0.18
640	0.179
641	0.179
641	0.179
642	0.179
642	0.179
642	0.179
643	0.179
643	0.18
644	0.18
644	0.18
645	0.18
645	0.18
646	0.18
646	0.18
646	0.18
647	0.18
647	0.18
648	0.179
648	0.179
649	0.178
649	0.178
650	0.178
650	0.178
650	0.178
651	0.178
651	0.178
652	0.178
652	0.178
653	0.179
653	0.181
653	0.186
654	0.147
654	0.117
655	0.118
655	0.118
656	0.118
656	0.118
657	0.119
657	0.119
657	0.119
658	0.118
658	0.108
659	0.136
659	0.174
660	0.179
660	0.179
661	0.179
661	0.179
661	0.178
662	0.178
662	0.178
663	0.178
663	0.177
664	0.177
664	0.177
665	0.177
665	0.177
665	0.177
666	0.177
666	0.177
667	0.177
667	0.178
668	0.178
668	0.178
669	0.178
669	0.178
669	0.179
670	0.179
670	0.179
671	0.179
671	0.179
672	0.178
672	0.178
672	0.177
673	0.177
673	0.177
674	0.176
674	0.176
675	0.176
675	0.176
676	0.176
676	0.176
676	0.176
677	0.177
677	0.177
678	0.177
678	0.177
679	0.176
679	0.176
680	0.176
680	0.176
680	0.176
681	0.175
681	0.176
682	0.176
682	0.176
683	0.176
683	0.177
684	0.177
684	0.177
684	0.176
685	0.177
685	0.177
686	0.177
686	0.177
687	0.177
687	0.177
687	0.177
688	0.177
688	0.177
689	0.178
689	0.178
690	0.178
690	0.177
691	0.178
691	0.178
691	0.178
692	0.178
692	0.178
693	0.178
693	0.179
694	0.179
694	0.179
695	0.18
695	0.181
695	0.181
696	0.181
696	0.182
697	0.182
697	0.182
698	0.181
698	0.181
698	0.181
699	0.181
699	0.18
700	0.18
700	0.18
701	0.18
701	0.179
702	0.179
702	0.179
702	0.179
703	0.179
703	0.178
704	0.178
704	0.178
705	0.178
705	0.177
705	0.177
706	0.177
706	0.177
707	0.177
707	0.177
708	0.177
708	0.177
709	0.178
709	0.178
709	0.178
710	0.178
710	0.178
711	0.179
711	0.18
712	0.18
712	0.181
713	0.181
713	0.181
713	0.181
714	0.182
714	0.182
715	0.181
715	0.181
716	0.18
716	0.18
716	0.179
717	0.178
717	0.178
718	0.177
718	0.177
719	0.177
719	0.177
720	0.177
720	0.178
720	0.179
721	0.179
721	0.18
722	0.181
722	0.182
723	0.182
723	0.183
723	0.183
724	0.182
724	0.182
725	0.181
725	0.181
726	0.18
726	0.179
727	0.179
727	0.178
727	0.178
728	0.177
728	0.177
729	0.178
729	0.178
730	0.178
730	0.178
730	0.179
731	0.18
731	0.18
732	0.181
732	0.182
733	0.182
733	0.183
734	0.183
734	0.184
734	0.184
735	0.185
735	0.185
736	0.185
736	0.185
737	0.185
737	0.185
737	0.184
738	0.184
738	0.183
739	0.183
739	0.182
740	0.182
740	0.182
741	0.182
741	0.182
741	0.182
742	0.182
742	0.183
743	0.184
743	0.185
744	0.186
744	0.186
744	0.187
745	0.187
745	0.187
746	0.187
746	0.187
747	0.187
747	0.187
748	0.186
748	0.186
748	0.186
749	0.185
749	0.186
750	0.186
750	0.186
751	0.186
751	0.186
751	0.187
752	0.186
752	0.186
753	0.186
753	0.186
754	0.186
754	0.185
754	0.185
755	0.185
755	0.185
756	0.184
756	0.183
757	0.183
757	0.183
758	0.183
758	0.184
758	0.184
759	0.184
759	0.184
760	0.184
760	0.184
761	0.185
761	0.185
761	0.186
762	0.185
762	0.186
763	0.186
763	0.186
764	0.186
764	0.186
764	0.186
765	0.186
765	0.185
766	0.185
766	0.185
767	0.185
767	0.184
768	0.184
768	0.184
768	0.184
769	0.184
769	0.184
770	0.185
770	0.185
771	0.186
771	0.186
771	0.187
772	0.188
772	0.189
773	0.189
773	0.189
774	0.189
774	0.19
775	0.19
775	0.19
775	0.19
776	0.191
776	0.191
777	0.192
777	0.192
778	0.192
778	0.192
778	0.192
779	0.193
779	0.192
780	0.192
780	0.191
781	0.191
781	0.191
781	0.19
782	0.19
782	0.19
783	0.19
783	0.191
784	0.191
784	0.192
784	0.192
785	0.192
785	0.192
786	0.192
786	0.193
787	0.192
787	0.192
788	0.191
788	0.191
788	0.19
789	0.19
789	0.19
790	0.19
790	0.189
791	0.189
791	0.189
791	0.189
792	0.19
792	0.191
793	0.191
793	0.191
794	0.191
794	0.191
794	0.191
795	0.191
795	0.192
796	0.192
796	0.192
797	0.192
797	0.192
797	0.192
798	0.192
798	0.193
799	0.193
799	0.192
800	0.192
800	0.192
801	0.191
801	0.192
801	0.192
802	0.192
802	0.192
803	0.193
803	0.193
804	0.194
804	0.195
804	0.195
805	0.195
805	0.195
806	0.195
806	0.195
807	0.195
807	0.195
807	0.195
808	0.195
808	0.194
809	0.194
809	0.194
810	0.194
810	0.194
810	0.194
811	0.194
811	0.194
812	0.195
812	0.195
813	0.196
813	0.197
813	0.197
814	0.198
814	0.199
815	0.199
815	0.2
816	0.2
816	0.199
817	0.199
817	0.198
817	0.198
818	0.197
818	0.197
819	0.197
819	0.196
820	0.195
820	0.195
820	0.195
821	0.195
821	0.195
822	0.196
822	0.196
823	0.196
823	0.197
823	0.198
824	0.199
824	0.2
825	0.201
825	0.202
826	0.203
826	0.203
826	0.203
827	0.204
827	0.204
828	0.204
828	0.204
829	0.204
829	0.204
829	0.204
830	0.205
830	0.205
831	0.205
831	0.205
832	0.205
832	0.205
832	0.205
833	0.205
833	0.205
834	0.205
834	0.205
835	0.204
835	0.204
835	0.203
836	0.203
836	0.203
837	0.202
837	0.201
838	0.201
838	0.2
839	0.199
839	0.198
839	0.197
840	0.197
840	0.196
841	0.195
841	0.194
842	0.194
842	0.193
842	0.193
843	0.192
843	0.192
844	0.192
844	0.191
845	0.191
845	0.191
845	0.191
846	0.191
846	0.191
847	0.192
847	0.192
848	0.192
848	0.193
848	0.193
849	0.193
849	0.194
850	0.194
850	0.194
851	0.194
851	0.194
851	0.193
852	0.193
852	0.192
853	0.192
853	0.192
854	0.193
854	0.193
854	0.194
855	0.195
855	0.196
856	0.196
856	0.197
857	0.198
857	0.199
857	0.2
858	0.2
858	0.2
859	0.2
859	0.2
860	0.2
860	0.199
860	0.199
861	0.198
861	0.198
862	0.196
862	0.196
863	0.195
863	0.194
863	0.193
864	0.193
864	0.193
865	0.193
865	0.193
866	0.193
866	0.193
866	0.193
867	0.193
867	0.194
868	0.195
868	0.195
869	0.195
869	0.195
869	0.194
870	0.194
870	0.194
871	0.194
871	0.194
872	0.194
872	0.193
872	0.193
873	0.193
873	0.193
874	0.192
874	0.192
875	0.191
875	0.191
875	0.191
876	0.19
876	0.19
877	0.19
877	0.189
878	0.189
878	0.189
878	0.19
879	0.19
879	0.19
880	0.191
880	0.191
881	0.191
881	0.192
881	0.192
882	0.192
882	0.193
883	0.193
883	0.193
884	0.193
884	0.193
884	0.193
885	0.193
885	0.192
886	0.192
886	0.191
887	0.191
887	0.19
887	0.189
888	0.188
888	0.187
889	0.187
889	0.187
890	0.186
890	0.186
890	0.186
891	0.186
891	0.186
892	0.186
892	0.186
893	0.186
893	0.186
893	0.186
894	0.186
894	0.186
895	0.186
895	0.185
895	0.185
896	0.185
896	0.185
897	0.185
897	0.185
898	0.185
898	0.184
898	0.183
899	0.183
899	0.182
900	0.181
900	0.181
901	0.18
901	0.18
901	0.179
902	0.179
902	0.179
903	0.178
903	0.178
904	0.178
904	0.178
904	0.178
905	0.178
905	0.178
906	0.178
906	0.178
907	0.179
907	0.179
907	0.179
908	0.179
908	0.179
909	0.179
909	0.179
910	0.179
910	0.178
910	0.178
911	0.178
911	0.177
912	0.177
912	0.177
913	0.176
913	0.176
913	0.175
914	0.175
914	0.175
915	0.175
915	0.175
916	0.175
916	0.174
916	0.174
917	0.174
917	0.174
918	0.173
918	0.173
918	0.172
919	0.172
919	0.171
920	0.171
920	0.17
921	0.17
921	0.169
921	0.169
922	0.169
922	0.169
923	0.169
923	0.169
924	0.17
924	0.17
924	0.17
925	0.17
925	0.171
926	0.171
926	0.172
927	0.172
927	0.172
927	0.172
928	0.173
928	0.173
929	0.173
929	0.173
930	0.173
930	0.173
930	0.172
931	0.172
931	0.172
932	0.171
932	0.171
933	0.171
933	0.17
933	0.169
934	0.169
934	0.169
935	0.168
935	0.168
935	0.167
936	0.167
936	0.166
937	0.166
937	0.165
938	0.164
938	0.164
938	0.163
939	0.163
939	0.162
940	0.162
940	0.162
941	0.162
941	0.162
941	0.162
942	0.162
942	0.163
943	0.163
943	0.163
944	0.163
944	0.163
944	0.163
945	0.163
945	0.162
946	0.162
946	0.161
946	0.161
947	0.161
947	0.16
948	0.16
948	0.16
949	0.159
949	0.158
949	0.158
950	0.157
950	0.157
951	0.156
951	0.155
952	0.155
952	0.154
952	0.153
953	0.153
953	0.152
954	0.152
954	0.152
955	0.152
955	0.152
955	0.152
956	0.153
956	0.154
957	0.154
957	0.155
957	0.155
958	0.156
958	0.156
959	0.156
959	0.156
960	0.156
960	0.156
960	0.156
961	0.156
961	0.156
962	0.156
962	0.156
963	0.155
963	0.155
963	0.155
964	0.155
964	0.155
965	0.155
965	0.155
966	0.155
966	0.154
966	0.154
967	0.154
967	0.153
968	0.153
968	0.153
968	0.152
969	0.151
969	0.15
970	0.149
970	0.148
971	0.147
971	0.146
971	0.146
972	0.145
972	0.144
973	0.143
973	0.143
974	0.143
974	0.144
974	0.144
975	0.145
975	0.145
976	0.146
976	0.147
976	0.147
977	0.147
977	0.147
978	0.148
978	0.147
979	0.147
979	0.147
979	0.147
980	0.147
980	0.147
981	0.146
981	0.146
982	0.146
982	0.146
982	0.145
983	0.145
983	0.145
984	0.145
984	0.145
984	0.145
985	0.145
985	0.144
986	0.144
986	0.144
987	0.143
987	0.143
987	0.143
988	0.143
988	0.143
989	0.143
989	0.143
990	0.142
990	0.142
990	0.142
991	0.142
991	0.142
992	0.141
992	0.14
992	0.139
993	0.138
993	0.137
994	0.136
994	0.135
995	0.134
995	0.134
995	0.133
996	0.133
996	0.133
997	0.133
997	0.133
997	0.133
998	0.133
998	0.134
999	0.135
999	0.136
1000	0.136
1000	0.137
1000	0.138
1001	0.138
1001	0.138
1002	0.138
1002	0.138
1003	0.138
1003	0.138
1003	0.137
1004	0.137
1004	0.136
1005	0.135
1005	0.134
1005	0.133
1006	0.133
1006	0.132
1007	0.132
1007	0.131
1008	0.131
1008	0.13
1008	0.13
1009	0.13
1009	0.13
1010	0.13
1010	0.13
1010	0.13
1011	0.129
1011	0.129
1012	0.129
1012	0.128
1013	0.128
1013	0.127
1013	0.126
1014	0.126
1014	0.125
1015	0.124
1015	0.124
1016	0.124
1016	0.123
1016	0.123
1017	0.122
1017	0.122
1018	0.122
1018	0.122
1018	0.122
1019	0.122
1019	0.122
1020	0.122
1020	0.122
1021	0.122
1021	0.123
1021	0.123
1022	0.123
1022	0.123
1023	0.124
1023	0.124
1023	0.125
1024	0.125
1024	0.125
1025	0.125
1025	0.125
1026	0.126
1026	0.126
1026	0.126
1027	0.126
1027	0.126
1028	0.126
1028	0.126
1028	0.126
1029	0.126
1029	0.125
1030	0.125
1030	0.125
1031	0.125
1031	0.125
1031	0.125
1032	0.125
1032	0.125
1033	0.125
1033	0.125
1033	0.125
1034	0.125
1034	0.125
1035	0.125
1035	0.125
1036	0.125
1036	0.124
1036	0.124
1037	0.124
1037	0.124
1038	0.123
1038	0.123
1039	0.122
1039	0.122
1039	0.121
1040	0.121
1040	0.121
1041	0.12
1041	0.12
1041	0.12
1042	0.119
1042	0.119
1043	0.119
1043	0.119
1044	0.118
1044	0.118
1044	0.118
1045	0.117
1045	0.117
1046	0.117
1046	0.116
1046	0.116
1047	0.116
1047	0.115
1048	0.115
1048	0.115
1049	0.115
1049	0.115
1049	0.115
1050	0.115
1050	0.114
1051	0.114
1051	0.114
1051	0.113
1052	0.113
1052	0.113
1053	0.112
1053	0.111
1053	0.111
1054	0.11
1054	0.11
1055	0.11
1055	0.109
1056	0.108
1056	0.108
1056	0.107
1057	0.106
1057	0.106
1058	0.105
1058	0.104
1058	0.104
1059	0.103
1059	0.102
1060	0.102
1060	0.101
1061	0.1
1061	0.1
1061	0.1
1062	0.099
1062	0.099
1063	0.099
1063	0.099
1063	0.098
1064	0.098
1064	0.098
1065	0.098
1065	0.098
1066	0.098
1066	0.098
1066	0.098
1067	0.097
1067	0.097
1068	0.097
1068	0.097
1068	0.097
1069	0.097
1069	0.097
1070	0.096
1070	0.096
1071	0.096
1071	0.096
1071	0.095
1072	0.096
1072	0.096
1073	0.095
1073	0.095
1073	0.095
1074	0.095
1074	0.095
1075	0.095
1075	0.095
1076	0.096
1076	0.096
1076	0.096
1077	0.096
1077	0.096
1078	0.096
1078	0.096
1078	0.096
1079	0.095
1079	0.095
1080	0.094
1080	0.094
1080	0.094
1081	0.093
1081	0.093
1082	0.094
1082	0.094
1083	0.094
1083	0.094
1083	0.094
1084	0.094
1084	0.095
1085	0.094
1085	0.095
1085	0.095
1086	0.095
1086	0.094
1087	0.094
1087	0.094
1088	0.094
1088	0.094
1088	0.094
1089	0.093
1089	0.093
1090	0.092
1090	0.091
1090	0.091
1091	0.091
1091	0.09
1092	0.09
1092	0.09
1092	0.09
1093	0.089
1093	0.09
1094	0.09
1094	0.09
1095	0.089
1095	0.089
1095	0.089
1096	0.088
1096	0.087
1097	0.086
1097	0.085
1097	0.085
1098	0.083
1098	0.082
1099	0.081
1099	0.08
1100	0.079
1100	0.077
1100	0.077
1101	0.076
1101	0.075
1102	0.075
1102	0.074
1102	0.072
1103	0.072
1103	0.071
1104	0.071
1104	0.07
1104	0.069
1105	0.067
1105	0.065
1106	0.064
1106	0.063
1107	0.062
1107	0.062
1107	0.062
1108	0.06
1108	0.059
1109	0.058
1109	0.058
1109	0.06
1110	0.062
1110	0.063
1111	0.064
1111	0.063
