Data from reversibility-20sec_Absorbance__5764__000000000005764.txt Node

Date: Wed Dec 06 20:14:25 CET 2023
User: Marek
Spectrometer: MAYP115816
Trigger mode: 0
Integration Time (sec): 2.000000E-1
Scans to average: 10
Electric dark correction enabled: true
Nonlinearity correction enabled: true
Boxcar width: 5
XAxis mode: Wavelengths
Number of Pixels in Spectrum: 2068
>>>>>Begin Spectral Data<<<<<
199	-0.203
199	-0.179
200	-0.112
200	-0.062
201	-0.031
201	-0.014
202	-0.005
202	0.001
203	0.008
203	0.015
204	0.028
204	0.042
205	0.055
205	0.061
205	0.061
206	0.059
206	0.058
207	0.062
207	0.061
208	0.06
208	0.059
209	0.061
209	0.059
210	0.06
210	0.059
211	0.059
211	0.064
212	0.062
212	0.065
213	0.07
213	0.072
213	0.072
214	0.076
214	0.079
215	0.08
215	0.081
216	0.083
216	0.078
217	0.081
217	0.084
218	0.083
218	0.086
219	0.092
219	0.094
220	0.095
220	0.094
221	0.095
221	0.096
221	0.104
222	0.109
222	0.112
223	0.117
223	0.121
224	0.124
224	0.131
225	0.14
225	0.153
226	0.164
226	0.176
227	0.186
227	0.197
228	0.213
228	0.226
229	0.242
229	0.266
229	0.287
230	0.312
230	0.341
231	0.372
231	0.408
232	0.444
232	0.486
233	0.531
233	0.582
234	0.634
234	0.687
235	0.74
235	0.792
236	0.843
236	0.894
236	0.944
237	0.998
237	1.047
238	1.094
238	1.139
239	1.185
239	1.228
240	1.269
240	1.303
241	1.337
241	1.373
242	1.406
242	1.439
243	1.468
243	1.495
243	1.522
244	1.544
244	1.563
245	1.582
245	1.606
246	1.627
246	1.643
247	1.655
247	1.669
248	1.685
248	1.698
249	1.705
249	1.715
250	1.725
250	1.734
250	1.74
251	1.746
251	1.749
252	1.757
252	1.758
253	1.76
253	1.761
254	1.764
254	1.766
255	1.765
255	1.767
256	1.766
256	1.766
257	1.768
257	1.767
258	1.767
258	1.766
258	1.765
259	1.763
259	1.762
260	1.763
260	1.764
261	1.764
261	1.766
262	1.768
262	1.768
263	1.771
263	1.772
264	1.773
264	1.775
265	1.776
265	1.776
265	1.775
266	1.775
266	1.775
267	1.774
267	1.776
268	1.776
268	1.776
269	1.777
269	1.776
270	1.775
270	1.773
271	1.773
271	1.772
272	1.77
272	1.767
272	1.764
273	1.759
273	1.755
274	1.751
274	1.747
275	1.74
275	1.735
276	1.728
276	1.72
277	1.713
277	1.704
278	1.693
278	1.683
278	1.671
279	1.658
279	1.643
280	1.626
280	1.603
281	1.575
281	1.544
282	1.51
282	1.475
283	1.44
283	1.404
284	1.368
284	1.333
285	1.3
285	1.268
285	1.24
286	1.215
286	1.193
287	1.172
287	1.155
288	1.14
288	1.127
289	1.116
289	1.106
290	1.097
290	1.089
291	1.083
291	1.076
292	1.07
292	1.065
292	1.061
293	1.056
293	1.052
294	1.048
294	1.044
295	1.04
295	1.037
296	1.034
296	1.03
297	1.027
297	1.024
298	1.02
298	1.017
298	1.014
299	1.01
299	1.007
300	1.004
300	1
301	0.997
301	0.994
302	0.991
302	0.989
303	0.986
303	0.983
304	0.98
304	0.978
305	0.975
305	0.972
305	0.969
306	0.967
306	0.964
307	0.962
307	0.959
308	0.956
308	0.954
309	0.951
309	0.947
310	0.944
310	0.941
311	0.938
311	0.934
311	0.93
312	0.926
312	0.923
313	0.919
313	0.914
314	0.911
314	0.906
315	0.902
315	0.898
316	0.893
316	0.889
317	0.884
317	0.879
318	0.874
318	0.869
318	0.864
319	0.858
319	0.853
320	0.847
320	0.841
321	0.835
321	0.829
322	0.823
322	0.817
323	0.811
323	0.804
324	0.798
324	0.791
324	0.784
325	0.778
325	0.771
326	0.764
326	0.758
327	0.751
327	0.744
328	0.737
328	0.731
329	0.724
329	0.717
330	0.71
330	0.703
330	0.696
331	0.689
331	0.682
332	0.675
332	0.668
333	0.661
333	0.655
334	0.648
334	0.641
335	0.635
335	0.628
336	0.621
336	0.615
336	0.608
337	0.602
337	0.596
338	0.59
338	0.584
339	0.578
339	0.571
340	0.566
340	0.56
341	0.555
341	0.549
342	0.544
342	0.539
342	0.533
343	0.528
343	0.523
344	0.518
344	0.513
345	0.508
345	0.504
346	0.499
346	0.494
347	0.49
347	0.486
348	0.482
348	0.478
348	0.474
349	0.47
349	0.467
350	0.463
350	0.46
351	0.456
351	0.453
352	0.449
352	0.446
353	0.443
353	0.44
354	0.438
354	0.434
354	0.431
355	0.428
355	0.425
356	0.422
356	0.42
357	0.416
357	0.413
358	0.411
358	0.408
359	0.405
359	0.403
360	0.401
360	0.399
360	0.397
361	0.395
361	0.393
362	0.392
362	0.39
363	0.388
363	0.386
364	0.384
364	0.382
365	0.38
365	0.378
366	0.376
366	0.375
366	0.373
367	0.371
367	0.369
368	0.368
368	0.366
369	0.364
369	0.363
370	0.361
370	0.359
371	0.358
371	0.356
372	0.355
372	0.354
372	0.352
373	0.351
373	0.35
374	0.349
374	0.348
375	0.347
375	0.346
376	0.345
376	0.344
377	0.343
377	0.342
378	0.341
378	0.339
378	0.339
379	0.338
379	0.337
380	0.336
380	0.335
381	0.334
381	0.334
382	0.333
382	0.332
383	0.332
383	0.331
383	0.33
384	0.329
384	0.328
385	0.328
385	0.327
386	0.326
386	0.326
387	0.325
387	0.324
388	0.323
388	0.323
389	0.322
389	0.322
389	0.321
390	0.321
390	0.32
391	0.32
391	0.319
392	0.319
392	0.319
393	0.318
393	0.317
394	0.317
394	0.316
394	0.316
395	0.315
395	0.315
396	0.314
396	0.314
397	0.313
397	0.313
398	0.312
398	0.312
399	0.311
399	0.311
400	0.311
400	0.31
400	0.31
401	0.309
401	0.309
402	0.309
402	0.308
403	0.308
403	0.307
404	0.307
404	0.307
405	0.306
405	0.306
405	0.306
406	0.305
406	0.305
407	0.304
407	0.304
408	0.303
408	0.303
409	0.302
409	0.302
410	0.302
410	0.301
411	0.301
411	0.301
411	0.301
412	0.3
412	0.3
413	0.3
413	0.299
414	0.299
414	0.299
415	0.298
415	0.298
416	0.298
416	0.297
416	0.296
417	0.296
417	0.296
418	0.296
418	0.295
419	0.295
419	0.294
420	0.294
420	0.293
421	0.293
421	0.292
421	0.292
422	0.292
422	0.291
423	0.291
423	0.291
424	0.29
424	0.29
425	0.29
425	0.29
426	0.29
426	0.289
427	0.289
427	0.289
427	0.288
428	0.288
428	0.287
429	0.287
429	0.287
430	0.286
430	0.286
431	0.286
431	0.286
432	0.286
432	0.286
432	0.286
433	0.285
433	0.285
434	0.285
434	0.285
435	0.285
435	0.285
436	0.285
436	0.285
437	0.284
437	0.284
437	0.284
438	0.284
438	0.284
439	0.283
439	0.283
440	0.283
440	0.283
441	0.282
441	0.282
442	0.282
442	0.282
442	0.282
443	0.282
443	0.282
444	0.281
444	0.281
445	0.281
445	0.281
446	0.281
446	0.281
447	0.281
447	0.281
447	0.28
448	0.28
448	0.28
449	0.28
449	0.28
450	0.28
450	0.28
451	0.28
451	0.28
452	0.28
452	0.28
452	0.28
453	0.28
453	0.28
454	0.28
454	0.28
455	0.28
455	0.28
456	0.28
456	0.28
457	0.28
457	0.28
458	0.28
458	0.28
458	0.28
459	0.28
459	0.28
460	0.28
460	0.28
461	0.28
461	0.28
462	0.28
462	0.28
463	0.28
463	0.28
463	0.28
464	0.28
464	0.28
465	0.281
465	0.281
466	0.281
466	0.281
467	0.281
467	0.281
467	0.281
468	0.282
468	0.282
469	0.283
469	0.283
470	0.283
470	0.284
471	0.284
471	0.285
472	0.285
472	0.286
472	0.286
473	0.287
473	0.287
474	0.287
474	0.288
475	0.288
475	0.288
476	0.289
476	0.289
477	0.289
477	0.29
477	0.29
478	0.291
478	0.291
479	0.292
479	0.293
480	0.293
480	0.294
481	0.294
481	0.295
482	0.295
482	0.296
482	0.297
483	0.298
483	0.299
484	0.3
484	0.3
485	0.301
485	0.301
486	0.302
486	0.303
487	0.304
487	0.305
487	0.306
488	0.306
488	0.307
489	0.308
489	0.309
490	0.311
490	0.312
491	0.313
491	0.314
492	0.315
492	0.316
492	0.318
493	0.319
493	0.32
494	0.322
494	0.323
495	0.324
495	0.325
496	0.327
496	0.328
496	0.33
497	0.331
497	0.332
498	0.333
498	0.335
499	0.336
499	0.337
500	0.339
500	0.34
501	0.341
501	0.343
501	0.344
502	0.345
502	0.346
503	0.348
503	0.349
504	0.35
504	0.351
505	0.353
505	0.354
506	0.355
506	0.356
506	0.357
507	0.359
507	0.36
508	0.36
508	0.361
509	0.362
509	0.364
510	0.365
510	0.366
511	0.367
511	0.368
511	0.369
512	0.37
512	0.371
513	0.372
513	0.373
514	0.374
514	0.375
515	0.376
515	0.377
515	0.377
516	0.378
516	0.379
517	0.38
517	0.38
518	0.381
518	0.381
519	0.381
519	0.381
520	0.381
520	0.381
520	0.381
521	0.381
521	0.381
522	0.381
522	0.381
523	0.381
523	0.381
524	0.38
524	0.38
524	0.38
525	0.38
525	0.379
526	0.379
526	0.378
527	0.378
527	0.377
528	0.376
528	0.375
529	0.374
529	0.374
529	0.372
530	0.371
530	0.37
531	0.369
531	0.368
532	0.367
532	0.365
533	0.364
533	0.363
533	0.362
534	0.36
534	0.359
535	0.357
535	0.356
536	0.354
536	0.353
537	0.351
537	0.349
538	0.348
538	0.346
538	0.344
539	0.343
539	0.341
540	0.339
540	0.337
541	0.335
541	0.333
542	0.331
542	0.33
542	0.328
543	0.326
543	0.324
544	0.322
544	0.319
545	0.317
545	0.315
546	0.313
546	0.311
547	0.309
547	0.306
547	0.304
548	0.302
548	0.3
549	0.298
549	0.296
550	0.294
550	0.292
551	0.289
551	0.287
551	0.285
552	0.282
552	0.28
553	0.278
553	0.276
554	0.274
554	0.272
555	0.27
555	0.267
556	0.265
556	0.263
556	0.261
557	0.26
557	0.258
558	0.256
558	0.254
559	0.253
559	0.251
560	0.249
560	0.247
560	0.246
561	0.244
561	0.242
562	0.24
562	0.238
563	0.236
563	0.234
564	0.232
564	0.23
564	0.229
565	0.227
565	0.225
566	0.223
566	0.221
567	0.22
567	0.218
568	0.217
568	0.215
568	0.213
569	0.212
569	0.21
570	0.208
570	0.206
571	0.205
571	0.203
572	0.201
572	0.2
573	0.198
573	0.197
573	0.195
574	0.194
574	0.193
575	0.192
575	0.191
576	0.19
576	0.188
577	0.187
577	0.186
577	0.185
578	0.183
578	0.182
579	0.181
579	0.181
580	0.179
580	0.177
581	0.176
581	0.174
581	0.174
582	0.173
582	0.172
583	0.172
583	0.171
584	0.169
584	0.167
585	0.166
585	0.165
585	0.164
586	0.163
586	0.161
587	0.16
587	0.158
588	0.157
588	0.156
589	0.155
589	0.154
590	0.154
590	0.153
590	0.153
591	0.153
591	0.152
592	0.151
592	0.15
593	0.149
593	0.149
594	0.148
594	0.147
594	0.146
595	0.145
595	0.144
596	0.143
596	0.142
597	0.142
597	0.142
598	0.141
598	0.14
598	0.14
599	0.139
599	0.139
600	0.138
600	0.137
601	0.136
601	0.136
602	0.135
602	0.134
602	0.133
603	0.133
603	0.133
604	0.132
604	0.132
605	0.132
605	0.131
606	0.13
606	0.129
606	0.128
607	0.128
607	0.127
608	0.127
608	0.126
609	0.125
609	0.124
610	0.124
610	0.123
610	0.122
611	0.122
611	0.122
612	0.121
612	0.121
613	0.121
613	0.12
614	0.12
614	0.119
614	0.119
615	0.118
615	0.118
616	0.118
616	0.117
617	0.117
617	0.116
618	0.116
618	0.116
618	0.116
619	0.116
619	0.116
620	0.116
620	0.115
621	0.114
621	0.114
622	0.113
622	0.113
622	0.112
623	0.111
623	0.111
624	0.11
624	0.109
625	0.108
625	0.108
626	0.107
626	0.107
626	0.107
627	0.107
627	0.106
628	0.105
628	0.105
629	0.104
629	0.104
630	0.103
630	0.103
630	0.103
631	0.102
631	0.102
632	0.101
632	0.101
633	0.101
633	0.1
634	0.101
634	0.101
634	0.101
635	0.1
635	0.1
636	0.1
636	0.1
637	0.1
637	0.1
638	0.099
638	0.099
638	0.098
639	0.098
639	0.097
640	0.097
640	0.097
641	0.096
641	0.096
642	0.095
642	0.095
642	0.095
643	0.095
643	0.095
644	0.095
644	0.095
645	0.094
645	0.094
646	0.094
646	0.094
646	0.094
647	0.093
647	0.092
648	0.092
648	0.091
649	0.091
649	0.09
650	0.09
650	0.09
650	0.09
651	0.09
651	0.09
652	0.089
652	0.089
653	0.09
653	0.092
653	0.098
654	0.079
654	0.065
655	0.062
655	0.062
656	0.062
656	0.062
657	0.063
657	0.063
657	0.063
658	0.062
658	0.054
659	0.067
659	0.085
660	0.091
660	0.091
661	0.09
661	0.09
661	0.089
662	0.089
662	0.088
663	0.087
663	0.087
664	0.087
664	0.086
665	0.086
665	0.086
665	0.086
666	0.086
666	0.086
667	0.086
667	0.086
668	0.087
668	0.087
669	0.087
669	0.087
669	0.088
670	0.088
670	0.088
671	0.088
671	0.088
672	0.087
672	0.087
672	0.086
673	0.086
673	0.085
674	0.085
674	0.084
675	0.083
675	0.083
676	0.083
676	0.083
676	0.083
677	0.083
677	0.082
678	0.082
678	0.081
679	0.081
679	0.08
680	0.08
680	0.08
680	0.08
681	0.079
681	0.079
682	0.08
682	0.08
683	0.08
683	0.081
684	0.081
684	0.081
684	0.081
685	0.081
685	0.081
686	0.081
686	0.081
687	0.081
687	0.081
687	0.081
688	0.08
688	0.08
689	0.08
689	0.08
690	0.08
690	0.079
691	0.079
691	0.079
691	0.079
692	0.079
692	0.079
693	0.079
693	0.079
694	0.079
694	0.078
695	0.079
695	0.08
695	0.08
696	0.079
696	0.079
697	0.079
697	0.078
698	0.078
698	0.077
698	0.077
699	0.078
699	0.077
700	0.077
700	0.077
701	0.077
701	0.077
702	0.077
702	0.077
702	0.077
703	0.077
703	0.077
704	0.077
704	0.077
705	0.077
705	0.077
705	0.077
706	0.077
706	0.077
707	0.077
707	0.077
708	0.077
708	0.077
709	0.077
709	0.077
709	0.077
710	0.076
710	0.076
711	0.076
711	0.076
712	0.076
712	0.075
713	0.075
713	0.075
713	0.074
714	0.074
714	0.074
715	0.074
715	0.073
716	0.073
716	0.073
716	0.072
717	0.072
717	0.071
718	0.071
718	0.07
719	0.07
719	0.07
720	0.071
720	0.071
720	0.071
721	0.071
721	0.072
722	0.072
722	0.072
723	0.072
723	0.073
723	0.073
724	0.073
724	0.073
725	0.072
725	0.071
726	0.071
726	0.07
727	0.069
727	0.069
727	0.068
728	0.068
728	0.067
729	0.067
729	0.067
730	0.067
730	0.067
730	0.067
731	0.068
731	0.068
732	0.069
732	0.069
733	0.069
733	0.069
734	0.069
734	0.069
734	0.07
735	0.07
735	0.07
736	0.069
736	0.069
737	0.069
737	0.069
737	0.069
738	0.069
738	0.068
739	0.067
739	0.067
740	0.066
740	0.066
741	0.066
741	0.065
741	0.065
742	0.065
742	0.065
743	0.066
743	0.066
744	0.067
744	0.067
744	0.068
745	0.068
745	0.068
746	0.068
746	0.068
747	0.068
747	0.068
748	0.068
748	0.067
748	0.067
749	0.067
749	0.067
750	0.066
750	0.066
751	0.066
751	0.065
751	0.065
752	0.064
752	0.063
753	0.062
753	0.062
754	0.061
754	0.06
754	0.06
755	0.06
755	0.06
756	0.06
756	0.059
757	0.058
757	0.059
758	0.059
758	0.059
758	0.059
759	0.06
759	0.059
760	0.059
760	0.059
761	0.059
761	0.06
761	0.06
762	0.06
762	0.06
763	0.06
763	0.059
764	0.058
764	0.058
764	0.058
765	0.057
765	0.057
766	0.057
766	0.056
767	0.056
767	0.055
768	0.054
768	0.054
768	0.054
769	0.054
769	0.055
770	0.055
770	0.055
771	0.056
771	0.056
771	0.056
772	0.057
772	0.058
773	0.058
773	0.058
774	0.058
774	0.058
775	0.059
775	0.059
775	0.059
776	0.059
776	0.059
777	0.059
777	0.059
778	0.059
778	0.058
778	0.058
779	0.058
779	0.058
780	0.057
780	0.057
781	0.057
781	0.057
781	0.057
782	0.057
782	0.057
783	0.058
783	0.059
784	0.059
784	0.059
784	0.059
785	0.06
785	0.06
786	0.06
786	0.06
787	0.06
787	0.059
788	0.058
788	0.057
788	0.055
789	0.054
789	0.053
790	0.053
790	0.052
791	0.051
791	0.05
791	0.049
792	0.05
792	0.05
793	0.05
793	0.05
794	0.05
794	0.05
794	0.05
795	0.05
795	0.05
796	0.05
796	0.05
797	0.05
797	0.05
797	0.05
798	0.05
798	0.051
799	0.051
799	0.051
800	0.051
800	0.05
801	0.05
801	0.05
801	0.05
802	0.05
802	0.051
803	0.051
803	0.051
804	0.051
804	0.051
804	0.051
805	0.05
805	0.05
806	0.05
806	0.049
807	0.049
807	0.049
807	0.049
808	0.049
808	0.049
809	0.049
809	0.05
810	0.05
810	0.05
810	0.051
811	0.051
811	0.052
812	0.052
812	0.052
813	0.053
813	0.053
813	0.053
814	0.053
814	0.054
815	0.054
815	0.054
816	0.054
816	0.053
817	0.053
817	0.052
817	0.052
818	0.051
818	0.051
819	0.051
819	0.05
820	0.049
820	0.049
820	0.048
821	0.048
821	0.048
822	0.048
822	0.048
823	0.048
823	0.048
823	0.048
824	0.049
824	0.05
825	0.05
825	0.051
826	0.051
826	0.051
826	0.051
827	0.052
827	0.052
828	0.052
828	0.052
829	0.052
829	0.052
829	0.052
830	0.052
830	0.053
831	0.054
831	0.054
832	0.054
832	0.053
832	0.053
833	0.053
833	0.053
834	0.052
834	0.052
835	0.051
835	0.051
835	0.051
836	0.051
836	0.05
837	0.05
837	0.05
838	0.05
838	0.05
839	0.05
839	0.049
839	0.048
840	0.047
840	0.046
841	0.045
841	0.045
842	0.044
842	0.043
842	0.042
843	0.042
843	0.041
844	0.04
844	0.039
845	0.038
845	0.038
845	0.037
846	0.037
846	0.036
847	0.036
847	0.037
848	0.038
848	0.038
848	0.039
849	0.04
849	0.042
850	0.043
850	0.043
851	0.044
851	0.045
851	0.045
852	0.044
852	0.044
853	0.043
853	0.043
854	0.043
854	0.043
854	0.043
855	0.043
855	0.043
856	0.043
856	0.043
857	0.044
857	0.044
857	0.045
858	0.045
858	0.045
859	0.044
859	0.044
860	0.043
860	0.043
860	0.042
861	0.042
861	0.042
862	0.041
862	0.04
863	0.04
863	0.039
863	0.039
864	0.039
864	0.039
865	0.04
865	0.04
866	0.04
866	0.04
866	0.041
867	0.042
867	0.042
868	0.043
868	0.044
869	0.044
869	0.044
869	0.044
870	0.044
870	0.044
871	0.044
871	0.045
872	0.045
872	0.045
872	0.045
873	0.045
873	0.044
874	0.044
874	0.044
875	0.044
875	0.043
875	0.043
876	0.043
876	0.043
877	0.042
877	0.042
878	0.042
878	0.042
878	0.043
879	0.043
879	0.043
880	0.043
880	0.043
881	0.044
881	0.044
881	0.044
882	0.044
882	0.044
883	0.044
883	0.044
884	0.044
884	0.044
884	0.044
885	0.043
885	0.043
886	0.043
886	0.042
887	0.042
887	0.041
887	0.04
888	0.04
888	0.039
889	0.039
889	0.039
890	0.039
890	0.039
890	0.039
891	0.038
891	0.038
892	0.038
892	0.038
893	0.038
893	0.038
893	0.038
894	0.038
894	0.037
895	0.037
895	0.037
895	0.038
896	0.038
896	0.039
897	0.039
897	0.039
898	0.039
898	0.04
898	0.04
899	0.04
899	0.04
900	0.04
900	0.04
901	0.039
901	0.039
901	0.039
902	0.039
902	0.038
903	0.038
903	0.038
904	0.038
904	0.037
904	0.037
905	0.036
905	0.036
906	0.035
906	0.035
907	0.035
907	0.035
907	0.035
908	0.034
908	0.034
909	0.034
909	0.033
910	0.033
910	0.033
910	0.032
911	0.032
911	0.032
912	0.032
912	0.031
913	0.032
913	0.032
913	0.032
914	0.033
914	0.033
915	0.034
915	0.034
916	0.035
916	0.035
916	0.036
917	0.036
917	0.036
918	0.036
918	0.036
918	0.036
919	0.036
919	0.036
920	0.037
920	0.037
921	0.037
921	0.037
921	0.037
922	0.037
922	0.037
923	0.037
923	0.037
924	0.038
924	0.038
924	0.038
925	0.039
925	0.039
926	0.04
926	0.04
927	0.041
927	0.041
927	0.041
928	0.041
928	0.041
929	0.041
929	0.041
930	0.04
930	0.04
930	0.039
931	0.039
931	0.038
932	0.038
932	0.038
933	0.037
933	0.037
933	0.037
934	0.036
934	0.036
935	0.036
935	0.036
935	0.036
936	0.036
936	0.036
937	0.036
937	0.036
938	0.035
938	0.035
938	0.035
939	0.035
939	0.034
940	0.034
940	0.034
941	0.033
941	0.033
941	0.033
942	0.033
942	0.033
943	0.033
943	0.033
944	0.033
944	0.033
944	0.033
945	0.033
945	0.033
946	0.033
946	0.033
946	0.033
947	0.034
947	0.034
948	0.035
948	0.035
949	0.035
949	0.036
949	0.036
950	0.036
950	0.037
951	0.037
951	0.037
952	0.038
952	0.037
952	0.038
953	0.038
953	0.038
954	0.038
954	0.038
955	0.038
955	0.038
955	0.038
956	0.038
956	0.038
957	0.038
957	0.038
957	0.039
958	0.039
958	0.039
959	0.039
959	0.039
960	0.039
960	0.039
960	0.039
961	0.039
961	0.039
962	0.039
962	0.038
963	0.038
963	0.038
963	0.038
964	0.038
964	0.038
965	0.039
965	0.039
966	0.039
966	0.04
966	0.04
967	0.04
967	0.041
968	0.041
968	0.041
968	0.041
969	0.041
969	0.04
970	0.04
970	0.039
971	0.039
971	0.038
971	0.037
972	0.037
972	0.036
973	0.035
973	0.035
974	0.035
974	0.035
974	0.035
975	0.035
975	0.035
976	0.035
976	0.036
976	0.036
977	0.036
977	0.036
978	0.035
978	0.035
979	0.035
979	0.035
979	0.035
980	0.034
980	0.034
981	0.033
981	0.033
982	0.033
982	0.033
982	0.033
983	0.033
983	0.033
984	0.033
984	0.033
984	0.033
985	0.033
985	0.033
986	0.033
986	0.033
987	0.033
987	0.033
987	0.033
988	0.033
988	0.033
989	0.033
989	0.033
990	0.032
990	0.032
990	0.032
991	0.032
991	0.031
992	0.031
992	0.03
992	0.029
993	0.029
993	0.028
994	0.028
994	0.027
995	0.027
995	0.027
995	0.027
996	0.027
996	0.027
997	0.028
997	0.028
997	0.029
998	0.029
998	0.03
999	0.03
999	0.031
1000	0.031
1000	0.032
1000	0.032
1001	0.032
1001	0.032
1002	0.032
1002	0.032
1003	0.031
1003	0.031
1003	0.03
1004	0.03
1004	0.029
1005	0.028
1005	0.028
1005	0.027
1006	0.026
1006	0.026
1007	0.026
1007	0.026
1008	0.026
1008	0.026
1008	0.026
1009	0.026
1009	0.027
1010	0.027
1010	0.028
1010	0.028
1011	0.028
1011	0.028
1012	0.029
1012	0.029
1013	0.029
1013	0.029
1013	0.029
1014	0.029
1014	0.029
1015	0.028
1015	0.028
1016	0.028
1016	0.028
1016	0.028
1017	0.028
1017	0.027
1018	0.027
1018	0.027
1018	0.027
1019	0.026
1019	0.026
1020	0.026
1020	0.026
1021	0.026
1021	0.026
1021	0.026
1022	0.027
1022	0.027
1023	0.028
1023	0.028
1023	0.028
1024	0.029
1024	0.029
1025	0.029
1025	0.029
1026	0.029
1026	0.029
1026	0.029
1027	0.029
1027	0.028
1028	0.029
1028	0.028
1028	0.028
1029	0.028
1029	0.028
1030	0.029
1030	0.029
1031	0.029
1031	0.029
1031	0.029
1032	0.03
1032	0.03
1033	0.03
1033	0.03
1033	0.03
1034	0.03
1034	0.03
1035	0.03
1035	0.03
1036	0.031
1036	0.031
1036	0.031
1037	0.031
1037	0.031
1038	0.031
1038	0.031
1039	0.032
1039	0.033
1039	0.033
1040	0.034
1040	0.034
1041	0.034
1041	0.034
1041	0.034
1042	0.035
1042	0.035
1043	0.035
1043	0.035
1044	0.034
1044	0.034
1044	0.034
1045	0.034
1045	0.033
1046	0.033
1046	0.033
1046	0.033
1047	0.034
1047	0.034
1048	0.034
1048	0.035
1049	0.035
1049	0.035
1049	0.035
1050	0.035
1050	0.035
1051	0.034
1051	0.034
1051	0.033
1052	0.033
1052	0.032
1053	0.031
1053	0.03
1053	0.03
1054	0.029
1054	0.029
1055	0.028
1055	0.028
1056	0.028
1056	0.027
1056	0.026
1057	0.026
1057	0.025
1058	0.025
1058	0.024
1058	0.023
1059	0.023
1059	0.023
1060	0.023
1060	0.022
1061	0.022
1061	0.022
1061	0.022
1062	0.022
1062	0.022
1063	0.022
1063	0.022
1063	0.022
1064	0.022
1064	0.022
1065	0.021
1065	0.021
1066	0.021
1066	0.021
1066	0.021
1067	0.02
1067	0.02
1068	0.02
1068	0.02
1068	0.019
1069	0.019
1069	0.019
1070	0.018
1070	0.018
1071	0.017
1071	0.017
1071	0.016
1072	0.015
1072	0.015
1073	0.014
1073	0.014
1073	0.013
1074	0.013
1074	0.014
1075	0.014
1075	0.014
1076	0.014
1076	0.015
1076	0.016
1077	0.016
1077	0.016
1078	0.015
1078	0.016
1078	0.015
1079	0.015
1079	0.015
1080	0.014
1080	0.015
1080	0.014
1081	0.014
1081	0.014
1082	0.015
1082	0.015
1083	0.015
1083	0.015
1083	0.015
1084	0.016
1084	0.016
1085	0.016
1085	0.016
1085	0.016
1086	0.016
1086	0.016
1087	0.016
1087	0.016
1088	0.016
1088	0.016
1088	0.016
1089	0.015
1089	0.015
1090	0.014
1090	0.014
1090	0.012
1091	0.012
1091	0.012
1092	0.012
1092	0.013
1092	0.013
1093	0.012
1093	0.013
1094	0.013
1094	0.013
1095	0.013
1095	0.013
1095	0.013
1096	0.012
1096	0.011
1097	0.01
1097	0.01
1097	0.009
1098	0.008
1098	0.007
1099	0.006
1099	0.004
1100	0.003
1100	0.001
1100	0.001
1101	-0
1101	-0.001
1102	-0.002
1102	-0.004
1102	-0.005
1103	-0.006
1103	-0.007
1104	-0.008
1104	-0.008
1104	-0.009
1105	-0.011
1105	-0.012
1106	-0.014
1106	-0.015
1107	-0.016
1107	-0.016
1107	-0.017
1108	-0.018
1108	-0.018
1109	-0.02
1109	-0.021
1109	-0.02
1110	-0.019
1110	-0.02
1111	-0.021
1111	-0.021
