Data from reversibility-20sec_Absorbance__7659__000000000007659.txt Node

Date: Thu Dec 07 06:46:06 CET 2023
User: Marek
Spectrometer: MAYP115816
Trigger mode: 0
Integration Time (sec): 2.000000E-1
Scans to average: 10
Electric dark correction enabled: true
Nonlinearity correction enabled: true
Boxcar width: 5
XAxis mode: Wavelengths
Number of Pixels in Spectrum: 2068
>>>>>Begin Spectral Data<<<<<
199	-0.111
199	-0.095
200	-0.038
200	0.013
201	0.04
201	0.052
202	0.06
202	0.068
203	0.077
203	0.08
204	0.092
204	0.103
205	0.115
205	0.122
205	0.119
206	0.117
206	0.119
207	0.123
207	0.123
208	0.122
208	0.121
209	0.125
209	0.12
210	0.121
210	0.121
211	0.122
211	0.126
212	0.124
212	0.124
213	0.128
213	0.13
213	0.128
214	0.134
214	0.138
215	0.14
215	0.14
216	0.143
216	0.143
217	0.146
217	0.147
218	0.146
218	0.149
219	0.157
219	0.155
220	0.16
220	0.16
221	0.161
221	0.163
221	0.17
222	0.173
222	0.18
223	0.188
223	0.193
224	0.198
224	0.205
225	0.212
225	0.224
226	0.238
226	0.246
227	0.252
227	0.262
228	0.275
228	0.289
229	0.305
229	0.326
229	0.347
230	0.37
230	0.399
231	0.431
231	0.47
232	0.511
232	0.556
233	0.596
233	0.642
234	0.695
234	0.747
235	0.801
235	0.857
236	0.906
236	0.955
236	1.005
237	1.056
237	1.105
238	1.155
238	1.204
239	1.247
239	1.288
240	1.327
240	1.363
241	1.398
241	1.432
242	1.465
242	1.497
243	1.527
243	1.551
243	1.575
244	1.597
244	1.62
245	1.64
245	1.663
246	1.683
246	1.7
247	1.712
247	1.726
248	1.739
248	1.754
249	1.764
249	1.772
250	1.778
250	1.786
250	1.789
251	1.792
251	1.796
252	1.802
252	1.802
253	1.803
253	1.803
254	1.802
254	1.803
255	1.802
255	1.803
256	1.803
256	1.804
257	1.804
257	1.803
258	1.803
258	1.805
258	1.804
259	1.805
259	1.804
260	1.803
260	1.804
261	1.803
261	1.805
262	1.807
262	1.806
263	1.809
263	1.809
264	1.809
264	1.808
265	1.81
265	1.809
265	1.811
266	1.811
266	1.81
267	1.807
267	1.809
268	1.809
268	1.808
269	1.81
269	1.811
270	1.81
270	1.81
271	1.807
271	1.806
272	1.803
272	1.803
272	1.8
273	1.794
273	1.79
274	1.785
274	1.779
275	1.773
275	1.766
276	1.76
276	1.753
277	1.745
277	1.734
278	1.722
278	1.71
278	1.697
279	1.683
279	1.666
280	1.645
280	1.62
281	1.589
281	1.555
282	1.519
282	1.481
283	1.442
283	1.403
284	1.366
284	1.329
285	1.294
285	1.261
285	1.232
286	1.205
286	1.182
287	1.161
287	1.144
288	1.129
288	1.116
289	1.104
289	1.094
290	1.085
290	1.078
291	1.071
291	1.065
292	1.059
292	1.054
292	1.049
293	1.044
293	1.04
294	1.036
294	1.032
295	1.029
295	1.025
296	1.021
296	1.018
297	1.015
297	1.011
298	1.008
298	1.005
298	1.002
299	0.998
299	0.995
300	0.992
300	0.988
301	0.986
301	0.982
302	0.979
302	0.977
303	0.974
303	0.971
304	0.969
304	0.966
305	0.964
305	0.961
305	0.958
306	0.955
306	0.952
307	0.95
307	0.947
308	0.944
308	0.941
309	0.937
309	0.934
310	0.931
310	0.928
311	0.925
311	0.921
311	0.918
312	0.914
312	0.91
313	0.907
313	0.903
314	0.899
314	0.894
315	0.89
315	0.885
316	0.881
316	0.876
317	0.871
317	0.866
318	0.861
318	0.856
318	0.85
319	0.845
319	0.839
320	0.833
320	0.827
321	0.821
321	0.815
322	0.808
322	0.802
323	0.795
323	0.789
324	0.782
324	0.776
324	0.769
325	0.762
325	0.755
326	0.748
326	0.741
327	0.734
327	0.727
328	0.72
328	0.713
329	0.706
329	0.698
330	0.691
330	0.684
330	0.677
331	0.67
331	0.662
332	0.655
332	0.648
333	0.641
333	0.634
334	0.627
334	0.62
335	0.613
335	0.606
336	0.599
336	0.592
336	0.585
337	0.579
337	0.572
338	0.566
338	0.56
339	0.554
339	0.548
340	0.542
340	0.536
341	0.53
341	0.524
342	0.519
342	0.513
342	0.508
343	0.502
343	0.497
344	0.492
344	0.487
345	0.482
345	0.477
346	0.472
346	0.468
347	0.463
347	0.459
348	0.455
348	0.451
348	0.447
349	0.443
349	0.439
350	0.436
350	0.432
351	0.429
351	0.425
352	0.422
352	0.419
353	0.416
353	0.413
354	0.41
354	0.407
354	0.404
355	0.401
355	0.398
356	0.395
356	0.392
357	0.388
357	0.385
358	0.383
358	0.38
359	0.378
359	0.375
360	0.373
360	0.371
360	0.369
361	0.367
361	0.365
362	0.364
362	0.362
363	0.36
363	0.358
364	0.356
364	0.354
365	0.352
365	0.35
366	0.348
366	0.346
366	0.344
367	0.343
367	0.341
368	0.339
368	0.337
369	0.336
369	0.334
370	0.333
370	0.331
371	0.33
371	0.329
372	0.327
372	0.326
372	0.325
373	0.324
373	0.323
374	0.322
374	0.321
375	0.32
375	0.319
376	0.318
376	0.317
377	0.316
377	0.314
378	0.313
378	0.312
378	0.311
379	0.31
379	0.309
380	0.308
380	0.308
381	0.307
381	0.306
382	0.306
382	0.305
383	0.304
383	0.304
383	0.303
384	0.303
384	0.302
385	0.302
385	0.301
386	0.301
386	0.3
387	0.299
387	0.299
388	0.298
388	0.298
389	0.297
389	0.297
389	0.296
390	0.296
390	0.295
391	0.295
391	0.294
392	0.294
392	0.293
393	0.293
393	0.292
394	0.292
394	0.291
394	0.291
395	0.29
395	0.29
396	0.29
396	0.289
397	0.289
397	0.288
398	0.288
398	0.287
399	0.287
399	0.286
400	0.286
400	0.285
400	0.285
401	0.285
401	0.284
402	0.284
402	0.284
403	0.283
403	0.283
404	0.283
404	0.282
405	0.282
405	0.282
405	0.282
406	0.281
406	0.281
407	0.281
407	0.28
408	0.28
408	0.28
409	0.279
409	0.279
410	0.279
410	0.278
411	0.278
411	0.278
411	0.278
412	0.277
412	0.277
413	0.276
413	0.276
414	0.276
414	0.275
415	0.275
415	0.275
416	0.274
416	0.274
416	0.273
417	0.273
417	0.273
418	0.272
418	0.272
419	0.271
419	0.271
420	0.271
420	0.27
421	0.27
421	0.269
421	0.269
422	0.269
422	0.268
423	0.268
423	0.268
424	0.268
424	0.267
425	0.267
425	0.267
426	0.267
426	0.266
427	0.266
427	0.265
427	0.265
428	0.264
428	0.264
429	0.264
429	0.263
430	0.263
430	0.263
431	0.263
431	0.262
432	0.262
432	0.262
432	0.262
433	0.262
433	0.261
434	0.261
434	0.261
435	0.261
435	0.261
436	0.261
436	0.26
437	0.26
437	0.26
437	0.26
438	0.259
438	0.259
439	0.259
439	0.259
440	0.258
440	0.258
441	0.258
441	0.258
442	0.258
442	0.257
442	0.257
443	0.257
443	0.257
444	0.257
444	0.257
445	0.257
445	0.257
446	0.257
446	0.256
447	0.256
447	0.256
447	0.256
448	0.256
448	0.256
449	0.256
449	0.256
450	0.256
450	0.256
451	0.255
451	0.255
452	0.255
452	0.255
452	0.255
453	0.255
453	0.255
454	0.255
454	0.254
455	0.254
455	0.254
456	0.254
456	0.254
457	0.254
457	0.254
458	0.253
458	0.253
458	0.253
459	0.253
459	0.253
460	0.253
460	0.253
461	0.253
461	0.253
462	0.253
462	0.253
463	0.253
463	0.253
463	0.253
464	0.253
464	0.253
465	0.253
465	0.253
466	0.253
466	0.253
467	0.253
467	0.253
467	0.253
468	0.254
468	0.254
469	0.254
469	0.255
470	0.255
470	0.255
471	0.256
471	0.256
472	0.256
472	0.256
472	0.256
473	0.256
473	0.256
474	0.257
474	0.257
475	0.257
475	0.257
476	0.257
476	0.258
477	0.258
477	0.258
477	0.259
478	0.259
478	0.259
479	0.26
479	0.26
480	0.261
480	0.261
481	0.262
481	0.262
482	0.262
482	0.263
482	0.263
483	0.264
483	0.264
484	0.265
484	0.265
485	0.265
485	0.265
486	0.265
486	0.266
487	0.266
487	0.267
487	0.267
488	0.268
488	0.269
489	0.269
489	0.271
490	0.272
490	0.273
491	0.274
491	0.275
492	0.276
492	0.277
492	0.278
493	0.279
493	0.28
494	0.281
494	0.282
495	0.283
495	0.284
496	0.285
496	0.286
496	0.287
497	0.288
497	0.289
498	0.29
498	0.29
499	0.291
499	0.292
500	0.294
500	0.295
501	0.296
501	0.296
501	0.297
502	0.298
502	0.299
503	0.299
503	0.3
504	0.301
504	0.302
505	0.303
505	0.304
506	0.305
506	0.306
506	0.307
507	0.308
507	0.309
508	0.31
508	0.311
509	0.311
509	0.312
510	0.313
510	0.314
511	0.314
511	0.315
511	0.316
512	0.317
512	0.317
513	0.318
513	0.319
514	0.319
514	0.32
515	0.321
515	0.321
515	0.322
516	0.323
516	0.323
517	0.324
517	0.324
518	0.325
518	0.325
519	0.325
519	0.326
520	0.326
520	0.326
520	0.326
521	0.326
521	0.326
522	0.326
522	0.326
523	0.326
523	0.326
524	0.326
524	0.326
524	0.326
525	0.326
525	0.325
526	0.325
526	0.324
527	0.324
527	0.323
528	0.323
528	0.322
529	0.322
529	0.321
529	0.32
530	0.319
530	0.319
531	0.318
531	0.317
532	0.316
532	0.315
533	0.314
533	0.314
533	0.313
534	0.311
534	0.31
535	0.309
535	0.309
536	0.307
536	0.306
537	0.305
537	0.304
538	0.303
538	0.301
538	0.3
539	0.299
539	0.298
540	0.296
540	0.295
541	0.294
541	0.293
542	0.291
542	0.29
542	0.289
543	0.287
543	0.286
544	0.284
544	0.283
545	0.281
545	0.279
546	0.278
546	0.276
547	0.274
547	0.273
547	0.271
548	0.27
548	0.268
549	0.267
549	0.265
550	0.264
550	0.263
551	0.261
551	0.259
551	0.258
552	0.257
552	0.255
553	0.254
553	0.252
554	0.251
554	0.249
555	0.247
555	0.245
556	0.244
556	0.242
556	0.241
557	0.24
557	0.239
558	0.238
558	0.236
559	0.235
559	0.234
560	0.233
560	0.232
560	0.23
561	0.229
561	0.228
562	0.226
562	0.225
563	0.223
563	0.221
564	0.219
564	0.218
564	0.217
565	0.216
565	0.214
566	0.213
566	0.212
567	0.211
567	0.21
568	0.208
568	0.207
568	0.206
569	0.205
569	0.203
570	0.202
570	0.2
571	0.199
571	0.198
572	0.196
572	0.195
573	0.194
573	0.193
573	0.192
574	0.191
574	0.19
575	0.189
575	0.189
576	0.188
576	0.186
577	0.185
577	0.184
577	0.183
578	0.183
578	0.182
579	0.181
579	0.181
580	0.18
580	0.178
581	0.177
581	0.177
581	0.176
582	0.176
582	0.175
583	0.174
583	0.173
584	0.172
584	0.17
585	0.17
585	0.169
585	0.168
586	0.168
586	0.167
587	0.166
587	0.165
588	0.165
588	0.164
589	0.163
589	0.163
590	0.162
590	0.162
590	0.161
591	0.161
591	0.16
592	0.159
592	0.158
593	0.157
593	0.156
594	0.156
594	0.155
594	0.154
595	0.153
595	0.152
596	0.152
596	0.151
597	0.152
597	0.152
598	0.151
598	0.151
598	0.151
599	0.15
599	0.15
600	0.149
600	0.148
601	0.148
601	0.147
602	0.146
602	0.145
602	0.145
603	0.144
603	0.144
604	0.144
604	0.144
605	0.143
605	0.143
606	0.142
606	0.142
606	0.141
607	0.14
607	0.14
608	0.139
608	0.138
609	0.138
609	0.137
610	0.136
610	0.136
610	0.136
611	0.136
611	0.136
612	0.136
612	0.136
613	0.136
613	0.135
614	0.135
614	0.135
614	0.135
615	0.134
615	0.134
616	0.134
616	0.134
617	0.133
617	0.133
618	0.133
618	0.132
618	0.132
619	0.132
619	0.132
620	0.132
620	0.131
621	0.13
621	0.13
622	0.129
622	0.129
622	0.128
623	0.128
623	0.128
624	0.127
624	0.127
625	0.126
625	0.127
626	0.126
626	0.126
626	0.126
627	0.126
627	0.126
628	0.126
628	0.126
629	0.126
629	0.125
630	0.125
630	0.124
630	0.124
631	0.124
631	0.123
632	0.123
632	0.122
633	0.122
633	0.121
634	0.121
634	0.121
634	0.121
635	0.121
635	0.12
636	0.12
636	0.12
637	0.119
637	0.119
638	0.119
638	0.118
638	0.118
639	0.117
639	0.117
640	0.117
640	0.116
641	0.116
641	0.116
642	0.116
642	0.116
642	0.116
643	0.116
643	0.116
644	0.116
644	0.116
645	0.116
645	0.117
646	0.117
646	0.117
646	0.117
647	0.117
647	0.117
648	0.116
648	0.115
649	0.115
649	0.115
650	0.114
650	0.114
650	0.114
651	0.114
651	0.114
652	0.114
652	0.114
653	0.114
653	0.116
653	0.121
654	0.097
654	0.079
655	0.077
655	0.077
656	0.077
656	0.077
657	0.078
657	0.078
657	0.078
658	0.077
658	0.069
659	0.086
659	0.109
660	0.114
660	0.114
661	0.114
661	0.113
661	0.112
662	0.112
662	0.111
663	0.111
663	0.111
664	0.11
664	0.11
665	0.11
665	0.11
665	0.11
666	0.11
666	0.11
667	0.11
667	0.11
668	0.11
668	0.11
669	0.11
669	0.11
669	0.111
670	0.111
670	0.111
671	0.11
671	0.11
672	0.109
672	0.109
672	0.108
673	0.108
673	0.108
674	0.107
674	0.107
675	0.107
675	0.107
676	0.107
676	0.107
676	0.107
677	0.108
677	0.108
678	0.108
678	0.108
679	0.107
679	0.107
680	0.107
680	0.107
680	0.106
681	0.106
681	0.107
682	0.107
682	0.107
683	0.107
683	0.107
684	0.107
684	0.107
684	0.107
685	0.107
685	0.107
686	0.107
686	0.107
687	0.107
687	0.108
687	0.108
688	0.108
688	0.108
689	0.109
689	0.109
690	0.109
690	0.109
691	0.108
691	0.109
691	0.109
692	0.109
692	0.109
693	0.109
693	0.109
694	0.109
694	0.109
695	0.109
695	0.11
695	0.11
696	0.11
696	0.11
697	0.11
697	0.11
698	0.109
698	0.109
698	0.109
699	0.109
699	0.108
700	0.107
700	0.107
701	0.106
701	0.106
702	0.105
702	0.104
702	0.104
703	0.103
703	0.103
704	0.102
704	0.102
705	0.102
705	0.102
705	0.102
706	0.102
706	0.102
707	0.102
707	0.102
708	0.102
708	0.102
709	0.102
709	0.102
709	0.102
710	0.102
710	0.103
711	0.103
711	0.104
712	0.104
712	0.104
713	0.104
713	0.104
713	0.104
714	0.104
714	0.104
715	0.104
715	0.103
716	0.103
716	0.102
716	0.102
717	0.101
717	0.101
718	0.1
718	0.101
719	0.101
719	0.102
720	0.102
720	0.103
720	0.103
721	0.104
721	0.104
722	0.105
722	0.105
723	0.105
723	0.105
723	0.105
724	0.105
724	0.104
725	0.103
725	0.102
726	0.101
726	0.101
727	0.1
727	0.099
727	0.099
728	0.098
728	0.098
729	0.098
729	0.098
730	0.098
730	0.098
730	0.099
731	0.099
731	0.1
732	0.1
732	0.101
733	0.101
733	0.101
734	0.102
734	0.102
734	0.103
735	0.103
735	0.103
736	0.103
736	0.103
737	0.103
737	0.103
737	0.103
738	0.102
738	0.101
739	0.101
739	0.1
740	0.1
740	0.1
741	0.1
741	0.1
741	0.1
742	0.101
742	0.101
743	0.102
743	0.103
744	0.104
744	0.104
744	0.104
745	0.104
745	0.104
746	0.104
746	0.104
747	0.103
747	0.103
748	0.102
748	0.102
748	0.102
749	0.102
749	0.102
750	0.103
750	0.103
751	0.103
751	0.103
751	0.103
752	0.103
752	0.103
753	0.102
753	0.102
754	0.101
754	0.101
754	0.1
755	0.1
755	0.099
756	0.098
756	0.097
757	0.096
757	0.096
758	0.096
758	0.096
758	0.096
759	0.096
759	0.096
760	0.096
760	0.096
761	0.096
761	0.097
761	0.097
762	0.097
762	0.097
763	0.097
763	0.097
764	0.096
764	0.096
764	0.096
765	0.096
765	0.095
766	0.095
766	0.095
767	0.094
767	0.093
768	0.092
768	0.092
768	0.092
769	0.092
769	0.092
770	0.092
770	0.093
771	0.093
771	0.093
771	0.094
772	0.094
772	0.095
773	0.095
773	0.095
774	0.095
774	0.095
775	0.096
775	0.095
775	0.095
776	0.096
776	0.096
777	0.096
777	0.096
778	0.096
778	0.095
778	0.095
779	0.095
779	0.094
780	0.093
780	0.092
781	0.091
781	0.09
781	0.089
782	0.088
782	0.088
783	0.088
783	0.089
784	0.088
784	0.089
784	0.089
785	0.089
785	0.09
786	0.09
786	0.091
787	0.091
787	0.091
788	0.09
788	0.09
788	0.09
789	0.089
789	0.089
790	0.089
790	0.089
791	0.089
791	0.089
791	0.088
792	0.089
792	0.089
793	0.089
793	0.088
794	0.088
794	0.088
794	0.088
795	0.088
795	0.088
796	0.088
796	0.087
797	0.087
797	0.086
797	0.087
798	0.086
798	0.086
799	0.086
799	0.086
800	0.085
800	0.085
801	0.085
801	0.085
801	0.086
802	0.086
802	0.086
803	0.086
803	0.086
804	0.087
804	0.087
804	0.087
805	0.086
805	0.086
806	0.086
806	0.085
807	0.085
807	0.085
807	0.085
808	0.085
808	0.085
809	0.085
809	0.085
810	0.085
810	0.085
810	0.085
811	0.085
811	0.086
812	0.086
812	0.086
813	0.086
813	0.087
813	0.087
814	0.088
814	0.088
815	0.089
815	0.089
816	0.089
816	0.089
817	0.089
817	0.089
817	0.088
818	0.088
818	0.087
819	0.086
819	0.085
820	0.084
820	0.083
820	0.083
821	0.082
821	0.082
822	0.081
822	0.081
823	0.081
823	0.081
823	0.081
824	0.082
824	0.084
825	0.085
825	0.086
826	0.087
826	0.087
826	0.088
827	0.089
827	0.089
828	0.089
828	0.089
829	0.09
829	0.089
829	0.089
830	0.089
830	0.089
831	0.089
831	0.089
832	0.089
832	0.088
832	0.088
833	0.088
833	0.088
834	0.087
834	0.087
835	0.086
835	0.086
835	0.085
836	0.085
836	0.085
837	0.084
837	0.084
838	0.083
838	0.083
839	0.082
839	0.082
839	0.081
840	0.08
840	0.079
841	0.078
841	0.077
842	0.077
842	0.076
842	0.075
843	0.074
843	0.074
844	0.074
844	0.073
845	0.073
845	0.073
845	0.073
846	0.073
846	0.073
847	0.073
847	0.073
848	0.073
848	0.073
848	0.073
849	0.073
849	0.073
850	0.073
850	0.073
851	0.072
851	0.072
851	0.072
852	0.071
852	0.071
853	0.071
853	0.071
854	0.071
854	0.072
854	0.073
855	0.074
855	0.075
856	0.076
856	0.077
857	0.079
857	0.08
857	0.08
858	0.081
858	0.081
859	0.081
859	0.08
860	0.08
860	0.08
860	0.079
861	0.078
861	0.078
862	0.077
862	0.076
863	0.075
863	0.075
863	0.075
864	0.075
864	0.075
865	0.075
865	0.075
866	0.075
866	0.075
866	0.075
867	0.076
867	0.076
868	0.076
868	0.076
869	0.076
869	0.076
869	0.075
870	0.075
870	0.075
871	0.075
871	0.075
872	0.075
872	0.074
872	0.074
873	0.074
873	0.074
874	0.073
874	0.073
875	0.072
875	0.072
875	0.072
876	0.072
876	0.072
877	0.071
877	0.071
878	0.071
878	0.072
878	0.072
879	0.072
879	0.073
880	0.073
880	0.073
881	0.073
881	0.073
881	0.073
882	0.073
882	0.073
883	0.072
883	0.072
884	0.072
884	0.072
884	0.072
885	0.072
885	0.071
886	0.071
886	0.071
887	0.071
887	0.071
887	0.071
888	0.071
888	0.071
889	0.071
889	0.071
890	0.072
890	0.072
890	0.072
891	0.072
891	0.073
892	0.073
892	0.073
893	0.072
893	0.072
893	0.072
894	0.071
894	0.07
895	0.07
895	0.069
895	0.069
896	0.068
896	0.068
897	0.068
897	0.068
898	0.067
898	0.067
898	0.067
899	0.067
899	0.067
900	0.067
900	0.067
901	0.067
901	0.067
901	0.067
902	0.067
902	0.067
903	0.067
903	0.067
904	0.067
904	0.067
904	0.066
905	0.066
905	0.066
906	0.065
906	0.065
907	0.065
907	0.065
907	0.065
908	0.065
908	0.065
909	0.065
909	0.064
910	0.064
910	0.064
910	0.064
911	0.063
911	0.063
912	0.062
912	0.062
913	0.062
913	0.061
913	0.061
914	0.061
914	0.06
915	0.06
915	0.06
916	0.06
916	0.06
916	0.06
917	0.06
917	0.06
918	0.06
918	0.06
918	0.06
919	0.06
919	0.06
920	0.06
920	0.06
921	0.06
921	0.06
921	0.06
922	0.06
922	0.06
923	0.06
923	0.06
924	0.06
924	0.061
924	0.06
925	0.061
925	0.061
926	0.061
926	0.061
927	0.061
927	0.061
927	0.061
928	0.062
928	0.062
929	0.063
929	0.063
930	0.063
930	0.064
930	0.064
931	0.064
931	0.064
932	0.064
932	0.064
933	0.064
933	0.064
933	0.064
934	0.063
934	0.063
935	0.062
935	0.062
935	0.061
936	0.06
936	0.059
937	0.059
937	0.058
938	0.057
938	0.056
938	0.055
939	0.055
939	0.054
940	0.054
940	0.054
941	0.054
941	0.055
941	0.055
942	0.056
942	0.057
943	0.058
943	0.058
944	0.059
944	0.059
944	0.06
945	0.06
945	0.061
946	0.061
946	0.061
946	0.061
947	0.061
947	0.06
948	0.06
948	0.059
949	0.059
949	0.058
949	0.058
950	0.057
950	0.057
951	0.056
951	0.055
952	0.055
952	0.054
952	0.054
953	0.054
953	0.053
954	0.053
954	0.053
955	0.053
955	0.053
955	0.054
956	0.054
956	0.055
957	0.056
957	0.057
957	0.058
958	0.059
958	0.06
959	0.061
959	0.061
960	0.062
960	0.063
960	0.063
961	0.064
961	0.064
962	0.064
962	0.063
963	0.063
963	0.063
963	0.062
964	0.062
964	0.062
965	0.062
965	0.062
966	0.061
966	0.061
966	0.061
967	0.061
967	0.061
968	0.061
968	0.061
968	0.06
969	0.059
969	0.059
970	0.058
970	0.057
971	0.056
971	0.055
971	0.055
972	0.054
972	0.053
973	0.053
973	0.053
974	0.053
974	0.053
974	0.053
975	0.054
975	0.054
976	0.054
976	0.055
976	0.055
977	0.055
977	0.055
978	0.055
978	0.055
979	0.055
979	0.055
979	0.055
980	0.055
980	0.055
981	0.055
981	0.055
982	0.056
982	0.056
982	0.057
983	0.057
983	0.057
984	0.058
984	0.058
984	0.058
985	0.058
985	0.058
986	0.057
986	0.057
987	0.056
987	0.056
987	0.056
988	0.055
988	0.055
989	0.055
989	0.055
990	0.055
990	0.054
990	0.054
991	0.054
991	0.054
992	0.054
992	0.054
992	0.053
993	0.053
993	0.052
994	0.051
994	0.051
995	0.05
995	0.05
995	0.049
996	0.049
996	0.049
997	0.049
997	0.049
997	0.049
998	0.05
998	0.05
999	0.051
999	0.051
1000	0.052
1000	0.053
1000	0.053
1001	0.054
1001	0.054
1002	0.054
1002	0.054
1003	0.054
1003	0.054
1003	0.054
1004	0.053
1004	0.053
1005	0.052
1005	0.052
1005	0.051
1006	0.051
1006	0.05
1007	0.05
1007	0.05
1008	0.049
1008	0.049
1008	0.049
1009	0.049
1009	0.048
1010	0.048
1010	0.048
1010	0.048
1011	0.047
1011	0.047
1012	0.047
1012	0.047
1013	0.046
1013	0.046
1013	0.046
1014	0.045
1014	0.045
1015	0.045
1015	0.045
1016	0.045
1016	0.045
1016	0.045
1017	0.045
1017	0.044
1018	0.044
1018	0.044
1018	0.044
1019	0.044
1019	0.044
1020	0.045
1020	0.045
1021	0.045
1021	0.046
1021	0.046
1022	0.047
1022	0.047
1023	0.047
1023	0.048
1023	0.048
1024	0.048
1024	0.048
1025	0.048
1025	0.048
1026	0.048
1026	0.048
1026	0.048
1027	0.048
1027	0.048
1028	0.047
1028	0.047
1028	0.047
1029	0.047
1029	0.047
1030	0.047
1030	0.047
1031	0.048
1031	0.048
1031	0.048
1032	0.048
1032	0.048
1033	0.048
1033	0.048
1033	0.048
1034	0.048
1034	0.048
1035	0.048
1035	0.048
1036	0.048
1036	0.048
1036	0.048
1037	0.048
1037	0.048
1038	0.048
1038	0.048
1039	0.047
1039	0.047
1039	0.047
1040	0.047
1040	0.047
1041	0.046
1041	0.046
1041	0.045
1042	0.045
1042	0.045
1043	0.044
1043	0.044
1044	0.043
1044	0.043
1044	0.043
1045	0.043
1045	0.042
1046	0.042
1046	0.042
1046	0.042
1047	0.042
1047	0.042
1048	0.042
1048	0.042
1049	0.042
1049	0.042
1049	0.042
1050	0.042
1050	0.041
1051	0.041
1051	0.041
1051	0.041
1052	0.041
1052	0.041
1053	0.04
1053	0.04
1053	0.039
1054	0.039
1054	0.039
1055	0.039
1055	0.038
1056	0.038
1056	0.038
1056	0.037
1057	0.037
1057	0.037
1058	0.037
1058	0.036
1058	0.036
1059	0.036
1059	0.036
1060	0.036
1060	0.036
1061	0.036
1061	0.036
1061	0.036
1062	0.036
1062	0.036
1063	0.036
1063	0.036
1063	0.036
1064	0.036
1064	0.036
1065	0.036
1065	0.036
1066	0.036
1066	0.036
1066	0.036
1067	0.036
1067	0.036
1068	0.036
1068	0.036
1068	0.036
1069	0.036
1069	0.036
1070	0.036
1070	0.035
1071	0.035
1071	0.035
1071	0.035
1072	0.035
1072	0.034
1073	0.034
1073	0.033
1073	0.033
1074	0.033
1074	0.034
1075	0.034
1075	0.034
1076	0.034
1076	0.034
1076	0.034
1077	0.035
1077	0.035
1078	0.035
1078	0.036
1078	0.036
1079	0.035
1079	0.035
1080	0.035
1080	0.034
1080	0.034
1081	0.033
1081	0.033
1082	0.034
1082	0.034
1083	0.033
1083	0.033
1083	0.033
1084	0.033
1084	0.034
1085	0.034
1085	0.034
1085	0.034
1086	0.035
1086	0.034
1087	0.034
1087	0.034
1088	0.034
1088	0.034
1088	0.034
1089	0.034
1089	0.033
1090	0.032
1090	0.032
1090	0.031
1091	0.031
1091	0.031
1092	0.031
1092	0.031
1092	0.031
1093	0.031
1093	0.031
1094	0.031
1094	0.031
1095	0.03
1095	0.031
1095	0.031
1096	0.03
1096	0.029
1097	0.028
1097	0.028
1097	0.027
1098	0.026
1098	0.025
1099	0.025
1099	0.024
1100	0.023
1100	0.022
1100	0.021
1101	0.021
1101	0.021
1102	0.021
1102	0.02
1102	0.02
1103	0.02
1103	0.02
1104	0.019
1104	0.021
1104	0.02
1105	0.019
1105	0.018
1106	0.016
1106	0.015
1107	0.016
1107	0.016
1107	0.015
1108	0.013
1108	0.013
1109	0.011
1109	0.011
1109	0.011
1110	0.015
1110	0.015
1111	0.014
1111	0.009
