Data from reversibility-20sec_Absorbance__2277__000000000002277.txt Node

Date: Wed Dec 06 00:52:06 CET 2023
User: Marek
Spectrometer: MAYP115816
Trigger mode: 0
Integration Time (sec): 2.000000E-1
Scans to average: 10
Electric dark correction enabled: true
Nonlinearity correction enabled: true
Boxcar width: 5
XAxis mode: Wavelengths
Number of Pixels in Spectrum: 2068
>>>>>Begin Spectral Data<<<<<
199	-0.212
199	-0.178
200	-0.107
200	-0.051
201	-0.02
201	-0.003
202	0.01
202	0.02
203	0.026
203	0.029
204	0.046
204	0.062
205	0.075
205	0.081
205	0.077
206	0.077
206	0.077
207	0.079
207	0.076
208	0.078
208	0.079
209	0.082
209	0.078
210	0.077
210	0.079
211	0.081
211	0.085
212	0.083
212	0.082
213	0.086
213	0.086
213	0.086
214	0.089
214	0.092
215	0.094
215	0.093
216	0.095
216	0.092
217	0.096
217	0.099
218	0.101
218	0.105
219	0.108
219	0.108
220	0.109
220	0.112
221	0.113
221	0.115
221	0.121
222	0.126
222	0.131
223	0.135
223	0.137
224	0.143
224	0.152
225	0.16
225	0.169
226	0.181
226	0.192
227	0.204
227	0.214
228	0.228
228	0.244
229	0.264
229	0.288
229	0.31
230	0.336
230	0.363
231	0.395
231	0.435
232	0.473
232	0.515
233	0.559
233	0.61
234	0.658
234	0.712
235	0.765
235	0.821
236	0.876
236	0.929
236	0.98
237	1.034
237	1.086
238	1.138
238	1.186
239	1.235
239	1.278
240	1.322
240	1.358
241	1.395
241	1.435
242	1.469
242	1.507
243	1.541
243	1.568
243	1.595
244	1.622
244	1.646
245	1.666
245	1.693
246	1.716
246	1.737
247	1.751
247	1.766
248	1.784
248	1.803
249	1.815
249	1.825
250	1.838
250	1.851
250	1.858
251	1.866
251	1.873
252	1.883
252	1.886
253	1.891
253	1.891
254	1.895
254	1.902
255	1.903
255	1.904
256	1.907
256	1.906
257	1.908
257	1.909
258	1.91
258	1.91
258	1.913
259	1.913
259	1.912
260	1.913
260	1.916
261	1.916
261	1.922
262	1.926
262	1.926
263	1.933
263	1.935
264	1.936
264	1.94
265	1.943
265	1.945
265	1.946
266	1.949
266	1.951
267	1.949
267	1.954
268	1.954
268	1.955
269	1.96
269	1.959
270	1.96
270	1.96
271	1.96
271	1.96
272	1.958
272	1.956
272	1.951
273	1.947
273	1.941
274	1.935
274	1.928
275	1.922
275	1.917
276	1.909
276	1.902
277	1.894
277	1.886
278	1.874
278	1.862
278	1.848
279	1.831
279	1.813
280	1.789
280	1.759
281	1.725
281	1.687
282	1.646
282	1.605
283	1.565
283	1.524
284	1.485
284	1.446
285	1.409
285	1.376
285	1.346
286	1.318
286	1.294
287	1.273
287	1.255
288	1.239
288	1.225
289	1.213
289	1.203
290	1.194
290	1.186
291	1.178
291	1.172
292	1.167
292	1.162
292	1.157
293	1.152
293	1.148
294	1.144
294	1.14
295	1.136
295	1.133
296	1.129
296	1.126
297	1.122
297	1.119
298	1.116
298	1.112
298	1.109
299	1.106
299	1.103
300	1.1
300	1.097
301	1.094
301	1.091
302	1.088
302	1.085
303	1.082
303	1.08
304	1.077
304	1.074
305	1.071
305	1.068
305	1.065
306	1.062
306	1.059
307	1.056
307	1.053
308	1.05
308	1.047
309	1.044
309	1.041
310	1.037
310	1.034
311	1.031
311	1.027
311	1.023
312	1.02
312	1.016
313	1.012
313	1.008
314	1.004
314	0.999
315	0.995
315	0.991
316	0.986
316	0.981
317	0.976
317	0.971
318	0.966
318	0.961
318	0.955
319	0.95
319	0.944
320	0.938
320	0.932
321	0.926
321	0.919
322	0.913
322	0.907
323	0.9
323	0.894
324	0.887
324	0.88
324	0.873
325	0.866
325	0.86
326	0.853
326	0.846
327	0.839
327	0.832
328	0.825
328	0.818
329	0.81
329	0.803
330	0.796
330	0.789
330	0.782
331	0.775
331	0.768
332	0.761
332	0.754
333	0.747
333	0.74
334	0.733
334	0.726
335	0.719
335	0.712
336	0.705
336	0.698
336	0.691
337	0.685
337	0.678
338	0.672
338	0.666
339	0.66
339	0.654
340	0.648
340	0.642
341	0.636
341	0.631
342	0.625
342	0.619
342	0.614
343	0.609
343	0.603
344	0.598
344	0.593
345	0.588
345	0.584
346	0.579
346	0.574
347	0.57
347	0.565
348	0.561
348	0.557
348	0.553
349	0.549
349	0.545
350	0.542
350	0.538
351	0.534
351	0.531
352	0.528
352	0.524
353	0.521
353	0.518
354	0.515
354	0.512
354	0.509
355	0.506
355	0.503
356	0.5
356	0.497
357	0.494
357	0.491
358	0.488
358	0.485
359	0.482
359	0.48
360	0.477
360	0.475
360	0.473
361	0.471
361	0.468
362	0.467
362	0.465
363	0.463
363	0.461
364	0.459
364	0.456
365	0.454
365	0.453
366	0.45
366	0.448
366	0.447
367	0.445
367	0.443
368	0.441
368	0.44
369	0.438
369	0.436
370	0.435
370	0.433
371	0.431
371	0.43
372	0.428
372	0.426
372	0.425
373	0.424
373	0.422
374	0.421
374	0.42
375	0.419
375	0.418
376	0.416
376	0.415
377	0.414
377	0.413
378	0.412
378	0.411
378	0.409
379	0.408
379	0.407
380	0.406
380	0.405
381	0.404
381	0.403
382	0.402
382	0.402
383	0.401
383	0.4
383	0.399
384	0.398
384	0.397
385	0.396
385	0.396
386	0.395
386	0.394
387	0.393
387	0.392
388	0.392
388	0.391
389	0.39
389	0.39
389	0.389
390	0.388
390	0.388
391	0.387
391	0.386
392	0.386
392	0.385
393	0.385
393	0.384
394	0.383
394	0.383
394	0.382
395	0.381
395	0.381
396	0.38
396	0.379
397	0.379
397	0.378
398	0.377
398	0.377
399	0.376
399	0.376
400	0.375
400	0.374
400	0.374
401	0.374
401	0.373
402	0.372
402	0.372
403	0.372
403	0.371
404	0.371
404	0.37
405	0.37
405	0.369
405	0.369
406	0.368
406	0.368
407	0.367
407	0.367
408	0.366
408	0.366
409	0.365
409	0.365
410	0.365
410	0.364
411	0.364
411	0.363
411	0.363
412	0.363
412	0.362
413	0.362
413	0.361
414	0.361
414	0.36
415	0.36
415	0.359
416	0.359
416	0.358
416	0.358
417	0.357
417	0.357
418	0.357
418	0.356
419	0.356
419	0.355
420	0.355
420	0.354
421	0.354
421	0.353
421	0.353
422	0.353
422	0.353
423	0.352
423	0.352
424	0.352
424	0.351
425	0.351
425	0.351
426	0.35
426	0.35
427	0.35
427	0.349
427	0.349
428	0.349
428	0.348
429	0.348
429	0.348
430	0.347
430	0.347
431	0.347
431	0.347
432	0.347
432	0.346
432	0.346
433	0.346
433	0.345
434	0.345
434	0.345
435	0.345
435	0.345
436	0.345
436	0.345
437	0.344
437	0.344
437	0.344
438	0.344
438	0.344
439	0.344
439	0.344
440	0.343
440	0.343
441	0.343
441	0.343
442	0.342
442	0.342
442	0.342
443	0.342
443	0.342
444	0.341
444	0.341
445	0.341
445	0.341
446	0.341
446	0.341
447	0.341
447	0.341
447	0.341
448	0.341
448	0.341
449	0.34
449	0.34
450	0.341
450	0.341
451	0.34
451	0.341
452	0.341
452	0.341
452	0.341
453	0.341
453	0.341
454	0.341
454	0.34
455	0.34
455	0.34
456	0.34
456	0.34
457	0.34
457	0.34
458	0.34
458	0.34
458	0.34
459	0.34
459	0.341
460	0.341
460	0.341
461	0.341
461	0.341
462	0.341
462	0.341
463	0.341
463	0.341
463	0.341
464	0.341
464	0.341
465	0.341
465	0.341
466	0.341
466	0.342
467	0.342
467	0.342
467	0.342
468	0.342
468	0.343
469	0.343
469	0.344
470	0.345
470	0.345
471	0.346
471	0.346
472	0.346
472	0.347
472	0.348
473	0.348
473	0.349
474	0.349
474	0.349
475	0.35
475	0.35
476	0.351
476	0.351
477	0.352
477	0.352
477	0.353
478	0.354
478	0.354
479	0.355
479	0.356
480	0.356
480	0.357
481	0.358
481	0.358
482	0.359
482	0.36
482	0.361
483	0.362
483	0.363
484	0.364
484	0.365
485	0.366
485	0.367
486	0.367
486	0.368
487	0.369
487	0.37
487	0.371
488	0.372
488	0.373
489	0.374
489	0.376
490	0.378
490	0.379
491	0.381
491	0.383
492	0.384
492	0.386
492	0.387
493	0.389
493	0.39
494	0.392
494	0.393
495	0.395
495	0.396
496	0.398
496	0.399
496	0.401
497	0.402
497	0.403
498	0.405
498	0.406
499	0.408
499	0.409
500	0.411
500	0.413
501	0.414
501	0.415
501	0.417
502	0.418
502	0.42
503	0.422
503	0.424
504	0.425
504	0.426
505	0.428
505	0.429
506	0.431
506	0.432
506	0.434
507	0.435
507	0.436
508	0.437
508	0.439
509	0.44
509	0.442
510	0.443
510	0.444
511	0.446
511	0.447
511	0.448
512	0.45
512	0.451
513	0.452
513	0.453
514	0.454
514	0.455
515	0.456
515	0.456
515	0.456
516	0.457
516	0.458
517	0.459
517	0.46
518	0.461
518	0.461
519	0.461
519	0.461
520	0.461
520	0.462
520	0.462
521	0.462
521	0.461
522	0.461
522	0.461
523	0.461
523	0.46
524	0.46
524	0.46
524	0.46
525	0.46
525	0.459
526	0.459
526	0.458
527	0.458
527	0.457
528	0.456
528	0.455
529	0.454
529	0.453
529	0.451
530	0.45
530	0.448
531	0.447
531	0.446
532	0.444
532	0.442
533	0.44
533	0.439
533	0.437
534	0.435
534	0.434
535	0.432
535	0.43
536	0.428
536	0.426
537	0.424
537	0.422
538	0.419
538	0.417
538	0.415
539	0.413
539	0.411
540	0.409
540	0.406
541	0.404
541	0.402
542	0.399
542	0.397
542	0.395
543	0.392
543	0.39
544	0.387
544	0.385
545	0.382
545	0.38
546	0.378
546	0.375
547	0.372
547	0.369
547	0.366
548	0.364
548	0.361
549	0.358
549	0.356
550	0.353
550	0.35
551	0.348
551	0.345
551	0.342
552	0.34
552	0.338
553	0.335
553	0.333
554	0.33
554	0.327
555	0.325
555	0.322
556	0.319
556	0.316
556	0.314
557	0.311
557	0.309
558	0.307
558	0.304
559	0.302
559	0.3
560	0.297
560	0.295
560	0.293
561	0.291
561	0.289
562	0.286
562	0.284
563	0.281
563	0.279
564	0.276
564	0.274
564	0.272
565	0.27
565	0.268
566	0.266
566	0.264
567	0.262
567	0.26
568	0.258
568	0.256
568	0.254
569	0.252
569	0.25
570	0.248
570	0.246
571	0.244
571	0.243
572	0.241
572	0.239
573	0.238
573	0.236
573	0.234
574	0.232
574	0.231
575	0.229
575	0.228
576	0.226
576	0.224
577	0.222
577	0.221
577	0.219
578	0.218
578	0.217
579	0.216
579	0.215
580	0.213
580	0.211
581	0.209
581	0.208
581	0.207
582	0.206
582	0.205
583	0.204
583	0.203
584	0.201
584	0.199
585	0.197
585	0.196
585	0.195
586	0.193
586	0.192
587	0.19
587	0.189
588	0.187
588	0.186
589	0.185
589	0.184
590	0.183
590	0.182
590	0.182
591	0.181
591	0.18
592	0.178
592	0.177
593	0.176
593	0.175
594	0.174
594	0.173
594	0.172
595	0.171
595	0.17
596	0.169
596	0.168
597	0.169
597	0.168
598	0.167
598	0.167
598	0.166
599	0.165
599	0.164
600	0.163
600	0.162
601	0.161
601	0.161
602	0.159
602	0.158
602	0.157
603	0.156
603	0.155
604	0.155
604	0.154
605	0.154
605	0.153
606	0.153
606	0.152
606	0.151
607	0.15
607	0.15
608	0.149
608	0.148
609	0.147
609	0.146
610	0.145
610	0.144
610	0.144
611	0.143
611	0.143
612	0.142
612	0.142
613	0.142
613	0.142
614	0.141
614	0.14
614	0.14
615	0.139
615	0.138
616	0.138
616	0.137
617	0.137
617	0.136
618	0.135
618	0.135
618	0.135
619	0.135
619	0.135
620	0.135
620	0.135
621	0.134
621	0.134
622	0.133
622	0.132
622	0.131
623	0.13
623	0.13
624	0.129
624	0.128
625	0.127
625	0.126
626	0.126
626	0.125
626	0.125
627	0.125
627	0.124
628	0.123
628	0.123
629	0.123
629	0.122
630	0.122
630	0.121
630	0.121
631	0.121
631	0.12
632	0.12
632	0.12
633	0.119
633	0.119
634	0.119
634	0.119
634	0.119
635	0.118
635	0.117
636	0.117
636	0.117
637	0.116
637	0.116
638	0.115
638	0.114
638	0.114
639	0.113
639	0.113
640	0.113
640	0.112
641	0.112
641	0.111
642	0.111
642	0.111
642	0.11
643	0.11
643	0.11
644	0.11
644	0.11
645	0.109
645	0.109
646	0.109
646	0.109
646	0.109
647	0.108
647	0.108
648	0.107
648	0.107
649	0.106
649	0.106
650	0.106
650	0.106
650	0.105
651	0.105
651	0.105
652	0.104
652	0.105
653	0.105
653	0.107
653	0.113
654	0.091
654	0.074
655	0.072
655	0.072
656	0.072
656	0.072
657	0.072
657	0.073
657	0.072
658	0.071
658	0.063
659	0.078
659	0.099
660	0.104
660	0.104
661	0.103
661	0.102
661	0.102
662	0.101
662	0.1
663	0.099
663	0.099
664	0.098
664	0.097
665	0.097
665	0.096
665	0.096
666	0.096
666	0.096
667	0.096
667	0.097
668	0.097
668	0.097
669	0.097
669	0.098
669	0.098
670	0.099
670	0.098
671	0.098
671	0.098
672	0.097
672	0.096
672	0.096
673	0.095
673	0.095
674	0.094
674	0.094
675	0.093
675	0.093
676	0.093
676	0.093
676	0.093
677	0.093
677	0.093
678	0.093
678	0.092
679	0.092
679	0.092
680	0.092
680	0.092
680	0.092
681	0.092
681	0.092
682	0.092
682	0.092
683	0.092
683	0.092
684	0.092
684	0.091
684	0.091
685	0.09
685	0.09
686	0.09
686	0.09
687	0.089
687	0.089
687	0.089
688	0.088
688	0.088
689	0.088
689	0.088
690	0.088
690	0.088
691	0.088
691	0.088
691	0.088
692	0.088
692	0.088
693	0.089
693	0.089
694	0.089
694	0.088
695	0.089
695	0.089
695	0.089
696	0.088
696	0.088
697	0.088
697	0.088
698	0.087
698	0.087
698	0.087
699	0.087
699	0.087
700	0.086
700	0.086
701	0.086
701	0.086
702	0.086
702	0.086
702	0.086
703	0.085
703	0.085
704	0.084
704	0.084
705	0.084
705	0.084
705	0.083
706	0.083
706	0.083
707	0.083
707	0.083
708	0.083
708	0.083
709	0.082
709	0.082
709	0.081
710	0.081
710	0.081
711	0.081
711	0.08
712	0.08
712	0.08
713	0.08
713	0.08
713	0.08
714	0.079
714	0.079
715	0.079
715	0.079
716	0.078
716	0.078
716	0.078
717	0.077
717	0.077
718	0.076
718	0.076
719	0.076
719	0.076
720	0.076
720	0.076
720	0.076
721	0.076
721	0.077
722	0.077
722	0.077
723	0.077
723	0.078
723	0.078
724	0.078
724	0.077
725	0.077
725	0.076
726	0.076
726	0.075
727	0.074
727	0.074
727	0.074
728	0.073
728	0.073
729	0.073
729	0.073
730	0.073
730	0.073
730	0.073
731	0.074
731	0.074
732	0.075
732	0.075
733	0.075
733	0.075
734	0.075
734	0.074
734	0.074
735	0.074
735	0.074
736	0.073
736	0.072
737	0.071
737	0.071
737	0.07
738	0.069
738	0.069
739	0.068
739	0.068
740	0.067
740	0.067
741	0.068
741	0.068
741	0.067
742	0.067
742	0.068
743	0.068
743	0.069
744	0.069
744	0.069
744	0.069
745	0.069
745	0.068
746	0.068
746	0.069
747	0.069
747	0.069
748	0.069
748	0.07
748	0.07
749	0.07
749	0.071
750	0.071
750	0.071
751	0.071
751	0.071
751	0.071
752	0.071
752	0.07
753	0.07
753	0.069
754	0.069
754	0.068
754	0.067
755	0.067
755	0.067
756	0.066
756	0.065
757	0.064
757	0.064
758	0.064
758	0.064
758	0.064
759	0.064
759	0.064
760	0.064
760	0.064
761	0.064
761	0.065
761	0.065
762	0.066
762	0.066
763	0.066
763	0.066
764	0.065
764	0.065
764	0.065
765	0.065
765	0.064
766	0.064
766	0.064
767	0.063
767	0.062
768	0.062
768	0.061
768	0.061
769	0.061
769	0.061
770	0.061
770	0.061
771	0.061
771	0.06
771	0.061
772	0.061
772	0.062
773	0.062
773	0.062
774	0.062
774	0.063
775	0.063
775	0.063
775	0.063
776	0.064
776	0.064
777	0.064
777	0.064
778	0.064
778	0.063
778	0.063
779	0.063
779	0.062
780	0.061
780	0.06
781	0.06
781	0.059
781	0.059
782	0.059
782	0.059
783	0.059
783	0.059
784	0.059
784	0.06
784	0.06
785	0.06
785	0.06
786	0.06
786	0.06
787	0.06
787	0.06
788	0.059
788	0.059
788	0.059
789	0.059
789	0.059
790	0.059
790	0.059
791	0.059
791	0.058
791	0.059
792	0.06
792	0.06
793	0.06
793	0.06
794	0.06
794	0.06
794	0.06
795	0.06
795	0.06
796	0.06
796	0.06
797	0.06
797	0.06
797	0.06
798	0.059
798	0.059
799	0.059
799	0.058
800	0.058
800	0.057
801	0.056
801	0.055
801	0.055
802	0.054
802	0.054
803	0.054
803	0.054
804	0.054
804	0.054
804	0.054
805	0.054
805	0.054
806	0.054
806	0.054
807	0.054
807	0.054
807	0.054
808	0.054
808	0.054
809	0.054
809	0.055
810	0.055
810	0.055
810	0.056
811	0.056
811	0.056
812	0.057
812	0.057
813	0.057
813	0.057
813	0.057
814	0.057
814	0.057
815	0.057
815	0.057
816	0.057
816	0.056
817	0.056
817	0.056
817	0.055
818	0.055
818	0.055
819	0.055
819	0.055
820	0.054
820	0.054
820	0.054
821	0.054
821	0.054
822	0.054
822	0.054
823	0.054
823	0.054
823	0.054
824	0.055
824	0.055
825	0.056
825	0.056
826	0.057
826	0.057
826	0.057
827	0.058
827	0.058
828	0.058
828	0.057
829	0.057
829	0.057
829	0.057
830	0.056
830	0.057
831	0.057
831	0.057
832	0.057
832	0.057
832	0.057
833	0.057
833	0.056
834	0.056
834	0.056
835	0.056
835	0.056
835	0.056
836	0.056
836	0.057
837	0.057
837	0.057
838	0.057
838	0.058
839	0.057
839	0.057
839	0.056
840	0.056
840	0.055
841	0.053
841	0.052
842	0.051
842	0.051
842	0.05
843	0.049
843	0.049
844	0.049
844	0.049
845	0.049
845	0.049
845	0.049
846	0.049
846	0.05
847	0.05
847	0.051
848	0.051
848	0.052
848	0.052
849	0.052
849	0.053
850	0.053
850	0.053
851	0.053
851	0.053
851	0.052
852	0.052
852	0.051
853	0.05
853	0.05
854	0.05
854	0.05
854	0.05
855	0.051
855	0.052
856	0.052
856	0.053
857	0.054
857	0.055
857	0.056
858	0.056
858	0.056
859	0.055
859	0.055
860	0.054
860	0.053
860	0.053
861	0.052
861	0.051
862	0.05
862	0.049
863	0.048
863	0.048
863	0.047
864	0.047
864	0.047
865	0.046
865	0.046
866	0.046
866	0.046
866	0.046
867	0.046
867	0.046
868	0.047
868	0.047
869	0.047
869	0.047
869	0.046
870	0.047
870	0.047
871	0.048
871	0.048
872	0.048
872	0.048
872	0.048
873	0.048
873	0.048
874	0.048
874	0.047
875	0.047
875	0.046
875	0.046
876	0.046
876	0.045
877	0.045
877	0.045
878	0.046
878	0.046
878	0.047
879	0.048
879	0.049
880	0.05
880	0.051
881	0.051
881	0.052
881	0.052
882	0.052
882	0.052
883	0.052
883	0.051
884	0.051
884	0.05
884	0.05
885	0.049
885	0.049
886	0.048
886	0.047
887	0.047
887	0.046
887	0.046
888	0.045
888	0.045
889	0.045
889	0.045
890	0.045
890	0.045
890	0.045
891	0.045
891	0.045
892	0.046
892	0.046
893	0.047
893	0.047
893	0.047
894	0.048
894	0.048
895	0.048
895	0.048
895	0.048
896	0.047
896	0.047
897	0.047
897	0.046
898	0.046
898	0.045
898	0.045
899	0.045
899	0.045
900	0.045
900	0.045
901	0.046
901	0.046
901	0.047
902	0.047
902	0.047
903	0.047
903	0.047
904	0.047
904	0.047
904	0.047
905	0.047
905	0.047
906	0.047
906	0.047
907	0.048
907	0.048
907	0.049
908	0.049
908	0.049
909	0.049
909	0.049
910	0.049
910	0.049
910	0.049
911	0.048
911	0.048
912	0.048
912	0.048
913	0.048
913	0.048
913	0.048
914	0.048
914	0.048
915	0.048
915	0.048
916	0.048
916	0.048
916	0.047
917	0.047
917	0.046
918	0.046
918	0.045
918	0.044
919	0.044
919	0.043
920	0.043
920	0.042
921	0.042
921	0.042
921	0.041
922	0.041
922	0.041
923	0.041
923	0.041
924	0.041
924	0.041
924	0.042
925	0.043
925	0.043
926	0.044
926	0.044
927	0.045
927	0.045
927	0.045
928	0.045
928	0.046
929	0.046
929	0.046
930	0.046
930	0.046
930	0.046
931	0.046
931	0.046
932	0.046
932	0.047
933	0.047
933	0.047
933	0.047
934	0.047
934	0.047
935	0.047
935	0.047
935	0.046
936	0.046
936	0.046
937	0.045
937	0.045
938	0.045
938	0.045
938	0.045
939	0.045
939	0.045
940	0.045
940	0.045
941	0.046
941	0.046
941	0.046
942	0.047
942	0.047
943	0.047
943	0.047
944	0.047
944	0.047
944	0.048
945	0.048
945	0.048
946	0.048
946	0.047
946	0.048
947	0.048
947	0.048
948	0.048
948	0.048
949	0.048
949	0.048
949	0.048
950	0.048
950	0.048
951	0.047
951	0.047
952	0.046
952	0.046
952	0.045
953	0.045
953	0.044
954	0.043
954	0.043
955	0.042
955	0.041
955	0.041
956	0.041
956	0.041
957	0.041
957	0.041
957	0.042
958	0.042
958	0.042
959	0.043
959	0.043
960	0.044
960	0.044
960	0.045
961	0.045
961	0.045
962	0.045
962	0.046
963	0.046
963	0.046
963	0.046
964	0.046
964	0.047
965	0.047
965	0.047
966	0.048
966	0.048
966	0.049
967	0.05
967	0.05
968	0.051
968	0.051
968	0.052
969	0.052
969	0.052
970	0.052
970	0.051
971	0.051
971	0.051
971	0.05
972	0.05
972	0.049
973	0.049
973	0.049
974	0.048
974	0.049
974	0.049
975	0.049
975	0.049
976	0.05
976	0.051
976	0.051
977	0.051
977	0.051
978	0.051
978	0.052
979	0.052
979	0.052
979	0.052
980	0.051
980	0.051
981	0.05
981	0.05
982	0.05
982	0.049
982	0.049
983	0.048
983	0.048
984	0.047
984	0.046
984	0.046
985	0.045
985	0.044
986	0.044
986	0.043
987	0.043
987	0.042
987	0.042
988	0.042
988	0.042
989	0.041
989	0.041
990	0.041
990	0.04
990	0.04
991	0.039
991	0.039
992	0.038
992	0.037
992	0.036
993	0.036
993	0.035
994	0.035
994	0.035
995	0.035
995	0.035
995	0.036
996	0.036
996	0.037
997	0.038
997	0.039
997	0.039
998	0.04
998	0.041
999	0.042
999	0.043
1000	0.044
1000	0.045
1000	0.045
1001	0.045
1001	0.046
1002	0.046
1002	0.046
1003	0.045
1003	0.045
1003	0.044
1004	0.044
1004	0.043
1005	0.042
1005	0.042
1005	0.041
1006	0.04
1006	0.04
1007	0.039
1007	0.039
1008	0.039
1008	0.039
1008	0.039
1009	0.039
1009	0.039
1010	0.039
1010	0.039
1010	0.039
1011	0.039
1011	0.039
1012	0.039
1012	0.04
1013	0.04
1013	0.04
1013	0.04
1014	0.039
1014	0.039
1015	0.039
1015	0.039
1016	0.039
1016	0.039
1016	0.039
1017	0.038
1017	0.038
1018	0.038
1018	0.038
1018	0.038
1019	0.038
1019	0.038
1020	0.038
1020	0.038
1021	0.038
1021	0.038
1021	0.039
1022	0.038
1022	0.038
1023	0.038
1023	0.038
1023	0.038
1024	0.038
1024	0.038
1025	0.038
1025	0.037
1026	0.037
1026	0.037
1026	0.036
1027	0.036
1027	0.035
1028	0.035
1028	0.035
1028	0.035
1029	0.034
1029	0.034
1030	0.035
1030	0.035
1031	0.035
1031	0.035
1031	0.036
1032	0.036
1032	0.036
1033	0.037
1033	0.037
1033	0.037
1034	0.037
1034	0.037
1035	0.037
1035	0.036
1036	0.036
1036	0.036
1036	0.036
1037	0.036
1037	0.036
1038	0.036
1038	0.036
1039	0.036
1039	0.037
1039	0.037
1040	0.038
1040	0.038
1041	0.039
1041	0.039
1041	0.039
1042	0.04
1042	0.04
1043	0.04
1043	0.04
1044	0.04
1044	0.041
1044	0.041
1045	0.041
1045	0.042
1046	0.042
1046	0.042
1046	0.042
1047	0.043
1047	0.043
1048	0.043
1048	0.044
1049	0.045
1049	0.045
1049	0.045
1050	0.045
1050	0.045
1051	0.045
1051	0.045
1051	0.045
1052	0.044
1052	0.044
1053	0.043
1053	0.042
1053	0.042
1054	0.041
1054	0.041
1055	0.041
1055	0.04
1056	0.039
1056	0.039
1056	0.038
1057	0.038
1057	0.037
1058	0.036
1058	0.035
1058	0.034
1059	0.034
1059	0.033
1060	0.032
1060	0.032
1061	0.031
1061	0.031
1061	0.031
1062	0.031
1062	0.03
1063	0.03
1063	0.03
1063	0.03
1064	0.03
1064	0.03
1065	0.03
1065	0.029
1066	0.029
1066	0.029
1066	0.029
1067	0.029
1067	0.029
1068	0.029
1068	0.029
1068	0.029
1069	0.028
1069	0.028
1070	0.027
1070	0.027
1071	0.026
1071	0.026
1071	0.025
1072	0.025
1072	0.024
1073	0.023
1073	0.022
1073	0.022
1074	0.022
1074	0.022
1075	0.022
1075	0.022
1076	0.023
1076	0.023
1076	0.024
1077	0.024
1077	0.025
1078	0.025
1078	0.026
1078	0.026
1079	0.027
1079	0.027
1080	0.027
1080	0.027
1080	0.027
1081	0.028
1081	0.028
1082	0.029
1082	0.029
1083	0.029
1083	0.029
1083	0.029
1084	0.029
1084	0.029
1085	0.029
1085	0.029
1085	0.029
1086	0.028
1086	0.027
1087	0.026
1087	0.026
1088	0.026
1088	0.026
1088	0.026
1089	0.025
1089	0.024
1090	0.024
1090	0.023
1090	0.022
1091	0.022
1091	0.022
1092	0.021
1092	0.021
1092	0.02
1093	0.019
1093	0.02
1094	0.019
1094	0.019
1095	0.019
1095	0.018
1095	0.018
1096	0.017
1096	0.017
1097	0.016
1097	0.016
1097	0.016
1098	0.016
1098	0.015
1099	0.014
1099	0.013
1100	0.012
1100	0.011
1100	0.01
1101	0.009
1101	0.009
1102	0.008
1102	0.007
1102	0.007
1103	0.007
1103	0.007
1104	0.007
1104	0.007
1104	0.007
1105	0.006
1105	0.005
1106	0.005
1106	0.003
1107	0.003
1107	0.002
1107	0
1108	-0.001
1108	-0.002
1109	-0.003
1109	-0.005
1109	-0.005
1110	-0.004
1110	-0.007
1111	-0.007
1111	-0.007
