Data from reversibility-20sec_Absorbance__3383__000000000003383.txt Node

Date: Wed Dec 06 07:00:45 CET 2023
User: Marek
Spectrometer: MAYP115816
Trigger mode: 0
Integration Time (sec): 2.000000E-1
Scans to average: 10
Electric dark correction enabled: true
Nonlinearity correction enabled: true
Boxcar width: 5
XAxis mode: Wavelengths
Number of Pixels in Spectrum: 2068
>>>>>Begin Spectral Data<<<<<
199	-0.069
199	-0.062
200	0.002
200	0.049
201	0.082
201	0.098
202	0.109
202	0.121
203	0.127
203	0.129
204	0.143
204	0.153
205	0.166
205	0.174
205	0.172
206	0.17
206	0.171
207	0.173
207	0.171
208	0.17
208	0.169
209	0.171
209	0.168
210	0.167
210	0.167
211	0.167
211	0.168
212	0.168
212	0.169
213	0.174
213	0.175
213	0.176
214	0.178
214	0.18
215	0.184
215	0.184
216	0.186
216	0.185
217	0.189
217	0.19
218	0.188
218	0.192
219	0.197
219	0.197
220	0.2
220	0.198
221	0.199
221	0.202
221	0.206
222	0.212
222	0.217
223	0.221
223	0.225
224	0.231
224	0.241
225	0.251
225	0.264
226	0.272
226	0.284
227	0.294
227	0.303
228	0.318
228	0.331
229	0.346
229	0.371
229	0.393
230	0.42
230	0.449
231	0.48
231	0.52
232	0.558
232	0.602
233	0.646
233	0.697
234	0.75
234	0.8
235	0.849
235	0.901
236	0.95
236	1.003
236	1.054
237	1.107
237	1.154
238	1.203
238	1.248
239	1.294
239	1.335
240	1.376
240	1.409
241	1.446
241	1.481
242	1.511
242	1.544
243	1.576
243	1.599
243	1.625
244	1.643
244	1.663
245	1.682
245	1.704
246	1.723
246	1.738
247	1.749
247	1.763
248	1.772
248	1.787
249	1.794
249	1.802
250	1.809
250	1.817
250	1.819
251	1.821
251	1.821
252	1.824
252	1.821
253	1.821
253	1.816
254	1.813
254	1.812
255	1.807
255	1.806
256	1.804
256	1.802
257	1.801
257	1.8
258	1.799
258	1.797
258	1.799
259	1.799
259	1.801
260	1.802
260	1.803
261	1.803
261	1.806
262	1.806
262	1.808
263	1.811
263	1.813
264	1.812
264	1.814
265	1.815
265	1.815
265	1.814
266	1.815
266	1.815
267	1.814
267	1.815
268	1.814
268	1.816
269	1.818
269	1.817
270	1.817
270	1.816
271	1.815
271	1.814
272	1.811
272	1.808
272	1.803
273	1.795
273	1.786
274	1.778
274	1.771
275	1.762
275	1.753
276	1.745
276	1.735
277	1.726
277	1.715
278	1.703
278	1.691
278	1.676
279	1.657
279	1.634
280	1.605
280	1.571
281	1.531
281	1.488
282	1.442
282	1.397
283	1.353
283	1.31
284	1.269
284	1.23
285	1.193
285	1.16
285	1.131
286	1.106
286	1.084
287	1.066
287	1.05
288	1.036
288	1.025
289	1.015
289	1.006
290	0.999
290	0.993
291	0.988
291	0.984
292	0.979
292	0.975
292	0.972
293	0.969
293	0.966
294	0.963
294	0.96
295	0.957
295	0.955
296	0.952
296	0.949
297	0.946
297	0.944
298	0.941
298	0.939
298	0.937
299	0.934
299	0.932
300	0.929
300	0.927
301	0.925
301	0.923
302	0.921
302	0.918
303	0.916
303	0.914
304	0.912
304	0.91
305	0.908
305	0.905
305	0.904
306	0.902
306	0.899
307	0.897
307	0.894
308	0.892
308	0.89
309	0.888
309	0.885
310	0.882
310	0.88
311	0.877
311	0.874
311	0.871
312	0.868
312	0.865
313	0.862
313	0.858
314	0.855
314	0.851
315	0.847
315	0.843
316	0.839
316	0.835
317	0.831
317	0.826
318	0.821
318	0.816
318	0.811
319	0.806
319	0.801
320	0.795
320	0.79
321	0.784
321	0.778
322	0.772
322	0.766
323	0.76
323	0.753
324	0.747
324	0.741
324	0.734
325	0.727
325	0.721
326	0.714
326	0.707
327	0.701
327	0.694
328	0.687
328	0.68
329	0.673
329	0.666
330	0.66
330	0.653
330	0.646
331	0.64
331	0.633
332	0.626
332	0.62
333	0.613
333	0.606
334	0.6
334	0.593
335	0.586
335	0.579
336	0.573
336	0.566
336	0.56
337	0.554
337	0.548
338	0.541
338	0.535
339	0.529
339	0.524
340	0.518
340	0.512
341	0.507
341	0.502
342	0.496
342	0.491
342	0.486
343	0.481
343	0.476
344	0.471
344	0.466
345	0.461
345	0.457
346	0.452
346	0.448
347	0.444
347	0.44
348	0.436
348	0.432
348	0.428
349	0.425
349	0.421
350	0.418
350	0.414
351	0.411
351	0.408
352	0.405
352	0.402
353	0.399
353	0.396
354	0.394
354	0.391
354	0.388
355	0.385
355	0.382
356	0.379
356	0.376
357	0.373
357	0.37
358	0.368
358	0.365
359	0.363
359	0.361
360	0.359
360	0.357
360	0.355
361	0.353
361	0.351
362	0.35
362	0.349
363	0.347
363	0.346
364	0.344
364	0.342
365	0.34
365	0.338
366	0.337
366	0.335
366	0.333
367	0.332
367	0.33
368	0.328
368	0.327
369	0.325
369	0.324
370	0.323
370	0.321
371	0.32
371	0.319
372	0.317
372	0.316
372	0.315
373	0.314
373	0.313
374	0.313
374	0.311
375	0.311
375	0.31
376	0.309
376	0.308
377	0.307
377	0.306
378	0.305
378	0.305
378	0.304
379	0.303
379	0.302
380	0.301
380	0.301
381	0.3
381	0.299
382	0.299
382	0.298
383	0.298
383	0.297
383	0.296
384	0.296
384	0.296
385	0.295
385	0.295
386	0.294
386	0.294
387	0.294
387	0.293
388	0.293
388	0.292
389	0.292
389	0.292
389	0.291
390	0.291
390	0.291
391	0.29
391	0.29
392	0.29
392	0.289
393	0.289
393	0.289
394	0.289
394	0.288
394	0.288
395	0.287
395	0.287
396	0.287
396	0.287
397	0.286
397	0.286
398	0.286
398	0.285
399	0.285
399	0.285
400	0.284
400	0.284
400	0.284
401	0.283
401	0.283
402	0.283
402	0.282
403	0.282
403	0.281
404	0.281
404	0.28
405	0.28
405	0.28
405	0.28
406	0.279
406	0.279
407	0.279
407	0.278
408	0.278
408	0.278
409	0.278
409	0.278
410	0.278
410	0.278
411	0.277
411	0.277
411	0.277
412	0.277
412	0.277
413	0.276
413	0.276
414	0.276
414	0.275
415	0.275
415	0.275
416	0.275
416	0.274
416	0.274
417	0.274
417	0.274
418	0.273
418	0.273
419	0.273
419	0.272
420	0.272
420	0.271
421	0.271
421	0.27
421	0.27
422	0.27
422	0.269
423	0.269
423	0.269
424	0.268
424	0.268
425	0.268
425	0.267
426	0.267
426	0.267
427	0.266
427	0.266
427	0.266
428	0.265
428	0.265
429	0.265
429	0.264
430	0.264
430	0.264
431	0.263
431	0.263
432	0.263
432	0.263
432	0.263
433	0.263
433	0.263
434	0.263
434	0.262
435	0.262
435	0.262
436	0.262
436	0.262
437	0.262
437	0.261
437	0.261
438	0.261
438	0.261
439	0.26
439	0.26
440	0.26
440	0.26
441	0.259
441	0.259
442	0.259
442	0.258
442	0.258
443	0.258
443	0.258
444	0.258
444	0.258
445	0.258
445	0.257
446	0.257
446	0.257
447	0.257
447	0.256
447	0.256
448	0.256
448	0.256
449	0.256
449	0.255
450	0.255
450	0.255
451	0.255
451	0.255
452	0.255
452	0.254
452	0.254
453	0.254
453	0.254
454	0.254
454	0.254
455	0.253
455	0.253
456	0.253
456	0.252
457	0.252
457	0.252
458	0.252
458	0.251
458	0.251
459	0.251
459	0.251
460	0.251
460	0.251
461	0.25
461	0.25
462	0.25
462	0.25
463	0.25
463	0.249
463	0.249
464	0.248
464	0.248
465	0.248
465	0.247
466	0.247
466	0.247
467	0.247
467	0.247
467	0.247
468	0.247
468	0.247
469	0.247
469	0.247
470	0.247
470	0.247
471	0.247
471	0.247
472	0.247
472	0.247
472	0.247
473	0.247
473	0.247
474	0.247
474	0.247
475	0.247
475	0.247
476	0.247
476	0.247
477	0.247
477	0.247
477	0.247
478	0.246
478	0.246
479	0.246
479	0.246
480	0.246
480	0.246
481	0.246
481	0.246
482	0.246
482	0.247
482	0.247
483	0.247
483	0.248
484	0.248
484	0.248
485	0.248
485	0.248
486	0.248
486	0.248
487	0.248
487	0.248
487	0.248
488	0.248
488	0.248
489	0.248
489	0.249
490	0.249
490	0.25
491	0.25
491	0.251
492	0.251
492	0.252
492	0.252
493	0.253
493	0.253
494	0.254
494	0.254
495	0.254
495	0.255
496	0.255
496	0.256
496	0.256
497	0.256
497	0.256
498	0.257
498	0.257
499	0.257
499	0.258
500	0.259
500	0.259
501	0.259
501	0.26
501	0.26
502	0.26
502	0.261
503	0.261
503	0.262
504	0.262
504	0.263
505	0.263
505	0.263
506	0.264
506	0.264
506	0.265
507	0.265
507	0.266
508	0.266
508	0.266
509	0.267
509	0.267
510	0.268
510	0.268
511	0.269
511	0.27
511	0.27
512	0.271
512	0.272
513	0.272
513	0.273
514	0.273
514	0.274
515	0.274
515	0.274
515	0.275
516	0.275
516	0.275
517	0.276
517	0.276
518	0.276
518	0.276
519	0.277
519	0.277
520	0.277
520	0.277
520	0.278
521	0.278
521	0.279
522	0.279
522	0.28
523	0.28
523	0.28
524	0.281
524	0.281
524	0.281
525	0.281
525	0.281
526	0.281
526	0.281
527	0.281
527	0.281
528	0.281
528	0.281
529	0.281
529	0.281
529	0.281
530	0.281
530	0.281
531	0.281
531	0.281
532	0.281
532	0.281
533	0.281
533	0.28
533	0.28
534	0.28
534	0.28
535	0.28
535	0.28
536	0.279
536	0.279
537	0.279
537	0.279
538	0.279
538	0.279
538	0.279
539	0.279
539	0.279
540	0.279
540	0.278
541	0.278
541	0.278
542	0.278
542	0.278
542	0.277
543	0.277
543	0.277
544	0.277
544	0.276
545	0.276
545	0.276
546	0.276
546	0.276
547	0.275
547	0.275
547	0.274
548	0.274
548	0.274
549	0.274
549	0.273
550	0.273
550	0.273
551	0.272
551	0.272
551	0.271
552	0.271
552	0.271
553	0.271
553	0.27
554	0.27
554	0.269
555	0.269
555	0.268
556	0.268
556	0.268
556	0.267
557	0.267
557	0.267
558	0.267
558	0.267
559	0.267
559	0.267
560	0.267
560	0.267
560	0.266
561	0.266
561	0.266
562	0.265
562	0.264
563	0.263
563	0.263
564	0.262
564	0.262
564	0.262
565	0.261
565	0.261
566	0.261
566	0.26
567	0.26
567	0.26
568	0.26
568	0.259
568	0.259
569	0.259
569	0.258
570	0.257
570	0.257
571	0.256
571	0.256
572	0.255
572	0.255
573	0.255
573	0.255
573	0.254
574	0.254
574	0.254
575	0.254
575	0.254
576	0.254
576	0.253
577	0.253
577	0.252
577	0.252
578	0.251
578	0.251
579	0.251
579	0.251
580	0.25
580	0.25
581	0.249
581	0.249
581	0.249
582	0.249
582	0.249
583	0.249
583	0.249
584	0.248
584	0.247
585	0.247
585	0.246
585	0.246
586	0.246
586	0.245
587	0.245
587	0.244
588	0.244
588	0.243
589	0.243
589	0.243
590	0.243
590	0.242
590	0.242
591	0.242
591	0.241
592	0.241
592	0.24
593	0.24
593	0.239
594	0.239
594	0.238
594	0.237
595	0.237
595	0.236
596	0.236
596	0.236
597	0.237
597	0.237
598	0.237
598	0.237
598	0.238
599	0.238
599	0.237
600	0.237
600	0.237
601	0.237
601	0.236
602	0.236
602	0.235
602	0.235
603	0.234
603	0.234
604	0.234
604	0.234
605	0.234
605	0.234
606	0.233
606	0.233
606	0.232
607	0.232
607	0.231
608	0.231
608	0.23
609	0.23
609	0.23
610	0.229
610	0.229
610	0.229
611	0.229
611	0.229
612	0.229
612	0.229
613	0.229
613	0.229
614	0.229
614	0.229
614	0.229
615	0.229
615	0.229
616	0.229
616	0.229
617	0.229
617	0.229
618	0.228
618	0.228
618	0.228
619	0.228
619	0.228
620	0.228
620	0.227
621	0.227
621	0.227
622	0.226
622	0.226
622	0.226
623	0.225
623	0.225
624	0.225
624	0.225
625	0.225
625	0.224
626	0.224
626	0.224
626	0.224
627	0.224
627	0.224
628	0.224
628	0.223
629	0.223
629	0.223
630	0.223
630	0.223
630	0.223
631	0.223
631	0.222
632	0.222
632	0.222
633	0.222
633	0.222
634	0.222
634	0.223
634	0.223
635	0.223
635	0.222
636	0.222
636	0.222
637	0.222
637	0.222
638	0.221
638	0.221
638	0.221
639	0.22
639	0.22
640	0.22
640	0.219
641	0.219
641	0.219
642	0.219
642	0.219
642	0.219
643	0.219
643	0.219
644	0.219
644	0.22
645	0.22
645	0.22
646	0.22
646	0.22
646	0.221
647	0.221
647	0.22
648	0.22
648	0.22
649	0.219
649	0.219
650	0.219
650	0.219
650	0.219
651	0.219
651	0.219
652	0.219
652	0.219
653	0.219
653	0.221
653	0.226
654	0.176
654	0.14
655	0.142
655	0.143
656	0.143
656	0.143
657	0.144
657	0.144
657	0.144
658	0.143
658	0.132
659	0.168
659	0.217
660	0.221
660	0.22
661	0.22
661	0.219
661	0.219
662	0.218
662	0.218
663	0.218
663	0.217
664	0.217
664	0.217
665	0.217
665	0.217
665	0.217
666	0.217
666	0.218
667	0.218
667	0.218
668	0.219
668	0.219
669	0.219
669	0.22
669	0.22
670	0.221
670	0.221
671	0.221
671	0.22
672	0.22
672	0.219
672	0.218
673	0.218
673	0.218
674	0.217
674	0.216
675	0.216
675	0.216
676	0.216
676	0.217
676	0.217
677	0.217
677	0.218
678	0.218
678	0.218
679	0.218
679	0.218
680	0.218
680	0.218
680	0.218
681	0.218
681	0.218
682	0.218
682	0.219
683	0.219
683	0.22
684	0.22
684	0.22
684	0.22
685	0.22
685	0.22
686	0.22
686	0.22
687	0.22
687	0.221
687	0.221
688	0.221
688	0.221
689	0.222
689	0.223
690	0.223
690	0.223
691	0.223
691	0.223
691	0.223
692	0.223
692	0.223
693	0.223
693	0.223
694	0.223
694	0.223
695	0.224
695	0.224
695	0.224
696	0.225
696	0.225
697	0.225
697	0.225
698	0.225
698	0.225
698	0.226
699	0.226
699	0.226
700	0.225
700	0.225
701	0.225
701	0.224
702	0.224
702	0.223
702	0.223
703	0.223
703	0.222
704	0.222
704	0.222
705	0.223
705	0.222
705	0.222
706	0.223
706	0.223
707	0.223
707	0.223
708	0.224
708	0.224
709	0.224
709	0.224
709	0.223
710	0.223
710	0.223
711	0.224
711	0.224
712	0.224
712	0.224
713	0.225
713	0.225
713	0.225
714	0.225
714	0.225
715	0.225
715	0.225
716	0.225
716	0.225
716	0.224
717	0.224
717	0.223
718	0.223
718	0.223
719	0.223
719	0.223
720	0.223
720	0.224
720	0.224
721	0.225
721	0.226
722	0.226
722	0.227
723	0.227
723	0.228
723	0.228
724	0.228
724	0.227
725	0.226
725	0.226
726	0.225
726	0.225
727	0.224
727	0.224
727	0.224
728	0.224
728	0.224
729	0.225
729	0.226
730	0.226
730	0.227
730	0.227
731	0.228
731	0.228
732	0.229
732	0.23
733	0.23
733	0.23
734	0.23
734	0.231
734	0.231
735	0.231
735	0.231
736	0.23
736	0.23
737	0.23
737	0.23
737	0.229
738	0.228
738	0.228
739	0.227
739	0.227
740	0.227
740	0.227
741	0.227
741	0.227
741	0.228
742	0.227
742	0.228
743	0.229
743	0.229
744	0.23
744	0.23
744	0.23
745	0.23
745	0.23
746	0.23
746	0.23
747	0.231
747	0.231
748	0.231
748	0.231
748	0.231
749	0.231
749	0.232
750	0.232
750	0.232
751	0.232
751	0.232
751	0.232
752	0.232
752	0.231
753	0.231
753	0.23
754	0.23
754	0.23
754	0.229
755	0.229
755	0.229
756	0.228
756	0.228
757	0.227
757	0.228
758	0.228
758	0.228
758	0.228
759	0.229
759	0.229
760	0.228
760	0.228
761	0.228
761	0.229
761	0.229
762	0.229
762	0.23
763	0.23
763	0.23
764	0.23
764	0.23
764	0.23
765	0.23
765	0.23
766	0.23
766	0.231
767	0.23
767	0.23
768	0.229
768	0.23
768	0.23
769	0.23
769	0.23
770	0.23
770	0.23
771	0.23
771	0.23
771	0.23
772	0.231
772	0.231
773	0.231
773	0.231
774	0.232
774	0.232
775	0.233
775	0.233
775	0.234
776	0.234
776	0.234
777	0.235
777	0.235
778	0.235
778	0.235
778	0.235
779	0.235
779	0.234
780	0.233
780	0.233
781	0.233
781	0.232
781	0.232
782	0.232
782	0.232
783	0.232
783	0.232
784	0.232
784	0.233
784	0.233
785	0.233
785	0.234
786	0.234
786	0.234
787	0.234
787	0.234
788	0.234
788	0.233
788	0.233
789	0.233
789	0.233
790	0.233
790	0.233
791	0.233
791	0.233
791	0.233
792	0.234
792	0.235
793	0.235
793	0.235
794	0.235
794	0.235
794	0.235
795	0.235
795	0.235
796	0.235
796	0.235
797	0.235
797	0.234
797	0.235
798	0.235
798	0.235
799	0.235
799	0.235
800	0.235
800	0.234
801	0.234
801	0.234
801	0.234
802	0.234
802	0.235
803	0.235
803	0.235
804	0.236
804	0.236
804	0.237
805	0.237
805	0.237
806	0.237
806	0.237
807	0.237
807	0.237
807	0.237
808	0.237
808	0.237
809	0.237
809	0.237
810	0.237
810	0.237
810	0.237
811	0.237
811	0.237
812	0.237
812	0.238
813	0.238
813	0.238
813	0.239
814	0.239
814	0.24
815	0.24
815	0.241
816	0.241
816	0.241
817	0.24
817	0.24
817	0.239
818	0.238
818	0.238
819	0.237
819	0.237
820	0.236
820	0.235
820	0.235
821	0.235
821	0.236
822	0.236
822	0.236
823	0.237
823	0.238
823	0.239
824	0.24
824	0.241
825	0.243
825	0.244
826	0.244
826	0.244
826	0.245
827	0.245
827	0.246
828	0.246
828	0.246
829	0.246
829	0.246
829	0.245
830	0.245
830	0.246
831	0.246
831	0.246
832	0.246
832	0.247
832	0.247
833	0.247
833	0.247
834	0.247
834	0.247
835	0.247
835	0.246
835	0.246
836	0.246
836	0.246
837	0.245
837	0.245
838	0.244
838	0.243
839	0.243
839	0.242
839	0.242
840	0.241
840	0.24
841	0.24
841	0.239
842	0.239
842	0.238
842	0.238
843	0.238
843	0.238
844	0.238
844	0.238
845	0.238
845	0.238
845	0.239
846	0.239
846	0.239
847	0.24
847	0.24
848	0.241
848	0.241
848	0.241
849	0.241
849	0.24
850	0.24
850	0.24
851	0.239
851	0.239
851	0.238
852	0.238
852	0.237
853	0.237
853	0.237
854	0.238
854	0.238
854	0.239
855	0.24
855	0.241
856	0.241
856	0.242
857	0.243
857	0.244
857	0.244
858	0.244
858	0.243
859	0.243
859	0.242
860	0.241
860	0.24
860	0.238
861	0.237
861	0.236
862	0.235
862	0.234
863	0.234
863	0.234
863	0.234
864	0.234
864	0.234
865	0.234
865	0.235
866	0.235
866	0.235
866	0.235
867	0.236
867	0.236
868	0.236
868	0.236
869	0.236
869	0.235
869	0.234
870	0.233
870	0.233
871	0.233
871	0.233
872	0.232
872	0.232
872	0.232
873	0.232
873	0.232
874	0.232
874	0.232
875	0.232
875	0.231
875	0.231
876	0.231
876	0.231
877	0.23
877	0.23
878	0.23
878	0.23
878	0.231
879	0.231
879	0.231
880	0.232
880	0.232
881	0.232
881	0.232
881	0.232
882	0.232
882	0.232
883	0.232
883	0.232
884	0.232
884	0.232
884	0.232
885	0.232
885	0.232
886	0.232
886	0.231
887	0.231
887	0.23
887	0.23
888	0.229
888	0.228
889	0.228
889	0.228
890	0.227
890	0.227
890	0.227
891	0.226
891	0.226
892	0.226
892	0.226
893	0.225
893	0.225
893	0.224
894	0.224
894	0.223
895	0.222
895	0.222
895	0.221
896	0.221
896	0.22
897	0.22
897	0.219
898	0.218
898	0.218
898	0.217
899	0.217
899	0.217
900	0.217
900	0.217
901	0.216
901	0.216
901	0.217
902	0.216
902	0.217
903	0.216
903	0.216
904	0.216
904	0.216
904	0.216
905	0.216
905	0.216
906	0.216
906	0.216
907	0.217
907	0.217
907	0.218
908	0.218
908	0.219
909	0.219
909	0.22
910	0.22
910	0.22
910	0.22
911	0.219
911	0.219
912	0.218
912	0.218
913	0.217
913	0.216
913	0.216
914	0.215
914	0.215
915	0.214
915	0.214
916	0.213
916	0.213
916	0.212
917	0.212
917	0.211
918	0.211
918	0.21
918	0.21
919	0.209
919	0.208
920	0.207
920	0.207
921	0.206
921	0.206
921	0.205
922	0.205
922	0.205
923	0.205
923	0.205
924	0.206
924	0.206
924	0.207
925	0.207
925	0.207
926	0.207
926	0.207
927	0.207
927	0.207
927	0.206
928	0.205
928	0.205
929	0.204
929	0.204
930	0.203
930	0.203
930	0.203
931	0.202
931	0.202
932	0.202
932	0.202
933	0.202
933	0.203
933	0.202
934	0.202
934	0.202
935	0.202
935	0.202
935	0.202
936	0.202
936	0.201
937	0.201
937	0.201
938	0.2
938	0.2
938	0.199
939	0.198
939	0.197
940	0.196
940	0.195
941	0.195
941	0.194
941	0.194
942	0.193
942	0.192
943	0.192
943	0.192
944	0.191
944	0.191
944	0.191
945	0.191
945	0.19
946	0.19
946	0.19
946	0.19
947	0.19
947	0.19
948	0.189
948	0.189
949	0.189
949	0.189
949	0.189
950	0.189
950	0.189
951	0.188
951	0.187
952	0.186
952	0.186
952	0.185
953	0.184
953	0.183
954	0.182
954	0.181
955	0.18
955	0.179
955	0.178
956	0.178
956	0.178
957	0.178
957	0.178
957	0.178
958	0.178
958	0.177
959	0.177
959	0.177
960	0.177
960	0.177
960	0.177
961	0.176
961	0.176
962	0.176
962	0.175
963	0.174
963	0.174
963	0.174
964	0.174
964	0.174
965	0.174
965	0.174
966	0.175
966	0.175
966	0.175
967	0.175
967	0.175
968	0.176
968	0.176
968	0.175
969	0.175
969	0.175
970	0.174
970	0.174
971	0.173
971	0.173
971	0.173
972	0.172
972	0.172
973	0.172
973	0.171
974	0.171
974	0.171
974	0.171
975	0.171
975	0.171
976	0.171
976	0.171
976	0.171
977	0.171
977	0.17
978	0.17
978	0.169
979	0.169
979	0.168
979	0.168
980	0.167
980	0.166
981	0.165
981	0.165
982	0.164
982	0.164
982	0.163
983	0.163
983	0.163
984	0.163
984	0.162
984	0.162
985	0.162
985	0.161
986	0.161
986	0.161
987	0.16
987	0.16
987	0.159
988	0.159
988	0.158
989	0.158
989	0.157
990	0.156
990	0.156
990	0.155
991	0.154
991	0.154
992	0.153
992	0.153
992	0.152
993	0.151
993	0.151
994	0.15
994	0.15
995	0.15
995	0.149
995	0.149
996	0.149
996	0.149
997	0.149
997	0.15
997	0.15
998	0.15
998	0.151
999	0.151
999	0.152
1000	0.152
1000	0.153
1000	0.153
1001	0.153
1001	0.153
1002	0.153
1002	0.153
1003	0.153
1003	0.152
1003	0.152
1004	0.151
1004	0.15
1005	0.149
1005	0.148
1005	0.148
1006	0.147
1006	0.147
1007	0.146
1007	0.146
1008	0.145
1008	0.145
1008	0.145
1009	0.145
1009	0.145
1010	0.145
1010	0.145
1010	0.145
1011	0.145
1011	0.145
1012	0.145
1012	0.145
1013	0.145
1013	0.144
1013	0.144
1014	0.144
1014	0.143
1015	0.143
1015	0.143
1016	0.142
1016	0.142
1016	0.142
1017	0.141
1017	0.141
1018	0.14
1018	0.14
1018	0.139
1019	0.139
1019	0.139
1020	0.138
1020	0.138
1021	0.138
1021	0.138
1021	0.138
1022	0.138
1022	0.138
1023	0.138
1023	0.138
1023	0.139
1024	0.139
1024	0.138
1025	0.138
1025	0.138
1026	0.138
1026	0.137
1026	0.137
1027	0.136
1027	0.136
1028	0.136
1028	0.135
1028	0.135
1029	0.135
1029	0.135
1030	0.135
1030	0.135
1031	0.135
1031	0.135
1031	0.135
1032	0.134
1032	0.134
1033	0.134
1033	0.134
1033	0.133
1034	0.133
1034	0.133
1035	0.132
1035	0.132
1036	0.131
1036	0.131
1036	0.131
1037	0.131
1037	0.13
1038	0.13
1038	0.13
1039	0.13
1039	0.13
1039	0.13
1040	0.13
1040	0.13
1041	0.131
1041	0.13
1041	0.13
1042	0.13
1042	0.13
1043	0.131
1043	0.131
1044	0.13
1044	0.131
1044	0.131
1045	0.131
1045	0.131
1046	0.131
1046	0.132
1046	0.132
1047	0.133
1047	0.133
1048	0.133
1048	0.133
1049	0.134
1049	0.134
1049	0.134
1050	0.134
1050	0.134
1051	0.134
1051	0.134
1051	0.134
1052	0.134
1052	0.133
1053	0.133
1053	0.132
1053	0.131
1054	0.13
1054	0.13
1055	0.129
1055	0.128
1056	0.128
1056	0.127
1056	0.126
1057	0.125
1057	0.124
1058	0.123
1058	0.122
1058	0.122
1059	0.12
1059	0.12
1060	0.119
1060	0.118
1061	0.117
1061	0.117
1061	0.116
1062	0.116
1062	0.116
1063	0.115
1063	0.115
1063	0.114
1064	0.114
1064	0.113
1065	0.113
1065	0.113
1066	0.113
1066	0.112
1066	0.112
1067	0.112
1067	0.112
1068	0.111
1068	0.111
1068	0.111
1069	0.111
1069	0.11
1070	0.11
1070	0.109
1071	0.108
1071	0.108
1071	0.107
1072	0.107
1072	0.106
1073	0.105
1073	0.105
1073	0.104
1074	0.104
1074	0.104
1075	0.104
1075	0.104
1076	0.104
1076	0.105
1076	0.105
1077	0.106
1077	0.106
1078	0.106
1078	0.106
1078	0.106
1079	0.106
1079	0.106
1080	0.105
1080	0.105
1080	0.105
1081	0.105
1081	0.105
1082	0.105
1082	0.105
1083	0.105
1083	0.105
1083	0.105
1084	0.105
1084	0.106
1085	0.105
1085	0.105
1085	0.105
1086	0.105
1086	0.104
1087	0.103
1087	0.102
1088	0.102
1088	0.101
1088	0.101
1089	0.1
1089	0.099
1090	0.098
1090	0.097
1090	0.096
1091	0.096
1091	0.095
1092	0.096
1092	0.096
1092	0.096
1093	0.095
1093	0.095
1094	0.095
1094	0.095
1095	0.095
1095	0.095
1095	0.094
1096	0.093
1096	0.092
1097	0.091
1097	0.091
1097	0.091
1098	0.09
1098	0.089
1099	0.089
1099	0.088
1100	0.088
1100	0.088
1100	0.087
1101	0.087
1101	0.087
1102	0.086
1102	0.085
1102	0.084
1103	0.084
1103	0.084
1104	0.084
1104	0.083
1104	0.082
1105	0.082
1105	0.079
1106	0.078
1106	0.078
1107	0.077
1107	0.077
1107	0.076
1108	0.075
1108	0.074
1109	0.072
1109	0.072
1109	0.072
1110	0.075
1110	0.074
1111	0.072
1111	0.067
