Data from reversibility-20sec_Absorbance__1946__000000000001946.txt Node

Date: Tue Dec 05 23:01:45 CET 2023
User: Marek
Spectrometer: MAYP115816
Trigger mode: 0
Integration Time (sec): 2.000000E-1
Scans to average: 10
Electric dark correction enabled: true
Nonlinearity correction enabled: true
Boxcar width: 5
XAxis mode: Wavelengths
Number of Pixels in Spectrum: 2068
>>>>>Begin Spectral Data<<<<<
199	-0.188
199	-0.151
200	-0.074
200	-0.017
201	0.009
201	0.027
202	0.044
202	0.053
203	0.061
203	0.065
204	0.079
204	0.095
205	0.107
205	0.112
205	0.109
206	0.112
206	0.11
207	0.112
207	0.109
208	0.108
208	0.109
209	0.109
209	0.108
210	0.107
210	0.107
211	0.108
211	0.11
212	0.108
212	0.107
213	0.111
213	0.111
213	0.109
214	0.113
214	0.111
215	0.112
215	0.111
216	0.112
216	0.109
217	0.113
217	0.115
218	0.112
218	0.118
219	0.124
219	0.124
220	0.129
220	0.13
221	0.132
221	0.135
221	0.142
222	0.147
222	0.15
223	0.157
223	0.156
224	0.161
224	0.167
225	0.176
225	0.183
226	0.191
226	0.199
227	0.21
227	0.217
228	0.234
228	0.247
229	0.267
229	0.288
229	0.31
230	0.336
230	0.366
231	0.401
231	0.44
232	0.474
232	0.521
233	0.564
233	0.612
234	0.661
234	0.713
235	0.768
235	0.821
236	0.875
236	0.928
236	0.983
237	1.038
237	1.086
238	1.135
238	1.185
239	1.239
239	1.284
240	1.324
240	1.361
241	1.398
241	1.434
242	1.468
242	1.508
243	1.542
243	1.572
243	1.6
244	1.623
244	1.651
245	1.674
245	1.702
246	1.726
246	1.75
247	1.765
247	1.78
248	1.798
248	1.813
249	1.825
249	1.838
250	1.847
250	1.86
250	1.865
251	1.871
251	1.871
252	1.878
252	1.881
253	1.886
253	1.883
254	1.883
254	1.882
255	1.879
255	1.879
256	1.881
256	1.88
257	1.884
257	1.883
258	1.883
258	1.883
258	1.886
259	1.888
259	1.89
260	1.894
260	1.898
261	1.897
261	1.904
262	1.907
262	1.911
263	1.918
263	1.923
264	1.927
264	1.93
265	1.934
265	1.935
265	1.937
266	1.942
266	1.943
267	1.943
267	1.945
268	1.944
268	1.947
269	1.95
269	1.952
270	1.952
270	1.952
271	1.95
271	1.95
272	1.947
272	1.946
272	1.942
273	1.933
273	1.921
274	1.911
274	1.902
275	1.894
275	1.887
276	1.879
276	1.87
277	1.861
277	1.85
278	1.837
278	1.824
278	1.809
279	1.788
279	1.761
280	1.728
280	1.688
281	1.641
281	1.59
282	1.539
282	1.488
283	1.439
283	1.392
284	1.347
284	1.304
285	1.265
285	1.23
285	1.199
286	1.172
286	1.149
287	1.129
287	1.112
288	1.097
288	1.086
289	1.075
289	1.067
290	1.059
290	1.053
291	1.047
291	1.043
292	1.039
292	1.035
292	1.031
293	1.028
293	1.025
294	1.022
294	1.02
295	1.017
295	1.015
296	1.012
296	1.009
297	1.007
297	1.005
298	1.002
298	0.999
298	0.997
299	0.995
299	0.992
300	0.989
300	0.987
301	0.985
301	0.983
302	0.98
302	0.978
303	0.977
303	0.974
304	0.973
304	0.971
305	0.969
305	0.967
305	0.965
306	0.963
306	0.96
307	0.958
307	0.955
308	0.953
308	0.951
309	0.948
309	0.946
310	0.943
310	0.94
311	0.937
311	0.934
311	0.931
312	0.927
312	0.924
313	0.92
313	0.917
314	0.913
314	0.909
315	0.905
315	0.901
316	0.896
316	0.892
317	0.888
317	0.883
318	0.878
318	0.872
318	0.868
319	0.862
319	0.857
320	0.851
320	0.845
321	0.84
321	0.833
322	0.827
322	0.821
323	0.814
323	0.808
324	0.801
324	0.794
324	0.787
325	0.78
325	0.774
326	0.767
326	0.76
327	0.752
327	0.745
328	0.738
328	0.732
329	0.724
329	0.717
330	0.71
330	0.703
330	0.696
331	0.689
331	0.682
332	0.675
332	0.668
333	0.661
333	0.654
334	0.647
334	0.64
335	0.633
335	0.626
336	0.619
336	0.613
336	0.606
337	0.6
337	0.593
338	0.587
338	0.58
339	0.574
339	0.568
340	0.562
340	0.556
341	0.55
341	0.544
342	0.539
342	0.533
342	0.528
343	0.522
343	0.517
344	0.512
344	0.507
345	0.502
345	0.498
346	0.493
346	0.489
347	0.484
347	0.48
348	0.475
348	0.471
348	0.468
349	0.464
349	0.46
350	0.456
350	0.452
351	0.449
351	0.445
352	0.442
352	0.439
353	0.436
353	0.433
354	0.43
354	0.427
354	0.425
355	0.422
355	0.419
356	0.416
356	0.413
357	0.41
357	0.407
358	0.405
358	0.402
359	0.4
359	0.397
360	0.395
360	0.393
360	0.391
361	0.389
361	0.387
362	0.386
362	0.384
363	0.382
363	0.38
364	0.378
364	0.376
365	0.374
365	0.372
366	0.371
366	0.369
366	0.367
367	0.366
367	0.364
368	0.362
368	0.361
369	0.359
369	0.358
370	0.356
370	0.355
371	0.353
371	0.352
372	0.351
372	0.349
372	0.348
373	0.347
373	0.346
374	0.345
374	0.344
375	0.343
375	0.342
376	0.341
376	0.34
377	0.339
377	0.338
378	0.337
378	0.336
378	0.335
379	0.335
379	0.334
380	0.333
380	0.332
381	0.331
381	0.33
382	0.33
382	0.329
383	0.328
383	0.328
383	0.327
384	0.326
384	0.326
385	0.325
385	0.324
386	0.324
386	0.323
387	0.323
387	0.322
388	0.321
388	0.321
389	0.32
389	0.32
389	0.319
390	0.319
390	0.319
391	0.318
391	0.318
392	0.318
392	0.317
393	0.317
393	0.316
394	0.316
394	0.315
394	0.315
395	0.315
395	0.314
396	0.313
396	0.313
397	0.312
397	0.312
398	0.311
398	0.311
399	0.311
399	0.31
400	0.31
400	0.31
400	0.309
401	0.309
401	0.309
402	0.309
402	0.309
403	0.308
403	0.308
404	0.308
404	0.307
405	0.307
405	0.307
405	0.306
406	0.306
406	0.305
407	0.305
407	0.304
408	0.304
408	0.304
409	0.303
409	0.303
410	0.303
410	0.302
411	0.302
411	0.302
411	0.301
412	0.301
412	0.301
413	0.3
413	0.3
414	0.3
414	0.299
415	0.299
415	0.299
416	0.298
416	0.298
416	0.298
417	0.297
417	0.297
418	0.297
418	0.296
419	0.296
419	0.296
420	0.295
420	0.295
421	0.295
421	0.294
421	0.294
422	0.294
422	0.293
423	0.293
423	0.292
424	0.292
424	0.292
425	0.291
425	0.291
426	0.291
426	0.29
427	0.29
427	0.29
427	0.289
428	0.289
428	0.289
429	0.288
429	0.288
430	0.288
430	0.287
431	0.287
431	0.287
432	0.286
432	0.286
432	0.286
433	0.285
433	0.285
434	0.285
434	0.285
435	0.285
435	0.284
436	0.284
436	0.284
437	0.284
437	0.284
437	0.283
438	0.283
438	0.283
439	0.283
439	0.282
440	0.282
440	0.282
441	0.282
441	0.282
442	0.281
442	0.281
442	0.281
443	0.281
443	0.28
444	0.28
444	0.28
445	0.28
445	0.279
446	0.279
446	0.279
447	0.278
447	0.278
447	0.278
448	0.278
448	0.277
449	0.277
449	0.277
450	0.277
450	0.277
451	0.276
451	0.276
452	0.276
452	0.276
452	0.276
453	0.276
453	0.275
454	0.275
454	0.275
455	0.274
455	0.274
456	0.274
456	0.274
457	0.273
457	0.273
458	0.273
458	0.273
458	0.273
459	0.272
459	0.272
460	0.272
460	0.272
461	0.271
461	0.271
462	0.271
462	0.271
463	0.271
463	0.27
463	0.27
464	0.27
464	0.269
465	0.269
465	0.269
466	0.269
466	0.269
467	0.269
467	0.268
467	0.268
468	0.268
468	0.267
469	0.267
469	0.267
470	0.267
470	0.267
471	0.267
471	0.267
472	0.267
472	0.267
472	0.267
473	0.267
473	0.267
474	0.267
474	0.267
475	0.267
475	0.266
476	0.267
476	0.267
477	0.267
477	0.267
477	0.267
478	0.267
478	0.267
479	0.267
479	0.267
480	0.267
480	0.267
481	0.267
481	0.267
482	0.267
482	0.267
482	0.267
483	0.268
483	0.268
484	0.268
484	0.268
485	0.268
485	0.268
486	0.268
486	0.268
487	0.268
487	0.269
487	0.269
488	0.269
488	0.269
489	0.269
489	0.27
490	0.271
490	0.271
491	0.272
491	0.272
492	0.273
492	0.273
492	0.273
493	0.274
493	0.274
494	0.275
494	0.275
495	0.276
495	0.276
496	0.277
496	0.277
496	0.278
497	0.278
497	0.278
498	0.279
498	0.279
499	0.279
499	0.28
500	0.28
500	0.281
501	0.282
501	0.282
501	0.282
502	0.282
502	0.283
503	0.283
503	0.284
504	0.284
504	0.285
505	0.285
505	0.285
506	0.286
506	0.286
506	0.287
507	0.287
507	0.288
508	0.288
508	0.289
509	0.289
509	0.29
510	0.29
510	0.291
511	0.291
511	0.292
511	0.293
512	0.293
512	0.293
513	0.294
513	0.294
514	0.295
514	0.295
515	0.296
515	0.296
515	0.296
516	0.297
516	0.297
517	0.298
517	0.298
518	0.299
518	0.299
519	0.299
519	0.299
520	0.3
520	0.3
520	0.3
521	0.3
521	0.3
522	0.3
522	0.3
523	0.3
523	0.301
524	0.301
524	0.301
524	0.302
525	0.302
525	0.302
526	0.302
526	0.303
527	0.303
527	0.303
528	0.303
528	0.303
529	0.303
529	0.302
529	0.302
530	0.302
530	0.301
531	0.301
531	0.301
532	0.301
532	0.301
533	0.301
533	0.301
533	0.301
534	0.301
534	0.301
535	0.301
535	0.301
536	0.301
536	0.301
537	0.301
537	0.3
538	0.3
538	0.299
538	0.299
539	0.299
539	0.299
540	0.299
540	0.299
541	0.298
541	0.298
542	0.297
542	0.297
542	0.297
543	0.296
543	0.296
544	0.295
544	0.295
545	0.295
545	0.294
546	0.294
546	0.294
547	0.293
547	0.293
547	0.293
548	0.292
548	0.292
549	0.292
549	0.291
550	0.291
550	0.29
551	0.29
551	0.289
551	0.289
552	0.288
552	0.288
553	0.287
553	0.287
554	0.287
554	0.286
555	0.285
555	0.285
556	0.284
556	0.284
556	0.284
557	0.284
557	0.284
558	0.284
558	0.284
559	0.283
559	0.283
560	0.283
560	0.283
560	0.282
561	0.282
561	0.282
562	0.281
562	0.28
563	0.279
563	0.279
564	0.278
564	0.277
564	0.277
565	0.277
565	0.277
566	0.276
566	0.276
567	0.275
567	0.275
568	0.275
568	0.275
568	0.275
569	0.275
569	0.275
570	0.274
570	0.273
571	0.273
571	0.272
572	0.272
572	0.271
573	0.271
573	0.27
573	0.269
574	0.268
574	0.268
575	0.268
575	0.268
576	0.268
576	0.267
577	0.266
577	0.265
577	0.265
578	0.265
578	0.264
579	0.264
579	0.264
580	0.264
580	0.263
581	0.262
581	0.261
581	0.262
582	0.262
582	0.262
583	0.262
583	0.262
584	0.261
584	0.26
585	0.26
585	0.26
585	0.259
586	0.259
586	0.258
587	0.257
587	0.256
588	0.255
588	0.255
589	0.254
589	0.254
590	0.254
590	0.254
590	0.255
591	0.255
591	0.255
592	0.254
592	0.254
593	0.253
593	0.253
594	0.253
594	0.252
594	0.251
595	0.251
595	0.25
596	0.249
596	0.249
597	0.25
597	0.25
598	0.25
598	0.25
598	0.25
599	0.25
599	0.249
600	0.249
600	0.248
601	0.248
601	0.248
602	0.247
602	0.246
602	0.246
603	0.245
603	0.245
604	0.245
604	0.245
605	0.245
605	0.245
606	0.244
606	0.244
606	0.244
607	0.243
607	0.243
608	0.243
608	0.242
609	0.241
609	0.241
610	0.241
610	0.24
610	0.24
611	0.24
611	0.24
612	0.24
612	0.241
613	0.241
613	0.241
614	0.241
614	0.24
614	0.24
615	0.24
615	0.239
616	0.239
616	0.239
617	0.239
617	0.238
618	0.238
618	0.238
618	0.238
619	0.238
619	0.239
620	0.239
620	0.238
621	0.238
621	0.237
622	0.237
622	0.236
622	0.235
623	0.235
623	0.234
624	0.234
624	0.234
625	0.233
625	0.233
626	0.233
626	0.233
626	0.233
627	0.232
627	0.232
628	0.232
628	0.232
629	0.231
629	0.231
630	0.23
630	0.23
630	0.23
631	0.23
631	0.23
632	0.231
632	0.231
633	0.231
633	0.231
634	0.231
634	0.231
634	0.231
635	0.231
635	0.231
636	0.23
636	0.23
637	0.23
637	0.229
638	0.229
638	0.229
638	0.228
639	0.228
639	0.228
640	0.228
640	0.228
641	0.227
641	0.227
642	0.227
642	0.227
642	0.227
643	0.227
643	0.227
644	0.227
644	0.227
645	0.227
645	0.227
646	0.227
646	0.227
646	0.227
647	0.227
647	0.227
648	0.226
648	0.226
649	0.225
649	0.225
650	0.225
650	0.225
650	0.225
651	0.225
651	0.225
652	0.225
652	0.225
653	0.225
653	0.227
653	0.234
654	0.182
654	0.145
655	0.147
655	0.147
656	0.147
656	0.148
657	0.148
657	0.148
657	0.148
658	0.147
658	0.134
659	0.171
659	0.222
660	0.226
660	0.226
661	0.225
661	0.225
661	0.224
662	0.224
662	0.223
663	0.223
663	0.222
664	0.222
664	0.222
665	0.221
665	0.221
665	0.221
666	0.222
666	0.222
667	0.222
667	0.223
668	0.223
668	0.223
669	0.223
669	0.223
669	0.224
670	0.224
670	0.224
671	0.224
671	0.224
672	0.223
672	0.223
672	0.223
673	0.223
673	0.223
674	0.222
674	0.222
675	0.222
675	0.222
676	0.222
676	0.222
676	0.222
677	0.222
677	0.222
678	0.222
678	0.221
679	0.221
679	0.221
680	0.221
680	0.221
680	0.222
681	0.222
681	0.223
682	0.224
682	0.224
683	0.225
683	0.226
684	0.227
684	0.227
684	0.227
685	0.227
685	0.227
686	0.228
686	0.227
687	0.227
687	0.227
687	0.227
688	0.226
688	0.226
689	0.227
689	0.227
690	0.227
690	0.226
691	0.226
691	0.227
691	0.227
692	0.228
692	0.228
693	0.228
693	0.229
694	0.229
694	0.229
695	0.23
695	0.231
695	0.232
696	0.231
696	0.231
697	0.231
697	0.231
698	0.231
698	0.23
698	0.23
699	0.23
699	0.23
700	0.229
700	0.23
701	0.23
701	0.23
702	0.231
702	0.231
702	0.231
703	0.231
703	0.231
704	0.231
704	0.231
705	0.231
705	0.231
705	0.23
706	0.23
706	0.23
707	0.23
707	0.23
708	0.23
708	0.23
709	0.23
709	0.23
709	0.23
710	0.229
710	0.23
711	0.23
711	0.23
712	0.23
712	0.23
713	0.231
713	0.231
713	0.232
714	0.232
714	0.232
715	0.232
715	0.232
716	0.232
716	0.231
716	0.231
717	0.23
717	0.23
718	0.229
718	0.229
719	0.229
719	0.23
720	0.23
720	0.231
720	0.232
721	0.232
721	0.233
722	0.234
722	0.234
723	0.235
723	0.235
723	0.236
724	0.236
724	0.235
725	0.235
725	0.234
726	0.233
726	0.233
727	0.232
727	0.232
727	0.232
728	0.231
728	0.231
729	0.231
729	0.231
730	0.232
730	0.232
730	0.233
731	0.233
731	0.234
732	0.234
732	0.234
733	0.234
733	0.234
734	0.234
734	0.234
734	0.234
735	0.234
735	0.233
736	0.233
736	0.233
737	0.233
737	0.233
737	0.233
738	0.233
738	0.232
739	0.232
739	0.232
740	0.232
740	0.232
741	0.233
741	0.233
741	0.233
742	0.232
742	0.233
743	0.233
743	0.234
744	0.234
744	0.235
744	0.235
745	0.235
745	0.235
746	0.236
746	0.236
747	0.236
747	0.237
748	0.237
748	0.237
748	0.237
749	0.237
749	0.237
750	0.237
750	0.237
751	0.237
751	0.237
751	0.237
752	0.236
752	0.236
753	0.236
753	0.236
754	0.236
754	0.235
754	0.236
755	0.236
755	0.236
756	0.235
756	0.234
757	0.234
757	0.234
758	0.233
758	0.233
758	0.233
759	0.233
759	0.232
760	0.232
760	0.232
761	0.233
761	0.234
761	0.235
762	0.235
762	0.236
763	0.236
763	0.236
764	0.236
764	0.237
764	0.237
765	0.236
765	0.236
766	0.236
766	0.235
767	0.235
767	0.233
768	0.233
768	0.232
768	0.232
769	0.232
769	0.232
770	0.232
770	0.232
771	0.232
771	0.233
771	0.233
772	0.234
772	0.234
773	0.235
773	0.235
774	0.235
774	0.236
775	0.236
775	0.236
775	0.236
776	0.237
776	0.237
777	0.237
777	0.237
778	0.236
778	0.236
778	0.235
779	0.235
779	0.235
780	0.234
780	0.234
781	0.234
781	0.234
781	0.234
782	0.235
782	0.235
783	0.236
783	0.236
784	0.236
784	0.236
784	0.237
785	0.237
785	0.237
786	0.237
786	0.237
787	0.236
787	0.236
788	0.236
788	0.235
788	0.235
789	0.235
789	0.235
790	0.235
790	0.235
791	0.236
791	0.236
791	0.236
792	0.237
792	0.238
793	0.238
793	0.238
794	0.238
794	0.238
794	0.238
795	0.238
795	0.238
796	0.239
796	0.239
797	0.238
797	0.238
797	0.238
798	0.238
798	0.238
799	0.238
799	0.238
800	0.238
800	0.238
801	0.238
801	0.238
801	0.238
802	0.238
802	0.239
803	0.239
803	0.239
804	0.24
804	0.24
804	0.24
805	0.24
805	0.239
806	0.239
806	0.239
807	0.238
807	0.238
807	0.238
808	0.237
808	0.237
809	0.237
809	0.237
810	0.237
810	0.238
810	0.238
811	0.238
811	0.238
812	0.239
812	0.239
813	0.24
813	0.24
813	0.24
814	0.241
814	0.241
815	0.242
815	0.242
816	0.242
816	0.242
817	0.242
817	0.242
817	0.241
818	0.241
818	0.241
819	0.241
819	0.24
820	0.239
820	0.239
820	0.239
821	0.239
821	0.239
822	0.239
822	0.239
823	0.239
823	0.239
823	0.239
824	0.24
824	0.241
825	0.241
825	0.242
826	0.242
826	0.242
826	0.242
827	0.243
827	0.243
828	0.243
828	0.243
829	0.243
829	0.243
829	0.242
830	0.242
830	0.242
831	0.242
831	0.242
832	0.242
832	0.242
832	0.242
833	0.242
833	0.241
834	0.241
834	0.241
835	0.241
835	0.241
835	0.242
836	0.242
836	0.242
837	0.243
837	0.243
838	0.243
838	0.243
839	0.243
839	0.243
839	0.242
840	0.241
840	0.241
841	0.24
841	0.239
842	0.238
842	0.238
842	0.237
843	0.237
843	0.236
844	0.236
844	0.236
845	0.236
845	0.236
845	0.237
846	0.237
846	0.237
847	0.237
847	0.237
848	0.238
848	0.239
848	0.239
849	0.239
849	0.24
850	0.24
850	0.24
851	0.24
851	0.24
851	0.239
852	0.239
852	0.238
853	0.237
853	0.237
854	0.236
854	0.236
854	0.236
855	0.237
855	0.237
856	0.237
856	0.237
857	0.238
857	0.238
857	0.238
858	0.238
858	0.238
859	0.237
859	0.236
860	0.235
860	0.234
860	0.234
861	0.233
861	0.232
862	0.231
862	0.23
863	0.229
863	0.229
863	0.228
864	0.228
864	0.228
865	0.228
865	0.227
866	0.227
866	0.227
866	0.227
867	0.227
867	0.227
868	0.227
868	0.227
869	0.227
869	0.227
869	0.226
870	0.226
870	0.226
871	0.226
871	0.227
872	0.227
872	0.227
872	0.227
873	0.227
873	0.226
874	0.226
874	0.226
875	0.226
875	0.226
875	0.225
876	0.225
876	0.225
877	0.225
877	0.225
878	0.226
878	0.226
878	0.227
879	0.228
879	0.228
880	0.229
880	0.229
881	0.229
881	0.228
881	0.228
882	0.227
882	0.226
883	0.225
883	0.224
884	0.223
884	0.222
884	0.221
885	0.22
885	0.219
886	0.219
886	0.218
887	0.218
887	0.217
887	0.217
888	0.216
888	0.215
889	0.215
889	0.215
890	0.214
890	0.214
890	0.214
891	0.214
891	0.215
892	0.215
892	0.216
893	0.216
893	0.217
893	0.217
894	0.218
894	0.218
895	0.218
895	0.219
895	0.219
896	0.218
896	0.218
897	0.217
897	0.217
898	0.216
898	0.216
898	0.215
899	0.214
899	0.214
900	0.214
900	0.213
901	0.213
901	0.213
901	0.213
902	0.213
902	0.213
903	0.213
903	0.213
904	0.212
904	0.211
904	0.211
905	0.21
905	0.209
906	0.209
906	0.208
907	0.208
907	0.208
907	0.208
908	0.208
908	0.209
909	0.209
909	0.209
910	0.209
910	0.209
910	0.209
911	0.209
911	0.208
912	0.208
912	0.207
913	0.207
913	0.206
913	0.206
914	0.205
914	0.205
915	0.205
915	0.204
916	0.204
916	0.203
916	0.202
917	0.202
917	0.201
918	0.2
918	0.199
918	0.197
919	0.197
919	0.196
920	0.195
920	0.195
921	0.194
921	0.194
921	0.194
922	0.194
922	0.194
923	0.194
923	0.194
924	0.195
924	0.195
924	0.195
925	0.195
925	0.195
926	0.195
926	0.194
927	0.194
927	0.193
927	0.193
928	0.192
928	0.192
929	0.191
929	0.191
930	0.19
930	0.19
930	0.189
931	0.189
931	0.189
932	0.188
932	0.188
933	0.188
933	0.187
933	0.187
934	0.186
934	0.186
935	0.186
935	0.185
935	0.185
936	0.185
936	0.185
937	0.185
937	0.185
938	0.185
938	0.185
938	0.184
939	0.184
939	0.184
940	0.184
940	0.184
941	0.184
941	0.184
941	0.184
942	0.184
942	0.184
943	0.184
943	0.183
944	0.183
944	0.183
944	0.183
945	0.182
945	0.182
946	0.182
946	0.181
946	0.181
947	0.181
947	0.181
948	0.181
948	0.181
949	0.18
949	0.18
949	0.179
950	0.179
950	0.178
951	0.178
951	0.177
952	0.176
952	0.175
952	0.174
953	0.174
953	0.173
954	0.172
954	0.172
955	0.171
955	0.171
955	0.17
956	0.171
956	0.171
957	0.171
957	0.171
957	0.171
958	0.171
958	0.171
959	0.171
959	0.171
960	0.171
960	0.17
960	0.17
961	0.169
961	0.168
962	0.168
962	0.167
963	0.167
963	0.166
963	0.166
964	0.166
964	0.165
965	0.165
965	0.165
966	0.165
966	0.166
966	0.166
967	0.166
967	0.165
968	0.165
968	0.165
968	0.165
969	0.164
969	0.164
970	0.164
970	0.163
971	0.163
971	0.162
971	0.162
972	0.162
972	0.161
973	0.161
973	0.161
974	0.161
974	0.16
974	0.161
975	0.161
975	0.161
976	0.161
976	0.161
976	0.161
977	0.161
977	0.161
978	0.161
978	0.161
979	0.161
979	0.161
979	0.16
980	0.16
980	0.159
981	0.158
981	0.157
982	0.157
982	0.156
982	0.155
983	0.154
983	0.153
984	0.152
984	0.15
984	0.149
985	0.148
985	0.147
986	0.146
986	0.145
987	0.144
987	0.143
987	0.143
988	0.142
988	0.141
989	0.14
989	0.14
990	0.139
990	0.138
990	0.138
991	0.138
991	0.137
992	0.137
992	0.136
992	0.136
993	0.136
993	0.136
994	0.135
994	0.135
995	0.135
995	0.135
995	0.134
996	0.135
996	0.135
997	0.135
997	0.135
997	0.135
998	0.136
998	0.136
999	0.137
999	0.137
1000	0.138
1000	0.139
1000	0.14
1001	0.14
1001	0.141
1002	0.141
1002	0.142
1003	0.142
1003	0.142
1003	0.141
1004	0.141
1004	0.14
1005	0.14
1005	0.139
1005	0.139
1006	0.138
1006	0.138
1007	0.138
1007	0.137
1008	0.137
1008	0.137
1008	0.137
1009	0.136
1009	0.136
1010	0.136
1010	0.135
1010	0.135
1011	0.135
1011	0.135
1012	0.134
1012	0.134
1013	0.134
1013	0.134
1013	0.134
1014	0.133
1014	0.133
1015	0.133
1015	0.133
1016	0.133
1016	0.132
1016	0.132
1017	0.131
1017	0.131
1018	0.13
1018	0.129
1018	0.129
1019	0.128
1019	0.128
1020	0.127
1020	0.127
1021	0.127
1021	0.126
1021	0.126
1022	0.126
1022	0.126
1023	0.126
1023	0.125
1023	0.125
1024	0.125
1024	0.125
1025	0.124
1025	0.124
1026	0.123
1026	0.123
1026	0.122
1027	0.122
1027	0.122
1028	0.121
1028	0.121
1028	0.121
1029	0.121
1029	0.121
1030	0.121
1030	0.121
1031	0.121
1031	0.122
1031	0.122
1032	0.122
1032	0.122
1033	0.122
1033	0.122
1033	0.122
1034	0.122
1034	0.122
1035	0.121
1035	0.121
1036	0.121
1036	0.121
1036	0.121
1037	0.121
1037	0.12
1038	0.12
1038	0.12
1039	0.12
1039	0.12
1039	0.12
1040	0.12
1040	0.12
1041	0.12
1041	0.12
1041	0.119
1042	0.119
1042	0.119
1043	0.119
1043	0.118
1044	0.118
1044	0.118
1044	0.117
1045	0.117
1045	0.117
1046	0.117
1046	0.117
1046	0.118
1047	0.118
1047	0.118
1048	0.119
1048	0.119
1049	0.119
1049	0.119
1049	0.119
1050	0.119
1050	0.118
1051	0.118
1051	0.117
1051	0.116
1052	0.116
1052	0.115
1053	0.114
1053	0.113
1053	0.112
1054	0.111
1054	0.111
1055	0.11
1055	0.11
1056	0.11
1056	0.109
1056	0.108
1057	0.108
1057	0.107
1058	0.106
1058	0.105
1058	0.104
1059	0.103
1059	0.102
1060	0.101
1060	0.1
1061	0.099
1061	0.099
1061	0.098
1062	0.098
1062	0.098
1063	0.098
1063	0.097
1063	0.097
1064	0.097
1064	0.097
1065	0.097
1065	0.097
1066	0.097
1066	0.097
1066	0.096
1067	0.096
1067	0.096
1068	0.096
1068	0.096
1068	0.096
1069	0.095
1069	0.095
1070	0.094
1070	0.094
1071	0.093
1071	0.092
1071	0.091
1072	0.091
1072	0.09
1073	0.089
1073	0.088
1073	0.088
1074	0.088
1074	0.088
1075	0.088
1075	0.088
1076	0.088
1076	0.089
1076	0.089
1077	0.089
1077	0.089
1078	0.088
1078	0.088
1078	0.088
1079	0.088
1079	0.088
1080	0.087
1080	0.087
1080	0.087
1081	0.087
1081	0.087
1082	0.087
1082	0.088
1083	0.088
1083	0.088
1083	0.088
1084	0.088
1084	0.088
1085	0.088
1085	0.087
1085	0.087
1086	0.087
1086	0.085
1087	0.085
1087	0.084
1088	0.083
1088	0.083
1088	0.083
1089	0.082
1089	0.082
1090	0.081
1090	0.08
1090	0.079
1091	0.079
1091	0.079
1092	0.079
1092	0.079
1092	0.079
1093	0.078
1093	0.078
1094	0.078
1094	0.078
1095	0.078
1095	0.078
1095	0.078
1096	0.077
1096	0.076
1097	0.075
1097	0.074
1097	0.073
1098	0.072
1098	0.071
1099	0.07
1099	0.068
1100	0.067
1100	0.066
1100	0.065
1101	0.064
1101	0.063
1102	0.063
1102	0.061
1102	0.06
1103	0.06
1103	0.06
1104	0.059
1104	0.059
1104	0.058
1105	0.057
1105	0.055
1106	0.053
1106	0.052
1107	0.05
1107	0.049
1107	0.048
1108	0.046
1108	0.046
1109	0.044
1109	0.042
1109	0.041
1110	0.042
1110	0.042
1111	0.04
1111	0.039
