Data from reversibility-20sec_Absorbance__7311__000000000007311.txt Node

Date: Thu Dec 07 04:50:07 CET 2023
User: Marek
Spectrometer: MAYP115816
Trigger mode: 0
Integration Time (sec): 2.000000E-1
Scans to average: 10
Electric dark correction enabled: true
Nonlinearity correction enabled: true
Boxcar width: 5
XAxis mode: Wavelengths
Number of Pixels in Spectrum: 2068
>>>>>Begin Spectral Data<<<<<
199	-0.082
199	-0.062
200	-0
200	0.05
201	0.074
201	0.094
202	0.104
202	0.113
203	0.121
203	0.126
204	0.138
204	0.151
205	0.164
205	0.169
205	0.168
206	0.167
206	0.164
207	0.162
207	0.163
208	0.162
208	0.16
209	0.161
209	0.158
210	0.158
210	0.158
211	0.161
211	0.165
212	0.162
212	0.167
213	0.171
213	0.171
213	0.17
214	0.174
214	0.177
215	0.182
215	0.183
216	0.181
216	0.177
217	0.183
217	0.183
218	0.178
218	0.18
219	0.183
219	0.18
220	0.182
220	0.18
221	0.182
221	0.186
221	0.194
222	0.2
222	0.204
223	0.213
223	0.218
224	0.225
224	0.236
225	0.245
225	0.254
226	0.264
226	0.273
227	0.28
227	0.288
228	0.305
228	0.317
229	0.333
229	0.356
229	0.377
230	0.403
230	0.434
231	0.465
231	0.501
232	0.537
232	0.583
233	0.624
233	0.673
234	0.728
234	0.779
235	0.835
235	0.886
236	0.935
236	0.986
236	1.038
237	1.091
237	1.138
238	1.185
238	1.233
239	1.276
239	1.316
240	1.352
240	1.386
241	1.419
241	1.453
242	1.483
242	1.516
243	1.543
243	1.571
243	1.594
244	1.613
244	1.637
245	1.658
245	1.683
246	1.702
246	1.716
247	1.729
247	1.742
248	1.754
248	1.765
249	1.774
249	1.78
250	1.784
250	1.79
250	1.79
251	1.793
251	1.798
252	1.8
252	1.799
253	1.801
253	1.797
254	1.794
254	1.795
255	1.794
255	1.793
256	1.793
256	1.79
257	1.788
257	1.788
258	1.789
258	1.787
258	1.788
259	1.788
259	1.79
260	1.79
260	1.791
261	1.791
261	1.794
262	1.796
262	1.798
263	1.8
263	1.803
264	1.803
264	1.806
265	1.806
265	1.806
265	1.806
266	1.806
266	1.806
267	1.805
267	1.805
268	1.804
268	1.804
269	1.807
269	1.804
270	1.804
270	1.804
271	1.802
271	1.801
272	1.799
272	1.796
272	1.791
273	1.784
273	1.777
274	1.771
274	1.764
275	1.756
275	1.75
276	1.742
276	1.735
277	1.727
277	1.716
278	1.704
278	1.691
278	1.677
279	1.659
279	1.637
280	1.609
280	1.574
281	1.534
281	1.491
282	1.446
282	1.4
283	1.356
283	1.313
284	1.271
284	1.231
285	1.193
285	1.159
285	1.129
286	1.103
286	1.08
287	1.06
287	1.043
288	1.029
288	1.016
289	1.006
289	0.997
290	0.989
290	0.983
291	0.977
291	0.972
292	0.967
292	0.962
292	0.959
293	0.955
293	0.952
294	0.949
294	0.945
295	0.942
295	0.939
296	0.936
296	0.933
297	0.931
297	0.928
298	0.925
298	0.922
298	0.919
299	0.917
299	0.914
300	0.911
300	0.908
301	0.906
301	0.903
302	0.901
302	0.898
303	0.896
303	0.894
304	0.891
304	0.889
305	0.887
305	0.885
305	0.883
306	0.88
306	0.878
307	0.876
307	0.873
308	0.871
308	0.868
309	0.865
309	0.863
310	0.86
310	0.857
311	0.854
311	0.851
311	0.847
312	0.844
312	0.841
313	0.837
313	0.833
314	0.829
314	0.826
315	0.822
315	0.817
316	0.813
316	0.808
317	0.804
317	0.799
318	0.794
318	0.789
318	0.784
319	0.779
319	0.773
320	0.768
320	0.762
321	0.756
321	0.749
322	0.743
322	0.737
323	0.73
323	0.724
324	0.717
324	0.711
324	0.704
325	0.697
325	0.69
326	0.683
326	0.676
327	0.669
327	0.662
328	0.655
328	0.648
329	0.64
329	0.633
330	0.626
330	0.619
330	0.612
331	0.605
331	0.598
332	0.591
332	0.584
333	0.577
333	0.57
334	0.563
334	0.556
335	0.549
335	0.542
336	0.535
336	0.529
336	0.522
337	0.516
337	0.509
338	0.503
338	0.496
339	0.49
339	0.484
340	0.479
340	0.473
341	0.467
341	0.461
342	0.456
342	0.45
342	0.445
343	0.44
343	0.434
344	0.429
344	0.424
345	0.419
345	0.414
346	0.41
346	0.405
347	0.401
347	0.397
348	0.392
348	0.388
348	0.385
349	0.381
349	0.377
350	0.374
350	0.37
351	0.367
351	0.364
352	0.361
352	0.358
353	0.355
353	0.352
354	0.349
354	0.346
354	0.343
355	0.34
355	0.337
356	0.335
356	0.332
357	0.329
357	0.327
358	0.324
358	0.321
359	0.319
359	0.316
360	0.314
360	0.313
360	0.311
361	0.309
361	0.307
362	0.306
362	0.304
363	0.302
363	0.301
364	0.299
364	0.297
365	0.295
365	0.293
366	0.292
366	0.29
366	0.288
367	0.286
367	0.285
368	0.283
368	0.281
369	0.28
369	0.279
370	0.277
370	0.276
371	0.275
371	0.274
372	0.273
372	0.272
372	0.271
373	0.27
373	0.269
374	0.268
374	0.267
375	0.266
375	0.265
376	0.265
376	0.264
377	0.263
377	0.262
378	0.261
378	0.26
378	0.259
379	0.259
379	0.258
380	0.257
380	0.256
381	0.256
381	0.255
382	0.255
382	0.254
383	0.254
383	0.253
383	0.253
384	0.252
384	0.252
385	0.251
385	0.251
386	0.251
386	0.25
387	0.25
387	0.249
388	0.249
388	0.249
389	0.249
389	0.248
389	0.248
390	0.248
390	0.247
391	0.247
391	0.247
392	0.247
392	0.247
393	0.246
393	0.246
394	0.246
394	0.245
394	0.245
395	0.245
395	0.244
396	0.244
396	0.244
397	0.243
397	0.243
398	0.243
398	0.243
399	0.242
399	0.242
400	0.242
400	0.242
400	0.241
401	0.241
401	0.241
402	0.241
402	0.241
403	0.24
403	0.24
404	0.24
404	0.24
405	0.239
405	0.239
405	0.239
406	0.239
406	0.238
407	0.238
407	0.238
408	0.238
408	0.238
409	0.237
409	0.237
410	0.237
410	0.237
411	0.237
411	0.236
411	0.236
412	0.236
412	0.236
413	0.235
413	0.235
414	0.235
414	0.235
415	0.234
415	0.234
416	0.234
416	0.233
416	0.233
417	0.233
417	0.232
418	0.232
418	0.232
419	0.231
419	0.231
420	0.23
420	0.23
421	0.229
421	0.229
421	0.229
422	0.228
422	0.228
423	0.228
423	0.227
424	0.227
424	0.226
425	0.226
425	0.226
426	0.226
426	0.226
427	0.225
427	0.225
427	0.225
428	0.225
428	0.224
429	0.224
429	0.223
430	0.223
430	0.223
431	0.222
431	0.222
432	0.222
432	0.222
432	0.221
433	0.221
433	0.221
434	0.221
434	0.221
435	0.221
435	0.22
436	0.22
436	0.22
437	0.22
437	0.22
437	0.219
438	0.219
438	0.219
439	0.219
439	0.218
440	0.218
440	0.217
441	0.217
441	0.217
442	0.216
442	0.216
442	0.216
443	0.216
443	0.215
444	0.215
444	0.215
445	0.215
445	0.215
446	0.215
446	0.214
447	0.214
447	0.214
447	0.214
448	0.214
448	0.214
449	0.213
449	0.213
450	0.213
450	0.213
451	0.213
451	0.213
452	0.213
452	0.212
452	0.212
453	0.212
453	0.212
454	0.211
454	0.211
455	0.211
455	0.21
456	0.21
456	0.21
457	0.209
457	0.209
458	0.209
458	0.209
458	0.208
459	0.208
459	0.208
460	0.208
460	0.208
461	0.208
461	0.208
462	0.207
462	0.207
463	0.207
463	0.207
463	0.207
464	0.206
464	0.206
465	0.205
465	0.205
466	0.205
466	0.204
467	0.204
467	0.204
467	0.204
468	0.204
468	0.204
469	0.204
469	0.204
470	0.204
470	0.204
471	0.204
471	0.204
472	0.204
472	0.204
472	0.204
473	0.203
473	0.203
474	0.203
474	0.203
475	0.202
475	0.202
476	0.202
476	0.202
477	0.202
477	0.202
477	0.202
478	0.202
478	0.202
479	0.202
479	0.202
480	0.202
480	0.202
481	0.202
481	0.202
482	0.202
482	0.202
482	0.202
483	0.202
483	0.202
484	0.202
484	0.202
485	0.201
485	0.201
486	0.201
486	0.201
487	0.201
487	0.201
487	0.201
488	0.201
488	0.201
489	0.201
489	0.201
490	0.202
490	0.202
491	0.202
491	0.203
492	0.203
492	0.203
492	0.204
493	0.204
493	0.204
494	0.205
494	0.205
495	0.205
495	0.205
496	0.205
496	0.206
496	0.206
497	0.206
497	0.206
498	0.206
498	0.207
499	0.207
499	0.207
500	0.208
500	0.208
501	0.209
501	0.209
501	0.209
502	0.209
502	0.209
503	0.21
503	0.21
504	0.21
504	0.21
505	0.211
505	0.211
506	0.211
506	0.212
506	0.212
507	0.212
507	0.213
508	0.213
508	0.213
509	0.213
509	0.213
510	0.214
510	0.214
511	0.214
511	0.215
511	0.215
512	0.216
512	0.216
513	0.217
513	0.217
514	0.217
514	0.218
515	0.218
515	0.218
515	0.219
516	0.219
516	0.219
517	0.22
517	0.22
518	0.22
518	0.22
519	0.22
519	0.221
520	0.221
520	0.221
520	0.221
521	0.221
521	0.221
522	0.222
522	0.222
523	0.222
523	0.222
524	0.223
524	0.223
524	0.223
525	0.223
525	0.223
526	0.223
526	0.224
527	0.224
527	0.224
528	0.224
528	0.224
529	0.224
529	0.224
529	0.224
530	0.224
530	0.224
531	0.224
531	0.224
532	0.224
532	0.224
533	0.224
533	0.224
533	0.224
534	0.224
534	0.224
535	0.224
535	0.224
536	0.224
536	0.224
537	0.224
537	0.224
538	0.224
538	0.224
538	0.224
539	0.224
539	0.223
540	0.223
540	0.223
541	0.223
541	0.223
542	0.223
542	0.223
542	0.224
543	0.224
543	0.224
544	0.224
544	0.224
545	0.224
545	0.224
546	0.224
546	0.223
547	0.223
547	0.223
547	0.222
548	0.222
548	0.222
549	0.221
549	0.221
550	0.221
550	0.221
551	0.221
551	0.22
551	0.22
552	0.22
552	0.22
553	0.22
553	0.22
554	0.219
554	0.219
555	0.218
555	0.218
556	0.218
556	0.217
556	0.218
557	0.218
557	0.218
558	0.218
558	0.218
559	0.218
559	0.218
560	0.218
560	0.218
560	0.218
561	0.218
561	0.218
562	0.217
562	0.216
563	0.215
563	0.215
564	0.214
564	0.214
564	0.214
565	0.213
565	0.213
566	0.213
566	0.213
567	0.213
567	0.213
568	0.213
568	0.212
568	0.212
569	0.212
569	0.212
570	0.211
570	0.21
571	0.21
571	0.209
572	0.209
572	0.208
573	0.208
573	0.208
573	0.208
574	0.207
574	0.208
575	0.208
575	0.208
576	0.207
576	0.207
577	0.206
577	0.206
577	0.205
578	0.205
578	0.205
579	0.205
579	0.205
580	0.205
580	0.204
581	0.204
581	0.204
581	0.204
582	0.204
582	0.204
583	0.204
583	0.204
584	0.203
584	0.202
585	0.202
585	0.202
585	0.202
586	0.202
586	0.201
587	0.201
587	0.2
588	0.2
588	0.2
589	0.2
589	0.2
590	0.2
590	0.199
590	0.199
591	0.2
591	0.199
592	0.199
592	0.198
593	0.198
593	0.197
594	0.197
594	0.196
594	0.196
595	0.196
595	0.195
596	0.195
596	0.195
597	0.196
597	0.196
598	0.196
598	0.196
598	0.196
599	0.196
599	0.196
600	0.195
600	0.195
601	0.195
601	0.195
602	0.194
602	0.194
602	0.193
603	0.193
603	0.193
604	0.193
604	0.193
605	0.193
605	0.193
606	0.192
606	0.192
606	0.191
607	0.191
607	0.191
608	0.191
608	0.19
609	0.19
609	0.189
610	0.189
610	0.188
610	0.188
611	0.189
611	0.189
612	0.189
612	0.189
613	0.189
613	0.189
614	0.189
614	0.189
614	0.189
615	0.189
615	0.19
616	0.19
616	0.19
617	0.19
617	0.19
618	0.189
618	0.189
618	0.189
619	0.189
619	0.189
620	0.189
620	0.189
621	0.188
621	0.188
622	0.188
622	0.187
622	0.187
623	0.187
623	0.187
624	0.187
624	0.186
625	0.186
625	0.186
626	0.186
626	0.186
626	0.186
627	0.186
627	0.186
628	0.186
628	0.186
629	0.186
629	0.185
630	0.185
630	0.185
630	0.185
631	0.185
631	0.184
632	0.184
632	0.184
633	0.184
633	0.184
634	0.184
634	0.184
634	0.184
635	0.184
635	0.184
636	0.183
636	0.184
637	0.183
637	0.183
638	0.183
638	0.182
638	0.182
639	0.181
639	0.181
640	0.181
640	0.181
641	0.181
641	0.181
642	0.181
642	0.181
642	0.181
643	0.181
643	0.181
644	0.182
644	0.182
645	0.182
645	0.182
646	0.182
646	0.183
646	0.183
647	0.183
647	0.183
648	0.182
648	0.181
649	0.181
649	0.181
650	0.18
650	0.18
650	0.18
651	0.18
651	0.18
652	0.18
652	0.18
653	0.181
653	0.183
653	0.188
654	0.148
654	0.118
655	0.119
655	0.119
656	0.119
656	0.12
657	0.12
657	0.121
657	0.121
658	0.119
658	0.11
659	0.139
659	0.178
660	0.182
660	0.182
661	0.182
661	0.181
661	0.181
662	0.18
662	0.18
663	0.179
663	0.179
664	0.178
664	0.178
665	0.178
665	0.178
665	0.178
666	0.178
666	0.178
667	0.178
667	0.178
668	0.179
668	0.179
669	0.179
669	0.179
669	0.18
670	0.18
670	0.18
671	0.18
671	0.18
672	0.18
672	0.179
672	0.179
673	0.179
673	0.179
674	0.179
674	0.178
675	0.178
675	0.178
676	0.178
676	0.179
676	0.179
677	0.179
677	0.179
678	0.179
678	0.179
679	0.178
679	0.178
680	0.178
680	0.178
680	0.178
681	0.178
681	0.178
682	0.178
682	0.179
683	0.179
683	0.18
684	0.18
684	0.18
684	0.18
685	0.18
685	0.18
686	0.18
686	0.18
687	0.18
687	0.18
687	0.18
688	0.18
688	0.18
689	0.18
689	0.181
690	0.18
690	0.18
691	0.18
691	0.18
691	0.181
692	0.181
692	0.181
693	0.181
693	0.182
694	0.182
694	0.182
695	0.182
695	0.184
695	0.184
696	0.184
696	0.184
697	0.184
697	0.184
698	0.184
698	0.184
698	0.184
699	0.184
699	0.184
700	0.183
700	0.183
701	0.183
701	0.182
702	0.182
702	0.182
702	0.182
703	0.181
703	0.181
704	0.18
704	0.18
705	0.18
705	0.18
705	0.179
706	0.179
706	0.179
707	0.179
707	0.179
708	0.18
708	0.18
709	0.18
709	0.179
709	0.179
710	0.179
710	0.18
711	0.18
711	0.181
712	0.181
712	0.181
713	0.182
713	0.182
713	0.182
714	0.182
714	0.182
715	0.182
715	0.182
716	0.182
716	0.182
716	0.181
717	0.18
717	0.18
718	0.179
718	0.179
719	0.18
719	0.18
720	0.181
720	0.181
720	0.182
721	0.183
721	0.184
722	0.185
722	0.185
723	0.186
723	0.186
723	0.186
724	0.185
724	0.185
725	0.184
725	0.183
726	0.182
726	0.181
727	0.18
727	0.18
727	0.18
728	0.18
728	0.18
729	0.18
729	0.18
730	0.181
730	0.181
730	0.182
731	0.182
731	0.183
732	0.184
732	0.184
733	0.185
733	0.185
734	0.186
734	0.186
734	0.186
735	0.187
735	0.187
736	0.186
736	0.186
737	0.186
737	0.186
737	0.186
738	0.185
738	0.184
739	0.184
739	0.183
740	0.183
740	0.184
741	0.184
741	0.184
741	0.184
742	0.185
742	0.185
743	0.186
743	0.187
744	0.188
744	0.188
744	0.189
745	0.189
745	0.189
746	0.189
746	0.188
747	0.188
747	0.188
748	0.188
748	0.187
748	0.187
749	0.187
749	0.188
750	0.188
750	0.188
751	0.188
751	0.189
751	0.189
752	0.189
752	0.189
753	0.189
753	0.189
754	0.188
754	0.188
754	0.188
755	0.188
755	0.188
756	0.188
756	0.187
757	0.187
757	0.187
758	0.187
758	0.186
758	0.187
759	0.187
759	0.186
760	0.186
760	0.186
761	0.186
761	0.187
761	0.187
762	0.187
762	0.188
763	0.188
763	0.188
764	0.188
764	0.188
764	0.188
765	0.188
765	0.187
766	0.188
766	0.188
767	0.187
767	0.187
768	0.186
768	0.186
768	0.186
769	0.187
769	0.187
770	0.187
770	0.188
771	0.189
771	0.189
771	0.189
772	0.19
772	0.191
773	0.191
773	0.192
774	0.192
774	0.193
775	0.193
775	0.193
775	0.193
776	0.194
776	0.195
777	0.195
777	0.196
778	0.196
778	0.196
778	0.196
779	0.196
779	0.195
780	0.194
780	0.193
781	0.193
781	0.192
781	0.191
782	0.191
782	0.191
783	0.191
783	0.191
784	0.191
784	0.191
784	0.192
785	0.193
785	0.193
786	0.194
786	0.194
787	0.195
787	0.195
788	0.195
788	0.195
788	0.195
789	0.194
789	0.195
790	0.195
790	0.195
791	0.195
791	0.194
791	0.194
792	0.195
792	0.194
793	0.194
793	0.194
794	0.193
794	0.192
794	0.192
795	0.192
795	0.192
796	0.192
796	0.192
797	0.191
797	0.192
797	0.192
798	0.193
798	0.193
799	0.194
799	0.194
800	0.194
800	0.194
801	0.195
801	0.196
801	0.196
802	0.197
802	0.197
803	0.197
803	0.198
804	0.198
804	0.199
804	0.199
805	0.199
805	0.199
806	0.198
806	0.198
807	0.198
807	0.198
807	0.198
808	0.198
808	0.198
809	0.197
809	0.197
810	0.197
810	0.197
810	0.197
811	0.198
811	0.198
812	0.199
812	0.199
813	0.2
813	0.2
813	0.201
814	0.202
814	0.202
815	0.203
815	0.203
816	0.203
816	0.203
817	0.202
817	0.202
817	0.201
818	0.201
818	0.2
819	0.2
819	0.199
820	0.198
820	0.198
820	0.197
821	0.197
821	0.197
822	0.197
822	0.198
823	0.198
823	0.198
823	0.199
824	0.2
824	0.201
825	0.202
825	0.203
826	0.205
826	0.205
826	0.206
827	0.207
827	0.207
828	0.208
828	0.208
829	0.208
829	0.209
829	0.209
830	0.209
830	0.209
831	0.209
831	0.209
832	0.209
832	0.209
832	0.209
833	0.209
833	0.208
834	0.208
834	0.207
835	0.207
835	0.206
835	0.206
836	0.205
836	0.205
837	0.205
837	0.204
838	0.203
838	0.203
839	0.202
839	0.201
839	0.2
840	0.199
840	0.198
841	0.198
841	0.197
842	0.196
842	0.196
842	0.195
843	0.194
843	0.194
844	0.194
844	0.194
845	0.194
845	0.194
845	0.194
846	0.194
846	0.194
847	0.194
847	0.195
848	0.196
848	0.196
848	0.196
849	0.196
849	0.197
850	0.197
850	0.197
851	0.196
851	0.196
851	0.196
852	0.196
852	0.196
853	0.195
853	0.195
854	0.196
854	0.196
854	0.197
855	0.198
855	0.199
856	0.199
856	0.2
857	0.201
857	0.202
857	0.203
858	0.203
858	0.204
859	0.204
859	0.204
860	0.204
860	0.204
860	0.205
861	0.204
861	0.204
862	0.204
862	0.203
863	0.203
863	0.203
863	0.203
864	0.203
864	0.203
865	0.203
865	0.203
866	0.203
866	0.203
866	0.203
867	0.203
867	0.203
868	0.203
868	0.203
869	0.203
869	0.203
869	0.202
870	0.201
870	0.201
871	0.201
871	0.201
872	0.2
872	0.2
872	0.2
873	0.2
873	0.199
874	0.199
874	0.199
875	0.198
875	0.198
875	0.198
876	0.198
876	0.197
877	0.197
877	0.196
878	0.196
878	0.196
878	0.196
879	0.196
879	0.196
880	0.196
880	0.196
881	0.197
881	0.197
881	0.197
882	0.197
882	0.198
883	0.198
883	0.198
884	0.198
884	0.198
884	0.198
885	0.198
885	0.198
886	0.198
886	0.198
887	0.197
887	0.197
887	0.197
888	0.196
888	0.196
889	0.196
889	0.196
890	0.196
890	0.196
890	0.196
891	0.196
891	0.196
892	0.196
892	0.196
893	0.196
893	0.195
893	0.195
894	0.194
894	0.193
895	0.193
895	0.192
895	0.192
896	0.192
896	0.192
897	0.191
897	0.191
898	0.191
898	0.191
898	0.191
899	0.191
899	0.19
900	0.19
900	0.19
901	0.19
901	0.19
901	0.189
902	0.189
902	0.189
903	0.189
903	0.189
904	0.188
904	0.188
904	0.188
905	0.187
905	0.187
906	0.187
906	0.187
907	0.187
907	0.187
907	0.187
908	0.187
908	0.187
909	0.187
909	0.187
910	0.187
910	0.186
910	0.186
911	0.185
911	0.185
912	0.184
912	0.184
913	0.183
913	0.183
913	0.183
914	0.182
914	0.182
915	0.182
915	0.181
916	0.181
916	0.181
916	0.181
917	0.18
917	0.18
918	0.179
918	0.179
918	0.179
919	0.179
919	0.178
920	0.178
920	0.178
921	0.178
921	0.178
921	0.178
922	0.178
922	0.178
923	0.178
923	0.179
924	0.179
924	0.179
924	0.179
925	0.179
925	0.179
926	0.179
926	0.179
927	0.18
927	0.179
927	0.179
928	0.179
928	0.179
929	0.179
929	0.179
930	0.179
930	0.179
930	0.179
931	0.179
931	0.178
932	0.178
932	0.178
933	0.178
933	0.177
933	0.177
934	0.177
934	0.176
935	0.176
935	0.175
935	0.175
936	0.174
936	0.173
937	0.173
937	0.172
938	0.172
938	0.171
938	0.17
939	0.169
939	0.169
940	0.168
940	0.168
941	0.168
941	0.168
941	0.169
942	0.168
942	0.169
943	0.169
943	0.169
944	0.17
944	0.17
944	0.17
945	0.171
945	0.171
946	0.171
946	0.171
946	0.171
947	0.171
947	0.171
948	0.171
948	0.17
949	0.17
949	0.169
949	0.168
950	0.167
950	0.166
951	0.165
951	0.164
952	0.163
952	0.162
952	0.161
953	0.16
953	0.16
954	0.16
954	0.159
955	0.159
955	0.159
955	0.159
956	0.16
956	0.16
957	0.161
957	0.161
957	0.162
958	0.163
958	0.163
959	0.163
959	0.164
960	0.164
960	0.165
960	0.165
961	0.165
961	0.164
962	0.164
962	0.164
963	0.164
963	0.163
963	0.163
964	0.162
964	0.162
965	0.162
965	0.162
966	0.161
966	0.161
966	0.161
967	0.161
967	0.161
968	0.161
968	0.161
968	0.161
969	0.161
969	0.16
970	0.159
970	0.158
971	0.157
971	0.156
971	0.155
972	0.154
972	0.153
973	0.153
973	0.152
974	0.152
974	0.152
974	0.153
975	0.153
975	0.153
976	0.154
976	0.155
976	0.155
977	0.155
977	0.155
978	0.155
978	0.155
979	0.155
979	0.155
979	0.155
980	0.155
980	0.155
981	0.154
981	0.154
982	0.154
982	0.154
982	0.154
983	0.154
983	0.154
984	0.154
984	0.154
984	0.154
985	0.154
985	0.154
986	0.154
986	0.153
987	0.153
987	0.153
987	0.152
988	0.152
988	0.152
989	0.151
989	0.15
990	0.15
990	0.15
990	0.149
991	0.149
991	0.148
992	0.148
992	0.146
992	0.145
993	0.144
993	0.143
994	0.142
994	0.141
995	0.141
995	0.14
995	0.14
996	0.14
996	0.14
997	0.14
997	0.141
997	0.142
998	0.142
998	0.143
999	0.144
999	0.145
1000	0.146
1000	0.147
1000	0.147
1001	0.148
1001	0.148
1002	0.148
1002	0.148
1003	0.148
1003	0.148
1003	0.147
1004	0.147
1004	0.146
1005	0.146
1005	0.145
1005	0.144
1006	0.143
1006	0.143
1007	0.143
1007	0.142
1008	0.141
1008	0.141
1008	0.141
1009	0.141
1009	0.14
1010	0.14
1010	0.14
1010	0.139
1011	0.139
1011	0.138
1012	0.138
1012	0.138
1013	0.137
1013	0.137
1013	0.136
1014	0.136
1014	0.136
1015	0.136
1015	0.135
1016	0.135
1016	0.135
1016	0.135
1017	0.134
1017	0.134
1018	0.134
1018	0.134
1018	0.133
1019	0.133
1019	0.133
1020	0.133
1020	0.133
1021	0.133
1021	0.133
1021	0.133
1022	0.133
1022	0.133
1023	0.134
1023	0.134
1023	0.134
1024	0.134
1024	0.134
1025	0.134
1025	0.134
1026	0.134
1026	0.134
1026	0.134
1027	0.134
1027	0.134
1028	0.134
1028	0.133
1028	0.133
1029	0.133
1029	0.133
1030	0.133
1030	0.133
1031	0.133
1031	0.133
1031	0.133
1032	0.133
1032	0.134
1033	0.134
1033	0.134
1033	0.134
1034	0.134
1034	0.133
1035	0.133
1035	0.133
1036	0.132
1036	0.132
1036	0.132
1037	0.131
1037	0.131
1038	0.131
1038	0.131
1039	0.13
1039	0.13
1039	0.13
1040	0.13
1040	0.13
1041	0.13
1041	0.129
1041	0.129
1042	0.129
1042	0.129
1043	0.129
1043	0.129
1044	0.128
1044	0.128
1044	0.127
1045	0.127
1045	0.127
1046	0.126
1046	0.126
1046	0.126
1047	0.126
1047	0.125
1048	0.125
1048	0.125
1049	0.125
1049	0.125
1049	0.125
1050	0.125
1050	0.125
1051	0.125
1051	0.124
1051	0.124
1052	0.123
1052	0.123
1053	0.122
1053	0.122
1053	0.121
1054	0.12
1054	0.12
1055	0.12
1055	0.119
1056	0.119
1056	0.118
1056	0.117
1057	0.117
1057	0.116
1058	0.115
1058	0.114
1058	0.113
1059	0.113
1059	0.112
1060	0.111
1060	0.11
1061	0.11
1061	0.11
1061	0.11
1062	0.109
1062	0.109
1063	0.109
1063	0.109
1063	0.109
1064	0.108
1064	0.108
1065	0.108
1065	0.108
1066	0.107
1066	0.107
1066	0.106
1067	0.106
1067	0.106
1068	0.106
1068	0.106
1068	0.106
1069	0.105
1069	0.105
1070	0.105
1070	0.105
1071	0.105
1071	0.106
1071	0.106
1072	0.106
1072	0.106
1073	0.106
1073	0.106
1073	0.106
1074	0.107
1074	0.107
1075	0.107
1075	0.108
1076	0.108
1076	0.109
1076	0.109
1077	0.109
1077	0.11
1078	0.109
1078	0.109
1078	0.109
1079	0.109
1079	0.108
1080	0.108
1080	0.107
1080	0.107
1081	0.106
1081	0.106
1082	0.106
1082	0.106
1083	0.106
1083	0.106
1083	0.106
1084	0.106
1084	0.106
1085	0.106
1085	0.106
1085	0.106
1086	0.106
1086	0.105
1087	0.105
1087	0.105
1088	0.104
1088	0.104
1088	0.104
1089	0.103
1089	0.102
1090	0.102
1090	0.101
1090	0.1
1091	0.1
1091	0.099
1092	0.099
1092	0.099
1092	0.098
1093	0.096
1093	0.097
1094	0.096
1094	0.096
1095	0.095
1095	0.095
1095	0.095
1096	0.094
1096	0.093
1097	0.092
1097	0.092
1097	0.092
1098	0.091
1098	0.091
1099	0.09
1099	0.089
1100	0.087
1100	0.087
1100	0.086
1101	0.085
1101	0.085
1102	0.084
1102	0.083
1102	0.081
1103	0.081
1103	0.08
1104	0.08
1104	0.081
1104	0.079
1105	0.078
1105	0.076
1106	0.074
1106	0.074
1107	0.073
1107	0.074
1107	0.072
1108	0.071
1108	0.071
1109	0.067
1109	0.067
1109	0.069
1110	0.071
1110	0.072
1111	0.072
1111	0.071
