Data from reversibility-20sec_Absorbance__6031__000000000006031.txt Node

Date: Wed Dec 06 21:43:27 CET 2023
User: Marek
Spectrometer: MAYP115816
Trigger mode: 0
Integration Time (sec): 2.000000E-1
Scans to average: 10
Electric dark correction enabled: true
Nonlinearity correction enabled: true
Boxcar width: 5
XAxis mode: Wavelengths
Number of Pixels in Spectrum: 2068
>>>>>Begin Spectral Data<<<<<
199	-0.152
199	-0.121
200	-0.051
200	0.005
201	0.036
201	0.052
202	0.063
202	0.073
203	0.082
203	0.085
204	0.097
204	0.112
205	0.122
205	0.127
205	0.127
206	0.127
206	0.127
207	0.13
207	0.13
208	0.126
208	0.126
209	0.13
209	0.13
210	0.134
210	0.133
211	0.13
211	0.13
212	0.127
212	0.129
213	0.132
213	0.135
213	0.132
214	0.134
214	0.133
215	0.133
215	0.133
216	0.135
216	0.134
217	0.139
217	0.137
218	0.135
218	0.139
219	0.143
219	0.144
220	0.145
220	0.144
221	0.147
221	0.151
221	0.158
222	0.162
222	0.166
223	0.17
223	0.174
224	0.181
224	0.188
225	0.195
225	0.204
226	0.21
226	0.218
227	0.226
227	0.238
228	0.254
228	0.271
229	0.286
229	0.309
229	0.331
230	0.356
230	0.385
231	0.416
231	0.454
232	0.492
232	0.533
233	0.577
233	0.624
234	0.675
234	0.727
235	0.779
235	0.834
236	0.885
236	0.936
236	0.987
237	1.038
237	1.087
238	1.133
238	1.182
239	1.23
239	1.272
240	1.311
240	1.347
241	1.386
241	1.423
242	1.457
242	1.491
243	1.518
243	1.543
243	1.565
244	1.585
244	1.606
245	1.625
245	1.646
246	1.66
246	1.676
247	1.688
247	1.7
248	1.714
248	1.728
249	1.739
249	1.747
250	1.754
250	1.761
250	1.765
251	1.77
251	1.772
252	1.776
252	1.776
253	1.777
253	1.773
254	1.77
254	1.77
255	1.768
255	1.767
256	1.765
256	1.765
257	1.764
257	1.762
258	1.762
258	1.761
258	1.761
259	1.762
259	1.762
260	1.762
260	1.765
261	1.766
261	1.769
262	1.772
262	1.774
263	1.777
263	1.779
264	1.781
264	1.784
265	1.784
265	1.785
265	1.785
266	1.784
266	1.783
267	1.782
267	1.784
268	1.783
268	1.784
269	1.785
269	1.783
270	1.783
270	1.782
271	1.78
271	1.78
272	1.778
272	1.775
272	1.769
273	1.763
273	1.756
274	1.75
274	1.744
275	1.736
275	1.729
276	1.72
276	1.712
277	1.704
277	1.694
278	1.682
278	1.669
278	1.655
279	1.638
279	1.617
280	1.59
280	1.558
281	1.521
281	1.48
282	1.437
282	1.392
283	1.349
283	1.308
284	1.267
284	1.228
285	1.191
285	1.157
285	1.128
286	1.102
286	1.08
287	1.06
287	1.044
288	1.029
288	1.017
289	1.007
289	0.998
290	0.99
290	0.984
291	0.978
291	0.972
292	0.968
292	0.964
292	0.96
293	0.956
293	0.953
294	0.95
294	0.947
295	0.944
295	0.942
296	0.939
296	0.936
297	0.934
297	0.93
298	0.928
298	0.925
298	0.922
299	0.919
299	0.917
300	0.914
300	0.911
301	0.909
301	0.906
302	0.903
302	0.901
303	0.899
303	0.897
304	0.895
304	0.893
305	0.89
305	0.888
305	0.886
306	0.884
306	0.882
307	0.879
307	0.877
308	0.874
308	0.872
309	0.869
309	0.866
310	0.864
310	0.861
311	0.858
311	0.855
311	0.852
312	0.849
312	0.846
313	0.842
313	0.838
314	0.835
314	0.831
315	0.827
315	0.823
316	0.818
316	0.814
317	0.809
317	0.805
318	0.8
318	0.795
318	0.79
319	0.784
319	0.779
320	0.773
320	0.767
321	0.762
321	0.756
322	0.749
322	0.743
323	0.737
323	0.731
324	0.725
324	0.718
324	0.711
325	0.705
325	0.698
326	0.691
326	0.684
327	0.678
327	0.671
328	0.664
328	0.657
329	0.65
329	0.643
330	0.636
330	0.629
330	0.622
331	0.615
331	0.608
332	0.601
332	0.595
333	0.587
333	0.581
334	0.574
334	0.567
335	0.56
335	0.553
336	0.547
336	0.54
336	0.534
337	0.527
337	0.521
338	0.515
338	0.509
339	0.503
339	0.497
340	0.491
340	0.486
341	0.48
341	0.475
342	0.469
342	0.464
342	0.459
343	0.454
343	0.448
344	0.443
344	0.438
345	0.434
345	0.429
346	0.425
346	0.42
347	0.416
347	0.412
348	0.408
348	0.404
348	0.4
349	0.397
349	0.393
350	0.389
350	0.386
351	0.383
351	0.379
352	0.376
352	0.373
353	0.37
353	0.367
354	0.364
354	0.362
354	0.359
355	0.356
355	0.353
356	0.35
356	0.347
357	0.345
357	0.342
358	0.34
358	0.337
359	0.335
359	0.333
360	0.331
360	0.329
360	0.327
361	0.325
361	0.323
362	0.321
362	0.32
363	0.318
363	0.316
364	0.315
364	0.313
365	0.311
365	0.309
366	0.308
366	0.306
366	0.305
367	0.303
367	0.302
368	0.3
368	0.298
369	0.297
369	0.296
370	0.294
370	0.293
371	0.292
371	0.29
372	0.289
372	0.288
372	0.287
373	0.286
373	0.285
374	0.284
374	0.283
375	0.282
375	0.281
376	0.281
376	0.28
377	0.279
377	0.278
378	0.278
378	0.277
378	0.276
379	0.275
379	0.275
380	0.274
380	0.273
381	0.272
381	0.272
382	0.271
382	0.271
383	0.27
383	0.27
383	0.269
384	0.269
384	0.268
385	0.268
385	0.268
386	0.267
386	0.267
387	0.266
387	0.266
388	0.265
388	0.265
389	0.264
389	0.264
389	0.264
390	0.263
390	0.263
391	0.263
391	0.263
392	0.263
392	0.263
393	0.262
393	0.262
394	0.262
394	0.261
394	0.261
395	0.261
395	0.26
396	0.26
396	0.26
397	0.259
397	0.259
398	0.259
398	0.258
399	0.258
399	0.258
400	0.258
400	0.257
400	0.257
401	0.257
401	0.256
402	0.256
402	0.256
403	0.256
403	0.255
404	0.255
404	0.255
405	0.255
405	0.255
405	0.255
406	0.254
406	0.254
407	0.253
407	0.253
408	0.253
408	0.253
409	0.252
409	0.252
410	0.252
410	0.252
411	0.251
411	0.251
411	0.251
412	0.251
412	0.25
413	0.25
413	0.25
414	0.25
414	0.249
415	0.249
415	0.249
416	0.248
416	0.248
416	0.248
417	0.247
417	0.247
418	0.247
418	0.247
419	0.246
419	0.246
420	0.245
420	0.245
421	0.245
421	0.244
421	0.244
422	0.244
422	0.243
423	0.243
423	0.243
424	0.242
424	0.242
425	0.242
425	0.241
426	0.241
426	0.241
427	0.24
427	0.24
427	0.24
428	0.239
428	0.239
429	0.239
429	0.238
430	0.238
430	0.238
431	0.238
431	0.238
432	0.238
432	0.238
432	0.237
433	0.237
433	0.237
434	0.237
434	0.237
435	0.236
435	0.236
436	0.236
436	0.236
437	0.235
437	0.235
437	0.235
438	0.234
438	0.234
439	0.234
439	0.234
440	0.233
440	0.233
441	0.233
441	0.233
442	0.232
442	0.232
442	0.232
443	0.232
443	0.232
444	0.231
444	0.231
445	0.231
445	0.231
446	0.231
446	0.23
447	0.23
447	0.23
447	0.23
448	0.229
448	0.229
449	0.229
449	0.229
450	0.229
450	0.229
451	0.229
451	0.229
452	0.228
452	0.228
452	0.228
453	0.228
453	0.228
454	0.227
454	0.227
455	0.227
455	0.227
456	0.226
456	0.226
457	0.226
457	0.226
458	0.226
458	0.225
458	0.225
459	0.225
459	0.225
460	0.225
460	0.225
461	0.225
461	0.224
462	0.224
462	0.224
463	0.223
463	0.223
463	0.223
464	0.223
464	0.222
465	0.222
465	0.222
466	0.221
466	0.221
467	0.221
467	0.221
467	0.221
468	0.221
468	0.221
469	0.221
469	0.221
470	0.221
470	0.221
471	0.221
471	0.221
472	0.221
472	0.221
472	0.221
473	0.221
473	0.222
474	0.221
474	0.221
475	0.221
475	0.221
476	0.221
476	0.221
477	0.221
477	0.22
477	0.22
478	0.22
478	0.22
479	0.22
479	0.22
480	0.22
480	0.22
481	0.22
481	0.22
482	0.219
482	0.22
482	0.22
483	0.22
483	0.22
484	0.22
484	0.22
485	0.22
485	0.22
486	0.22
486	0.22
487	0.22
487	0.22
487	0.22
488	0.22
488	0.22
489	0.221
489	0.221
490	0.222
490	0.222
491	0.223
491	0.223
492	0.223
492	0.224
492	0.224
493	0.224
493	0.225
494	0.225
494	0.225
495	0.225
495	0.225
496	0.226
496	0.226
496	0.227
497	0.227
497	0.227
498	0.227
498	0.228
499	0.228
499	0.228
500	0.229
500	0.229
501	0.23
501	0.23
501	0.23
502	0.231
502	0.231
503	0.232
503	0.232
504	0.232
504	0.233
505	0.233
505	0.234
506	0.234
506	0.234
506	0.234
507	0.235
507	0.235
508	0.235
508	0.235
509	0.236
509	0.236
510	0.236
510	0.237
511	0.237
511	0.238
511	0.239
512	0.239
512	0.24
513	0.24
513	0.241
514	0.241
514	0.242
515	0.242
515	0.243
515	0.243
516	0.243
516	0.244
517	0.244
517	0.245
518	0.245
518	0.245
519	0.246
519	0.246
520	0.246
520	0.246
520	0.246
521	0.246
521	0.246
522	0.246
522	0.246
523	0.247
523	0.247
524	0.247
524	0.247
524	0.247
525	0.248
525	0.247
526	0.248
526	0.248
527	0.248
527	0.248
528	0.248
528	0.248
529	0.248
529	0.248
529	0.248
530	0.248
530	0.248
531	0.249
531	0.248
532	0.248
532	0.248
533	0.248
533	0.248
533	0.248
534	0.248
534	0.247
535	0.248
535	0.248
536	0.248
536	0.247
537	0.247
537	0.247
538	0.247
538	0.247
538	0.247
539	0.247
539	0.247
540	0.247
540	0.247
541	0.246
541	0.246
542	0.246
542	0.245
542	0.245
543	0.245
543	0.245
544	0.245
544	0.244
545	0.244
545	0.244
546	0.244
546	0.243
547	0.243
547	0.243
547	0.242
548	0.242
548	0.242
549	0.242
549	0.241
550	0.241
550	0.241
551	0.241
551	0.241
551	0.24
552	0.24
552	0.239
553	0.239
553	0.239
554	0.238
554	0.238
555	0.237
555	0.236
556	0.236
556	0.235
556	0.235
557	0.235
557	0.235
558	0.235
558	0.235
559	0.236
559	0.236
560	0.236
560	0.236
560	0.236
561	0.236
561	0.235
562	0.234
562	0.234
563	0.233
563	0.232
564	0.231
564	0.231
564	0.231
565	0.23
565	0.23
566	0.229
566	0.229
567	0.229
567	0.229
568	0.229
568	0.229
568	0.229
569	0.228
569	0.228
570	0.227
570	0.226
571	0.226
571	0.225
572	0.225
572	0.224
573	0.224
573	0.223
573	0.223
574	0.222
574	0.222
575	0.222
575	0.223
576	0.223
576	0.222
577	0.221
577	0.221
577	0.22
578	0.22
578	0.22
579	0.22
579	0.22
580	0.219
580	0.218
581	0.218
581	0.217
581	0.218
582	0.218
582	0.218
583	0.218
583	0.218
584	0.217
584	0.216
585	0.216
585	0.216
585	0.216
586	0.216
586	0.215
587	0.214
587	0.214
588	0.213
588	0.213
589	0.212
589	0.212
590	0.212
590	0.212
590	0.213
591	0.213
591	0.213
592	0.212
592	0.212
593	0.212
593	0.212
594	0.211
594	0.211
594	0.21
595	0.21
595	0.209
596	0.209
596	0.209
597	0.209
597	0.209
598	0.209
598	0.209
598	0.209
599	0.209
599	0.209
600	0.208
600	0.208
601	0.208
601	0.207
602	0.207
602	0.206
602	0.206
603	0.206
603	0.206
604	0.206
604	0.205
605	0.205
605	0.205
606	0.205
606	0.204
606	0.204
607	0.204
607	0.204
608	0.204
608	0.203
609	0.203
609	0.203
610	0.203
610	0.202
610	0.202
611	0.203
611	0.202
612	0.202
612	0.203
613	0.203
613	0.203
614	0.202
614	0.202
614	0.202
615	0.202
615	0.201
616	0.201
616	0.201
617	0.201
617	0.201
618	0.201
618	0.201
618	0.201
619	0.201
619	0.202
620	0.202
620	0.202
621	0.201
621	0.201
622	0.2
622	0.2
622	0.199
623	0.198
623	0.198
624	0.198
624	0.197
625	0.196
625	0.196
626	0.195
626	0.195
626	0.195
627	0.195
627	0.195
628	0.194
628	0.194
629	0.194
629	0.194
630	0.194
630	0.193
630	0.194
631	0.194
631	0.194
632	0.194
632	0.194
633	0.194
633	0.194
634	0.195
634	0.195
634	0.195
635	0.195
635	0.194
636	0.194
636	0.194
637	0.194
637	0.194
638	0.194
638	0.194
638	0.193
639	0.193
639	0.193
640	0.193
640	0.193
641	0.193
641	0.192
642	0.192
642	0.192
642	0.192
643	0.192
643	0.192
644	0.192
644	0.192
645	0.192
645	0.192
646	0.192
646	0.192
646	0.192
647	0.192
647	0.191
648	0.191
648	0.19
649	0.19
649	0.19
650	0.19
650	0.19
650	0.19
651	0.19
651	0.19
652	0.19
652	0.19
653	0.191
653	0.193
653	0.199
654	0.156
654	0.125
655	0.125
655	0.126
656	0.126
656	0.126
657	0.127
657	0.127
657	0.127
658	0.126
658	0.116
659	0.146
659	0.188
660	0.193
660	0.193
661	0.192
661	0.191
661	0.191
662	0.191
662	0.19
663	0.19
663	0.189
664	0.189
664	0.189
665	0.189
665	0.189
665	0.19
666	0.19
666	0.19
667	0.19
667	0.191
668	0.191
668	0.192
669	0.192
669	0.192
669	0.193
670	0.193
670	0.193
671	0.192
671	0.192
672	0.192
672	0.191
672	0.191
673	0.191
673	0.19
674	0.19
674	0.19
675	0.189
675	0.19
676	0.19
676	0.19
676	0.19
677	0.19
677	0.19
678	0.189
678	0.189
679	0.189
679	0.189
680	0.189
680	0.188
680	0.188
681	0.189
681	0.189
682	0.19
682	0.19
683	0.191
683	0.191
684	0.192
684	0.192
684	0.192
685	0.192
685	0.192
686	0.192
686	0.192
687	0.191
687	0.191
687	0.191
688	0.191
688	0.19
689	0.191
689	0.191
690	0.191
690	0.19
691	0.191
691	0.191
691	0.191
692	0.192
692	0.192
693	0.192
693	0.193
694	0.193
694	0.192
695	0.193
695	0.194
695	0.194
696	0.194
696	0.194
697	0.194
697	0.193
698	0.193
698	0.193
698	0.193
699	0.193
699	0.192
700	0.192
700	0.192
701	0.193
701	0.193
702	0.193
702	0.193
702	0.193
703	0.193
703	0.193
704	0.193
704	0.194
705	0.194
705	0.194
705	0.194
706	0.194
706	0.194
707	0.194
707	0.194
708	0.195
708	0.195
709	0.195
709	0.195
709	0.195
710	0.194
710	0.195
711	0.195
711	0.195
712	0.195
712	0.195
713	0.195
713	0.195
713	0.195
714	0.194
714	0.194
715	0.194
715	0.193
716	0.193
716	0.193
716	0.192
717	0.192
717	0.192
718	0.191
718	0.191
719	0.192
719	0.192
720	0.193
720	0.193
720	0.194
721	0.194
721	0.194
722	0.195
722	0.195
723	0.196
723	0.196
723	0.196
724	0.195
724	0.195
725	0.194
725	0.193
726	0.193
726	0.193
727	0.192
727	0.192
727	0.192
728	0.192
728	0.192
729	0.193
729	0.193
730	0.193
730	0.194
730	0.194
731	0.195
731	0.196
732	0.196
732	0.197
733	0.197
733	0.197
734	0.197
734	0.198
734	0.198
735	0.198
735	0.198
736	0.198
736	0.198
737	0.198
737	0.198
737	0.198
738	0.197
738	0.197
739	0.196
739	0.196
740	0.196
740	0.196
741	0.196
741	0.196
741	0.196
742	0.196
742	0.197
743	0.198
743	0.199
744	0.2
744	0.2
744	0.201
745	0.201
745	0.201
746	0.201
746	0.202
747	0.202
747	0.202
748	0.202
748	0.202
748	0.201
749	0.201
749	0.201
750	0.2
750	0.2
751	0.2
751	0.199
751	0.199
752	0.199
752	0.198
753	0.198
753	0.197
754	0.198
754	0.197
754	0.198
755	0.198
755	0.198
756	0.198
756	0.198
757	0.198
757	0.198
758	0.198
758	0.199
758	0.199
759	0.2
759	0.2
760	0.2
760	0.2
761	0.201
761	0.201
761	0.202
762	0.202
762	0.202
763	0.202
763	0.202
764	0.201
764	0.201
764	0.201
765	0.201
765	0.201
766	0.201
766	0.201
767	0.2
767	0.199
768	0.199
768	0.199
768	0.199
769	0.199
769	0.2
770	0.2
770	0.201
771	0.201
771	0.202
771	0.203
772	0.205
772	0.206
773	0.206
773	0.207
774	0.207
774	0.208
775	0.208
775	0.208
775	0.208
776	0.208
776	0.208
777	0.208
777	0.207
778	0.207
778	0.207
778	0.207
779	0.207
779	0.207
780	0.207
780	0.207
781	0.206
781	0.206
781	0.206
782	0.206
782	0.206
783	0.206
783	0.206
784	0.206
784	0.207
784	0.207
785	0.207
785	0.208
786	0.208
786	0.209
787	0.209
787	0.209
788	0.208
788	0.207
788	0.207
789	0.206
789	0.206
790	0.206
790	0.205
791	0.205
791	0.205
791	0.205
792	0.205
792	0.206
793	0.206
793	0.206
794	0.206
794	0.206
794	0.206
795	0.206
795	0.207
796	0.207
796	0.207
797	0.207
797	0.207
797	0.207
798	0.207
798	0.208
799	0.208
799	0.208
800	0.208
800	0.207
801	0.207
801	0.207
801	0.207
802	0.208
802	0.208
803	0.208
803	0.208
804	0.209
804	0.209
804	0.209
805	0.209
805	0.209
806	0.209
806	0.209
807	0.209
807	0.208
807	0.208
808	0.208
808	0.208
809	0.208
809	0.208
810	0.208
810	0.208
810	0.208
811	0.209
811	0.21
812	0.21
812	0.211
813	0.211
813	0.211
813	0.212
814	0.212
814	0.212
815	0.213
815	0.213
816	0.213
816	0.212
817	0.212
817	0.212
817	0.212
818	0.212
818	0.212
819	0.212
819	0.211
820	0.211
820	0.211
820	0.211
821	0.211
821	0.212
822	0.212
822	0.212
823	0.212
823	0.212
823	0.212
824	0.213
824	0.214
825	0.215
825	0.216
826	0.216
826	0.216
826	0.216
827	0.216
827	0.217
828	0.217
828	0.217
829	0.217
829	0.218
829	0.218
830	0.218
830	0.218
831	0.219
831	0.219
832	0.219
832	0.22
832	0.22
833	0.219
833	0.219
834	0.219
834	0.219
835	0.218
835	0.218
835	0.217
836	0.217
836	0.217
837	0.217
837	0.216
838	0.216
838	0.215
839	0.215
839	0.215
839	0.214
840	0.213
840	0.212
841	0.211
841	0.211
842	0.21
842	0.209
842	0.209
843	0.208
843	0.208
844	0.207
844	0.206
845	0.206
845	0.206
845	0.206
846	0.206
846	0.206
847	0.206
847	0.207
848	0.207
848	0.208
848	0.208
849	0.209
849	0.21
850	0.21
850	0.211
851	0.211
851	0.211
851	0.211
852	0.211
852	0.211
853	0.211
853	0.211
854	0.211
854	0.211
854	0.211
855	0.212
855	0.212
856	0.212
856	0.212
857	0.213
857	0.213
857	0.213
858	0.213
858	0.213
859	0.213
859	0.212
860	0.212
860	0.211
860	0.211
861	0.211
861	0.21
862	0.21
862	0.209
863	0.209
863	0.209
863	0.209
864	0.209
864	0.209
865	0.209
865	0.21
866	0.21
866	0.21
866	0.21
867	0.21
867	0.21
868	0.211
868	0.211
869	0.211
869	0.211
869	0.211
870	0.21
870	0.211
871	0.211
871	0.211
872	0.21
872	0.21
872	0.21
873	0.21
873	0.209
874	0.209
874	0.209
875	0.208
875	0.208
875	0.208
876	0.208
876	0.207
877	0.207
877	0.207
878	0.207
878	0.208
878	0.208
879	0.208
879	0.208
880	0.208
880	0.208
881	0.208
881	0.208
881	0.208
882	0.207
882	0.207
883	0.207
883	0.207
884	0.207
884	0.207
884	0.207
885	0.206
885	0.206
886	0.206
886	0.205
887	0.204
887	0.204
887	0.203
888	0.202
888	0.201
889	0.201
889	0.2
890	0.2
890	0.2
890	0.2
891	0.2
891	0.2
892	0.199
892	0.199
893	0.199
893	0.199
893	0.199
894	0.198
894	0.198
895	0.198
895	0.198
895	0.198
896	0.198
896	0.199
897	0.199
897	0.199
898	0.199
898	0.2
898	0.2
899	0.2
899	0.2
900	0.2
900	0.199
901	0.199
901	0.199
901	0.198
902	0.198
902	0.198
903	0.197
903	0.197
904	0.196
904	0.196
904	0.195
905	0.195
905	0.195
906	0.195
906	0.194
907	0.194
907	0.194
907	0.194
908	0.194
908	0.194
909	0.194
909	0.193
910	0.193
910	0.192
910	0.191
911	0.191
911	0.19
912	0.189
912	0.189
913	0.189
913	0.188
913	0.188
914	0.188
914	0.188
915	0.188
915	0.189
916	0.189
916	0.189
916	0.188
917	0.188
917	0.188
918	0.187
918	0.187
918	0.186
919	0.186
919	0.185
920	0.185
920	0.185
921	0.185
921	0.184
921	0.184
922	0.184
922	0.184
923	0.184
923	0.184
924	0.185
924	0.185
924	0.186
925	0.186
925	0.187
926	0.188
926	0.188
927	0.188
927	0.188
927	0.188
928	0.188
928	0.188
929	0.187
929	0.187
930	0.186
930	0.185
930	0.185
931	0.184
931	0.184
932	0.183
932	0.183
933	0.183
933	0.182
933	0.182
934	0.182
934	0.181
935	0.181
935	0.18
935	0.18
936	0.179
936	0.179
937	0.179
937	0.178
938	0.178
938	0.177
938	0.177
939	0.177
939	0.176
940	0.176
940	0.176
941	0.176
941	0.175
941	0.175
942	0.175
942	0.175
943	0.175
943	0.175
944	0.175
944	0.175
944	0.175
945	0.175
945	0.175
946	0.175
946	0.174
946	0.174
947	0.174
947	0.174
948	0.174
948	0.174
949	0.173
949	0.173
949	0.172
950	0.172
950	0.172
951	0.172
951	0.171
952	0.17
952	0.17
952	0.169
953	0.169
953	0.168
954	0.168
954	0.167
955	0.167
955	0.166
955	0.166
956	0.166
956	0.166
957	0.166
957	0.166
957	0.166
958	0.166
958	0.166
959	0.165
959	0.165
960	0.165
960	0.164
960	0.164
961	0.163
961	0.163
962	0.163
962	0.162
963	0.162
963	0.162
963	0.162
964	0.162
964	0.162
965	0.162
965	0.163
966	0.163
966	0.163
966	0.163
967	0.163
967	0.163
968	0.163
968	0.163
968	0.163
969	0.162
969	0.161
970	0.161
970	0.16
971	0.159
971	0.159
971	0.158
972	0.158
972	0.157
973	0.157
973	0.157
974	0.157
974	0.157
974	0.157
975	0.157
975	0.157
976	0.158
976	0.159
976	0.159
977	0.159
977	0.159
978	0.158
978	0.158
979	0.157
979	0.157
979	0.156
980	0.155
980	0.154
981	0.153
981	0.152
982	0.151
982	0.151
982	0.15
983	0.15
983	0.149
984	0.149
984	0.149
984	0.149
985	0.149
985	0.149
986	0.149
986	0.15
987	0.15
987	0.15
987	0.15
988	0.15
988	0.15
989	0.15
989	0.149
990	0.149
990	0.149
990	0.148
991	0.147
991	0.146
992	0.146
992	0.145
992	0.143
993	0.142
993	0.141
994	0.14
994	0.139
995	0.138
995	0.137
995	0.137
996	0.136
996	0.136
997	0.136
997	0.137
997	0.137
998	0.138
998	0.139
999	0.14
999	0.14
1000	0.141
1000	0.142
1000	0.142
1001	0.142
1001	0.142
1002	0.142
1002	0.142
1003	0.141
1003	0.14
1003	0.139
1004	0.138
1004	0.137
1005	0.136
1005	0.135
1005	0.134
1006	0.133
1006	0.133
1007	0.132
1007	0.132
1008	0.132
1008	0.132
1008	0.132
1009	0.133
1009	0.133
1010	0.133
1010	0.134
1010	0.134
1011	0.134
1011	0.134
1012	0.134
1012	0.134
1013	0.134
1013	0.133
1013	0.133
1014	0.132
1014	0.132
1015	0.132
1015	0.131
1016	0.131
1016	0.131
1016	0.13
1017	0.13
1017	0.13
1018	0.13
1018	0.13
1018	0.13
1019	0.13
1019	0.13
1020	0.13
1020	0.131
1021	0.131
1021	0.132
1021	0.132
1022	0.132
1022	0.133
1023	0.133
1023	0.133
1023	0.134
1024	0.134
1024	0.134
1025	0.134
1025	0.134
1026	0.134
1026	0.134
1026	0.134
1027	0.133
1027	0.133
1028	0.133
1028	0.132
1028	0.132
1029	0.132
1029	0.132
1030	0.132
1030	0.132
1031	0.132
1031	0.132
1031	0.132
1032	0.132
1032	0.132
1033	0.132
1033	0.132
1033	0.132
1034	0.132
1034	0.132
1035	0.132
1035	0.131
1036	0.131
1036	0.13
1036	0.13
1037	0.13
1037	0.129
1038	0.129
1038	0.128
1039	0.128
1039	0.128
1039	0.128
1040	0.128
1040	0.127
1041	0.127
1041	0.127
1041	0.127
1042	0.127
1042	0.126
1043	0.126
1043	0.126
1044	0.126
1044	0.125
1044	0.125
1045	0.125
1045	0.125
1046	0.125
1046	0.125
1046	0.125
1047	0.126
1047	0.126
1048	0.126
1048	0.126
1049	0.125
1049	0.125
1049	0.125
1050	0.124
1050	0.124
1051	0.123
1051	0.123
1051	0.122
1052	0.121
1052	0.121
1053	0.12
1053	0.119
1053	0.118
1054	0.117
1054	0.117
1055	0.116
1055	0.116
1056	0.115
1056	0.114
1056	0.113
1057	0.113
1057	0.112
1058	0.111
1058	0.11
1058	0.11
1059	0.109
1059	0.109
1060	0.108
1060	0.107
1061	0.106
1061	0.106
1061	0.106
1062	0.106
1062	0.106
1063	0.105
1063	0.105
1063	0.105
1064	0.104
1064	0.104
1065	0.104
1065	0.103
1066	0.103
1066	0.103
1066	0.103
1067	0.102
1067	0.102
1068	0.102
1068	0.102
1068	0.102
1069	0.101
1069	0.101
1070	0.1
1070	0.1
1071	0.099
1071	0.099
1071	0.098
1072	0.098
1072	0.098
1073	0.097
1073	0.096
1073	0.096
1074	0.097
1074	0.097
1075	0.096
1075	0.097
1076	0.097
1076	0.098
1076	0.098
1077	0.098
1077	0.098
1078	0.098
1078	0.098
1078	0.098
1079	0.098
1079	0.098
1080	0.098
1080	0.098
1080	0.097
1081	0.097
1081	0.097
1082	0.097
1082	0.097
1083	0.097
1083	0.097
1083	0.096
1084	0.096
1084	0.097
1085	0.096
1085	0.097
1085	0.097
1086	0.097
1086	0.096
1087	0.096
1087	0.096
1088	0.096
1088	0.096
1088	0.096
1089	0.095
1089	0.094
1090	0.093
1090	0.092
1090	0.091
1091	0.091
1091	0.09
1092	0.089
1092	0.089
1092	0.088
1093	0.087
1093	0.088
1094	0.087
1094	0.087
1095	0.087
1095	0.086
1095	0.086
1096	0.086
1096	0.085
1097	0.085
1097	0.084
1097	0.083
1098	0.082
1098	0.081
1099	0.08
1099	0.079
1100	0.077
1100	0.076
1100	0.074
1101	0.073
1101	0.071
1102	0.07
1102	0.069
1102	0.068
1103	0.068
1103	0.067
1104	0.065
1104	0.065
1104	0.064
1105	0.063
1105	0.062
1106	0.06
1106	0.059
1107	0.059
1107	0.057
1107	0.056
1108	0.054
1108	0.054
1109	0.053
1109	0.053
1109	0.053
1110	0.053
1110	0.051
1111	0.051
1111	0.046
