Data from reversibility-20sec_Absorbance__1833__000000000001833.txt Node

Date: Tue Dec 05 22:24:05 CET 2023
User: Marek
Spectrometer: MAYP115816
Trigger mode: 0
Integration Time (sec): 2.000000E-1
Scans to average: 10
Electric dark correction enabled: true
Nonlinearity correction enabled: true
Boxcar width: 5
XAxis mode: Wavelengths
Number of Pixels in Spectrum: 2068
>>>>>Begin Spectral Data<<<<<
199	-0.237
199	-0.196
200	-0.127
200	-0.071
201	-0.039
201	-0.026
202	-0.011
202	-0.001
203	0.005
203	0.01
204	0.022
204	0.038
205	0.051
205	0.057
205	0.055
206	0.054
206	0.055
207	0.057
207	0.055
208	0.056
208	0.056
209	0.06
209	0.057
210	0.055
210	0.056
211	0.057
211	0.059
212	0.06
212	0.063
213	0.066
213	0.066
213	0.065
214	0.069
214	0.07
215	0.073
215	0.073
216	0.074
216	0.073
217	0.075
217	0.075
218	0.074
218	0.079
219	0.085
219	0.085
220	0.087
220	0.086
221	0.085
221	0.088
221	0.094
222	0.098
222	0.102
223	0.109
223	0.113
224	0.115
224	0.124
225	0.134
225	0.144
226	0.157
226	0.168
227	0.179
227	0.189
228	0.202
228	0.216
229	0.23
229	0.252
229	0.275
230	0.298
230	0.329
231	0.361
231	0.399
232	0.436
232	0.481
233	0.526
233	0.577
234	0.63
234	0.684
235	0.737
235	0.792
236	0.845
236	0.898
236	0.95
237	1.001
237	1.052
238	1.103
238	1.153
239	1.202
239	1.247
240	1.289
240	1.329
241	1.367
241	1.407
242	1.442
242	1.48
243	1.51
243	1.54
243	1.567
244	1.592
244	1.618
245	1.638
245	1.664
246	1.687
246	1.706
247	1.724
247	1.742
248	1.763
248	1.78
249	1.792
249	1.804
250	1.816
250	1.831
250	1.84
251	1.849
251	1.854
252	1.862
252	1.869
253	1.874
253	1.873
254	1.878
254	1.884
255	1.883
255	1.888
256	1.887
256	1.888
257	1.893
257	1.894
258	1.894
258	1.895
258	1.898
259	1.899
259	1.901
260	1.903
260	1.901
261	1.905
261	1.91
262	1.912
262	1.914
263	1.919
263	1.921
264	1.923
264	1.926
265	1.929
265	1.932
265	1.936
266	1.937
266	1.939
267	1.938
267	1.941
268	1.942
268	1.945
269	1.949
269	1.95
270	1.95
270	1.95
271	1.949
271	1.948
272	1.945
272	1.944
272	1.942
273	1.936
273	1.93
274	1.924
274	1.919
275	1.913
275	1.908
276	1.9
276	1.893
277	1.885
277	1.875
278	1.864
278	1.854
278	1.841
279	1.827
279	1.806
280	1.783
280	1.755
281	1.722
281	1.685
282	1.646
282	1.605
283	1.566
283	1.525
284	1.486
284	1.447
285	1.412
285	1.378
285	1.348
286	1.322
286	1.298
287	1.277
287	1.258
288	1.242
288	1.229
289	1.218
289	1.207
290	1.198
290	1.19
291	1.183
291	1.177
292	1.171
292	1.166
292	1.161
293	1.157
293	1.152
294	1.148
294	1.145
295	1.141
295	1.137
296	1.134
296	1.13
297	1.127
297	1.124
298	1.12
298	1.117
298	1.114
299	1.111
299	1.107
300	1.104
300	1.101
301	1.098
301	1.095
302	1.092
302	1.089
303	1.087
303	1.084
304	1.081
304	1.078
305	1.076
305	1.073
305	1.071
306	1.068
306	1.065
307	1.063
307	1.06
308	1.056
308	1.053
309	1.05
309	1.047
310	1.043
310	1.04
311	1.037
311	1.033
311	1.029
312	1.025
312	1.021
313	1.018
313	1.013
314	1.01
314	1.005
315	1.001
315	0.996
316	0.992
316	0.987
317	0.982
317	0.977
318	0.972
318	0.967
318	0.961
319	0.955
319	0.95
320	0.944
320	0.938
321	0.931
321	0.925
322	0.919
322	0.913
323	0.906
323	0.9
324	0.893
324	0.887
324	0.879
325	0.873
325	0.866
326	0.859
326	0.852
327	0.845
327	0.838
328	0.83
328	0.823
329	0.816
329	0.808
330	0.801
330	0.794
330	0.787
331	0.78
331	0.773
332	0.766
332	0.758
333	0.751
333	0.744
334	0.737
334	0.73
335	0.724
335	0.717
336	0.71
336	0.703
336	0.697
337	0.69
337	0.684
338	0.677
338	0.671
339	0.665
339	0.659
340	0.653
340	0.647
341	0.642
341	0.636
342	0.63
342	0.625
342	0.619
343	0.614
343	0.609
344	0.604
344	0.599
345	0.594
345	0.589
346	0.585
346	0.58
347	0.576
347	0.572
348	0.567
348	0.563
348	0.559
349	0.555
349	0.551
350	0.548
350	0.544
351	0.54
351	0.536
352	0.533
352	0.53
353	0.527
353	0.523
354	0.52
354	0.517
354	0.514
355	0.511
355	0.508
356	0.505
356	0.503
357	0.498
357	0.496
358	0.493
358	0.49
359	0.487
359	0.484
360	0.482
360	0.48
360	0.477
361	0.475
361	0.473
362	0.472
362	0.47
363	0.468
363	0.466
364	0.464
364	0.462
365	0.459
365	0.457
366	0.455
366	0.453
366	0.451
367	0.45
367	0.448
368	0.446
368	0.444
369	0.442
369	0.44
370	0.438
370	0.437
371	0.435
371	0.434
372	0.432
372	0.43
372	0.429
373	0.428
373	0.426
374	0.425
374	0.424
375	0.423
375	0.421
376	0.42
376	0.419
377	0.418
377	0.416
378	0.415
378	0.414
378	0.413
379	0.412
379	0.411
380	0.41
380	0.409
381	0.408
381	0.406
382	0.406
382	0.405
383	0.404
383	0.403
383	0.402
384	0.401
384	0.4
385	0.399
385	0.398
386	0.397
386	0.397
387	0.396
387	0.395
388	0.394
388	0.394
389	0.393
389	0.392
389	0.392
390	0.391
390	0.39
391	0.39
391	0.389
392	0.389
392	0.388
393	0.387
393	0.387
394	0.386
394	0.385
394	0.385
395	0.384
395	0.383
396	0.383
396	0.382
397	0.381
397	0.38
398	0.38
398	0.379
399	0.379
399	0.378
400	0.377
400	0.377
400	0.376
401	0.376
401	0.375
402	0.375
402	0.374
403	0.374
403	0.373
404	0.373
404	0.372
405	0.372
405	0.371
405	0.371
406	0.37
406	0.37
407	0.369
407	0.369
408	0.368
408	0.368
409	0.367
409	0.367
410	0.366
410	0.366
411	0.366
411	0.365
411	0.365
412	0.364
412	0.364
413	0.363
413	0.363
414	0.362
414	0.362
415	0.362
415	0.361
416	0.361
416	0.36
416	0.36
417	0.359
417	0.359
418	0.359
418	0.358
419	0.358
419	0.357
420	0.357
420	0.357
421	0.356
421	0.356
421	0.355
422	0.355
422	0.355
423	0.354
423	0.354
424	0.353
424	0.353
425	0.353
425	0.352
426	0.352
426	0.352
427	0.351
427	0.351
427	0.35
428	0.35
428	0.35
429	0.349
429	0.349
430	0.349
430	0.348
431	0.348
431	0.348
432	0.348
432	0.348
432	0.348
433	0.347
433	0.347
434	0.347
434	0.347
435	0.347
435	0.347
436	0.347
436	0.347
437	0.346
437	0.346
437	0.346
438	0.346
438	0.346
439	0.345
439	0.345
440	0.345
440	0.345
441	0.344
441	0.344
442	0.344
442	0.344
442	0.344
443	0.343
443	0.343
444	0.343
444	0.343
445	0.343
445	0.343
446	0.343
446	0.343
447	0.343
447	0.342
447	0.342
448	0.342
448	0.342
449	0.342
449	0.342
450	0.342
450	0.342
451	0.342
451	0.342
452	0.342
452	0.342
452	0.342
453	0.342
453	0.342
454	0.342
454	0.342
455	0.342
455	0.342
456	0.342
456	0.341
457	0.341
457	0.341
458	0.341
458	0.341
458	0.342
459	0.342
459	0.342
460	0.342
460	0.342
461	0.342
461	0.342
462	0.343
462	0.343
463	0.343
463	0.343
463	0.343
464	0.343
464	0.343
465	0.343
465	0.343
466	0.343
466	0.344
467	0.344
467	0.344
467	0.344
468	0.345
468	0.345
469	0.345
469	0.346
470	0.346
470	0.346
471	0.347
471	0.347
472	0.347
472	0.348
472	0.348
473	0.349
473	0.35
474	0.35
474	0.35
475	0.351
475	0.351
476	0.352
476	0.353
477	0.354
477	0.354
477	0.355
478	0.356
478	0.356
479	0.357
479	0.358
480	0.359
480	0.36
481	0.36
481	0.361
482	0.362
482	0.363
482	0.364
483	0.365
483	0.366
484	0.367
484	0.368
485	0.369
485	0.369
486	0.37
486	0.371
487	0.372
487	0.373
487	0.374
488	0.375
488	0.375
489	0.376
489	0.379
490	0.38
490	0.382
491	0.383
491	0.385
492	0.386
492	0.387
492	0.389
493	0.39
493	0.392
494	0.394
494	0.395
495	0.397
495	0.398
496	0.4
496	0.401
496	0.403
497	0.404
497	0.406
498	0.407
498	0.409
499	0.41
499	0.412
500	0.414
500	0.416
501	0.417
501	0.419
501	0.42
502	0.421
502	0.423
503	0.425
503	0.426
504	0.427
504	0.428
505	0.43
505	0.431
506	0.433
506	0.434
506	0.436
507	0.437
507	0.438
508	0.44
508	0.441
509	0.442
509	0.444
510	0.445
510	0.447
511	0.448
511	0.449
511	0.45
512	0.452
512	0.453
513	0.454
513	0.455
514	0.456
514	0.457
515	0.457
515	0.458
515	0.459
516	0.46
516	0.461
517	0.461
517	0.462
518	0.462
518	0.462
519	0.462
519	0.462
520	0.463
520	0.463
520	0.463
521	0.463
521	0.463
522	0.462
522	0.462
523	0.463
523	0.463
524	0.462
524	0.462
524	0.462
525	0.462
525	0.461
526	0.46
526	0.46
527	0.459
527	0.458
528	0.457
528	0.456
529	0.455
529	0.454
529	0.452
530	0.451
530	0.449
531	0.448
531	0.447
532	0.445
532	0.443
533	0.441
533	0.44
533	0.438
534	0.436
534	0.435
535	0.433
535	0.432
536	0.429
536	0.427
537	0.425
537	0.423
538	0.421
538	0.419
538	0.417
539	0.415
539	0.413
540	0.411
540	0.408
541	0.406
541	0.403
542	0.401
542	0.398
542	0.396
543	0.393
543	0.39
544	0.388
544	0.385
545	0.382
545	0.38
546	0.377
546	0.374
547	0.372
547	0.369
547	0.366
548	0.364
548	0.361
549	0.359
549	0.356
550	0.353
550	0.351
551	0.348
551	0.345
551	0.342
552	0.34
552	0.337
553	0.335
553	0.332
554	0.329
554	0.327
555	0.324
555	0.321
556	0.318
556	0.316
556	0.313
557	0.311
557	0.308
558	0.306
558	0.304
559	0.301
559	0.298
560	0.296
560	0.293
560	0.291
561	0.289
561	0.287
562	0.285
562	0.282
563	0.28
563	0.277
564	0.275
564	0.273
564	0.271
565	0.269
565	0.267
566	0.264
566	0.262
567	0.26
567	0.259
568	0.257
568	0.255
568	0.253
569	0.252
569	0.25
570	0.247
570	0.245
571	0.244
571	0.242
572	0.239
572	0.237
573	0.235
573	0.233
573	0.231
574	0.229
574	0.227
575	0.226
575	0.224
576	0.223
576	0.221
577	0.219
577	0.217
577	0.216
578	0.214
578	0.213
579	0.212
579	0.211
580	0.209
580	0.207
581	0.205
581	0.204
581	0.203
582	0.203
582	0.201
583	0.201
583	0.199
584	0.197
584	0.195
585	0.194
585	0.193
585	0.191
586	0.19
586	0.189
587	0.187
587	0.185
588	0.184
588	0.183
589	0.182
589	0.181
590	0.18
590	0.179
590	0.179
591	0.178
591	0.177
592	0.176
592	0.174
593	0.173
593	0.173
594	0.171
594	0.17
594	0.169
595	0.168
595	0.166
596	0.165
596	0.164
597	0.164
597	0.163
598	0.162
598	0.161
598	0.16
599	0.159
599	0.158
600	0.157
600	0.157
601	0.156
601	0.155
602	0.154
602	0.153
602	0.152
603	0.152
603	0.151
604	0.151
604	0.15
605	0.149
605	0.149
606	0.148
606	0.147
606	0.146
607	0.145
607	0.145
608	0.144
608	0.143
609	0.142
609	0.142
610	0.141
610	0.14
610	0.14
611	0.139
611	0.139
612	0.138
612	0.138
613	0.137
613	0.137
614	0.136
614	0.135
614	0.135
615	0.134
615	0.133
616	0.133
616	0.132
617	0.132
617	0.131
618	0.131
618	0.131
618	0.13
619	0.13
619	0.13
620	0.13
620	0.129
621	0.128
621	0.128
622	0.127
622	0.126
622	0.125
623	0.124
623	0.124
624	0.123
624	0.122
625	0.122
625	0.121
626	0.121
626	0.121
626	0.121
627	0.121
627	0.12
628	0.12
628	0.119
629	0.119
629	0.118
630	0.118
630	0.117
630	0.116
631	0.116
631	0.115
632	0.115
632	0.114
633	0.113
633	0.113
634	0.113
634	0.113
634	0.113
635	0.112
635	0.112
636	0.111
636	0.111
637	0.111
637	0.111
638	0.11
638	0.11
638	0.11
639	0.109
639	0.109
640	0.109
640	0.108
641	0.108
641	0.108
642	0.107
642	0.107
642	0.106
643	0.106
643	0.105
644	0.105
644	0.105
645	0.104
645	0.104
646	0.104
646	0.103
646	0.103
647	0.103
647	0.102
648	0.102
648	0.101
649	0.101
649	0.1
650	0.1
650	0.1
650	0.1
651	0.099
651	0.099
652	0.099
652	0.098
653	0.099
653	0.1
653	0.108
654	0.087
654	0.071
655	0.068
655	0.068
656	0.068
656	0.068
657	0.068
657	0.068
657	0.068
658	0.067
658	0.058
659	0.072
659	0.091
660	0.096
660	0.096
661	0.096
661	0.095
661	0.094
662	0.094
662	0.093
663	0.093
663	0.092
664	0.092
664	0.091
665	0.091
665	0.09
665	0.09
666	0.089
666	0.089
667	0.089
667	0.089
668	0.089
668	0.089
669	0.089
669	0.089
669	0.09
670	0.09
670	0.09
671	0.09
671	0.089
672	0.089
672	0.088
672	0.088
673	0.088
673	0.087
674	0.087
674	0.087
675	0.086
675	0.086
676	0.086
676	0.086
676	0.085
677	0.085
677	0.085
678	0.085
678	0.084
679	0.084
679	0.083
680	0.083
680	0.083
680	0.082
681	0.082
681	0.083
682	0.083
682	0.084
683	0.084
683	0.085
684	0.085
684	0.085
684	0.085
685	0.085
685	0.085
686	0.085
686	0.084
687	0.083
687	0.083
687	0.082
688	0.081
688	0.081
689	0.081
689	0.081
690	0.081
690	0.081
691	0.081
691	0.081
691	0.082
692	0.082
692	0.082
693	0.082
693	0.082
694	0.082
694	0.082
695	0.082
695	0.083
695	0.083
696	0.083
696	0.082
697	0.082
697	0.081
698	0.081
698	0.08
698	0.08
699	0.08
699	0.08
700	0.079
700	0.079
701	0.079
701	0.079
702	0.079
702	0.079
702	0.079
703	0.079
703	0.078
704	0.078
704	0.078
705	0.077
705	0.077
705	0.076
706	0.076
706	0.075
707	0.075
707	0.075
708	0.075
708	0.075
709	0.075
709	0.075
709	0.074
710	0.074
710	0.074
711	0.074
711	0.074
712	0.073
712	0.073
713	0.073
713	0.073
713	0.073
714	0.073
714	0.073
715	0.072
715	0.072
716	0.072
716	0.072
716	0.071
717	0.07
717	0.07
718	0.069
718	0.069
719	0.069
719	0.069
720	0.07
720	0.07
720	0.07
721	0.071
721	0.071
722	0.071
722	0.071
723	0.072
723	0.072
723	0.072
724	0.072
724	0.071
725	0.07
725	0.069
726	0.069
726	0.068
727	0.067
727	0.067
727	0.066
728	0.066
728	0.065
729	0.065
729	0.065
730	0.064
730	0.065
730	0.065
731	0.065
731	0.065
732	0.066
732	0.066
733	0.066
733	0.066
734	0.066
734	0.066
734	0.067
735	0.067
735	0.067
736	0.066
736	0.066
737	0.066
737	0.066
737	0.066
738	0.065
738	0.064
739	0.064
739	0.063
740	0.062
740	0.062
741	0.062
741	0.062
741	0.061
742	0.061
742	0.061
743	0.062
743	0.062
744	0.063
744	0.063
744	0.063
745	0.063
745	0.063
746	0.064
746	0.064
747	0.065
747	0.065
748	0.065
748	0.066
748	0.066
749	0.066
749	0.066
750	0.066
750	0.066
751	0.065
751	0.065
751	0.065
752	0.064
752	0.063
753	0.063
753	0.062
754	0.062
754	0.062
754	0.062
755	0.061
755	0.061
756	0.06
756	0.059
757	0.058
757	0.057
758	0.057
758	0.056
758	0.056
759	0.056
759	0.055
760	0.055
760	0.055
761	0.055
761	0.057
761	0.057
762	0.058
762	0.058
763	0.059
763	0.059
764	0.059
764	0.059
764	0.059
765	0.059
765	0.058
766	0.058
766	0.058
767	0.057
767	0.056
768	0.055
768	0.054
768	0.054
769	0.054
769	0.054
770	0.054
770	0.054
771	0.054
771	0.054
771	0.054
772	0.054
772	0.055
773	0.055
773	0.055
774	0.055
774	0.055
775	0.055
775	0.055
775	0.055
776	0.055
776	0.055
777	0.055
777	0.055
778	0.054
778	0.054
778	0.054
779	0.053
779	0.053
780	0.052
780	0.052
781	0.052
781	0.052
781	0.052
782	0.052
782	0.052
783	0.053
783	0.054
784	0.054
784	0.054
784	0.055
785	0.055
785	0.055
786	0.055
786	0.055
787	0.055
787	0.055
788	0.054
788	0.054
788	0.053
789	0.053
789	0.053
790	0.054
790	0.053
791	0.053
791	0.053
791	0.053
792	0.054
792	0.054
793	0.054
793	0.054
794	0.053
794	0.053
794	0.053
795	0.053
795	0.053
796	0.053
796	0.052
797	0.052
797	0.051
797	0.051
798	0.051
798	0.051
799	0.05
799	0.049
800	0.049
800	0.048
801	0.048
801	0.048
801	0.047
802	0.048
802	0.048
803	0.049
803	0.049
804	0.05
804	0.051
804	0.052
805	0.052
805	0.052
806	0.052
806	0.051
807	0.051
807	0.051
807	0.05
808	0.05
808	0.05
809	0.049
809	0.049
810	0.049
810	0.049
810	0.049
811	0.049
811	0.049
812	0.049
812	0.049
813	0.049
813	0.05
813	0.05
814	0.051
814	0.051
815	0.052
815	0.053
816	0.054
816	0.054
817	0.053
817	0.053
817	0.053
818	0.053
818	0.053
819	0.052
819	0.051
820	0.05
820	0.049
820	0.049
821	0.049
821	0.049
822	0.048
822	0.048
823	0.048
823	0.048
823	0.048
824	0.049
824	0.05
825	0.05
825	0.05
826	0.05
826	0.05
826	0.05
827	0.05
827	0.05
828	0.05
828	0.049
829	0.049
829	0.049
829	0.049
830	0.049
830	0.049
831	0.05
831	0.05
832	0.049
832	0.05
832	0.05
833	0.049
833	0.049
834	0.049
834	0.049
835	0.049
835	0.05
835	0.05
836	0.05
836	0.051
837	0.051
837	0.051
838	0.051
838	0.051
839	0.051
839	0.05
839	0.049
840	0.049
840	0.048
841	0.047
841	0.047
842	0.046
842	0.046
842	0.045
843	0.045
843	0.045
844	0.045
844	0.045
845	0.045
845	0.045
845	0.045
846	0.045
846	0.044
847	0.044
847	0.044
848	0.044
848	0.044
848	0.045
849	0.045
849	0.045
850	0.045
850	0.045
851	0.046
851	0.046
851	0.046
852	0.045
852	0.045
853	0.044
853	0.043
854	0.043
854	0.043
854	0.043
855	0.043
855	0.043
856	0.043
856	0.043
857	0.044
857	0.044
857	0.045
858	0.045
858	0.045
859	0.045
859	0.044
860	0.044
860	0.044
860	0.043
861	0.043
861	0.042
862	0.042
862	0.041
863	0.04
863	0.04
863	0.04
864	0.04
864	0.04
865	0.04
865	0.039
866	0.039
866	0.039
866	0.039
867	0.039
867	0.039
868	0.039
868	0.039
869	0.04
869	0.04
869	0.04
870	0.041
870	0.041
871	0.042
871	0.042
872	0.043
872	0.043
872	0.043
873	0.043
873	0.043
874	0.042
874	0.042
875	0.042
875	0.041
875	0.041
876	0.041
876	0.041
877	0.041
877	0.041
878	0.042
878	0.042
878	0.043
879	0.044
879	0.044
880	0.044
880	0.044
881	0.044
881	0.044
881	0.043
882	0.043
882	0.042
883	0.041
883	0.04
884	0.04
884	0.039
884	0.038
885	0.038
885	0.037
886	0.037
886	0.037
887	0.036
887	0.036
887	0.035
888	0.035
888	0.034
889	0.034
889	0.034
890	0.035
890	0.035
890	0.036
891	0.036
891	0.037
892	0.038
892	0.039
893	0.04
893	0.041
893	0.041
894	0.042
894	0.042
895	0.042
895	0.042
895	0.042
896	0.042
896	0.042
897	0.041
897	0.041
898	0.04
898	0.04
898	0.039
899	0.039
899	0.039
900	0.039
900	0.039
901	0.039
901	0.039
901	0.039
902	0.04
902	0.04
903	0.04
903	0.04
904	0.04
904	0.04
904	0.039
905	0.039
905	0.039
906	0.04
906	0.04
907	0.04
907	0.041
907	0.041
908	0.041
908	0.042
909	0.042
909	0.043
910	0.043
910	0.043
910	0.043
911	0.043
911	0.042
912	0.042
912	0.042
913	0.042
913	0.042
913	0.042
914	0.042
914	0.042
915	0.041
915	0.041
916	0.041
916	0.041
916	0.04
917	0.039
917	0.039
918	0.038
918	0.037
918	0.036
919	0.036
919	0.035
920	0.035
920	0.035
921	0.035
921	0.035
921	0.036
922	0.036
922	0.036
923	0.037
923	0.038
924	0.038
924	0.039
924	0.039
925	0.039
925	0.039
926	0.039
926	0.039
927	0.039
927	0.039
927	0.039
928	0.038
928	0.038
929	0.038
929	0.038
930	0.037
930	0.037
930	0.037
931	0.036
931	0.036
932	0.036
932	0.036
933	0.036
933	0.036
933	0.035
934	0.035
934	0.035
935	0.035
935	0.035
935	0.035
936	0.035
936	0.036
937	0.036
937	0.037
938	0.037
938	0.037
938	0.037
939	0.038
939	0.038
940	0.038
940	0.039
941	0.039
941	0.039
941	0.04
942	0.04
942	0.04
943	0.041
943	0.041
944	0.041
944	0.041
944	0.041
945	0.042
945	0.042
946	0.042
946	0.042
946	0.043
947	0.043
947	0.043
948	0.044
948	0.044
949	0.044
949	0.044
949	0.044
950	0.044
950	0.045
951	0.045
951	0.044
952	0.044
952	0.044
952	0.044
953	0.044
953	0.044
954	0.043
954	0.043
955	0.043
955	0.043
955	0.043
956	0.043
956	0.044
957	0.044
957	0.044
957	0.045
958	0.045
958	0.045
959	0.046
959	0.046
960	0.046
960	0.046
960	0.045
961	0.045
961	0.045
962	0.045
962	0.044
963	0.044
963	0.044
963	0.044
964	0.044
964	0.044
965	0.044
965	0.044
966	0.044
966	0.044
966	0.044
967	0.045
967	0.045
968	0.045
968	0.045
968	0.044
969	0.044
969	0.044
970	0.044
970	0.044
971	0.044
971	0.044
971	0.044
972	0.044
972	0.043
973	0.043
973	0.044
974	0.044
974	0.044
974	0.044
975	0.044
975	0.044
976	0.044
976	0.045
976	0.045
977	0.045
977	0.045
978	0.045
978	0.044
979	0.044
979	0.044
979	0.044
980	0.044
980	0.043
981	0.042
981	0.042
982	0.042
982	0.041
982	0.041
983	0.04
983	0.039
984	0.038
984	0.037
984	0.036
985	0.036
985	0.035
986	0.034
986	0.034
987	0.033
987	0.032
987	0.032
988	0.032
988	0.031
989	0.031
989	0.031
990	0.03
990	0.03
990	0.03
991	0.03
991	0.029
992	0.029
992	0.029
992	0.029
993	0.029
993	0.029
994	0.029
994	0.029
995	0.029
995	0.029
995	0.03
996	0.03
996	0.031
997	0.031
997	0.032
997	0.033
998	0.033
998	0.034
999	0.035
999	0.036
1000	0.037
1000	0.038
1000	0.039
1001	0.04
1001	0.04
1002	0.04
1002	0.041
1003	0.041
1003	0.041
1003	0.04
1004	0.04
1004	0.04
1005	0.039
1005	0.039
1005	0.038
1006	0.037
1006	0.037
1007	0.037
1007	0.036
1008	0.036
1008	0.036
1008	0.036
1009	0.036
1009	0.036
1010	0.035
1010	0.035
1010	0.035
1011	0.035
1011	0.035
1012	0.035
1012	0.034
1013	0.034
1013	0.034
1013	0.034
1014	0.034
1014	0.034
1015	0.034
1015	0.035
1016	0.035
1016	0.035
1016	0.035
1017	0.035
1017	0.035
1018	0.035
1018	0.035
1018	0.034
1019	0.034
1019	0.034
1020	0.033
1020	0.033
1021	0.033
1021	0.033
1021	0.033
1022	0.033
1022	0.032
1023	0.033
1023	0.033
1023	0.033
1024	0.033
1024	0.033
1025	0.033
1025	0.033
1026	0.032
1026	0.032
1026	0.032
1027	0.031
1027	0.031
1028	0.031
1028	0.03
1028	0.03
1029	0.03
1029	0.03
1030	0.03
1030	0.03
1031	0.031
1031	0.031
1031	0.031
1032	0.031
1032	0.032
1033	0.032
1033	0.032
1033	0.033
1034	0.033
1034	0.033
1035	0.033
1035	0.033
1036	0.032
1036	0.033
1036	0.033
1037	0.033
1037	0.033
1038	0.033
1038	0.033
1039	0.033
1039	0.034
1039	0.034
1040	0.034
1040	0.034
1041	0.034
1041	0.034
1041	0.033
1042	0.033
1042	0.033
1043	0.033
1043	0.033
1044	0.033
1044	0.033
1044	0.033
1045	0.033
1045	0.033
1046	0.034
1046	0.034
1046	0.034
1047	0.035
1047	0.035
1048	0.035
1048	0.035
1049	0.035
1049	0.035
1049	0.035
1050	0.034
1050	0.034
1051	0.033
1051	0.033
1051	0.032
1052	0.031
1052	0.031
1053	0.03
1053	0.029
1053	0.029
1054	0.028
1054	0.028
1055	0.028
1055	0.028
1056	0.028
1056	0.028
1056	0.027
1057	0.027
1057	0.027
1058	0.027
1058	0.026
1058	0.026
1059	0.025
1059	0.025
1060	0.025
1060	0.024
1061	0.024
1061	0.024
1061	0.024
1062	0.024
1062	0.024
1063	0.024
1063	0.024
1063	0.024
1064	0.024
1064	0.024
1065	0.024
1065	0.024
1066	0.024
1066	0.024
1066	0.024
1067	0.024
1067	0.024
1068	0.024
1068	0.024
1068	0.024
1069	0.024
1069	0.023
1070	0.023
1070	0.022
1071	0.022
1071	0.022
1071	0.021
1072	0.021
1072	0.02
1073	0.019
1073	0.019
1073	0.019
1074	0.019
1074	0.019
1075	0.019
1075	0.019
1076	0.019
1076	0.019
1076	0.019
1077	0.019
1077	0.019
1078	0.019
1078	0.019
1078	0.019
1079	0.019
1079	0.019
1080	0.019
1080	0.02
1080	0.02
1081	0.02
1081	0.02
1082	0.021
1082	0.022
1083	0.022
1083	0.022
1083	0.022
1084	0.022
1084	0.022
1085	0.022
1085	0.022
1085	0.022
1086	0.022
1086	0.021
1087	0.02
1087	0.019
1088	0.019
1088	0.018
1088	0.019
1089	0.017
1089	0.017
1090	0.016
1090	0.016
1090	0.015
1091	0.014
1091	0.014
1092	0.015
1092	0.015
1092	0.015
1093	0.015
1093	0.015
1094	0.015
1094	0.015
1095	0.015
1095	0.015
1095	0.015
1096	0.014
1096	0.013
1097	0.013
1097	0.012
1097	0.012
1098	0.011
1098	0.01
1099	0.01
1099	0.008
1100	0.007
1100	0.006
1100	0.005
1101	0.004
1101	0.002
1102	0.002
1102	0.001
1102	0
1103	-0.001
1103	-0.001
1104	-0.002
1104	-0.002
1104	-0.002
1105	-0.003
1105	-0.004
1106	-0.006
1106	-0.007
1107	-0.008
1107	-0.009
1107	-0.01
1108	-0.011
1108	-0.012
1109	-0.014
1109	-0.015
1109	-0.015
1110	-0.015
1110	-0.016
1111	-0.017
1111	-0.017
