Data from reversibility-20sec_Absorbance__93__000000000000093.txt Node

Date: Tue Dec 05 12:44:05 CET 2023
User: Marek
Spectrometer: MAYP115816
Trigger mode: 0
Integration Time (sec): 2.000000E-1
Scans to average: 10
Electric dark correction enabled: true
Nonlinearity correction enabled: true
Boxcar width: 5
XAxis mode: Wavelengths
Number of Pixels in Spectrum: 2068
>>>>>Begin Spectral Data<<<<<
199	-0.243
199	-0.205
200	-0.129
200	-0.077
201	-0.048
201	-0.031
202	-0.015
202	-0.004
203	0.004
203	0.007
204	0.02
204	0.033
205	0.047
205	0.05
205	0.047
206	0.046
206	0.045
207	0.045
207	0.043
208	0.041
208	0.04
209	0.043
209	0.043
210	0.04
210	0.04
211	0.041
211	0.046
212	0.045
212	0.047
213	0.051
213	0.053
213	0.056
214	0.059
214	0.059
215	0.06
215	0.059
216	0.063
216	0.062
217	0.066
217	0.069
218	0.069
218	0.074
219	0.079
219	0.079
220	0.084
220	0.086
221	0.087
221	0.09
221	0.092
222	0.096
222	0.1
223	0.103
223	0.104
224	0.109
224	0.12
225	0.127
225	0.14
226	0.15
226	0.16
227	0.17
227	0.179
228	0.194
228	0.21
229	0.228
229	0.247
229	0.268
230	0.293
230	0.32
231	0.352
231	0.391
232	0.431
232	0.477
233	0.52
233	0.568
234	0.615
234	0.667
235	0.714
235	0.766
236	0.817
236	0.869
236	0.919
237	0.968
237	1.014
238	1.06
238	1.106
239	1.154
239	1.196
240	1.239
240	1.276
241	1.311
241	1.344
242	1.376
242	1.407
243	1.438
243	1.464
243	1.489
244	1.511
244	1.533
245	1.549
245	1.569
246	1.586
246	1.602
247	1.615
247	1.629
248	1.641
248	1.654
249	1.664
249	1.671
250	1.679
250	1.688
250	1.692
251	1.698
251	1.703
252	1.709
252	1.711
253	1.714
253	1.712
254	1.712
254	1.713
255	1.711
255	1.712
256	1.712
256	1.711
257	1.709
257	1.708
258	1.707
258	1.707
258	1.707
259	1.706
259	1.706
260	1.706
260	1.706
261	1.706
261	1.707
262	1.708
262	1.707
263	1.71
263	1.709
264	1.708
264	1.708
265	1.708
265	1.707
265	1.706
266	1.705
266	1.705
267	1.703
267	1.704
268	1.701
268	1.702
269	1.703
269	1.702
270	1.701
270	1.7
271	1.698
271	1.697
272	1.694
272	1.69
272	1.687
273	1.683
273	1.678
274	1.674
274	1.67
275	1.664
275	1.658
276	1.653
276	1.646
277	1.639
277	1.632
278	1.621
278	1.61
278	1.598
279	1.585
279	1.569
280	1.55
280	1.527
281	1.5
281	1.468
282	1.436
282	1.401
283	1.367
283	1.333
284	1.299
284	1.265
285	1.233
285	1.203
285	1.176
286	1.152
286	1.131
287	1.112
287	1.096
288	1.081
288	1.069
289	1.059
289	1.05
290	1.042
290	1.035
291	1.029
291	1.023
292	1.019
292	1.014
292	1.01
293	1.007
293	1.004
294	1
294	0.997
295	0.994
295	0.991
296	0.988
296	0.986
297	0.983
297	0.981
298	0.978
298	0.975
298	0.973
299	0.971
299	0.968
300	0.966
300	0.964
301	0.961
301	0.959
302	0.956
302	0.954
303	0.952
303	0.95
304	0.947
304	0.945
305	0.942
305	0.94
305	0.937
306	0.935
306	0.932
307	0.93
307	0.928
308	0.925
308	0.922
309	0.919
309	0.916
310	0.914
310	0.911
311	0.908
311	0.905
311	0.902
312	0.898
312	0.894
313	0.891
313	0.887
314	0.884
314	0.88
315	0.876
315	0.872
316	0.868
316	0.863
317	0.859
317	0.854
318	0.85
318	0.845
318	0.84
319	0.834
319	0.829
320	0.824
320	0.818
321	0.812
321	0.806
322	0.801
322	0.795
323	0.788
323	0.782
324	0.776
324	0.77
324	0.764
325	0.757
325	0.751
326	0.744
326	0.738
327	0.731
327	0.725
328	0.718
328	0.712
329	0.705
329	0.698
330	0.691
330	0.684
330	0.678
331	0.671
331	0.664
332	0.657
332	0.651
333	0.644
333	0.637
334	0.631
334	0.624
335	0.618
335	0.611
336	0.605
336	0.599
336	0.592
337	0.586
337	0.58
338	0.574
338	0.568
339	0.562
339	0.557
340	0.551
340	0.546
341	0.54
341	0.535
342	0.53
342	0.524
342	0.519
343	0.514
343	0.509
344	0.505
344	0.5
345	0.495
345	0.491
346	0.487
346	0.482
347	0.478
347	0.474
348	0.47
348	0.466
348	0.462
349	0.459
349	0.455
350	0.452
350	0.448
351	0.445
351	0.441
352	0.438
352	0.435
353	0.432
353	0.43
354	0.427
354	0.424
354	0.421
355	0.418
355	0.415
356	0.412
356	0.409
357	0.406
357	0.404
358	0.401
358	0.398
359	0.396
359	0.394
360	0.392
360	0.39
360	0.388
361	0.386
361	0.384
362	0.382
362	0.38
363	0.378
363	0.376
364	0.374
364	0.372
365	0.37
365	0.368
366	0.366
366	0.364
366	0.363
367	0.361
367	0.359
368	0.358
368	0.356
369	0.354
369	0.353
370	0.351
370	0.35
371	0.348
371	0.347
372	0.345
372	0.344
372	0.343
373	0.341
373	0.34
374	0.339
374	0.338
375	0.337
375	0.336
376	0.335
376	0.333
377	0.332
377	0.331
378	0.33
378	0.329
378	0.328
379	0.327
379	0.326
380	0.325
380	0.324
381	0.323
381	0.322
382	0.321
382	0.32
383	0.319
383	0.318
383	0.317
384	0.316
384	0.315
385	0.315
385	0.314
386	0.313
386	0.313
387	0.312
387	0.311
388	0.311
388	0.31
389	0.309
389	0.309
389	0.308
390	0.308
390	0.307
391	0.306
391	0.306
392	0.305
392	0.305
393	0.304
393	0.303
394	0.303
394	0.302
394	0.301
395	0.301
395	0.3
396	0.299
396	0.299
397	0.298
397	0.298
398	0.297
398	0.297
399	0.297
399	0.296
400	0.296
400	0.295
400	0.295
401	0.294
401	0.294
402	0.293
402	0.293
403	0.292
403	0.292
404	0.291
404	0.291
405	0.291
405	0.29
405	0.29
406	0.289
406	0.289
407	0.288
407	0.288
408	0.287
408	0.287
409	0.286
409	0.285
410	0.285
410	0.285
411	0.284
411	0.284
411	0.284
412	0.284
412	0.283
413	0.283
413	0.283
414	0.282
414	0.282
415	0.282
415	0.281
416	0.281
416	0.281
416	0.28
417	0.28
417	0.279
418	0.279
418	0.279
419	0.279
419	0.278
420	0.278
420	0.278
421	0.277
421	0.277
421	0.277
422	0.277
422	0.277
423	0.276
423	0.276
424	0.276
424	0.275
425	0.275
425	0.275
426	0.274
426	0.274
427	0.274
427	0.274
427	0.273
428	0.273
428	0.273
429	0.273
429	0.273
430	0.273
430	0.273
431	0.273
431	0.272
432	0.273
432	0.272
432	0.272
433	0.272
433	0.272
434	0.272
434	0.271
435	0.271
435	0.271
436	0.271
436	0.271
437	0.27
437	0.27
437	0.27
438	0.27
438	0.27
439	0.27
439	0.27
440	0.27
440	0.269
441	0.269
441	0.269
442	0.269
442	0.269
442	0.269
443	0.269
443	0.269
444	0.269
444	0.269
445	0.269
445	0.269
446	0.269
446	0.269
447	0.269
447	0.269
447	0.269
448	0.269
448	0.269
449	0.269
449	0.269
450	0.269
450	0.269
451	0.269
451	0.269
452	0.27
452	0.27
452	0.27
453	0.27
453	0.27
454	0.27
454	0.27
455	0.27
455	0.27
456	0.27
456	0.27
457	0.27
457	0.27
458	0.27
458	0.27
458	0.27
459	0.27
459	0.271
460	0.271
460	0.271
461	0.272
461	0.272
462	0.272
462	0.272
463	0.272
463	0.272
463	0.273
464	0.273
464	0.273
465	0.273
465	0.273
466	0.273
466	0.274
467	0.274
467	0.275
467	0.275
468	0.275
468	0.276
469	0.276
469	0.277
470	0.277
470	0.278
471	0.278
471	0.279
472	0.279
472	0.28
472	0.28
473	0.281
473	0.282
474	0.283
474	0.283
475	0.284
475	0.285
476	0.285
476	0.286
477	0.287
477	0.287
477	0.288
478	0.289
478	0.29
479	0.29
479	0.291
480	0.292
480	0.293
481	0.293
481	0.294
482	0.295
482	0.296
482	0.297
483	0.298
483	0.299
484	0.3
484	0.301
485	0.303
485	0.303
486	0.304
486	0.306
487	0.307
487	0.308
487	0.309
488	0.31
488	0.312
489	0.313
489	0.315
490	0.316
490	0.318
491	0.319
491	0.32
492	0.322
492	0.323
492	0.325
493	0.326
493	0.328
494	0.329
494	0.331
495	0.333
495	0.334
496	0.336
496	0.338
496	0.34
497	0.341
497	0.343
498	0.344
498	0.346
499	0.348
499	0.35
500	0.351
500	0.353
501	0.355
501	0.356
501	0.358
502	0.36
502	0.361
503	0.363
503	0.365
504	0.366
504	0.368
505	0.37
505	0.371
506	0.372
506	0.374
506	0.375
507	0.377
507	0.378
508	0.379
508	0.381
509	0.382
509	0.383
510	0.384
510	0.386
511	0.387
511	0.389
511	0.391
512	0.392
512	0.393
513	0.395
513	0.396
514	0.397
514	0.398
515	0.399
515	0.4
515	0.401
516	0.401
516	0.402
517	0.403
517	0.403
518	0.404
518	0.404
519	0.405
519	0.405
520	0.405
520	0.406
520	0.406
521	0.406
521	0.406
522	0.406
522	0.406
523	0.406
523	0.405
524	0.405
524	0.405
524	0.405
525	0.404
525	0.403
526	0.403
526	0.402
527	0.401
527	0.4
528	0.399
528	0.398
529	0.397
529	0.396
529	0.395
530	0.393
530	0.392
531	0.391
531	0.389
532	0.387
532	0.386
533	0.384
533	0.382
533	0.381
534	0.379
534	0.377
535	0.375
535	0.374
536	0.372
536	0.37
537	0.367
537	0.365
538	0.363
538	0.36
538	0.358
539	0.356
539	0.354
540	0.352
540	0.349
541	0.347
541	0.344
542	0.342
542	0.339
542	0.336
543	0.334
543	0.331
544	0.328
544	0.326
545	0.324
545	0.321
546	0.318
546	0.316
547	0.313
547	0.31
547	0.308
548	0.305
548	0.303
549	0.3
549	0.297
550	0.294
550	0.291
551	0.288
551	0.285
551	0.282
552	0.279
552	0.277
553	0.274
553	0.271
554	0.268
554	0.266
555	0.263
555	0.26
556	0.258
556	0.255
556	0.253
557	0.251
557	0.249
558	0.247
558	0.244
559	0.242
559	0.24
560	0.237
560	0.235
560	0.233
561	0.231
561	0.228
562	0.226
562	0.223
563	0.22
563	0.218
564	0.215
564	0.213
564	0.21
565	0.208
565	0.206
566	0.203
566	0.201
567	0.199
567	0.197
568	0.195
568	0.193
568	0.191
569	0.189
569	0.187
570	0.185
570	0.183
571	0.182
571	0.18
572	0.178
572	0.176
573	0.174
573	0.173
573	0.171
574	0.17
574	0.168
575	0.167
575	0.165
576	0.164
576	0.162
577	0.16
577	0.159
577	0.157
578	0.156
578	0.154
579	0.153
579	0.152
580	0.15
580	0.148
581	0.146
581	0.145
581	0.144
582	0.143
582	0.142
583	0.141
583	0.139
584	0.138
584	0.136
585	0.134
585	0.133
585	0.131
586	0.13
586	0.128
587	0.127
587	0.125
588	0.124
588	0.123
589	0.121
589	0.121
590	0.12
590	0.119
590	0.119
591	0.118
591	0.116
592	0.115
592	0.114
593	0.113
593	0.112
594	0.111
594	0.11
594	0.109
595	0.108
595	0.107
596	0.106
596	0.105
597	0.105
597	0.104
598	0.103
598	0.103
598	0.102
599	0.101
599	0.1
600	0.099
600	0.099
601	0.098
601	0.097
602	0.096
602	0.095
602	0.094
603	0.093
603	0.093
604	0.092
604	0.091
605	0.091
605	0.09
606	0.09
606	0.089
606	0.088
607	0.087
607	0.087
608	0.086
608	0.085
609	0.084
609	0.083
610	0.082
610	0.081
610	0.081
611	0.08
611	0.08
612	0.079
612	0.078
613	0.078
613	0.077
614	0.077
614	0.076
614	0.076
615	0.075
615	0.074
616	0.074
616	0.073
617	0.073
617	0.072
618	0.072
618	0.071
618	0.071
619	0.07
619	0.07
620	0.07
620	0.069
621	0.069
621	0.068
622	0.067
622	0.067
622	0.066
623	0.066
623	0.065
624	0.065
624	0.064
625	0.063
625	0.063
626	0.062
626	0.062
626	0.062
627	0.061
627	0.061
628	0.06
628	0.059
629	0.059
629	0.058
630	0.057
630	0.056
630	0.056
631	0.056
631	0.055
632	0.055
632	0.054
633	0.054
633	0.054
634	0.054
634	0.055
634	0.054
635	0.054
635	0.054
636	0.054
636	0.054
637	0.053
637	0.053
638	0.052
638	0.052
638	0.052
639	0.051
639	0.051
640	0.05
640	0.05
641	0.049
641	0.049
642	0.048
642	0.048
642	0.048
643	0.047
643	0.047
644	0.047
644	0.046
645	0.046
645	0.046
646	0.045
646	0.045
646	0.045
647	0.045
647	0.044
648	0.044
648	0.044
649	0.043
649	0.043
650	0.043
650	0.043
650	0.042
651	0.042
651	0.042
652	0.042
652	0.041
653	0.041
653	0.042
653	0.046
654	0.038
654	0.031
655	0.03
655	0.03
656	0.03
656	0.03
657	0.03
657	0.03
657	0.03
658	0.03
658	0.026
659	0.032
659	0.039
660	0.041
660	0.041
661	0.04
661	0.04
661	0.039
662	0.039
662	0.038
663	0.038
663	0.037
664	0.037
664	0.036
665	0.036
665	0.036
665	0.035
666	0.035
666	0.035
667	0.034
667	0.034
668	0.034
668	0.034
669	0.034
669	0.034
669	0.034
670	0.034
670	0.034
671	0.034
671	0.033
672	0.033
672	0.032
672	0.032
673	0.031
673	0.031
674	0.031
674	0.031
675	0.03
675	0.03
676	0.03
676	0.03
676	0.03
677	0.03
677	0.03
678	0.03
678	0.029
679	0.029
679	0.029
680	0.029
680	0.029
680	0.029
681	0.029
681	0.029
682	0.03
682	0.03
683	0.03
683	0.031
684	0.031
684	0.031
684	0.031
685	0.031
685	0.031
686	0.03
686	0.03
687	0.029
687	0.029
687	0.029
688	0.029
688	0.028
689	0.028
689	0.028
690	0.028
690	0.028
691	0.028
691	0.028
691	0.028
692	0.028
692	0.028
693	0.028
693	0.028
694	0.028
694	0.028
695	0.028
695	0.029
695	0.029
696	0.029
696	0.029
697	0.029
697	0.029
698	0.028
698	0.028
698	0.028
699	0.028
699	0.028
700	0.028
700	0.028
701	0.027
701	0.027
702	0.027
702	0.027
702	0.026
703	0.026
703	0.025
704	0.024
704	0.024
705	0.024
705	0.023
705	0.023
706	0.022
706	0.022
707	0.023
707	0.023
708	0.023
708	0.023
709	0.023
709	0.023
709	0.023
710	0.023
710	0.024
711	0.024
711	0.024
712	0.024
712	0.024
713	0.024
713	0.024
713	0.024
714	0.023
714	0.023
715	0.023
715	0.023
716	0.022
716	0.022
716	0.022
717	0.021
717	0.021
718	0.02
718	0.019
719	0.019
719	0.02
720	0.02
720	0.02
720	0.02
721	0.021
721	0.021
722	0.021
722	0.021
723	0.021
723	0.022
723	0.022
724	0.021
724	0.02
725	0.02
725	0.019
726	0.018
726	0.018
727	0.017
727	0.017
727	0.017
728	0.017
728	0.017
729	0.017
729	0.017
730	0.017
730	0.018
730	0.018
731	0.018
731	0.018
732	0.018
732	0.018
733	0.018
733	0.018
734	0.017
734	0.017
734	0.018
735	0.018
735	0.018
736	0.018
736	0.017
737	0.017
737	0.017
737	0.017
738	0.017
738	0.016
739	0.016
739	0.016
740	0.015
740	0.015
741	0.015
741	0.015
741	0.015
742	0.015
742	0.016
743	0.016
743	0.017
744	0.017
744	0.017
744	0.018
745	0.018
745	0.018
746	0.018
746	0.018
747	0.018
747	0.017
748	0.017
748	0.016
748	0.016
749	0.015
749	0.015
750	0.014
750	0.014
751	0.013
751	0.013
751	0.013
752	0.013
752	0.013
753	0.012
753	0.013
754	0.013
754	0.013
754	0.014
755	0.014
755	0.014
756	0.014
756	0.013
757	0.012
757	0.012
758	0.012
758	0.011
758	0.011
759	0.011
759	0.011
760	0.011
760	0.011
761	0.012
761	0.012
761	0.013
762	0.013
762	0.013
763	0.014
763	0.013
764	0.013
764	0.012
764	0.012
765	0.011
765	0.01
766	0.01
766	0.009
767	0.008
767	0.008
768	0.007
768	0.007
768	0.007
769	0.008
769	0.008
770	0.008
770	0.008
771	0.008
771	0.008
771	0.009
772	0.009
772	0.009
773	0.008
773	0.008
774	0.008
774	0.008
775	0.008
775	0.008
775	0.008
776	0.008
776	0.008
777	0.008
777	0.008
778	0.008
778	0.008
778	0.008
779	0.008
779	0.008
780	0.008
780	0.008
781	0.008
781	0.008
781	0.008
782	0.008
782	0.008
783	0.008
783	0.009
784	0.009
784	0.009
784	0.009
785	0.009
785	0.009
786	0.01
786	0.01
787	0.01
787	0.01
788	0.01
788	0.01
788	0.009
789	0.009
789	0.009
790	0.008
790	0.008
791	0.007
791	0.006
791	0.006
792	0.005
792	0.005
793	0.004
793	0.004
794	0.003
794	0.003
794	0.002
795	0.002
795	0.002
796	0.003
796	0.003
797	0.003
797	0.004
797	0.004
798	0.005
798	0.006
799	0.006
799	0.006
800	0.006
800	0.006
801	0.006
801	0.006
801	0.005
802	0.005
802	0.005
803	0.005
803	0.005
804	0.005
804	0.005
804	0.005
805	0.006
805	0.006
806	0.006
806	0.007
807	0.007
807	0.007
807	0.007
808	0.008
808	0.008
809	0.009
809	0.009
810	0.009
810	0.01
810	0.01
811	0.01
811	0.01
812	0.01
812	0.01
813	0.01
813	0.01
813	0.009
814	0.009
814	0.009
815	0.01
815	0.009
816	0.009
816	0.009
817	0.009
817	0.008
817	0.008
818	0.007
818	0.007
819	0.007
819	0.006
820	0.006
820	0.005
820	0.005
821	0.005
821	0.005
822	0.005
822	0.005
823	0.005
823	0.005
823	0.006
824	0.006
824	0.007
825	0.008
825	0.008
826	0.009
826	0.009
826	0.009
827	0.009
827	0.009
828	0.009
828	0.009
829	0.009
829	0.009
829	0.009
830	0.009
830	0.009
831	0.01
831	0.01
832	0.01
832	0.01
832	0.009
833	0.009
833	0.009
834	0.008
834	0.008
835	0.008
835	0.007
835	0.007
836	0.007
836	0.007
837	0.007
837	0.006
838	0.006
838	0.006
839	0.005
839	0.004
839	0.003
840	0.003
840	0.002
841	0.001
841	-0
842	-0.001
842	-0.001
842	-0.001
843	-0.001
843	-0.001
844	-0.001
844	-0.001
845	-0.001
845	-0.001
845	-0.002
846	-0.002
846	-0.002
847	-0.002
847	-0.002
848	-0.001
848	-0.001
848	-0
849	0.001
849	0.001
850	0.001
850	0.002
851	0.002
851	0.002
851	0.002
852	0.002
852	0.001
853	0.001
853	0.001
854	0.001
854	0.001
854	0.002
855	0.003
855	0.003
856	0.004
856	0.004
857	0.005
857	0.005
857	0.005
858	0.005
858	0.004
859	0.003
859	0.002
860	0.002
860	0.001
860	0
861	-0
861	-0.001
862	-0.001
862	-0.001
863	-0.002
863	-0.002
863	-0.002
864	-0.002
864	-0.002
865	-0.001
865	-0.001
866	-0.001
866	-0.002
866	-0.002
867	-0.001
867	-0.001
868	-0.001
868	-0.001
869	-0.001
869	-0
869	-0
870	-0
870	0
871	0
871	0.001
872	0.002
872	0.002
872	0.002
873	0.002
873	0.002
874	0.002
874	0.002
875	0.003
875	0.003
875	0.003
876	0.003
876	0.003
877	0.003
877	0.004
878	0.004
878	0.005
878	0.005
879	0.006
879	0.006
880	0.006
880	0.006
881	0.006
881	0.006
881	0.006
882	0.005
882	0.004
883	0.003
883	0.002
884	0.002
884	0.001
884	0
885	-0.001
885	-0.002
886	-0.002
886	-0.003
887	-0.004
887	-0.004
887	-0.005
888	-0.005
888	-0.006
889	-0.006
889	-0.006
890	-0.006
890	-0.006
890	-0.006
891	-0.005
891	-0.005
892	-0.004
892	-0.003
893	-0.002
893	-0.002
893	-0.001
894	-0.001
894	-0
895	-0
895	-0
895	-0
896	-0.001
896	-0.001
897	-0.002
897	-0.003
898	-0.003
898	-0.003
898	-0.004
899	-0.004
899	-0.004
900	-0.004
900	-0.004
901	-0.004
901	-0.004
901	-0.004
902	-0.004
902	-0.004
903	-0.004
903	-0.004
904	-0.004
904	-0.004
904	-0.004
905	-0.004
905	-0.004
906	-0.004
906	-0.003
907	-0.003
907	-0.002
907	-0.001
908	-0.001
908	-0
909	-0
909	-0
910	0
910	-0
910	-0
911	-0.001
911	-0.001
912	-0.002
912	-0.002
913	-0.003
913	-0.003
913	-0.004
914	-0.004
914	-0.005
915	-0.005
915	-0.005
916	-0.006
916	-0.006
916	-0.007
917	-0.007
917	-0.007
918	-0.007
918	-0.007
918	-0.007
919	-0.007
919	-0.006
920	-0.006
920	-0.005
921	-0.004
921	-0.003
921	-0.002
922	-0.002
922	-0.001
923	0
923	0.001
924	0.002
924	0.003
924	0.003
925	0.004
925	0.004
926	0.005
926	0.005
927	0.005
927	0.005
927	0.005
928	0.005
928	0.005
929	0.005
929	0.006
930	0.005
930	0.005
930	0.005
931	0.005
931	0.005
932	0.004
932	0.004
933	0.003
933	0.002
933	0.002
934	0.001
934	0.001
935	0.001
935	0
935	0
936	0
936	0
937	0
937	0.001
938	0.001
938	0.001
938	0.002
939	0.002
939	0.002
940	0.002
940	0.002
941	0.003
941	0.003
941	0.003
942	0.004
942	0.004
943	0.004
943	0.004
944	0.004
944	0.005
944	0.005
945	0.005
945	0.006
946	0.006
946	0.006
946	0.006
947	0.006
947	0.006
948	0.006
948	0.006
949	0.006
949	0.005
949	0.005
950	0.005
950	0.004
951	0.004
951	0.003
952	0.003
952	0.002
952	0.001
953	0.001
953	-0
954	-0.001
954	-0.001
955	-0.002
955	-0.003
955	-0.003
956	-0.003
956	-0.003
957	-0.003
957	-0.003
957	-0.002
958	-0.002
958	-0.002
959	-0.001
959	-0.001
960	-0
960	0
960	0
961	0.001
961	0.001
962	0.001
962	0.001
963	0.001
963	0.001
963	0.001
964	0.001
964	0.002
965	0.002
965	0.002
966	0.002
966	0.003
966	0.003
967	0.004
967	0.004
968	0.005
968	0.006
968	0.006
969	0.006
969	0.006
970	0.006
970	0.006
971	0.006
971	0.006
971	0.006
972	0.005
972	0.005
973	0.004
973	0.004
974	0.004
974	0.003
974	0.003
975	0.003
975	0.003
976	0.003
976	0.003
976	0.003
977	0.002
977	0.002
978	0.001
978	0.001
979	0.001
979	0
979	-0
980	-0
980	-0.001
981	-0.002
981	-0.002
982	-0.002
982	-0.003
982	-0.003
983	-0.003
983	-0.003
984	-0.004
984	-0.004
984	-0.004
985	-0.005
985	-0.005
986	-0.005
986	-0.005
987	-0.005
987	-0.005
987	-0.005
988	-0.005
988	-0.006
989	-0.006
989	-0.006
990	-0.006
990	-0.006
990	-0.006
991	-0.005
991	-0.005
992	-0.005
992	-0.005
992	-0.005
993	-0.005
993	-0.005
994	-0.005
994	-0.005
995	-0.005
995	-0.005
995	-0.004
996	-0.004
996	-0.004
997	-0.003
997	-0.002
997	-0.001
998	-0.001
998	0
999	0.001
999	0.002
1000	0.003
1000	0.003
1000	0.003
1001	0.003
1001	0.003
1002	0.003
1002	0.002
1003	0.002
1003	0.001
1003	0.001
1004	-0
1004	-0.001
1005	-0.002
1005	-0.002
1005	-0.003
1006	-0.003
1006	-0.004
1007	-0.004
1007	-0.004
1008	-0.004
1008	-0.004
1008	-0.003
1009	-0.003
1009	-0.003
1010	-0.002
1010	-0.002
1010	-0.002
1011	-0.002
1011	-0.002
1012	-0.001
1012	-0.001
1013	-0.001
1013	-0.002
1013	-0.002
1014	-0.002
1014	-0.003
1015	-0.003
1015	-0.003
1016	-0.003
1016	-0.004
1016	-0.004
1017	-0.004
1017	-0.005
1018	-0.005
1018	-0.005
1018	-0.005
1019	-0.006
1019	-0.006
1020	-0.006
1020	-0.006
1021	-0.006
1021	-0.006
1021	-0.006
1022	-0.006
1022	-0.006
1023	-0.006
1023	-0.006
1023	-0.006
1024	-0.006
1024	-0.007
1025	-0.007
1025	-0.007
1026	-0.008
1026	-0.008
1026	-0.009
1027	-0.009
1027	-0.01
1028	-0.01
1028	-0.011
1028	-0.011
1029	-0.011
1029	-0.012
1030	-0.012
1030	-0.012
1031	-0.012
1031	-0.012
1031	-0.012
1032	-0.012
1032	-0.012
1033	-0.012
1033	-0.012
1033	-0.012
1034	-0.012
1034	-0.013
1035	-0.013
1035	-0.013
1036	-0.013
1036	-0.013
1036	-0.013
1037	-0.013
1037	-0.013
1038	-0.013
1038	-0.013
1039	-0.012
1039	-0.012
1039	-0.012
1040	-0.011
1040	-0.011
1041	-0.01
1041	-0.01
1041	-0.009
1042	-0.009
1042	-0.009
1043	-0.008
1043	-0.008
1044	-0.008
1044	-0.007
1044	-0.007
1045	-0.006
1045	-0.006
1046	-0.006
1046	-0.005
1046	-0.005
1047	-0.004
1047	-0.004
1048	-0.004
1048	-0.003
1049	-0.003
1049	-0.003
1049	-0.003
1050	-0.002
1050	-0.003
1051	-0.003
1051	-0.003
1051	-0.003
1052	-0.004
1052	-0.004
1053	-0.005
1053	-0.005
1053	-0.006
1054	-0.006
1054	-0.006
1055	-0.006
1055	-0.007
1056	-0.007
1056	-0.007
1056	-0.008
1057	-0.008
1057	-0.008
1058	-0.009
1058	-0.009
1058	-0.01
1059	-0.01
1059	-0.01
1060	-0.011
1060	-0.011
1061	-0.011
1061	-0.011
1061	-0.012
1062	-0.012
1062	-0.012
1063	-0.012
1063	-0.012
1063	-0.013
1064	-0.013
1064	-0.014
1065	-0.014
1065	-0.014
1066	-0.014
1066	-0.014
1066	-0.015
1067	-0.015
1067	-0.015
1068	-0.015
1068	-0.015
1068	-0.015
1069	-0.015
1069	-0.016
1070	-0.016
1070	-0.016
1071	-0.017
1071	-0.017
1071	-0.017
1072	-0.017
1072	-0.017
1073	-0.018
1073	-0.018
1073	-0.018
1074	-0.018
1074	-0.018
1075	-0.018
1075	-0.018
1076	-0.017
1076	-0.017
1076	-0.017
1077	-0.016
1077	-0.016
1078	-0.016
1078	-0.015
1078	-0.015
1079	-0.015
1079	-0.015
1080	-0.015
1080	-0.015
1080	-0.015
1081	-0.015
1081	-0.014
1082	-0.014
1082	-0.013
1083	-0.013
1083	-0.014
1083	-0.014
1084	-0.015
1084	-0.015
1085	-0.015
1085	-0.015
1085	-0.015
1086	-0.015
1086	-0.016
1087	-0.016
1087	-0.017
1088	-0.017
1088	-0.017
1088	-0.017
1089	-0.017
1089	-0.017
1090	-0.018
1090	-0.018
1090	-0.019
1091	-0.019
1091	-0.02
1092	-0.019
1092	-0.019
1092	-0.02
1093	-0.02
1093	-0.019
1094	-0.019
1094	-0.02
1095	-0.02
1095	-0.02
1095	-0.019
1096	-0.02
1096	-0.021
1097	-0.021
1097	-0.022
1097	-0.021
1098	-0.021
1098	-0.022
1099	-0.023
1099	-0.023
1100	-0.024
1100	-0.025
1100	-0.025
1101	-0.026
1101	-0.026
1102	-0.026
1102	-0.027
1102	-0.029
1103	-0.029
1103	-0.029
1104	-0.029
1104	-0.03
1104	-0.03
1105	-0.032
1105	-0.034
1106	-0.036
1106	-0.037
1107	-0.038
1107	-0.038
1107	-0.04
1108	-0.04
1108	-0.041
1109	-0.042
1109	-0.045
1109	-0.044
1110	-0.041
1110	-0.043
1111	-0.042
1111	-0.042
