Data from reversibility-20sec_Absorbance__1332__000000000001332.txt Node

Date: Tue Dec 05 19:37:06 CET 2023
User: Marek
Spectrometer: MAYP115816
Trigger mode: 0
Integration Time (sec): 2.000000E-1
Scans to average: 10
Electric dark correction enabled: true
Nonlinearity correction enabled: true
Boxcar width: 5
XAxis mode: Wavelengths
Number of Pixels in Spectrum: 2068
>>>>>Begin Spectral Data<<<<<
199	-0.207
199	-0.161
200	-0.09
200	-0.035
201	-0.001
201	0.019
202	0.032
202	0.045
203	0.051
203	0.055
204	0.072
204	0.087
205	0.098
205	0.105
205	0.103
206	0.101
206	0.098
207	0.101
207	0.099
208	0.099
208	0.098
209	0.101
209	0.097
210	0.096
210	0.095
211	0.096
211	0.098
212	0.099
212	0.101
213	0.105
213	0.107
213	0.108
214	0.108
214	0.113
215	0.117
215	0.117
216	0.12
216	0.119
217	0.122
217	0.122
218	0.118
218	0.123
219	0.128
219	0.131
220	0.132
220	0.128
221	0.13
221	0.132
221	0.136
222	0.142
222	0.147
223	0.156
223	0.157
224	0.162
224	0.169
225	0.177
225	0.191
226	0.202
226	0.213
227	0.224
227	0.233
228	0.247
228	0.259
229	0.277
229	0.299
229	0.324
230	0.347
230	0.377
231	0.409
231	0.451
232	0.486
232	0.531
233	0.578
233	0.627
234	0.675
234	0.728
235	0.782
235	0.834
236	0.886
236	0.937
236	0.986
237	1.039
237	1.088
238	1.134
238	1.185
239	1.238
239	1.285
240	1.327
240	1.369
241	1.407
241	1.446
242	1.483
242	1.521
243	1.557
243	1.587
243	1.617
244	1.639
244	1.664
245	1.687
245	1.715
246	1.74
246	1.76
247	1.775
247	1.794
248	1.812
248	1.831
249	1.843
249	1.858
250	1.868
250	1.88
250	1.884
251	1.889
251	1.896
252	1.904
252	1.906
253	1.911
253	1.909
254	1.909
254	1.913
255	1.911
255	1.911
256	1.913
256	1.914
257	1.917
257	1.919
258	1.919
258	1.92
258	1.923
259	1.926
259	1.925
260	1.929
260	1.932
261	1.933
261	1.939
262	1.944
262	1.947
263	1.952
263	1.954
264	1.958
264	1.962
265	1.967
265	1.972
265	1.974
266	1.979
266	1.981
267	1.98
267	1.982
268	1.984
268	1.988
269	1.993
269	1.992
270	1.991
270	1.99
271	1.989
271	1.99
272	1.988
272	1.987
272	1.983
273	1.974
273	1.965
274	1.955
274	1.948
275	1.94
275	1.932
276	1.923
276	1.915
277	1.907
277	1.894
278	1.883
278	1.872
278	1.856
279	1.838
279	1.812
280	1.781
280	1.743
281	1.699
281	1.649
282	1.599
282	1.55
283	1.502
283	1.456
284	1.412
284	1.37
285	1.33
285	1.295
285	1.264
286	1.237
286	1.214
287	1.193
287	1.176
288	1.161
288	1.149
289	1.138
289	1.129
290	1.122
290	1.115
291	1.109
291	1.104
292	1.099
292	1.095
292	1.091
293	1.088
293	1.085
294	1.082
294	1.079
295	1.076
295	1.073
296	1.07
296	1.067
297	1.064
297	1.062
298	1.059
298	1.056
298	1.053
299	1.051
299	1.048
300	1.046
300	1.044
301	1.041
301	1.039
302	1.036
302	1.034
303	1.032
303	1.03
304	1.028
304	1.026
305	1.023
305	1.021
305	1.018
306	1.016
306	1.013
307	1.011
307	1.008
308	1.006
308	1.003
309	1
309	0.997
310	0.994
310	0.992
311	0.989
311	0.985
311	0.982
312	0.979
312	0.976
313	0.973
313	0.969
314	0.965
314	0.961
315	0.957
315	0.953
316	0.948
316	0.943
317	0.939
317	0.933
318	0.928
318	0.923
318	0.917
319	0.911
319	0.906
320	0.9
320	0.894
321	0.888
321	0.882
322	0.875
322	0.869
323	0.863
323	0.856
324	0.85
324	0.843
324	0.836
325	0.829
325	0.822
326	0.815
326	0.808
327	0.801
327	0.794
328	0.787
328	0.78
329	0.772
329	0.765
330	0.758
330	0.751
330	0.743
331	0.736
331	0.728
332	0.721
332	0.714
333	0.707
333	0.7
334	0.693
334	0.686
335	0.679
335	0.672
336	0.665
336	0.658
336	0.652
337	0.645
337	0.639
338	0.632
338	0.626
339	0.62
339	0.613
340	0.607
340	0.602
341	0.596
341	0.59
342	0.584
342	0.579
342	0.573
343	0.568
343	0.563
344	0.558
344	0.553
345	0.548
345	0.543
346	0.538
346	0.534
347	0.529
347	0.525
348	0.521
348	0.517
348	0.513
349	0.508
349	0.505
350	0.501
350	0.497
351	0.494
351	0.49
352	0.487
352	0.484
353	0.481
353	0.478
354	0.475
354	0.471
354	0.469
355	0.466
355	0.463
356	0.46
356	0.457
357	0.454
357	0.451
358	0.448
358	0.445
359	0.443
359	0.44
360	0.438
360	0.436
360	0.434
361	0.431
361	0.429
362	0.428
362	0.426
363	0.424
363	0.422
364	0.42
364	0.418
365	0.416
365	0.414
366	0.412
366	0.411
366	0.409
367	0.407
367	0.405
368	0.403
368	0.402
369	0.4
369	0.398
370	0.397
370	0.395
371	0.394
371	0.392
372	0.391
372	0.389
372	0.388
373	0.387
373	0.386
374	0.385
374	0.384
375	0.382
375	0.381
376	0.38
376	0.379
377	0.378
377	0.377
378	0.376
378	0.375
378	0.374
379	0.373
379	0.372
380	0.371
380	0.37
381	0.369
381	0.369
382	0.368
382	0.367
383	0.367
383	0.366
383	0.365
384	0.364
384	0.363
385	0.363
385	0.362
386	0.361
386	0.36
387	0.36
387	0.359
388	0.358
388	0.358
389	0.357
389	0.356
389	0.356
390	0.355
390	0.355
391	0.354
391	0.354
392	0.354
392	0.353
393	0.353
393	0.352
394	0.352
394	0.351
394	0.351
395	0.35
395	0.349
396	0.349
396	0.348
397	0.348
397	0.347
398	0.346
398	0.346
399	0.345
399	0.345
400	0.344
400	0.344
400	0.343
401	0.343
401	0.343
402	0.342
402	0.342
403	0.341
403	0.341
404	0.341
404	0.341
405	0.34
405	0.34
405	0.34
406	0.339
406	0.339
407	0.338
407	0.338
408	0.337
408	0.337
409	0.336
409	0.336
410	0.335
410	0.335
411	0.334
411	0.334
411	0.333
412	0.333
412	0.333
413	0.332
413	0.332
414	0.331
414	0.331
415	0.331
415	0.33
416	0.33
416	0.329
416	0.329
417	0.328
417	0.328
418	0.328
418	0.328
419	0.327
419	0.327
420	0.327
420	0.326
421	0.326
421	0.326
421	0.325
422	0.325
422	0.324
423	0.324
423	0.324
424	0.323
424	0.323
425	0.322
425	0.322
426	0.322
426	0.321
427	0.321
427	0.32
427	0.32
428	0.32
428	0.319
429	0.319
429	0.319
430	0.318
430	0.318
431	0.318
431	0.318
432	0.318
432	0.317
432	0.317
433	0.317
433	0.316
434	0.316
434	0.316
435	0.316
435	0.316
436	0.316
436	0.315
437	0.315
437	0.314
437	0.314
438	0.314
438	0.313
439	0.313
439	0.313
440	0.313
440	0.312
441	0.312
441	0.312
442	0.312
442	0.312
442	0.311
443	0.311
443	0.311
444	0.311
444	0.311
445	0.311
445	0.31
446	0.31
446	0.31
447	0.31
447	0.309
447	0.309
448	0.309
448	0.309
449	0.308
449	0.308
450	0.308
450	0.308
451	0.308
451	0.308
452	0.308
452	0.307
452	0.307
453	0.307
453	0.307
454	0.307
454	0.306
455	0.306
455	0.306
456	0.306
456	0.306
457	0.305
457	0.305
458	0.305
458	0.305
458	0.305
459	0.305
459	0.305
460	0.305
460	0.304
461	0.304
461	0.304
462	0.304
462	0.303
463	0.303
463	0.303
463	0.303
464	0.303
464	0.303
465	0.303
465	0.303
466	0.303
466	0.303
467	0.303
467	0.303
467	0.303
468	0.303
468	0.303
469	0.303
469	0.303
470	0.303
470	0.303
471	0.303
471	0.303
472	0.303
472	0.303
472	0.304
473	0.304
473	0.304
474	0.304
474	0.304
475	0.304
475	0.304
476	0.304
476	0.305
477	0.305
477	0.305
477	0.306
478	0.306
478	0.306
479	0.307
479	0.307
480	0.307
480	0.307
481	0.307
481	0.308
482	0.308
482	0.308
482	0.308
483	0.309
483	0.309
484	0.31
484	0.31
485	0.31
485	0.311
486	0.311
486	0.312
487	0.312
487	0.313
487	0.313
488	0.314
488	0.314
489	0.315
489	0.316
490	0.317
490	0.318
491	0.319
491	0.319
492	0.32
492	0.321
492	0.321
493	0.322
493	0.323
494	0.324
494	0.325
495	0.325
495	0.326
496	0.327
496	0.328
496	0.329
497	0.329
497	0.33
498	0.331
498	0.332
499	0.332
499	0.333
500	0.335
500	0.336
501	0.337
501	0.337
501	0.338
502	0.339
502	0.339
503	0.34
503	0.341
504	0.342
504	0.343
505	0.343
505	0.344
506	0.345
506	0.346
506	0.347
507	0.347
507	0.348
508	0.349
508	0.35
509	0.351
509	0.352
510	0.353
510	0.354
511	0.355
511	0.356
511	0.356
512	0.357
512	0.358
513	0.358
513	0.359
514	0.36
514	0.36
515	0.361
515	0.361
515	0.362
516	0.362
516	0.363
517	0.364
517	0.364
518	0.365
518	0.365
519	0.365
519	0.365
520	0.366
520	0.366
520	0.366
521	0.366
521	0.366
522	0.366
522	0.366
523	0.366
523	0.366
524	0.366
524	0.366
524	0.367
525	0.367
525	0.367
526	0.367
526	0.366
527	0.366
527	0.366
528	0.365
528	0.365
529	0.365
529	0.364
529	0.363
530	0.362
530	0.362
531	0.361
531	0.361
532	0.36
532	0.36
533	0.359
533	0.358
533	0.358
534	0.357
534	0.357
535	0.356
535	0.355
536	0.355
536	0.354
537	0.353
537	0.352
538	0.351
538	0.351
538	0.35
539	0.349
539	0.348
540	0.347
540	0.346
541	0.345
541	0.344
542	0.343
542	0.342
542	0.341
543	0.34
543	0.338
544	0.337
544	0.336
545	0.336
545	0.335
546	0.334
546	0.333
547	0.332
547	0.331
547	0.33
548	0.329
548	0.328
549	0.327
549	0.325
550	0.324
550	0.323
551	0.321
551	0.32
551	0.319
552	0.318
552	0.316
553	0.315
553	0.314
554	0.313
554	0.311
555	0.31
555	0.308
556	0.307
556	0.306
556	0.305
557	0.305
557	0.304
558	0.303
558	0.302
559	0.302
559	0.301
560	0.3
560	0.299
560	0.299
561	0.298
561	0.296
562	0.295
562	0.293
563	0.292
563	0.29
564	0.289
564	0.288
564	0.287
565	0.286
565	0.286
566	0.284
566	0.284
567	0.283
567	0.283
568	0.282
568	0.281
568	0.28
569	0.28
569	0.279
570	0.278
570	0.277
571	0.276
571	0.275
572	0.274
572	0.273
573	0.272
573	0.271
573	0.27
574	0.269
574	0.269
575	0.268
575	0.268
576	0.267
576	0.266
577	0.265
577	0.264
577	0.263
578	0.263
578	0.262
579	0.262
579	0.262
580	0.261
580	0.259
581	0.258
581	0.258
581	0.257
582	0.257
582	0.257
583	0.257
583	0.256
584	0.254
584	0.253
585	0.252
585	0.251
585	0.25
586	0.249
586	0.248
587	0.247
587	0.246
588	0.244
588	0.244
589	0.243
589	0.243
590	0.243
590	0.242
590	0.243
591	0.243
591	0.242
592	0.242
592	0.241
593	0.241
593	0.24
594	0.24
594	0.239
594	0.238
595	0.238
595	0.237
596	0.236
596	0.236
597	0.237
597	0.236
598	0.236
598	0.236
598	0.235
599	0.235
599	0.234
600	0.234
600	0.233
601	0.232
601	0.232
602	0.231
602	0.23
602	0.229
603	0.229
603	0.229
604	0.228
604	0.228
605	0.228
605	0.228
606	0.227
606	0.226
606	0.226
607	0.225
607	0.225
608	0.224
608	0.223
609	0.222
609	0.222
610	0.221
610	0.221
610	0.221
611	0.221
611	0.22
612	0.22
612	0.22
613	0.22
613	0.22
614	0.219
614	0.219
614	0.219
615	0.219
615	0.218
616	0.218
616	0.218
617	0.217
617	0.217
618	0.217
618	0.217
618	0.216
619	0.217
619	0.217
620	0.217
620	0.216
621	0.216
621	0.215
622	0.214
622	0.214
622	0.213
623	0.212
623	0.212
624	0.212
624	0.211
625	0.21
625	0.21
626	0.21
626	0.209
626	0.209
627	0.209
627	0.209
628	0.208
628	0.208
629	0.207
629	0.207
630	0.207
630	0.206
630	0.206
631	0.206
631	0.206
632	0.206
632	0.205
633	0.206
633	0.206
634	0.206
634	0.206
634	0.206
635	0.206
635	0.206
636	0.205
636	0.205
637	0.205
637	0.205
638	0.204
638	0.204
638	0.203
639	0.202
639	0.202
640	0.202
640	0.202
641	0.201
641	0.201
642	0.2
642	0.2
642	0.2
643	0.2
643	0.2
644	0.2
644	0.2
645	0.2
645	0.2
646	0.2
646	0.2
646	0.2
647	0.2
647	0.199
648	0.199
648	0.199
649	0.199
649	0.198
650	0.198
650	0.198
650	0.198
651	0.198
651	0.198
652	0.198
652	0.198
653	0.199
653	0.2
653	0.207
654	0.162
654	0.129
655	0.131
655	0.131
656	0.131
656	0.131
657	0.132
657	0.132
657	0.132
658	0.13
658	0.119
659	0.15
659	0.194
660	0.198
660	0.197
661	0.197
661	0.196
661	0.196
662	0.196
662	0.195
663	0.195
663	0.195
664	0.195
664	0.194
665	0.194
665	0.194
665	0.194
666	0.194
666	0.194
667	0.195
667	0.195
668	0.195
668	0.194
669	0.194
669	0.194
669	0.195
670	0.195
670	0.195
671	0.195
671	0.194
672	0.194
672	0.194
672	0.193
673	0.193
673	0.194
674	0.193
674	0.193
675	0.193
675	0.193
676	0.193
676	0.193
676	0.193
677	0.193
677	0.193
678	0.193
678	0.193
679	0.192
679	0.193
680	0.193
680	0.193
680	0.193
681	0.193
681	0.193
682	0.194
682	0.194
683	0.195
683	0.195
684	0.196
684	0.195
684	0.195
685	0.195
685	0.196
686	0.196
686	0.196
687	0.195
687	0.195
687	0.195
688	0.194
688	0.194
689	0.195
689	0.195
690	0.195
690	0.194
691	0.194
691	0.195
691	0.195
692	0.195
692	0.195
693	0.196
693	0.196
694	0.196
694	0.196
695	0.197
695	0.198
695	0.198
696	0.198
696	0.198
697	0.198
697	0.198
698	0.197
698	0.197
698	0.196
699	0.197
699	0.196
700	0.195
700	0.195
701	0.196
701	0.195
702	0.195
702	0.196
702	0.196
703	0.196
703	0.196
704	0.196
704	0.196
705	0.195
705	0.195
705	0.195
706	0.194
706	0.195
707	0.194
707	0.194
708	0.194
708	0.194
709	0.194
709	0.194
709	0.194
710	0.193
710	0.194
711	0.194
711	0.194
712	0.194
712	0.194
713	0.194
713	0.194
713	0.195
714	0.195
714	0.195
715	0.195
715	0.195
716	0.195
716	0.195
716	0.194
717	0.194
717	0.194
718	0.193
718	0.193
719	0.193
719	0.193
720	0.194
720	0.194
720	0.194
721	0.194
721	0.195
722	0.195
722	0.196
723	0.196
723	0.196
723	0.197
724	0.197
724	0.196
725	0.196
725	0.195
726	0.195
726	0.194
727	0.194
727	0.193
727	0.193
728	0.193
728	0.192
729	0.193
729	0.192
730	0.192
730	0.193
730	0.193
731	0.193
731	0.193
732	0.194
732	0.194
733	0.193
733	0.193
734	0.193
734	0.193
734	0.194
735	0.194
735	0.193
736	0.193
736	0.193
737	0.193
737	0.194
737	0.194
738	0.193
738	0.193
739	0.193
739	0.192
740	0.192
740	0.192
741	0.192
741	0.192
741	0.191
742	0.191
742	0.191
743	0.192
743	0.192
744	0.193
744	0.193
744	0.193
745	0.194
745	0.194
746	0.194
746	0.194
747	0.195
747	0.195
748	0.196
748	0.196
748	0.196
749	0.196
749	0.196
750	0.196
750	0.195
751	0.195
751	0.195
751	0.195
752	0.195
752	0.194
753	0.194
753	0.194
754	0.195
754	0.195
754	0.196
755	0.196
755	0.196
756	0.196
756	0.195
757	0.194
757	0.194
758	0.194
758	0.194
758	0.193
759	0.194
759	0.193
760	0.193
760	0.193
761	0.193
761	0.194
761	0.195
762	0.195
762	0.196
763	0.196
763	0.196
764	0.196
764	0.196
764	0.195
765	0.195
765	0.194
766	0.194
766	0.194
767	0.193
767	0.191
768	0.19
768	0.19
768	0.19
769	0.189
769	0.189
770	0.189
770	0.189
771	0.19
771	0.19
771	0.191
772	0.191
772	0.192
773	0.192
773	0.193
774	0.193
774	0.194
775	0.194
775	0.194
775	0.194
776	0.194
776	0.195
777	0.195
777	0.194
778	0.194
778	0.194
778	0.194
779	0.194
779	0.193
780	0.192
780	0.192
781	0.192
781	0.191
781	0.191
782	0.191
782	0.191
783	0.191
783	0.191
784	0.191
784	0.191
784	0.192
785	0.192
785	0.192
786	0.193
786	0.193
787	0.194
787	0.194
788	0.193
788	0.193
788	0.193
789	0.193
789	0.193
790	0.193
790	0.192
791	0.192
791	0.192
791	0.192
792	0.192
792	0.192
793	0.192
793	0.192
794	0.192
794	0.191
794	0.191
795	0.191
795	0.191
796	0.19
796	0.19
797	0.189
797	0.189
797	0.189
798	0.189
798	0.189
799	0.189
799	0.189
800	0.189
800	0.189
801	0.189
801	0.189
801	0.189
802	0.19
802	0.19
803	0.19
803	0.191
804	0.191
804	0.192
804	0.192
805	0.192
805	0.191
806	0.191
806	0.191
807	0.19
807	0.189
807	0.189
808	0.188
808	0.187
809	0.187
809	0.186
810	0.186
810	0.186
810	0.185
811	0.185
811	0.185
812	0.186
812	0.186
813	0.186
813	0.187
813	0.187
814	0.188
814	0.188
815	0.188
815	0.189
816	0.189
816	0.189
817	0.188
817	0.188
817	0.187
818	0.187
818	0.186
819	0.185
819	0.184
820	0.183
820	0.183
820	0.182
821	0.181
821	0.181
822	0.181
822	0.18
823	0.18
823	0.181
823	0.181
824	0.182
824	0.183
825	0.184
825	0.185
826	0.185
826	0.185
826	0.185
827	0.185
827	0.185
828	0.185
828	0.185
829	0.184
829	0.184
829	0.183
830	0.183
830	0.183
831	0.183
831	0.183
832	0.183
832	0.183
832	0.183
833	0.182
833	0.182
834	0.182
834	0.182
835	0.181
835	0.181
835	0.181
836	0.181
836	0.181
837	0.181
837	0.181
838	0.18
838	0.179
839	0.179
839	0.178
839	0.176
840	0.175
840	0.174
841	0.172
841	0.171
842	0.17
842	0.169
842	0.169
843	0.168
843	0.168
844	0.168
844	0.168
845	0.167
845	0.167
845	0.167
846	0.167
846	0.167
847	0.167
847	0.167
848	0.167
848	0.167
848	0.168
849	0.168
849	0.169
850	0.169
850	0.169
851	0.169
851	0.168
851	0.168
852	0.167
852	0.166
853	0.165
853	0.164
854	0.163
854	0.163
854	0.163
855	0.163
855	0.162
856	0.162
856	0.162
857	0.162
857	0.162
857	0.162
858	0.162
858	0.161
859	0.16
859	0.159
860	0.158
860	0.157
860	0.156
861	0.155
861	0.154
862	0.153
862	0.152
863	0.152
863	0.151
863	0.151
864	0.151
864	0.151
865	0.15
865	0.15
866	0.15
866	0.149
866	0.149
867	0.149
867	0.148
868	0.148
868	0.148
869	0.148
869	0.148
869	0.147
870	0.147
870	0.147
871	0.148
871	0.148
872	0.148
872	0.148
872	0.148
873	0.148
873	0.147
874	0.147
874	0.147
875	0.147
875	0.146
875	0.146
876	0.146
876	0.146
877	0.146
877	0.147
878	0.147
878	0.148
878	0.149
879	0.15
879	0.151
880	0.151
880	0.151
881	0.151
881	0.151
881	0.15
882	0.149
882	0.148
883	0.146
883	0.145
884	0.143
884	0.142
884	0.141
885	0.14
885	0.139
886	0.138
886	0.137
887	0.137
887	0.136
887	0.136
888	0.135
888	0.135
889	0.134
889	0.134
890	0.134
890	0.134
890	0.134
891	0.134
891	0.134
892	0.134
892	0.134
893	0.134
893	0.134
893	0.134
894	0.134
894	0.134
895	0.134
895	0.134
895	0.134
896	0.134
896	0.134
897	0.133
897	0.133
898	0.132
898	0.132
898	0.132
899	0.131
899	0.131
900	0.131
900	0.13
901	0.13
901	0.129
901	0.129
902	0.129
902	0.128
903	0.128
903	0.127
904	0.127
904	0.126
904	0.125
905	0.125
905	0.124
906	0.124
906	0.125
907	0.125
907	0.126
907	0.126
908	0.127
908	0.127
909	0.128
909	0.128
910	0.128
910	0.128
910	0.128
911	0.127
911	0.127
912	0.126
912	0.125
913	0.124
913	0.124
913	0.123
914	0.122
914	0.122
915	0.121
915	0.121
916	0.12
916	0.119
916	0.119
917	0.118
917	0.117
918	0.116
918	0.115
918	0.114
919	0.113
919	0.113
920	0.112
920	0.112
921	0.112
921	0.112
921	0.112
922	0.112
922	0.112
923	0.112
923	0.113
924	0.113
924	0.113
924	0.113
925	0.113
925	0.113
926	0.113
926	0.113
927	0.112
927	0.112
927	0.112
928	0.111
928	0.111
929	0.111
929	0.111
930	0.111
930	0.111
930	0.111
931	0.11
931	0.111
932	0.111
932	0.111
933	0.111
933	0.111
933	0.111
934	0.111
934	0.111
935	0.111
935	0.111
935	0.11
936	0.11
936	0.109
937	0.108
937	0.108
938	0.107
938	0.106
938	0.106
939	0.105
939	0.105
940	0.105
940	0.105
941	0.105
941	0.105
941	0.106
942	0.106
942	0.106
943	0.106
943	0.106
944	0.106
944	0.106
944	0.105
945	0.105
945	0.105
946	0.105
946	0.104
946	0.104
947	0.104
947	0.103
948	0.103
948	0.103
949	0.102
949	0.102
949	0.102
950	0.101
950	0.101
951	0.101
951	0.1
952	0.1
952	0.099
952	0.099
953	0.098
953	0.098
954	0.097
954	0.097
955	0.097
955	0.096
955	0.096
956	0.096
956	0.097
957	0.097
957	0.097
957	0.097
958	0.097
958	0.098
959	0.098
959	0.098
960	0.098
960	0.098
960	0.098
961	0.098
961	0.098
962	0.098
962	0.098
963	0.098
963	0.098
963	0.097
964	0.097
964	0.097
965	0.097
965	0.097
966	0.097
966	0.097
966	0.097
967	0.097
967	0.097
968	0.097
968	0.097
968	0.097
969	0.097
969	0.097
970	0.097
970	0.097
971	0.097
971	0.097
971	0.097
972	0.097
972	0.096
973	0.096
973	0.096
974	0.096
974	0.096
974	0.096
975	0.096
975	0.096
976	0.096
976	0.096
976	0.096
977	0.096
977	0.096
978	0.095
978	0.095
979	0.095
979	0.095
979	0.095
980	0.094
980	0.094
981	0.093
981	0.093
982	0.092
982	0.092
982	0.091
983	0.091
983	0.09
984	0.09
984	0.089
984	0.088
985	0.088
985	0.087
986	0.086
986	0.086
987	0.085
987	0.084
987	0.084
988	0.083
988	0.082
989	0.082
989	0.081
990	0.081
990	0.08
990	0.08
991	0.079
991	0.079
992	0.078
992	0.078
992	0.077
993	0.077
993	0.076
994	0.076
994	0.075
995	0.075
995	0.075
995	0.075
996	0.075
996	0.075
997	0.075
997	0.076
997	0.076
998	0.077
998	0.078
999	0.079
999	0.08
1000	0.08
1000	0.081
1000	0.082
1001	0.082
1001	0.083
1002	0.083
1002	0.083
1003	0.083
1003	0.083
1003	0.083
1004	0.083
1004	0.083
1005	0.082
1005	0.082
1005	0.082
1006	0.082
1006	0.081
1007	0.081
1007	0.081
1008	0.081
1008	0.081
1008	0.081
1009	0.081
1009	0.08
1010	0.08
1010	0.08
1010	0.08
1011	0.08
1011	0.08
1012	0.079
1012	0.079
1013	0.079
1013	0.078
1013	0.078
1014	0.077
1014	0.077
1015	0.076
1015	0.076
1016	0.075
1016	0.075
1016	0.074
1017	0.074
1017	0.073
1018	0.073
1018	0.072
1018	0.071
1019	0.071
1019	0.071
1020	0.07
1020	0.07
1021	0.07
1021	0.07
1021	0.07
1022	0.069
1022	0.069
1023	0.069
1023	0.069
1023	0.07
1024	0.07
1024	0.069
1025	0.069
1025	0.069
1026	0.069
1026	0.069
1026	0.069
1027	0.069
1027	0.068
1028	0.068
1028	0.068
1028	0.068
1029	0.068
1029	0.068
1030	0.068
1030	0.068
1031	0.068
1031	0.069
1031	0.069
1032	0.069
1032	0.069
1033	0.069
1033	0.068
1033	0.068
1034	0.068
1034	0.068
1035	0.068
1035	0.068
1036	0.068
1036	0.068
1036	0.068
1037	0.068
1037	0.068
1038	0.068
1038	0.068
1039	0.068
1039	0.068
1039	0.068
1040	0.069
1040	0.069
1041	0.069
1041	0.069
1041	0.069
1042	0.069
1042	0.069
1043	0.069
1043	0.069
1044	0.068
1044	0.068
1044	0.069
1045	0.069
1045	0.069
1046	0.069
1046	0.07
1046	0.071
1047	0.071
1047	0.072
1048	0.073
1048	0.074
1049	0.074
1049	0.074
1049	0.074
1050	0.075
1050	0.074
1051	0.074
1051	0.073
1051	0.072
1052	0.071
1052	0.07
1053	0.069
1053	0.068
1053	0.067
1054	0.066
1054	0.065
1055	0.065
1055	0.064
1056	0.063
1056	0.062
1056	0.062
1057	0.061
1057	0.061
1058	0.06
1058	0.059
1058	0.059
1059	0.058
1059	0.058
1060	0.057
1060	0.057
1061	0.056
1061	0.056
1061	0.056
1062	0.056
1062	0.056
1063	0.056
1063	0.056
1063	0.056
1064	0.056
1064	0.057
1065	0.057
1065	0.057
1066	0.057
1066	0.057
1066	0.057
1067	0.057
1067	0.057
1068	0.056
1068	0.056
1068	0.056
1069	0.055
1069	0.054
1070	0.054
1070	0.053
1071	0.052
1071	0.052
1071	0.051
1072	0.05
1072	0.05
1073	0.049
1073	0.048
1073	0.048
1074	0.049
1074	0.049
1075	0.049
1075	0.049
1076	0.05
1076	0.05
1076	0.051
1077	0.051
1077	0.052
1078	0.052
1078	0.052
1078	0.052
1079	0.052
1079	0.052
1080	0.051
1080	0.051
1080	0.051
1081	0.05
1081	0.05
1082	0.051
1082	0.051
1083	0.05
1083	0.05
1083	0.049
1084	0.049
1084	0.049
1085	0.048
1085	0.048
1085	0.047
1086	0.047
1086	0.046
1087	0.045
1087	0.045
1088	0.045
1088	0.045
1088	0.045
1089	0.045
1089	0.044
1090	0.043
1090	0.044
1090	0.042
1091	0.043
1091	0.043
1092	0.043
1092	0.043
1092	0.043
1093	0.042
1093	0.042
1094	0.043
1094	0.043
1095	0.043
1095	0.043
1095	0.043
1096	0.042
1096	0.041
1097	0.041
1097	0.04
1097	0.04
1098	0.039
1098	0.038
1099	0.037
1099	0.036
1100	0.035
1100	0.034
1100	0.033
1101	0.032
1101	0.03
1102	0.029
1102	0.028
1102	0.027
1103	0.026
1103	0.027
1104	0.026
1104	0.026
1104	0.025
1105	0.024
1105	0.023
1106	0.022
1106	0.02
1107	0.019
1107	0.019
1107	0.018
1108	0.016
1108	0.015
1109	0.014
1109	0.013
1109	0.012
1110	0.013
1110	0.012
1111	0.013
1111	0.016
