Data from reversibility-20sec_Absorbance__7451__000000000007451.txt Node

Date: Thu Dec 07 05:36:46 CET 2023
User: Marek
Spectrometer: MAYP115816
Trigger mode: 0
Integration Time (sec): 2.000000E-1
Scans to average: 10
Electric dark correction enabled: true
Nonlinearity correction enabled: true
Boxcar width: 5
XAxis mode: Wavelengths
Number of Pixels in Spectrum: 2068
>>>>>Begin Spectral Data<<<<<
199	-0.085
199	-0.05
200	0.005
200	0.049
201	0.081
201	0.099
202	0.104
202	0.113
203	0.12
203	0.122
204	0.135
204	0.146
205	0.156
205	0.163
205	0.159
206	0.157
206	0.153
207	0.157
207	0.155
208	0.154
208	0.155
209	0.156
209	0.153
210	0.153
210	0.153
211	0.155
211	0.157
212	0.158
212	0.159
213	0.165
213	0.167
213	0.166
214	0.171
214	0.176
215	0.177
215	0.176
216	0.18
216	0.179
217	0.181
217	0.182
218	0.181
218	0.183
219	0.187
219	0.186
220	0.187
220	0.186
221	0.19
221	0.193
221	0.198
222	0.205
222	0.208
223	0.212
223	0.217
224	0.223
224	0.227
225	0.236
225	0.244
226	0.255
226	0.263
227	0.274
227	0.282
228	0.299
228	0.314
229	0.331
229	0.355
229	0.381
230	0.407
230	0.438
231	0.466
231	0.506
232	0.543
232	0.589
233	0.631
233	0.678
234	0.73
234	0.783
235	0.834
235	0.888
236	0.939
236	0.992
236	1.041
237	1.091
237	1.139
238	1.184
238	1.231
239	1.274
239	1.312
240	1.353
240	1.387
241	1.421
241	1.455
242	1.49
242	1.522
243	1.55
243	1.573
243	1.598
244	1.62
244	1.642
245	1.662
245	1.683
246	1.701
246	1.718
247	1.731
247	1.745
248	1.759
248	1.775
249	1.783
249	1.789
250	1.794
250	1.801
250	1.802
251	1.805
251	1.805
252	1.807
252	1.807
253	1.805
253	1.802
254	1.801
254	1.8
255	1.798
255	1.797
256	1.795
256	1.795
257	1.795
257	1.794
258	1.793
258	1.793
258	1.793
259	1.793
259	1.794
260	1.793
260	1.793
261	1.796
261	1.798
262	1.801
262	1.802
263	1.804
263	1.807
264	1.807
264	1.809
265	1.808
265	1.81
265	1.81
266	1.81
266	1.811
267	1.807
267	1.808
268	1.807
268	1.806
269	1.806
269	1.806
270	1.807
270	1.806
271	1.805
271	1.805
272	1.8
272	1.799
272	1.795
273	1.789
273	1.783
274	1.778
274	1.772
275	1.763
275	1.756
276	1.748
276	1.739
277	1.731
277	1.72
278	1.708
278	1.696
278	1.681
279	1.663
279	1.641
280	1.612
280	1.58
281	1.541
281	1.498
282	1.453
282	1.407
283	1.362
283	1.319
284	1.277
284	1.236
285	1.198
285	1.164
285	1.134
286	1.107
286	1.084
287	1.064
287	1.047
288	1.032
288	1.02
289	1.009
289	1
290	0.993
290	0.986
291	0.981
291	0.976
292	0.971
292	0.966
292	0.962
293	0.959
293	0.955
294	0.952
294	0.949
295	0.946
295	0.943
296	0.939
296	0.936
297	0.933
297	0.93
298	0.927
298	0.924
298	0.921
299	0.919
299	0.916
300	0.913
300	0.91
301	0.908
301	0.905
302	0.903
302	0.9
303	0.898
303	0.896
304	0.893
304	0.891
305	0.889
305	0.887
305	0.884
306	0.882
306	0.879
307	0.877
307	0.875
308	0.872
308	0.87
309	0.867
309	0.864
310	0.861
310	0.859
311	0.856
311	0.853
311	0.849
312	0.846
312	0.843
313	0.84
313	0.836
314	0.832
314	0.828
315	0.824
315	0.82
316	0.815
316	0.81
317	0.806
317	0.801
318	0.796
318	0.79
318	0.785
319	0.78
319	0.775
320	0.769
320	0.763
321	0.757
321	0.751
322	0.745
322	0.739
323	0.732
323	0.726
324	0.72
324	0.713
324	0.706
325	0.699
325	0.692
326	0.685
326	0.678
327	0.671
327	0.664
328	0.656
328	0.649
329	0.642
329	0.635
330	0.628
330	0.62
330	0.613
331	0.606
331	0.599
332	0.592
332	0.585
333	0.578
333	0.571
334	0.563
334	0.556
335	0.549
335	0.543
336	0.536
336	0.529
336	0.522
337	0.516
337	0.51
338	0.503
338	0.497
339	0.491
339	0.485
340	0.479
340	0.473
341	0.467
341	0.462
342	0.456
342	0.45
342	0.445
343	0.44
343	0.434
344	0.429
344	0.424
345	0.42
345	0.415
346	0.41
346	0.406
347	0.401
347	0.397
348	0.393
348	0.389
348	0.385
349	0.381
349	0.378
350	0.374
350	0.371
351	0.367
351	0.364
352	0.361
352	0.358
353	0.355
353	0.352
354	0.349
354	0.346
354	0.343
355	0.34
355	0.338
356	0.335
356	0.332
357	0.329
357	0.327
358	0.324
358	0.321
359	0.319
359	0.317
360	0.315
360	0.313
360	0.311
361	0.309
361	0.307
362	0.305
362	0.304
363	0.302
363	0.3
364	0.298
364	0.296
365	0.294
365	0.292
366	0.291
366	0.289
366	0.288
367	0.286
367	0.284
368	0.283
368	0.281
369	0.28
369	0.278
370	0.277
370	0.276
371	0.275
371	0.273
372	0.272
372	0.271
372	0.27
373	0.27
373	0.268
374	0.268
374	0.267
375	0.266
375	0.265
376	0.264
376	0.263
377	0.263
377	0.262
378	0.261
378	0.26
378	0.259
379	0.258
379	0.258
380	0.257
380	0.256
381	0.256
381	0.255
382	0.254
382	0.254
383	0.254
383	0.253
383	0.253
384	0.252
384	0.252
385	0.251
385	0.251
386	0.25
386	0.25
387	0.25
387	0.249
388	0.249
388	0.249
389	0.248
389	0.248
389	0.248
390	0.247
390	0.247
391	0.247
391	0.246
392	0.246
392	0.246
393	0.245
393	0.245
394	0.245
394	0.244
394	0.244
395	0.244
395	0.243
396	0.243
396	0.243
397	0.243
397	0.242
398	0.242
398	0.242
399	0.242
399	0.242
400	0.241
400	0.241
400	0.241
401	0.24
401	0.24
402	0.24
402	0.24
403	0.239
403	0.239
404	0.239
404	0.239
405	0.239
405	0.238
405	0.238
406	0.238
406	0.238
407	0.238
407	0.237
408	0.237
408	0.237
409	0.237
409	0.236
410	0.236
410	0.236
411	0.236
411	0.235
411	0.235
412	0.235
412	0.235
413	0.234
413	0.234
414	0.234
414	0.233
415	0.233
415	0.233
416	0.232
416	0.232
416	0.232
417	0.231
417	0.231
418	0.231
418	0.231
419	0.23
419	0.23
420	0.229
420	0.229
421	0.229
421	0.228
421	0.228
422	0.228
422	0.227
423	0.227
423	0.227
424	0.226
424	0.226
425	0.226
425	0.226
426	0.225
426	0.225
427	0.225
427	0.224
427	0.224
428	0.224
428	0.223
429	0.223
429	0.222
430	0.222
430	0.221
431	0.221
431	0.221
432	0.221
432	0.221
432	0.22
433	0.22
433	0.22
434	0.22
434	0.22
435	0.22
435	0.22
436	0.219
436	0.219
437	0.219
437	0.219
437	0.218
438	0.218
438	0.218
439	0.217
439	0.217
440	0.217
440	0.216
441	0.216
441	0.216
442	0.215
442	0.215
442	0.215
443	0.215
443	0.215
444	0.214
444	0.214
445	0.214
445	0.214
446	0.214
446	0.214
447	0.214
447	0.213
447	0.213
448	0.213
448	0.213
449	0.213
449	0.213
450	0.212
450	0.212
451	0.212
451	0.212
452	0.212
452	0.211
452	0.211
453	0.211
453	0.211
454	0.211
454	0.21
455	0.21
455	0.21
456	0.21
456	0.209
457	0.209
457	0.209
458	0.208
458	0.208
458	0.208
459	0.208
459	0.207
460	0.207
460	0.207
461	0.207
461	0.207
462	0.207
462	0.206
463	0.206
463	0.206
463	0.206
464	0.205
464	0.205
465	0.205
465	0.204
466	0.204
466	0.204
467	0.204
467	0.204
467	0.204
468	0.204
468	0.204
469	0.204
469	0.204
470	0.204
470	0.204
471	0.204
471	0.203
472	0.203
472	0.203
472	0.203
473	0.203
473	0.203
474	0.202
474	0.202
475	0.202
475	0.202
476	0.202
476	0.202
477	0.202
477	0.202
477	0.202
478	0.202
478	0.202
479	0.202
479	0.202
480	0.202
480	0.202
481	0.202
481	0.201
482	0.202
482	0.202
482	0.202
483	0.202
483	0.202
484	0.202
484	0.202
485	0.201
485	0.201
486	0.201
486	0.201
487	0.201
487	0.201
487	0.201
488	0.201
488	0.201
489	0.201
489	0.201
490	0.202
490	0.202
491	0.202
491	0.203
492	0.203
492	0.204
492	0.204
493	0.205
493	0.205
494	0.205
494	0.205
495	0.205
495	0.206
496	0.206
496	0.206
496	0.207
497	0.207
497	0.207
498	0.207
498	0.207
499	0.207
499	0.208
500	0.208
500	0.209
501	0.209
501	0.209
501	0.209
502	0.209
502	0.209
503	0.21
503	0.21
504	0.211
504	0.211
505	0.211
505	0.211
506	0.212
506	0.212
506	0.213
507	0.213
507	0.213
508	0.214
508	0.214
509	0.214
509	0.214
510	0.215
510	0.215
511	0.215
511	0.216
511	0.216
512	0.216
512	0.217
513	0.217
513	0.217
514	0.218
514	0.218
515	0.219
515	0.219
515	0.219
516	0.219
516	0.22
517	0.221
517	0.221
518	0.221
518	0.221
519	0.221
519	0.221
520	0.222
520	0.222
520	0.222
521	0.222
521	0.223
522	0.223
522	0.223
523	0.223
523	0.224
524	0.224
524	0.224
524	0.225
525	0.225
525	0.225
526	0.225
526	0.225
527	0.225
527	0.225
528	0.225
528	0.225
529	0.225
529	0.225
529	0.225
530	0.225
530	0.225
531	0.225
531	0.225
532	0.225
532	0.225
533	0.225
533	0.224
533	0.224
534	0.224
534	0.224
535	0.224
535	0.225
536	0.224
536	0.224
537	0.224
537	0.224
538	0.224
538	0.224
538	0.224
539	0.224
539	0.224
540	0.224
540	0.224
541	0.223
541	0.223
542	0.223
542	0.223
542	0.223
543	0.223
543	0.223
544	0.223
544	0.223
545	0.223
545	0.223
546	0.223
546	0.222
547	0.221
547	0.221
547	0.221
548	0.221
548	0.221
549	0.22
549	0.22
550	0.22
550	0.22
551	0.219
551	0.219
551	0.219
552	0.219
552	0.219
553	0.219
553	0.219
554	0.218
554	0.218
555	0.217
555	0.217
556	0.216
556	0.216
556	0.216
557	0.216
557	0.216
558	0.216
558	0.216
559	0.216
559	0.217
560	0.217
560	0.217
560	0.217
561	0.217
561	0.216
562	0.215
562	0.214
563	0.214
563	0.213
564	0.212
564	0.212
564	0.212
565	0.211
565	0.211
566	0.211
566	0.211
567	0.211
567	0.211
568	0.211
568	0.211
568	0.21
569	0.21
569	0.209
570	0.208
570	0.208
571	0.207
571	0.207
572	0.206
572	0.205
573	0.205
573	0.205
573	0.205
574	0.204
574	0.204
575	0.205
575	0.205
576	0.204
576	0.204
577	0.203
577	0.203
577	0.202
578	0.202
578	0.201
579	0.202
579	0.202
580	0.202
580	0.201
581	0.201
581	0.201
581	0.201
582	0.201
582	0.201
583	0.201
583	0.2
584	0.2
584	0.199
585	0.198
585	0.198
585	0.198
586	0.198
586	0.197
587	0.197
587	0.196
588	0.196
588	0.196
589	0.195
589	0.196
590	0.196
590	0.195
590	0.196
591	0.196
591	0.196
592	0.195
592	0.194
593	0.194
593	0.194
594	0.193
594	0.193
594	0.192
595	0.192
595	0.191
596	0.191
596	0.191
597	0.192
597	0.192
598	0.192
598	0.192
598	0.192
599	0.192
599	0.192
600	0.192
600	0.191
601	0.191
601	0.191
602	0.19
602	0.19
602	0.189
603	0.189
603	0.189
604	0.189
604	0.189
605	0.189
605	0.189
606	0.188
606	0.188
606	0.187
607	0.187
607	0.187
608	0.187
608	0.186
609	0.186
609	0.185
610	0.185
610	0.185
610	0.185
611	0.185
611	0.185
612	0.185
612	0.185
613	0.185
613	0.185
614	0.185
614	0.185
614	0.185
615	0.185
615	0.185
616	0.186
616	0.185
617	0.185
617	0.185
618	0.185
618	0.185
618	0.185
619	0.185
619	0.185
620	0.185
620	0.185
621	0.184
621	0.184
622	0.183
622	0.183
622	0.182
623	0.182
623	0.182
624	0.182
624	0.181
625	0.181
625	0.181
626	0.181
626	0.182
626	0.182
627	0.182
627	0.182
628	0.182
628	0.182
629	0.182
629	0.181
630	0.181
630	0.181
630	0.181
631	0.181
631	0.18
632	0.18
632	0.18
633	0.179
633	0.18
634	0.18
634	0.18
634	0.18
635	0.179
635	0.179
636	0.178
636	0.178
637	0.178
637	0.178
638	0.178
638	0.177
638	0.177
639	0.177
639	0.176
640	0.176
640	0.176
641	0.176
641	0.176
642	0.176
642	0.176
642	0.176
643	0.176
643	0.176
644	0.177
644	0.177
645	0.177
645	0.178
646	0.178
646	0.178
646	0.178
647	0.178
647	0.178
648	0.177
648	0.177
649	0.176
649	0.176
650	0.176
650	0.175
650	0.175
651	0.175
651	0.175
652	0.176
652	0.176
653	0.177
653	0.179
653	0.184
654	0.145
654	0.116
655	0.116
655	0.116
656	0.117
656	0.117
657	0.117
657	0.118
657	0.118
658	0.117
658	0.107
659	0.135
659	0.173
660	0.178
660	0.177
661	0.177
661	0.176
661	0.176
662	0.176
662	0.175
663	0.175
663	0.175
664	0.175
664	0.175
665	0.175
665	0.175
665	0.175
666	0.175
666	0.175
667	0.175
667	0.176
668	0.176
668	0.175
669	0.176
669	0.176
669	0.176
670	0.176
670	0.176
671	0.176
671	0.176
672	0.175
672	0.175
672	0.175
673	0.174
673	0.174
674	0.174
674	0.174
675	0.173
675	0.174
676	0.174
676	0.174
676	0.174
677	0.175
677	0.175
678	0.175
678	0.174
679	0.174
679	0.174
680	0.174
680	0.174
680	0.173
681	0.173
681	0.173
682	0.174
682	0.174
683	0.174
683	0.174
684	0.174
684	0.174
684	0.174
685	0.174
685	0.174
686	0.174
686	0.174
687	0.174
687	0.174
687	0.175
688	0.175
688	0.175
689	0.176
689	0.176
690	0.176
690	0.176
691	0.176
691	0.176
691	0.176
692	0.176
692	0.177
693	0.177
693	0.178
694	0.177
694	0.177
695	0.178
695	0.179
695	0.18
696	0.18
696	0.18
697	0.18
697	0.18
698	0.18
698	0.179
698	0.179
699	0.179
699	0.179
700	0.178
700	0.178
701	0.178
701	0.177
702	0.177
702	0.176
702	0.176
703	0.176
703	0.175
704	0.175
704	0.174
705	0.174
705	0.174
705	0.173
706	0.173
706	0.173
707	0.174
707	0.174
708	0.174
708	0.174
709	0.175
709	0.175
709	0.175
710	0.175
710	0.176
711	0.177
711	0.177
712	0.178
712	0.178
713	0.178
713	0.179
713	0.179
714	0.179
714	0.179
715	0.179
715	0.178
716	0.178
716	0.177
716	0.176
717	0.175
717	0.175
718	0.174
718	0.174
719	0.174
719	0.174
720	0.175
720	0.175
720	0.176
721	0.177
721	0.178
722	0.179
722	0.18
723	0.18
723	0.18
723	0.18
724	0.18
724	0.18
725	0.179
725	0.178
726	0.177
726	0.177
727	0.176
727	0.175
727	0.175
728	0.175
728	0.175
729	0.175
729	0.175
730	0.175
730	0.176
730	0.176
731	0.177
731	0.177
732	0.178
732	0.179
733	0.179
733	0.179
734	0.18
734	0.18
734	0.18
735	0.181
735	0.181
736	0.181
736	0.181
737	0.181
737	0.181
737	0.181
738	0.18
738	0.18
739	0.18
739	0.18
740	0.179
740	0.18
741	0.18
741	0.18
741	0.18
742	0.181
742	0.181
743	0.182
743	0.183
744	0.184
744	0.185
744	0.185
745	0.185
745	0.184
746	0.184
746	0.184
747	0.184
747	0.184
748	0.183
748	0.183
748	0.183
749	0.182
749	0.183
750	0.183
750	0.183
751	0.183
751	0.184
751	0.184
752	0.184
752	0.184
753	0.184
753	0.183
754	0.183
754	0.183
754	0.183
755	0.183
755	0.182
756	0.182
756	0.181
757	0.181
757	0.181
758	0.181
758	0.181
758	0.181
759	0.181
759	0.181
760	0.181
760	0.181
761	0.181
761	0.182
761	0.182
762	0.182
762	0.183
763	0.183
763	0.183
764	0.183
764	0.183
764	0.183
765	0.183
765	0.182
766	0.182
766	0.182
767	0.182
767	0.181
768	0.181
768	0.181
768	0.181
769	0.181
769	0.181
770	0.182
770	0.182
771	0.182
771	0.183
771	0.183
772	0.184
772	0.184
773	0.185
773	0.185
774	0.185
774	0.185
775	0.185
775	0.185
775	0.185
776	0.186
776	0.186
777	0.187
777	0.188
778	0.188
778	0.188
778	0.189
779	0.189
779	0.189
780	0.188
780	0.188
781	0.187
781	0.187
781	0.186
782	0.186
782	0.185
783	0.186
783	0.186
784	0.186
784	0.186
784	0.187
785	0.187
785	0.187
786	0.188
786	0.188
787	0.189
787	0.188
788	0.188
788	0.187
788	0.187
789	0.187
789	0.187
790	0.187
790	0.187
791	0.187
791	0.187
791	0.187
792	0.188
792	0.188
793	0.188
793	0.188
794	0.188
794	0.188
794	0.188
795	0.188
795	0.188
796	0.188
796	0.188
797	0.188
797	0.189
797	0.189
798	0.189
798	0.189
799	0.189
799	0.189
800	0.189
800	0.188
801	0.188
801	0.189
801	0.189
802	0.189
802	0.19
803	0.19
803	0.191
804	0.191
804	0.192
804	0.192
805	0.192
805	0.192
806	0.192
806	0.192
807	0.192
807	0.192
807	0.192
808	0.192
808	0.191
809	0.191
809	0.191
810	0.191
810	0.191
810	0.191
811	0.191
811	0.191
812	0.192
812	0.192
813	0.193
813	0.193
813	0.194
814	0.195
814	0.195
815	0.196
815	0.196
816	0.196
816	0.196
817	0.195
817	0.195
817	0.194
818	0.194
818	0.194
819	0.193
819	0.193
820	0.192
820	0.192
820	0.192
821	0.192
821	0.192
822	0.192
822	0.193
823	0.193
823	0.193
823	0.194
824	0.195
824	0.196
825	0.197
825	0.199
826	0.199
826	0.2
826	0.2
827	0.201
827	0.201
828	0.202
828	0.202
829	0.202
829	0.203
829	0.203
830	0.203
830	0.203
831	0.203
831	0.203
832	0.203
832	0.203
832	0.203
833	0.203
833	0.203
834	0.202
834	0.202
835	0.201
835	0.201
835	0.2
836	0.2
836	0.199
837	0.199
837	0.198
838	0.197
838	0.196
839	0.196
839	0.195
839	0.194
840	0.193
840	0.193
841	0.192
841	0.191
842	0.191
842	0.19
842	0.19
843	0.189
843	0.189
844	0.189
844	0.189
845	0.189
845	0.189
845	0.189
846	0.189
846	0.19
847	0.19
847	0.191
848	0.191
848	0.191
848	0.191
849	0.191
849	0.191
850	0.191
850	0.19
851	0.19
851	0.19
851	0.189
852	0.189
852	0.188
853	0.188
853	0.188
854	0.189
854	0.19
854	0.19
855	0.191
855	0.192
856	0.193
856	0.194
857	0.195
857	0.196
857	0.197
858	0.197
858	0.197
859	0.198
859	0.198
860	0.198
860	0.198
860	0.198
861	0.197
861	0.197
862	0.196
862	0.195
863	0.195
863	0.194
863	0.193
864	0.193
864	0.193
865	0.193
865	0.193
866	0.193
866	0.193
866	0.193
867	0.194
867	0.194
868	0.194
868	0.194
869	0.194
869	0.194
869	0.193
870	0.193
870	0.192
871	0.192
871	0.192
872	0.192
872	0.191
872	0.191
873	0.191
873	0.191
874	0.19
874	0.19
875	0.19
875	0.19
875	0.19
876	0.189
876	0.189
877	0.188
877	0.188
878	0.188
878	0.188
878	0.188
879	0.188
879	0.188
880	0.188
880	0.189
881	0.189
881	0.189
881	0.19
882	0.19
882	0.19
883	0.19
883	0.191
884	0.191
884	0.191
884	0.191
885	0.191
885	0.191
886	0.191
886	0.19
887	0.19
887	0.19
887	0.189
888	0.189
888	0.188
889	0.188
889	0.187
890	0.187
890	0.187
890	0.188
891	0.188
891	0.188
892	0.188
892	0.188
893	0.187
893	0.187
893	0.187
894	0.187
894	0.186
895	0.186
895	0.185
895	0.185
896	0.185
896	0.185
897	0.184
897	0.184
898	0.183
898	0.183
898	0.182
899	0.182
899	0.182
900	0.181
900	0.181
901	0.181
901	0.181
901	0.18
902	0.18
902	0.18
903	0.18
903	0.181
904	0.181
904	0.181
904	0.181
905	0.18
905	0.18
906	0.18
906	0.18
907	0.18
907	0.18
907	0.18
908	0.18
908	0.18
909	0.179
909	0.179
910	0.179
910	0.178
910	0.178
911	0.177
911	0.176
912	0.176
912	0.175
913	0.175
913	0.174
913	0.174
914	0.173
914	0.173
915	0.173
915	0.173
916	0.173
916	0.173
916	0.173
917	0.173
917	0.173
918	0.172
918	0.172
918	0.172
919	0.172
919	0.171
920	0.171
920	0.171
921	0.171
921	0.171
921	0.17
922	0.17
922	0.171
923	0.171
923	0.171
924	0.171
924	0.171
924	0.171
925	0.171
925	0.171
926	0.171
926	0.172
927	0.172
927	0.172
927	0.172
928	0.172
928	0.172
929	0.172
929	0.173
930	0.173
930	0.173
930	0.172
931	0.172
931	0.172
932	0.171
932	0.171
933	0.17
933	0.17
933	0.17
934	0.169
934	0.169
935	0.168
935	0.168
935	0.168
936	0.167
936	0.167
937	0.167
937	0.166
938	0.166
938	0.165
938	0.164
939	0.163
939	0.163
940	0.162
940	0.162
941	0.162
941	0.162
941	0.162
942	0.162
942	0.162
943	0.162
943	0.163
944	0.163
944	0.163
944	0.163
945	0.163
945	0.163
946	0.163
946	0.162
946	0.162
947	0.162
947	0.161
948	0.161
948	0.161
949	0.16
949	0.16
949	0.159
950	0.159
950	0.159
951	0.158
951	0.157
952	0.157
952	0.156
952	0.155
953	0.155
953	0.154
954	0.154
954	0.154
955	0.154
955	0.154
955	0.154
956	0.155
956	0.155
957	0.156
957	0.157
957	0.158
958	0.158
958	0.159
959	0.159
959	0.16
960	0.16
960	0.16
960	0.16
961	0.16
961	0.16
962	0.159
962	0.159
963	0.158
963	0.158
963	0.158
964	0.157
964	0.157
965	0.157
965	0.156
966	0.156
966	0.156
966	0.156
967	0.155
967	0.155
968	0.155
968	0.155
968	0.155
969	0.154
969	0.153
970	0.153
970	0.152
971	0.151
971	0.15
971	0.149
972	0.148
972	0.148
973	0.147
973	0.146
974	0.146
974	0.146
974	0.146
975	0.146
975	0.147
976	0.147
976	0.148
976	0.148
977	0.148
977	0.148
978	0.148
978	0.148
979	0.148
979	0.148
979	0.148
980	0.148
980	0.148
981	0.148
981	0.148
982	0.148
982	0.148
982	0.148
983	0.148
983	0.148
984	0.148
984	0.148
984	0.148
985	0.147
985	0.147
986	0.147
986	0.146
987	0.146
987	0.146
987	0.145
988	0.145
988	0.145
989	0.144
989	0.144
990	0.144
990	0.144
990	0.143
991	0.143
991	0.143
992	0.142
992	0.141
992	0.141
993	0.14
993	0.139
994	0.138
994	0.137
995	0.136
995	0.136
995	0.136
996	0.135
996	0.135
997	0.135
997	0.136
997	0.136
998	0.136
998	0.137
999	0.138
999	0.138
1000	0.139
1000	0.14
1000	0.14
1001	0.141
1001	0.141
1002	0.141
1002	0.142
1003	0.142
1003	0.141
1003	0.141
1004	0.141
1004	0.14
1005	0.139
1005	0.139
1005	0.138
1006	0.138
1006	0.137
1007	0.137
1007	0.137
1008	0.136
1008	0.136
1008	0.136
1009	0.136
1009	0.135
1010	0.135
1010	0.135
1010	0.134
1011	0.134
1011	0.133
1012	0.133
1012	0.132
1013	0.131
1013	0.131
1013	0.13
1014	0.13
1014	0.129
1015	0.129
1015	0.128
1016	0.128
1016	0.128
1016	0.128
1017	0.127
1017	0.127
1018	0.127
1018	0.127
1018	0.127
1019	0.127
1019	0.127
1020	0.127
1020	0.127
1021	0.128
1021	0.128
1021	0.128
1022	0.129
1022	0.129
1023	0.129
1023	0.129
1023	0.13
1024	0.129
1024	0.13
1025	0.129
1025	0.129
1026	0.129
1026	0.129
1026	0.129
1027	0.129
1027	0.129
1028	0.129
1028	0.129
1028	0.129
1029	0.129
1029	0.129
1030	0.129
1030	0.129
1031	0.129
1031	0.129
1031	0.129
1032	0.129
1032	0.129
1033	0.129
1033	0.128
1033	0.128
1034	0.128
1034	0.128
1035	0.128
1035	0.128
1036	0.128
1036	0.128
1036	0.128
1037	0.127
1037	0.127
1038	0.127
1038	0.127
1039	0.126
1039	0.126
1039	0.126
1040	0.125
1040	0.125
1041	0.125
1041	0.124
1041	0.124
1042	0.124
1042	0.124
1043	0.124
1043	0.123
1044	0.123
1044	0.123
1044	0.123
1045	0.122
1045	0.122
1046	0.121
1046	0.121
1046	0.12
1047	0.12
1047	0.12
1048	0.119
1048	0.119
1049	0.119
1049	0.119
1049	0.118
1050	0.118
1050	0.118
1051	0.118
1051	0.118
1051	0.117
1052	0.117
1052	0.116
1053	0.116
1053	0.115
1053	0.115
1054	0.115
1054	0.114
1055	0.114
1055	0.113
1056	0.112
1056	0.112
1056	0.111
1057	0.111
1057	0.11
1058	0.11
1058	0.109
1058	0.108
1059	0.107
1059	0.107
1060	0.106
1060	0.106
1061	0.106
1061	0.105
1061	0.105
1062	0.104
1062	0.104
1063	0.104
1063	0.104
1063	0.104
1064	0.104
1064	0.104
1065	0.103
1065	0.103
1066	0.103
1066	0.103
1066	0.103
1067	0.103
1067	0.102
1068	0.102
1068	0.102
1068	0.102
1069	0.103
1069	0.102
1070	0.102
1070	0.102
1071	0.102
1071	0.102
1071	0.101
1072	0.101
1072	0.101
1073	0.1
1073	0.1
1073	0.099
1074	0.1
1074	0.1
1075	0.1
1075	0.1
1076	0.1
1076	0.101
1076	0.101
1077	0.102
1077	0.102
1078	0.102
1078	0.102
1078	0.102
1079	0.102
1079	0.102
1080	0.101
1080	0.101
1080	0.101
1081	0.101
1081	0.101
1082	0.101
1082	0.101
1083	0.101
1083	0.101
1083	0.101
1084	0.101
1084	0.101
1085	0.101
1085	0.101
1085	0.101
1086	0.101
1086	0.101
1087	0.101
1087	0.1
1088	0.1
1088	0.099
1088	0.099
1089	0.099
1089	0.098
1090	0.097
1090	0.096
1090	0.096
1091	0.096
1091	0.096
1092	0.096
1092	0.096
1092	0.096
1093	0.096
1093	0.097
1094	0.097
1094	0.097
1095	0.097
1095	0.097
1095	0.096
1096	0.094
1096	0.094
1097	0.093
1097	0.092
1097	0.091
1098	0.09
1098	0.088
1099	0.088
1099	0.087
1100	0.086
1100	0.085
1100	0.084
1101	0.083
1101	0.082
1102	0.082
1102	0.081
1102	0.08
1103	0.08
1103	0.08
1104	0.079
1104	0.079
1104	0.078
1105	0.078
1105	0.076
1106	0.075
1106	0.074
1107	0.074
1107	0.075
1107	0.074
1108	0.072
1108	0.071
1109	0.07
1109	0.07
1109	0.072
1110	0.073
1110	0.074
1111	0.072
1111	0.072
