Data from reversibility-20sec_Absorbance__8007__000000000008007.txt Node

Date: Thu Dec 07 08:42:06 CET 2023
User: Marek
Spectrometer: MAYP115816
Trigger mode: 0
Integration Time (sec): 2.000000E-1
Scans to average: 10
Electric dark correction enabled: true
Nonlinearity correction enabled: true
Boxcar width: 5
XAxis mode: Wavelengths
Number of Pixels in Spectrum: 2068
>>>>>Begin Spectral Data<<<<<
199	-0.122
199	-0.094
200	-0.035
200	0.016
201	0.041
201	0.054
202	0.062
202	0.071
203	0.081
203	0.086
204	0.101
204	0.115
205	0.127
205	0.135
205	0.131
206	0.13
206	0.134
207	0.137
207	0.136
208	0.133
208	0.133
209	0.134
209	0.13
210	0.129
210	0.129
211	0.133
211	0.139
212	0.135
212	0.135
213	0.139
213	0.144
213	0.142
214	0.144
214	0.147
215	0.149
215	0.15
216	0.15
216	0.146
217	0.153
217	0.155
218	0.155
218	0.157
219	0.163
219	0.166
220	0.167
220	0.168
221	0.17
221	0.172
221	0.179
222	0.182
222	0.186
223	0.193
223	0.199
224	0.206
224	0.211
225	0.221
225	0.231
226	0.243
226	0.254
227	0.263
227	0.272
228	0.288
228	0.3
229	0.313
229	0.335
229	0.358
230	0.382
230	0.411
231	0.439
231	0.477
232	0.514
232	0.559
233	0.601
233	0.652
234	0.705
234	0.759
235	0.812
235	0.866
236	0.916
236	0.97
236	1.021
237	1.073
237	1.12
238	1.167
238	1.21
239	1.255
239	1.295
240	1.335
240	1.369
241	1.405
241	1.44
242	1.473
242	1.504
243	1.532
243	1.558
243	1.584
244	1.606
244	1.628
245	1.647
245	1.667
246	1.686
246	1.702
247	1.716
247	1.728
248	1.744
248	1.757
249	1.767
249	1.774
250	1.779
250	1.787
250	1.79
251	1.795
251	1.796
252	1.799
252	1.799
253	1.799
253	1.796
254	1.795
254	1.796
255	1.795
255	1.794
256	1.793
256	1.792
257	1.793
257	1.792
258	1.793
258	1.794
258	1.793
259	1.793
259	1.793
260	1.793
260	1.794
261	1.794
261	1.796
262	1.799
262	1.799
263	1.8
263	1.801
264	1.803
264	1.803
265	1.804
265	1.805
265	1.806
266	1.806
266	1.806
267	1.804
267	1.805
268	1.804
268	1.804
269	1.804
269	1.803
270	1.802
270	1.799
271	1.797
271	1.796
272	1.792
272	1.791
272	1.789
273	1.785
273	1.78
274	1.775
274	1.77
275	1.764
275	1.758
276	1.751
276	1.744
277	1.736
277	1.725
278	1.713
278	1.702
278	1.688
279	1.673
279	1.655
280	1.634
280	1.608
281	1.578
281	1.543
282	1.505
282	1.467
283	1.427
283	1.389
284	1.35
284	1.312
285	1.276
285	1.244
285	1.214
286	1.187
286	1.164
287	1.143
287	1.125
288	1.109
288	1.096
289	1.085
289	1.075
290	1.066
290	1.058
291	1.051
291	1.045
292	1.04
292	1.035
292	1.03
293	1.026
293	1.022
294	1.017
294	1.014
295	1.01
295	1.007
296	1.003
296	1
297	0.996
297	0.993
298	0.99
298	0.986
298	0.983
299	0.98
299	0.976
300	0.973
300	0.97
301	0.967
301	0.964
302	0.961
302	0.958
303	0.955
303	0.952
304	0.95
304	0.947
305	0.945
305	0.942
305	0.939
306	0.937
306	0.934
307	0.932
307	0.929
308	0.926
308	0.924
309	0.921
309	0.917
310	0.914
310	0.911
311	0.908
311	0.904
311	0.901
312	0.897
312	0.894
313	0.89
313	0.886
314	0.882
314	0.878
315	0.874
315	0.869
316	0.864
316	0.859
317	0.855
317	0.85
318	0.844
318	0.839
318	0.833
319	0.828
319	0.822
320	0.816
320	0.811
321	0.804
321	0.798
322	0.792
322	0.785
323	0.779
323	0.772
324	0.766
324	0.759
324	0.752
325	0.745
325	0.738
326	0.731
326	0.724
327	0.717
327	0.71
328	0.703
328	0.695
329	0.688
329	0.68
330	0.673
330	0.666
330	0.659
331	0.652
331	0.645
332	0.638
332	0.631
333	0.623
333	0.616
334	0.609
334	0.603
335	0.596
335	0.589
336	0.582
336	0.575
336	0.568
337	0.562
337	0.555
338	0.549
338	0.543
339	0.536
339	0.53
340	0.524
340	0.518
341	0.512
341	0.507
342	0.501
342	0.496
342	0.49
343	0.485
343	0.479
344	0.474
344	0.469
345	0.464
345	0.46
346	0.455
346	0.45
347	0.446
347	0.442
348	0.437
348	0.433
348	0.429
349	0.425
349	0.421
350	0.418
350	0.414
351	0.411
351	0.407
352	0.404
352	0.401
353	0.398
353	0.395
354	0.392
354	0.389
354	0.386
355	0.383
355	0.38
356	0.377
356	0.374
357	0.371
357	0.368
358	0.365
358	0.362
359	0.36
359	0.358
360	0.356
360	0.354
360	0.352
361	0.35
361	0.348
362	0.346
362	0.344
363	0.342
363	0.341
364	0.338
364	0.336
365	0.334
365	0.333
366	0.331
366	0.329
366	0.327
367	0.325
367	0.323
368	0.322
368	0.32
369	0.319
369	0.317
370	0.316
370	0.314
371	0.313
371	0.311
372	0.31
372	0.309
372	0.308
373	0.307
373	0.306
374	0.305
374	0.304
375	0.303
375	0.302
376	0.301
376	0.3
377	0.299
377	0.298
378	0.297
378	0.296
378	0.295
379	0.295
379	0.294
380	0.293
380	0.292
381	0.291
381	0.291
382	0.29
382	0.289
383	0.289
383	0.288
383	0.288
384	0.287
384	0.286
385	0.286
385	0.285
386	0.285
386	0.284
387	0.284
387	0.283
388	0.283
388	0.282
389	0.282
389	0.282
389	0.281
390	0.281
390	0.28
391	0.28
391	0.279
392	0.279
392	0.278
393	0.278
393	0.277
394	0.277
394	0.276
394	0.276
395	0.276
395	0.276
396	0.275
396	0.275
397	0.275
397	0.274
398	0.274
398	0.274
399	0.273
399	0.273
400	0.273
400	0.272
400	0.272
401	0.271
401	0.271
402	0.27
402	0.27
403	0.27
403	0.269
404	0.269
404	0.268
405	0.268
405	0.268
405	0.268
406	0.267
406	0.267
407	0.267
407	0.266
408	0.266
408	0.266
409	0.266
409	0.266
410	0.265
410	0.265
411	0.265
411	0.264
411	0.264
412	0.264
412	0.263
413	0.263
413	0.263
414	0.263
414	0.262
415	0.262
415	0.261
416	0.261
416	0.261
416	0.26
417	0.26
417	0.26
418	0.26
418	0.259
419	0.259
419	0.258
420	0.258
420	0.257
421	0.257
421	0.256
421	0.256
422	0.255
422	0.255
423	0.255
423	0.254
424	0.254
424	0.254
425	0.254
425	0.254
426	0.253
426	0.253
427	0.253
427	0.253
427	0.252
428	0.252
428	0.251
429	0.251
429	0.251
430	0.25
430	0.25
431	0.25
431	0.25
432	0.25
432	0.249
432	0.249
433	0.249
433	0.249
434	0.249
434	0.249
435	0.249
435	0.249
436	0.248
436	0.248
437	0.248
437	0.247
437	0.247
438	0.247
438	0.247
439	0.246
439	0.246
440	0.246
440	0.245
441	0.245
441	0.245
442	0.245
442	0.244
442	0.244
443	0.244
443	0.244
444	0.244
444	0.243
445	0.243
445	0.243
446	0.243
446	0.243
447	0.243
447	0.243
447	0.243
448	0.243
448	0.242
449	0.242
449	0.242
450	0.242
450	0.242
451	0.242
451	0.242
452	0.242
452	0.242
452	0.242
453	0.242
453	0.241
454	0.241
454	0.241
455	0.241
455	0.241
456	0.24
456	0.24
457	0.24
457	0.24
458	0.24
458	0.24
458	0.24
459	0.239
459	0.239
460	0.239
460	0.239
461	0.239
461	0.239
462	0.239
462	0.239
463	0.239
463	0.239
463	0.239
464	0.239
464	0.239
465	0.238
465	0.238
466	0.238
466	0.238
467	0.238
467	0.238
467	0.238
468	0.239
468	0.239
469	0.239
469	0.239
470	0.24
470	0.24
471	0.24
471	0.24
472	0.24
472	0.24
472	0.24
473	0.24
473	0.24
474	0.24
474	0.24
475	0.24
475	0.24
476	0.24
476	0.241
477	0.241
477	0.241
477	0.241
478	0.242
478	0.242
479	0.242
479	0.243
480	0.243
480	0.244
481	0.244
481	0.244
482	0.244
482	0.245
482	0.245
483	0.246
483	0.246
484	0.246
484	0.246
485	0.247
485	0.247
486	0.247
486	0.247
487	0.247
487	0.248
487	0.248
488	0.248
488	0.249
489	0.249
489	0.251
490	0.251
490	0.252
491	0.253
491	0.254
492	0.255
492	0.256
492	0.257
493	0.258
493	0.258
494	0.259
494	0.26
495	0.26
495	0.261
496	0.262
496	0.263
496	0.263
497	0.264
497	0.264
498	0.265
498	0.266
499	0.267
499	0.268
500	0.269
500	0.27
501	0.27
501	0.271
501	0.272
502	0.273
502	0.273
503	0.274
503	0.275
504	0.275
504	0.276
505	0.277
505	0.278
506	0.279
506	0.279
506	0.28
507	0.281
507	0.282
508	0.282
508	0.283
509	0.284
509	0.284
510	0.285
510	0.286
511	0.286
511	0.287
511	0.288
512	0.288
512	0.289
513	0.29
513	0.29
514	0.291
514	0.291
515	0.292
515	0.292
515	0.292
516	0.293
516	0.293
517	0.294
517	0.294
518	0.294
518	0.294
519	0.294
519	0.295
520	0.295
520	0.295
520	0.296
521	0.296
521	0.296
522	0.296
522	0.296
523	0.296
523	0.296
524	0.296
524	0.296
524	0.296
525	0.296
525	0.296
526	0.296
526	0.295
527	0.295
527	0.295
528	0.295
528	0.294
529	0.294
529	0.293
529	0.293
530	0.292
530	0.291
531	0.291
531	0.29
532	0.289
532	0.289
533	0.288
533	0.287
533	0.286
534	0.285
534	0.285
535	0.284
535	0.283
536	0.282
536	0.281
537	0.28
537	0.28
538	0.279
538	0.278
538	0.277
539	0.276
539	0.275
540	0.274
540	0.274
541	0.273
541	0.272
542	0.271
542	0.269
542	0.268
543	0.267
543	0.266
544	0.265
544	0.263
545	0.262
545	0.261
546	0.26
546	0.258
547	0.257
547	0.256
547	0.255
548	0.254
548	0.253
549	0.252
549	0.251
550	0.249
550	0.248
551	0.247
551	0.246
551	0.245
552	0.244
552	0.243
553	0.241
553	0.24
554	0.239
554	0.238
555	0.237
555	0.235
556	0.234
556	0.233
556	0.233
557	0.232
557	0.231
558	0.23
558	0.229
559	0.229
559	0.227
560	0.227
560	0.226
560	0.225
561	0.224
561	0.223
562	0.221
562	0.22
563	0.218
563	0.217
564	0.215
564	0.214
564	0.213
565	0.213
565	0.212
566	0.211
566	0.21
567	0.209
567	0.208
568	0.207
568	0.206
568	0.205
569	0.204
569	0.203
570	0.202
570	0.201
571	0.199
571	0.198
572	0.197
572	0.196
573	0.195
573	0.194
573	0.193
574	0.193
574	0.192
575	0.191
575	0.191
576	0.19
576	0.189
577	0.188
577	0.187
577	0.187
578	0.186
578	0.185
579	0.185
579	0.185
580	0.184
580	0.183
581	0.182
581	0.181
581	0.181
582	0.181
582	0.18
583	0.18
583	0.179
584	0.178
584	0.176
585	0.176
585	0.175
585	0.175
586	0.174
586	0.174
587	0.173
587	0.173
588	0.172
588	0.171
589	0.171
589	0.171
590	0.17
590	0.17
590	0.169
591	0.169
591	0.168
592	0.167
592	0.166
593	0.166
593	0.165
594	0.164
594	0.164
594	0.163
595	0.162
595	0.161
596	0.161
596	0.16
597	0.161
597	0.161
598	0.161
598	0.16
598	0.16
599	0.16
599	0.159
600	0.158
600	0.158
601	0.157
601	0.157
602	0.157
602	0.156
602	0.155
603	0.155
603	0.155
604	0.155
604	0.155
605	0.155
605	0.155
606	0.154
606	0.153
606	0.153
607	0.152
607	0.152
608	0.152
608	0.151
609	0.15
609	0.15
610	0.149
610	0.148
610	0.148
611	0.148
611	0.148
612	0.148
612	0.148
613	0.148
613	0.148
614	0.147
614	0.147
614	0.147
615	0.147
615	0.147
616	0.147
616	0.147
617	0.147
617	0.147
618	0.146
618	0.146
618	0.146
619	0.146
619	0.146
620	0.146
620	0.145
621	0.145
621	0.144
622	0.144
622	0.143
622	0.143
623	0.142
623	0.142
624	0.141
624	0.141
625	0.141
625	0.14
626	0.14
626	0.14
626	0.14
627	0.14
627	0.14
628	0.14
628	0.14
629	0.139
629	0.139
630	0.138
630	0.138
630	0.138
631	0.138
631	0.137
632	0.137
632	0.137
633	0.136
633	0.136
634	0.136
634	0.137
634	0.136
635	0.136
635	0.136
636	0.136
636	0.136
637	0.136
637	0.135
638	0.135
638	0.135
638	0.135
639	0.134
639	0.134
640	0.134
640	0.133
641	0.133
641	0.133
642	0.133
642	0.133
642	0.133
643	0.133
643	0.133
644	0.133
644	0.133
645	0.133
645	0.133
646	0.133
646	0.133
646	0.133
647	0.133
647	0.132
648	0.132
648	0.131
649	0.131
649	0.13
650	0.13
650	0.13
650	0.13
651	0.13
651	0.13
652	0.13
652	0.13
653	0.131
653	0.133
653	0.138
654	0.11
654	0.089
655	0.088
655	0.088
656	0.088
656	0.088
657	0.088
657	0.089
657	0.089
658	0.088
658	0.08
659	0.1
659	0.127
660	0.132
660	0.131
661	0.131
661	0.13
661	0.13
662	0.129
662	0.129
663	0.128
663	0.128
664	0.128
664	0.127
665	0.127
665	0.127
665	0.128
666	0.128
666	0.128
667	0.128
667	0.128
668	0.129
668	0.129
669	0.129
669	0.129
669	0.129
670	0.129
670	0.129
671	0.129
671	0.129
672	0.129
672	0.128
672	0.128
673	0.127
673	0.127
674	0.127
674	0.127
675	0.127
675	0.127
676	0.127
676	0.127
676	0.127
677	0.127
677	0.127
678	0.127
678	0.127
679	0.127
679	0.127
680	0.127
680	0.127
680	0.127
681	0.127
681	0.128
682	0.128
682	0.128
683	0.129
683	0.129
684	0.129
684	0.128
684	0.128
685	0.128
685	0.128
686	0.128
686	0.128
687	0.127
687	0.127
687	0.127
688	0.127
688	0.127
689	0.128
689	0.129
690	0.128
690	0.128
691	0.128
691	0.128
691	0.128
692	0.128
692	0.129
693	0.129
693	0.13
694	0.129
694	0.129
695	0.13
695	0.131
695	0.131
696	0.131
696	0.131
697	0.131
697	0.13
698	0.13
698	0.13
698	0.13
699	0.13
699	0.13
700	0.129
700	0.129
701	0.129
701	0.128
702	0.128
702	0.127
702	0.127
703	0.126
703	0.126
704	0.125
704	0.125
705	0.125
705	0.125
705	0.124
706	0.125
706	0.125
707	0.125
707	0.126
708	0.126
708	0.127
709	0.127
709	0.127
709	0.127
710	0.127
710	0.127
711	0.128
711	0.128
712	0.128
712	0.127
713	0.127
713	0.127
713	0.126
714	0.126
714	0.126
715	0.126
715	0.125
716	0.124
716	0.124
716	0.123
717	0.123
717	0.123
718	0.123
718	0.123
719	0.124
719	0.124
720	0.125
720	0.125
720	0.126
721	0.127
721	0.128
722	0.129
722	0.129
723	0.13
723	0.13
723	0.13
724	0.129
724	0.129
725	0.128
725	0.127
726	0.126
726	0.125
727	0.125
727	0.124
727	0.124
728	0.124
728	0.124
729	0.124
729	0.124
730	0.124
730	0.125
730	0.125
731	0.126
731	0.126
732	0.126
732	0.127
733	0.127
733	0.127
734	0.127
734	0.127
734	0.127
735	0.128
735	0.127
736	0.127
736	0.127
737	0.127
737	0.127
737	0.127
738	0.126
738	0.126
739	0.126
739	0.126
740	0.126
740	0.126
741	0.127
741	0.127
741	0.127
742	0.128
742	0.128
743	0.129
743	0.129
744	0.129
744	0.129
744	0.129
745	0.129
745	0.128
746	0.128
746	0.128
747	0.128
747	0.128
748	0.128
748	0.128
748	0.128
749	0.128
749	0.129
750	0.129
750	0.129
751	0.129
751	0.129
751	0.129
752	0.129
752	0.128
753	0.128
753	0.127
754	0.127
754	0.126
754	0.125
755	0.125
755	0.125
756	0.124
756	0.123
757	0.123
757	0.123
758	0.123
758	0.123
758	0.123
759	0.123
759	0.123
760	0.123
760	0.123
761	0.123
761	0.124
761	0.125
762	0.125
762	0.125
763	0.125
763	0.124
764	0.124
764	0.124
764	0.124
765	0.124
765	0.123
766	0.123
766	0.123
767	0.123
767	0.122
768	0.121
768	0.122
768	0.122
769	0.122
769	0.122
770	0.122
770	0.122
771	0.122
771	0.122
771	0.122
772	0.123
772	0.123
773	0.124
773	0.124
774	0.124
774	0.125
775	0.125
775	0.125
775	0.126
776	0.126
776	0.127
777	0.128
777	0.128
778	0.128
778	0.127
778	0.127
779	0.126
779	0.125
780	0.124
780	0.122
781	0.121
781	0.12
781	0.119
782	0.118
782	0.118
783	0.117
783	0.118
784	0.117
784	0.118
784	0.118
785	0.119
785	0.119
786	0.119
786	0.12
787	0.12
787	0.12
788	0.12
788	0.119
788	0.119
789	0.119
789	0.119
790	0.12
790	0.119
791	0.119
791	0.119
791	0.118
792	0.119
792	0.118
793	0.118
793	0.117
794	0.117
794	0.116
794	0.116
795	0.116
795	0.116
796	0.116
796	0.116
797	0.115
797	0.115
797	0.116
798	0.116
798	0.116
799	0.116
799	0.116
800	0.116
800	0.116
801	0.117
801	0.117
801	0.117
802	0.118
802	0.118
803	0.119
803	0.119
804	0.119
804	0.12
804	0.12
805	0.12
805	0.12
806	0.119
806	0.119
807	0.119
807	0.119
807	0.118
808	0.118
808	0.118
809	0.117
809	0.117
810	0.117
810	0.117
810	0.117
811	0.117
811	0.118
812	0.118
812	0.118
813	0.118
813	0.118
813	0.118
814	0.118
814	0.118
815	0.118
815	0.118
816	0.118
816	0.117
817	0.116
817	0.116
817	0.116
818	0.115
818	0.115
819	0.115
819	0.114
820	0.113
820	0.113
820	0.113
821	0.113
821	0.113
822	0.112
822	0.112
823	0.112
823	0.112
823	0.112
824	0.113
824	0.114
825	0.115
825	0.116
826	0.116
826	0.117
826	0.117
827	0.118
827	0.118
828	0.119
828	0.119
829	0.119
829	0.12
829	0.12
830	0.12
830	0.121
831	0.121
831	0.122
832	0.121
832	0.121
832	0.121
833	0.121
833	0.12
834	0.12
834	0.119
835	0.118
835	0.117
835	0.116
836	0.116
836	0.115
837	0.115
837	0.114
838	0.113
838	0.112
839	0.112
839	0.111
839	0.11
840	0.109
840	0.108
841	0.107
841	0.106
842	0.105
842	0.104
842	0.104
843	0.103
843	0.102
844	0.102
844	0.101
845	0.101
845	0.1
845	0.101
846	0.101
846	0.101
847	0.101
847	0.101
848	0.102
848	0.102
848	0.102
849	0.102
849	0.102
850	0.101
850	0.101
851	0.1
851	0.1
851	0.1
852	0.099
852	0.099
853	0.099
853	0.099
854	0.1
854	0.101
854	0.102
855	0.103
855	0.104
856	0.105
856	0.107
857	0.108
857	0.109
857	0.109
858	0.109
858	0.109
859	0.109
859	0.109
860	0.108
860	0.108
860	0.107
861	0.106
861	0.106
862	0.105
862	0.104
863	0.103
863	0.103
863	0.103
864	0.103
864	0.103
865	0.103
865	0.103
866	0.103
866	0.103
866	0.103
867	0.103
867	0.103
868	0.103
868	0.103
869	0.103
869	0.103
869	0.103
870	0.103
870	0.103
871	0.103
871	0.103
872	0.103
872	0.103
872	0.103
873	0.103
873	0.102
874	0.101
874	0.101
875	0.101
875	0.1
875	0.1
876	0.1
876	0.1
877	0.099
877	0.099
878	0.099
878	0.099
878	0.099
879	0.099
879	0.099
880	0.099
880	0.099
881	0.1
881	0.1
881	0.1
882	0.1
882	0.1
883	0.1
883	0.1
884	0.1
884	0.1
884	0.1
885	0.1
885	0.099
886	0.099
886	0.099
887	0.099
887	0.098
887	0.098
888	0.098
888	0.097
889	0.097
889	0.097
890	0.097
890	0.098
890	0.098
891	0.098
891	0.098
892	0.098
892	0.098
893	0.098
893	0.098
893	0.097
894	0.097
894	0.096
895	0.096
895	0.096
895	0.096
896	0.096
896	0.096
897	0.096
897	0.096
898	0.096
898	0.097
898	0.097
899	0.097
899	0.096
900	0.096
900	0.096
901	0.095
901	0.095
901	0.095
902	0.094
902	0.094
903	0.094
903	0.094
904	0.093
904	0.093
904	0.093
905	0.093
905	0.092
906	0.092
906	0.092
907	0.092
907	0.092
907	0.092
908	0.092
908	0.091
909	0.091
909	0.091
910	0.09
910	0.09
910	0.09
911	0.089
911	0.089
912	0.088
912	0.088
913	0.087
913	0.087
913	0.087
914	0.086
914	0.086
915	0.085
915	0.085
916	0.085
916	0.084
916	0.084
917	0.084
917	0.083
918	0.083
918	0.083
918	0.082
919	0.082
919	0.082
920	0.081
920	0.081
921	0.081
921	0.081
921	0.081
922	0.081
922	0.081
923	0.082
923	0.082
924	0.083
924	0.083
924	0.084
925	0.084
925	0.084
926	0.085
926	0.085
927	0.085
927	0.086
927	0.086
928	0.086
928	0.086
929	0.086
929	0.086
930	0.086
930	0.086
930	0.086
931	0.086
931	0.086
932	0.086
932	0.086
933	0.086
933	0.085
933	0.085
934	0.084
934	0.084
935	0.083
935	0.083
935	0.082
936	0.082
936	0.081
937	0.081
937	0.08
938	0.079
938	0.078
938	0.078
939	0.077
939	0.076
940	0.076
940	0.076
941	0.076
941	0.076
941	0.076
942	0.077
942	0.078
943	0.078
943	0.079
944	0.079
944	0.08
944	0.081
945	0.082
945	0.082
946	0.082
946	0.083
946	0.083
947	0.083
947	0.083
948	0.083
948	0.083
949	0.082
949	0.082
949	0.081
950	0.08
950	0.08
951	0.079
951	0.078
952	0.077
952	0.076
952	0.075
953	0.075
953	0.074
954	0.074
954	0.074
955	0.074
955	0.073
955	0.074
956	0.074
956	0.075
957	0.075
957	0.076
957	0.076
958	0.077
958	0.077
959	0.078
959	0.078
960	0.079
960	0.079
960	0.079
961	0.079
961	0.078
962	0.078
962	0.078
963	0.077
963	0.077
963	0.077
964	0.076
964	0.076
965	0.076
965	0.076
966	0.076
966	0.076
966	0.076
967	0.076
967	0.077
968	0.077
968	0.078
968	0.078
969	0.077
969	0.077
970	0.077
970	0.076
971	0.075
971	0.075
971	0.074
972	0.073
972	0.073
973	0.072
973	0.072
974	0.071
974	0.071
974	0.072
975	0.072
975	0.072
976	0.073
976	0.073
976	0.073
977	0.074
977	0.074
978	0.074
978	0.075
979	0.075
979	0.075
979	0.075
980	0.075
980	0.076
981	0.075
981	0.075
982	0.075
982	0.075
982	0.075
983	0.074
983	0.074
984	0.074
984	0.074
984	0.073
985	0.073
985	0.073
986	0.073
986	0.072
987	0.072
987	0.072
987	0.072
988	0.072
988	0.071
989	0.071
989	0.07
990	0.07
990	0.069
990	0.069
991	0.068
991	0.068
992	0.068
992	0.067
992	0.066
993	0.065
993	0.064
994	0.064
994	0.063
995	0.062
995	0.062
995	0.062
996	0.062
996	0.062
997	0.062
997	0.062
997	0.063
998	0.063
998	0.063
999	0.064
999	0.064
1000	0.065
1000	0.065
1000	0.065
1001	0.065
1001	0.065
1002	0.065
1002	0.065
1003	0.065
1003	0.065
1003	0.065
1004	0.065
1004	0.065
1005	0.065
1005	0.064
1005	0.064
1006	0.064
1006	0.064
1007	0.063
1007	0.063
1008	0.062
1008	0.062
1008	0.062
1009	0.062
1009	0.061
1010	0.061
1010	0.061
1010	0.061
1011	0.06
1011	0.06
1012	0.06
1012	0.059
1013	0.059
1013	0.059
1013	0.058
1014	0.058
1014	0.058
1015	0.058
1015	0.058
1016	0.058
1016	0.058
1016	0.058
1017	0.059
1017	0.059
1018	0.059
1018	0.059
1018	0.059
1019	0.059
1019	0.059
1020	0.06
1020	0.06
1021	0.06
1021	0.061
1021	0.061
1022	0.061
1022	0.062
1023	0.062
1023	0.062
1023	0.063
1024	0.063
1024	0.063
1025	0.063
1025	0.063
1026	0.063
1026	0.062
1026	0.062
1027	0.063
1027	0.062
1028	0.062
1028	0.063
1028	0.063
1029	0.063
1029	0.063
1030	0.062
1030	0.062
1031	0.063
1031	0.063
1031	0.063
1032	0.063
1032	0.063
1033	0.063
1033	0.063
1033	0.063
1034	0.064
1034	0.064
1035	0.064
1035	0.064
1036	0.064
1036	0.064
1036	0.064
1037	0.064
1037	0.064
1038	0.064
1038	0.064
1039	0.063
1039	0.063
1039	0.063
1040	0.063
1040	0.062
1041	0.062
1041	0.062
1041	0.062
1042	0.061
1042	0.061
1043	0.061
1043	0.061
1044	0.06
1044	0.06
1044	0.06
1045	0.06
1045	0.059
1046	0.059
1046	0.059
1046	0.059
1047	0.059
1047	0.058
1048	0.059
1048	0.058
1049	0.059
1049	0.059
1049	0.058
1050	0.058
1050	0.058
1051	0.057
1051	0.057
1051	0.056
1052	0.056
1052	0.055
1053	0.055
1053	0.054
1053	0.053
1054	0.053
1054	0.053
1055	0.052
1055	0.052
1056	0.052
1056	0.051
1056	0.051
1057	0.051
1057	0.05
1058	0.05
1058	0.05
1058	0.049
1059	0.049
1059	0.049
1060	0.048
1060	0.048
1061	0.048
1061	0.048
1061	0.048
1062	0.048
1062	0.048
1063	0.049
1063	0.049
1063	0.049
1064	0.049
1064	0.05
1065	0.05
1065	0.05
1066	0.05
1066	0.05
1066	0.05
1067	0.05
1067	0.05
1068	0.05
1068	0.05
1068	0.05
1069	0.049
1069	0.049
1070	0.049
1070	0.048
1071	0.048
1071	0.048
1071	0.047
1072	0.047
1072	0.046
1073	0.046
1073	0.046
1073	0.046
1074	0.046
1074	0.046
1075	0.046
1075	0.046
1076	0.047
1076	0.048
1076	0.048
1077	0.048
1077	0.048
1078	0.048
1078	0.048
1078	0.049
1079	0.048
1079	0.048
1080	0.048
1080	0.048
1080	0.048
1081	0.047
1081	0.047
1082	0.048
1082	0.048
1083	0.048
1083	0.048
1083	0.048
1084	0.048
1084	0.049
1085	0.049
1085	0.049
1085	0.05
1086	0.05
1086	0.049
1087	0.049
1087	0.049
1088	0.049
1088	0.049
1088	0.049
1089	0.048
1089	0.047
1090	0.046
1090	0.046
1090	0.045
1091	0.045
1091	0.045
1092	0.045
1092	0.046
1092	0.045
1093	0.045
1093	0.046
1094	0.045
1094	0.045
1095	0.045
1095	0.045
1095	0.044
1096	0.044
1096	0.043
1097	0.042
1097	0.041
1097	0.041
1098	0.041
1098	0.04
1099	0.04
1099	0.038
1100	0.038
1100	0.037
1100	0.036
1101	0.035
1101	0.034
1102	0.034
1102	0.033
1102	0.032
1103	0.032
1103	0.031
1104	0.031
1104	0.031
1104	0.03
1105	0.029
1105	0.029
1106	0.028
1106	0.026
1107	0.027
1107	0.026
1107	0.024
1108	0.023
1108	0.023
1109	0.022
1109	0.022
1109	0.021
1110	0.022
1110	0.019
1111	0.021
1111	0.017
