Data from reversibility-20sec_Absorbance__4707__000000000004707.txt Node

Date: Wed Dec 06 14:22:05 CET 2023
User: Marek
Spectrometer: MAYP115816
Trigger mode: 0
Integration Time (sec): 2.000000E-1
Scans to average: 10
Electric dark correction enabled: true
Nonlinearity correction enabled: true
Boxcar width: 5
XAxis mode: Wavelengths
Number of Pixels in Spectrum: 2068
>>>>>Begin Spectral Data<<<<<
199	-0.206
199	-0.186
200	-0.111
200	-0.059
201	-0.028
201	-0.011
202	0.002
202	0.011
203	0.019
203	0.021
204	0.033
204	0.046
205	0.061
205	0.066
205	0.063
206	0.062
206	0.062
207	0.064
207	0.065
208	0.064
208	0.063
209	0.067
209	0.064
210	0.064
210	0.065
211	0.067
211	0.071
212	0.068
212	0.071
213	0.072
213	0.073
213	0.075
214	0.08
214	0.083
215	0.083
215	0.085
216	0.085
216	0.082
217	0.086
217	0.086
218	0.084
218	0.088
219	0.092
219	0.09
220	0.091
220	0.091
221	0.088
221	0.092
221	0.096
222	0.1
222	0.103
223	0.111
223	0.113
224	0.117
224	0.126
225	0.133
225	0.145
226	0.156
226	0.166
227	0.178
227	0.19
228	0.207
228	0.223
229	0.241
229	0.264
229	0.288
230	0.314
230	0.342
231	0.374
231	0.411
232	0.449
232	0.492
233	0.534
233	0.581
234	0.629
234	0.681
235	0.733
235	0.786
236	0.838
236	0.892
236	0.944
237	0.996
237	1.046
238	1.094
238	1.144
239	1.194
239	1.236
240	1.277
240	1.315
241	1.352
241	1.388
242	1.42
242	1.45
243	1.478
243	1.505
243	1.53
244	1.553
244	1.576
245	1.594
245	1.616
246	1.636
246	1.65
247	1.662
247	1.679
248	1.694
248	1.708
249	1.715
249	1.722
250	1.731
250	1.74
250	1.746
251	1.749
251	1.755
252	1.761
252	1.763
253	1.766
253	1.764
254	1.765
254	1.768
255	1.765
255	1.766
256	1.764
256	1.765
257	1.766
257	1.765
258	1.765
258	1.766
258	1.766
259	1.767
259	1.767
260	1.768
260	1.769
261	1.769
261	1.772
262	1.774
262	1.775
263	1.778
263	1.777
264	1.777
264	1.778
265	1.778
265	1.779
265	1.781
266	1.782
266	1.781
267	1.778
267	1.779
268	1.778
268	1.779
269	1.781
269	1.78
270	1.778
270	1.777
271	1.774
271	1.773
272	1.771
272	1.771
272	1.768
273	1.764
273	1.76
274	1.756
274	1.751
275	1.746
275	1.741
276	1.734
276	1.728
277	1.719
277	1.711
278	1.701
278	1.69
278	1.677
279	1.664
279	1.649
280	1.63
280	1.605
281	1.578
281	1.546
282	1.513
282	1.478
283	1.444
283	1.408
284	1.373
284	1.338
285	1.304
285	1.274
285	1.246
286	1.221
286	1.199
287	1.179
287	1.162
288	1.147
288	1.134
289	1.123
289	1.113
290	1.105
290	1.097
291	1.089
291	1.084
292	1.078
292	1.073
292	1.068
293	1.064
293	1.06
294	1.056
294	1.052
295	1.048
295	1.045
296	1.042
296	1.038
297	1.035
297	1.032
298	1.028
298	1.025
298	1.022
299	1.019
299	1.016
300	1.013
300	1.01
301	1.007
301	1.005
302	1.002
302	0.999
303	0.997
303	0.994
304	0.991
304	0.988
305	0.986
305	0.983
305	0.98
306	0.977
306	0.975
307	0.972
307	0.969
308	0.966
308	0.963
309	0.96
309	0.957
310	0.954
310	0.951
311	0.948
311	0.944
311	0.941
312	0.937
312	0.934
313	0.93
313	0.926
314	0.922
314	0.917
315	0.913
315	0.909
316	0.904
316	0.9
317	0.895
317	0.89
318	0.885
318	0.88
318	0.875
319	0.869
319	0.864
320	0.859
320	0.853
321	0.847
321	0.841
322	0.835
322	0.829
323	0.823
323	0.817
324	0.81
324	0.804
324	0.797
325	0.79
325	0.784
326	0.777
326	0.77
327	0.764
327	0.757
328	0.75
328	0.743
329	0.736
329	0.729
330	0.722
330	0.715
330	0.708
331	0.702
331	0.695
332	0.688
332	0.681
333	0.674
333	0.667
334	0.66
334	0.654
335	0.647
335	0.641
336	0.634
336	0.628
336	0.621
337	0.615
337	0.609
338	0.603
338	0.597
339	0.592
339	0.586
340	0.58
340	0.574
341	0.569
341	0.563
342	0.558
342	0.552
342	0.547
343	0.542
343	0.537
344	0.532
344	0.527
345	0.522
345	0.518
346	0.513
346	0.509
347	0.504
347	0.5
348	0.496
348	0.492
348	0.489
349	0.485
349	0.481
350	0.478
350	0.474
351	0.471
351	0.467
352	0.464
352	0.461
353	0.458
353	0.456
354	0.453
354	0.449
354	0.446
355	0.443
355	0.44
356	0.437
356	0.434
357	0.432
357	0.429
358	0.426
358	0.423
359	0.421
359	0.418
360	0.416
360	0.414
360	0.412
361	0.41
361	0.409
362	0.407
362	0.405
363	0.403
363	0.401
364	0.399
364	0.397
365	0.395
365	0.393
366	0.391
366	0.389
366	0.387
367	0.386
367	0.384
368	0.382
368	0.38
369	0.379
369	0.377
370	0.376
370	0.374
371	0.373
371	0.371
372	0.37
372	0.368
372	0.367
373	0.366
373	0.365
374	0.364
374	0.362
375	0.361
375	0.36
376	0.36
376	0.358
377	0.357
377	0.356
378	0.355
378	0.354
378	0.353
379	0.352
379	0.351
380	0.35
380	0.349
381	0.348
381	0.347
382	0.347
382	0.346
383	0.345
383	0.344
383	0.344
384	0.343
384	0.342
385	0.341
385	0.341
386	0.34
386	0.339
387	0.339
387	0.338
388	0.338
388	0.337
389	0.336
389	0.336
389	0.335
390	0.335
390	0.334
391	0.333
391	0.333
392	0.332
392	0.332
393	0.331
393	0.331
394	0.33
394	0.329
394	0.329
395	0.329
395	0.328
396	0.328
396	0.327
397	0.326
397	0.326
398	0.325
398	0.325
399	0.325
399	0.324
400	0.324
400	0.323
400	0.323
401	0.322
401	0.322
402	0.322
402	0.321
403	0.321
403	0.32
404	0.32
404	0.32
405	0.319
405	0.319
405	0.318
406	0.318
406	0.318
407	0.317
407	0.317
408	0.317
408	0.316
409	0.316
409	0.315
410	0.315
410	0.315
411	0.314
411	0.314
411	0.313
412	0.313
412	0.312
413	0.312
413	0.312
414	0.311
414	0.311
415	0.31
415	0.31
416	0.31
416	0.309
416	0.309
417	0.309
417	0.308
418	0.308
418	0.308
419	0.307
419	0.307
420	0.306
420	0.306
421	0.306
421	0.305
421	0.305
422	0.305
422	0.304
423	0.304
423	0.304
424	0.303
424	0.303
425	0.303
425	0.302
426	0.302
426	0.302
427	0.301
427	0.301
427	0.301
428	0.3
428	0.3
429	0.3
429	0.299
430	0.299
430	0.299
431	0.299
431	0.299
432	0.299
432	0.299
432	0.299
433	0.298
433	0.298
434	0.298
434	0.298
435	0.298
435	0.298
436	0.298
436	0.297
437	0.297
437	0.297
437	0.297
438	0.296
438	0.296
439	0.296
439	0.296
440	0.296
440	0.295
441	0.295
441	0.295
442	0.295
442	0.295
442	0.295
443	0.295
443	0.295
444	0.295
444	0.294
445	0.294
445	0.294
446	0.294
446	0.294
447	0.294
447	0.293
447	0.293
448	0.293
448	0.293
449	0.293
449	0.293
450	0.293
450	0.293
451	0.293
451	0.293
452	0.293
452	0.293
452	0.293
453	0.293
453	0.293
454	0.293
454	0.293
455	0.293
455	0.293
456	0.293
456	0.293
457	0.293
457	0.293
458	0.293
458	0.293
458	0.293
459	0.293
459	0.293
460	0.293
460	0.293
461	0.293
461	0.293
462	0.293
462	0.293
463	0.293
463	0.293
463	0.294
464	0.293
464	0.293
465	0.293
465	0.294
466	0.294
466	0.294
467	0.294
467	0.294
467	0.294
468	0.295
468	0.295
469	0.295
469	0.296
470	0.297
470	0.297
471	0.297
471	0.298
472	0.298
472	0.299
472	0.299
473	0.3
473	0.3
474	0.301
474	0.301
475	0.301
475	0.302
476	0.302
476	0.303
477	0.303
477	0.304
477	0.304
478	0.305
478	0.306
479	0.306
479	0.307
480	0.307
480	0.308
481	0.309
481	0.309
482	0.31
482	0.311
482	0.312
483	0.312
483	0.313
484	0.315
484	0.315
485	0.316
485	0.316
486	0.317
486	0.318
487	0.318
487	0.319
487	0.32
488	0.321
488	0.322
489	0.323
489	0.324
490	0.326
490	0.327
491	0.328
491	0.33
492	0.331
492	0.333
492	0.334
493	0.335
493	0.336
494	0.338
494	0.339
495	0.34
495	0.342
496	0.343
496	0.345
496	0.346
497	0.347
497	0.348
498	0.35
498	0.351
499	0.353
499	0.354
500	0.356
500	0.357
501	0.359
501	0.36
501	0.361
502	0.362
502	0.364
503	0.365
503	0.366
504	0.368
504	0.369
505	0.37
505	0.371
506	0.373
506	0.374
506	0.375
507	0.376
507	0.378
508	0.379
508	0.38
509	0.382
509	0.383
510	0.384
510	0.385
511	0.386
511	0.388
511	0.389
512	0.39
512	0.391
513	0.392
513	0.393
514	0.394
514	0.395
515	0.396
515	0.396
515	0.397
516	0.398
516	0.399
517	0.4
517	0.4
518	0.401
518	0.401
519	0.401
519	0.402
520	0.402
520	0.402
520	0.402
521	0.402
521	0.402
522	0.401
522	0.401
523	0.401
523	0.401
524	0.401
524	0.4
524	0.4
525	0.4
525	0.399
526	0.399
526	0.398
527	0.398
527	0.397
528	0.396
528	0.395
529	0.394
529	0.394
529	0.392
530	0.391
530	0.39
531	0.389
531	0.388
532	0.387
532	0.385
533	0.384
533	0.382
533	0.381
534	0.379
534	0.377
535	0.375
535	0.374
536	0.372
536	0.37
537	0.368
537	0.366
538	0.365
538	0.363
538	0.361
539	0.359
539	0.358
540	0.355
540	0.353
541	0.351
541	0.349
542	0.347
542	0.345
542	0.342
543	0.34
543	0.338
544	0.336
544	0.333
545	0.331
545	0.329
546	0.327
546	0.324
547	0.322
547	0.32
547	0.317
548	0.315
548	0.313
549	0.311
549	0.308
550	0.306
550	0.304
551	0.301
551	0.299
551	0.296
552	0.294
552	0.292
553	0.29
553	0.288
554	0.285
554	0.283
555	0.281
555	0.278
556	0.276
556	0.274
556	0.272
557	0.27
557	0.269
558	0.267
558	0.265
559	0.263
559	0.261
560	0.259
560	0.257
560	0.255
561	0.254
561	0.252
562	0.249
562	0.247
563	0.244
563	0.242
564	0.24
564	0.238
564	0.236
565	0.234
565	0.232
566	0.23
566	0.228
567	0.227
567	0.225
568	0.223
568	0.222
568	0.22
569	0.219
569	0.217
570	0.215
570	0.213
571	0.212
571	0.21
572	0.208
572	0.207
573	0.205
573	0.204
573	0.202
574	0.2
574	0.199
575	0.198
575	0.197
576	0.196
576	0.194
577	0.192
577	0.191
577	0.19
578	0.188
578	0.187
579	0.186
579	0.186
580	0.184
580	0.182
581	0.18
581	0.179
581	0.178
582	0.178
582	0.177
583	0.176
583	0.175
584	0.173
584	0.171
585	0.17
585	0.169
585	0.168
586	0.167
586	0.166
587	0.164
587	0.163
588	0.161
588	0.16
589	0.159
589	0.159
590	0.158
590	0.157
590	0.157
591	0.157
591	0.155
592	0.154
592	0.153
593	0.152
593	0.152
594	0.151
594	0.149
594	0.148
595	0.147
595	0.146
596	0.145
596	0.145
597	0.145
597	0.145
598	0.144
598	0.144
598	0.143
599	0.142
599	0.142
600	0.141
600	0.14
601	0.139
601	0.138
602	0.137
602	0.136
602	0.135
603	0.134
603	0.134
604	0.134
604	0.133
605	0.133
605	0.133
606	0.132
606	0.131
606	0.13
607	0.129
607	0.129
608	0.128
608	0.127
609	0.126
609	0.126
610	0.125
610	0.124
610	0.124
611	0.123
611	0.123
612	0.122
612	0.122
613	0.122
613	0.121
614	0.121
614	0.12
614	0.119
615	0.119
615	0.118
616	0.118
616	0.117
617	0.117
617	0.116
618	0.115
618	0.115
618	0.115
619	0.115
619	0.114
620	0.114
620	0.114
621	0.113
621	0.113
622	0.112
622	0.111
622	0.11
623	0.11
623	0.109
624	0.109
624	0.108
625	0.107
625	0.107
626	0.106
626	0.106
626	0.106
627	0.106
627	0.106
628	0.106
628	0.105
629	0.105
629	0.105
630	0.104
630	0.104
630	0.104
631	0.104
631	0.103
632	0.103
632	0.102
633	0.102
633	0.102
634	0.101
634	0.101
634	0.101
635	0.1
635	0.099
636	0.098
636	0.098
637	0.098
637	0.097
638	0.097
638	0.096
638	0.096
639	0.095
639	0.095
640	0.095
640	0.095
641	0.095
641	0.095
642	0.095
642	0.095
642	0.095
643	0.095
643	0.095
644	0.095
644	0.095
645	0.094
645	0.094
646	0.094
646	0.093
646	0.093
647	0.092
647	0.091
648	0.09
648	0.09
649	0.089
649	0.089
650	0.089
650	0.089
650	0.088
651	0.088
651	0.088
652	0.087
652	0.087
653	0.087
653	0.089
653	0.096
654	0.077
654	0.063
655	0.06
655	0.06
656	0.06
656	0.061
657	0.061
657	0.061
657	0.061
658	0.06
658	0.052
659	0.065
659	0.081
660	0.087
660	0.088
661	0.087
661	0.087
661	0.087
662	0.086
662	0.086
663	0.086
663	0.085
664	0.085
664	0.084
665	0.084
665	0.083
665	0.083
666	0.083
666	0.083
667	0.083
667	0.083
668	0.083
668	0.082
669	0.082
669	0.082
669	0.083
670	0.083
670	0.083
671	0.082
671	0.082
672	0.082
672	0.081
672	0.081
673	0.081
673	0.081
674	0.08
674	0.08
675	0.079
675	0.079
676	0.079
676	0.079
676	0.079
677	0.078
677	0.078
678	0.078
678	0.077
679	0.076
679	0.076
680	0.076
680	0.075
680	0.075
681	0.074
681	0.075
682	0.075
682	0.076
683	0.076
683	0.077
684	0.077
684	0.077
684	0.077
685	0.078
685	0.078
686	0.078
686	0.078
687	0.078
687	0.078
687	0.078
688	0.077
688	0.077
689	0.077
689	0.077
690	0.077
690	0.076
691	0.075
691	0.075
691	0.075
692	0.075
692	0.075
693	0.075
693	0.075
694	0.074
694	0.074
695	0.075
695	0.077
695	0.077
696	0.077
696	0.077
697	0.077
697	0.076
698	0.076
698	0.075
698	0.075
699	0.075
699	0.074
700	0.073
700	0.073
701	0.072
701	0.072
702	0.072
702	0.071
702	0.071
703	0.071
703	0.07
704	0.07
704	0.07
705	0.07
705	0.069
705	0.069
706	0.069
706	0.07
707	0.07
707	0.07
708	0.07
708	0.07
709	0.07
709	0.07
709	0.069
710	0.069
710	0.069
711	0.069
711	0.069
712	0.069
712	0.069
713	0.069
713	0.069
713	0.069
714	0.069
714	0.069
715	0.069
715	0.069
716	0.068
716	0.068
716	0.067
717	0.066
717	0.066
718	0.065
718	0.065
719	0.065
719	0.065
720	0.065
720	0.065
720	0.065
721	0.065
721	0.066
722	0.066
722	0.066
723	0.066
723	0.066
723	0.066
724	0.066
724	0.066
725	0.065
725	0.065
726	0.064
726	0.064
727	0.063
727	0.063
727	0.063
728	0.062
728	0.062
729	0.062
729	0.062
730	0.062
730	0.062
730	0.063
731	0.063
731	0.064
732	0.064
732	0.064
733	0.064
733	0.064
734	0.064
734	0.064
734	0.065
735	0.065
735	0.064
736	0.064
736	0.063
737	0.063
737	0.063
737	0.062
738	0.061
738	0.06
739	0.06
739	0.059
740	0.059
740	0.059
741	0.059
741	0.059
741	0.059
742	0.059
742	0.059
743	0.06
743	0.061
744	0.062
744	0.062
744	0.062
745	0.062
745	0.061
746	0.061
746	0.061
747	0.061
747	0.061
748	0.06
748	0.06
748	0.06
749	0.06
749	0.06
750	0.06
750	0.059
751	0.059
751	0.059
751	0.059
752	0.059
752	0.058
753	0.057
753	0.057
754	0.057
754	0.056
754	0.056
755	0.056
755	0.056
756	0.056
756	0.055
757	0.054
757	0.055
758	0.055
758	0.055
758	0.055
759	0.055
759	0.055
760	0.054
760	0.054
761	0.054
761	0.054
761	0.054
762	0.054
762	0.054
763	0.054
763	0.053
764	0.052
764	0.052
764	0.052
765	0.052
765	0.052
766	0.052
766	0.051
767	0.051
767	0.05
768	0.05
768	0.05
768	0.051
769	0.051
769	0.051
770	0.052
770	0.052
771	0.053
771	0.053
771	0.054
772	0.055
772	0.055
773	0.055
773	0.055
774	0.055
774	0.054
775	0.054
775	0.054
775	0.053
776	0.052
776	0.052
777	0.052
777	0.052
778	0.051
778	0.051
778	0.05
779	0.05
779	0.05
780	0.049
780	0.048
781	0.048
781	0.048
781	0.047
782	0.047
782	0.047
783	0.048
783	0.048
784	0.048
784	0.048
784	0.049
785	0.049
785	0.05
786	0.05
786	0.05
787	0.05
787	0.05
788	0.049
788	0.049
788	0.048
789	0.047
789	0.047
790	0.047
790	0.046
791	0.046
791	0.045
791	0.045
792	0.046
792	0.046
793	0.046
793	0.046
794	0.046
794	0.045
794	0.045
795	0.045
795	0.045
796	0.045
796	0.045
797	0.044
797	0.043
797	0.043
798	0.043
798	0.044
799	0.044
799	0.044
800	0.044
800	0.044
801	0.044
801	0.045
801	0.045
802	0.045
802	0.045
803	0.045
803	0.045
804	0.045
804	0.045
804	0.044
805	0.044
805	0.044
806	0.043
806	0.043
807	0.044
807	0.044
807	0.044
808	0.045
808	0.045
809	0.045
809	0.046
810	0.046
810	0.046
810	0.046
811	0.046
811	0.047
812	0.047
812	0.047
813	0.047
813	0.047
813	0.047
814	0.047
814	0.047
815	0.048
815	0.048
816	0.048
816	0.047
817	0.046
817	0.046
817	0.046
818	0.046
818	0.046
819	0.045
819	0.045
820	0.044
820	0.044
820	0.043
821	0.044
821	0.044
822	0.043
822	0.044
823	0.044
823	0.044
823	0.044
824	0.045
824	0.046
825	0.046
825	0.047
826	0.047
826	0.047
826	0.047
827	0.047
827	0.046
828	0.046
828	0.045
829	0.045
829	0.044
829	0.044
830	0.043
830	0.043
831	0.044
831	0.043
832	0.043
832	0.043
832	0.043
833	0.043
833	0.043
834	0.043
834	0.043
835	0.043
835	0.043
835	0.043
836	0.043
836	0.043
837	0.044
837	0.044
838	0.044
838	0.044
839	0.045
839	0.045
839	0.044
840	0.044
840	0.043
841	0.042
841	0.041
842	0.041
842	0.04
842	0.039
843	0.038
843	0.037
844	0.036
844	0.035
845	0.035
845	0.034
845	0.034
846	0.034
846	0.033
847	0.033
847	0.033
848	0.033
848	0.034
848	0.034
849	0.035
849	0.036
850	0.036
850	0.037
851	0.037
851	0.038
851	0.038
852	0.037
852	0.037
853	0.037
853	0.037
854	0.036
854	0.037
854	0.037
855	0.037
855	0.037
856	0.038
856	0.038
857	0.039
857	0.04
857	0.04
858	0.04
858	0.04
859	0.04
859	0.039
860	0.039
860	0.039
860	0.038
861	0.038
861	0.038
862	0.037
862	0.037
863	0.036
863	0.036
863	0.037
864	0.037
864	0.037
865	0.037
865	0.038
866	0.038
866	0.038
866	0.038
867	0.039
867	0.04
868	0.041
868	0.041
869	0.042
869	0.042
869	0.041
870	0.041
870	0.042
871	0.041
871	0.041
872	0.041
872	0.041
872	0.04
873	0.04
873	0.04
874	0.039
874	0.039
875	0.039
875	0.039
875	0.039
876	0.04
876	0.04
877	0.04
877	0.04
878	0.04
878	0.04
878	0.041
879	0.041
879	0.041
880	0.041
880	0.04
881	0.04
881	0.04
881	0.04
882	0.039
882	0.039
883	0.039
883	0.039
884	0.039
884	0.039
884	0.038
885	0.038
885	0.037
886	0.037
886	0.037
887	0.036
887	0.035
887	0.035
888	0.034
888	0.033
889	0.033
889	0.033
890	0.033
890	0.033
890	0.034
891	0.034
891	0.034
892	0.034
892	0.035
893	0.035
893	0.035
893	0.035
894	0.035
894	0.035
895	0.035
895	0.036
895	0.036
896	0.037
896	0.038
897	0.038
897	0.039
898	0.039
898	0.039
898	0.04
899	0.04
899	0.04
900	0.04
900	0.04
901	0.04
901	0.04
901	0.04
902	0.04
902	0.04
903	0.039
903	0.039
904	0.039
904	0.038
904	0.037
905	0.036
905	0.035
906	0.034
906	0.034
907	0.033
907	0.033
907	0.033
908	0.032
908	0.032
909	0.032
909	0.032
910	0.032
910	0.032
910	0.032
911	0.032
911	0.032
912	0.032
912	0.031
913	0.031
913	0.031
913	0.031
914	0.031
914	0.031
915	0.032
915	0.032
916	0.032
916	0.033
916	0.033
917	0.034
917	0.034
918	0.034
918	0.035
918	0.035
919	0.035
919	0.035
920	0.036
920	0.036
921	0.036
921	0.035
921	0.035
922	0.035
922	0.035
923	0.035
923	0.035
924	0.035
924	0.036
924	0.036
925	0.036
925	0.036
926	0.037
926	0.037
927	0.037
927	0.037
927	0.037
928	0.037
928	0.037
929	0.037
929	0.037
930	0.037
930	0.036
930	0.036
931	0.036
931	0.036
932	0.036
932	0.036
933	0.036
933	0.035
933	0.035
934	0.034
934	0.034
935	0.034
935	0.033
935	0.033
936	0.032
936	0.032
937	0.032
937	0.032
938	0.032
938	0.032
938	0.032
939	0.032
939	0.032
940	0.032
940	0.033
941	0.033
941	0.033
941	0.034
942	0.034
942	0.034
943	0.034
943	0.034
944	0.034
944	0.034
944	0.034
945	0.034
945	0.034
946	0.034
946	0.034
946	0.035
947	0.035
947	0.035
948	0.035
948	0.035
949	0.034
949	0.034
949	0.034
950	0.034
950	0.034
951	0.034
951	0.033
952	0.032
952	0.032
952	0.032
953	0.031
953	0.031
954	0.031
954	0.03
955	0.03
955	0.029
955	0.029
956	0.029
956	0.03
957	0.03
957	0.03
957	0.031
958	0.031
958	0.032
959	0.032
959	0.033
960	0.033
960	0.033
960	0.034
961	0.034
961	0.034
962	0.034
962	0.034
963	0.034
963	0.034
963	0.034
964	0.035
964	0.035
965	0.035
965	0.035
966	0.035
966	0.035
966	0.035
967	0.036
967	0.036
968	0.036
968	0.036
968	0.036
969	0.035
969	0.035
970	0.034
970	0.033
971	0.032
971	0.032
971	0.031
972	0.03
972	0.029
973	0.028
973	0.028
974	0.027
974	0.027
974	0.027
975	0.028
975	0.028
976	0.029
976	0.03
976	0.031
977	0.031
977	0.032
978	0.032
978	0.033
979	0.033
979	0.034
979	0.034
980	0.034
980	0.034
981	0.034
981	0.034
982	0.034
982	0.034
982	0.033
983	0.033
983	0.033
984	0.032
984	0.032
984	0.032
985	0.031
985	0.031
986	0.031
986	0.031
987	0.031
987	0.03
987	0.031
988	0.031
988	0.03
989	0.03
989	0.03
990	0.03
990	0.031
990	0.031
991	0.031
991	0.031
992	0.031
992	0.03
992	0.03
993	0.03
993	0.029
994	0.029
994	0.028
995	0.028
995	0.027
995	0.027
996	0.027
996	0.027
997	0.027
997	0.028
997	0.028
998	0.029
998	0.03
999	0.031
999	0.032
1000	0.032
1000	0.033
1000	0.034
1001	0.034
1001	0.034
1002	0.034
1002	0.033
1003	0.033
1003	0.032
1003	0.031
1004	0.03
1004	0.029
1005	0.028
1005	0.027
1005	0.026
1006	0.025
1006	0.024
1007	0.024
1007	0.023
1008	0.023
1008	0.023
1008	0.023
1009	0.023
1009	0.023
1010	0.022
1010	0.022
1010	0.022
1011	0.022
1011	0.022
1012	0.022
1012	0.022
1013	0.022
1013	0.022
1013	0.022
1014	0.022
1014	0.022
1015	0.022
1015	0.022
1016	0.022
1016	0.023
1016	0.023
1017	0.023
1017	0.023
1018	0.023
1018	0.023
1018	0.023
1019	0.023
1019	0.023
1020	0.023
1020	0.023
1021	0.023
1021	0.023
1021	0.024
1022	0.024
1022	0.024
1023	0.024
1023	0.024
1023	0.025
1024	0.025
1024	0.025
1025	0.025
1025	0.026
1026	0.026
1026	0.026
1026	0.026
1027	0.027
1027	0.027
1028	0.027
1028	0.027
1028	0.027
1029	0.027
1029	0.027
1030	0.028
1030	0.028
1031	0.028
1031	0.028
1031	0.029
1032	0.029
1032	0.029
1033	0.029
1033	0.029
1033	0.029
1034	0.029
1034	0.029
1035	0.029
1035	0.029
1036	0.029
1036	0.029
1036	0.029
1037	0.029
1037	0.029
1038	0.028
1038	0.028
1039	0.028
1039	0.028
1039	0.028
1040	0.029
1040	0.029
1041	0.029
1041	0.028
1041	0.028
1042	0.028
1042	0.028
1043	0.027
1043	0.027
1044	0.027
1044	0.027
1044	0.026
1045	0.026
1045	0.026
1046	0.026
1046	0.026
1046	0.026
1047	0.026
1047	0.027
1048	0.027
1048	0.027
1049	0.027
1049	0.027
1049	0.027
1050	0.027
1050	0.026
1051	0.026
1051	0.026
1051	0.025
1052	0.024
1052	0.024
1053	0.023
1053	0.023
1053	0.022
1054	0.022
1054	0.022
1055	0.022
1055	0.021
1056	0.02
1056	0.02
1056	0.019
1057	0.018
1057	0.018
1058	0.017
1058	0.016
1058	0.015
1059	0.014
1059	0.013
1060	0.012
1060	0.012
1061	0.011
1061	0.011
1061	0.011
1062	0.011
1062	0.011
1063	0.012
1063	0.012
1063	0.012
1064	0.012
1064	0.012
1065	0.012
1065	0.012
1066	0.013
1066	0.013
1066	0.013
1067	0.012
1067	0.012
1068	0.012
1068	0.012
1068	0.013
1069	0.012
1069	0.012
1070	0.012
1070	0.012
1071	0.011
1071	0.011
1071	0.011
1072	0.011
1072	0.011
1073	0.01
1073	0.01
1073	0.01
1074	0.01
1074	0.01
1075	0.01
1075	0.011
1076	0.011
1076	0.011
1076	0.011
1077	0.011
1077	0.011
1078	0.011
1078	0.011
1078	0.011
1079	0.011
1079	0.011
1080	0.01
1080	0.01
1080	0.01
1081	0.01
1081	0.01
1082	0.01
1082	0.011
1083	0.01
1083	0.01
1083	0.011
1084	0.011
1084	0.011
1085	0.012
1085	0.012
1085	0.013
1086	0.014
1086	0.013
1087	0.013
1087	0.013
1088	0.014
1088	0.014
1088	0.015
1089	0.015
1089	0.014
1090	0.014
1090	0.013
1090	0.012
1091	0.012
1091	0.012
1092	0.013
1092	0.013
1092	0.013
1093	0.012
1093	0.013
1094	0.013
1094	0.013
1095	0.013
1095	0.013
1095	0.013
1096	0.012
1096	0.011
1097	0.01
1097	0.01
1097	0.009
1098	0.008
1098	0.006
1099	0.005
1099	0.003
1100	0.002
1100	0
1100	-0.001
1101	-0.002
1101	-0.003
1102	-0.004
1102	-0.006
1102	-0.006
1103	-0.007
1103	-0.007
1104	-0.008
1104	-0.008
1104	-0.008
1105	-0.009
1105	-0.011
1106	-0.013
1106	-0.013
1107	-0.015
1107	-0.015
1107	-0.016
1108	-0.017
1108	-0.018
1109	-0.02
1109	-0.022
1109	-0.021
1110	-0.02
1110	-0.02
1111	-0.023
1111	-0.025
