Data from reversibility-20sec_Absorbance__882__000000000000882.txt Node

Date: Tue Dec 05 17:07:06 CET 2023
User: Marek
Spectrometer: MAYP115816
Trigger mode: 0
Integration Time (sec): 2.000000E-1
Scans to average: 10
Electric dark correction enabled: true
Nonlinearity correction enabled: true
Boxcar width: 5
XAxis mode: Wavelengths
Number of Pixels in Spectrum: 2068
>>>>>Begin Spectral Data<<<<<
199	-0.221
199	-0.184
200	-0.117
200	-0.06
201	-0.029
201	-0.012
202	0.003
202	0.009
203	0.015
203	0.018
204	0.033
204	0.045
205	0.058
205	0.062
205	0.06
206	0.06
206	0.06
207	0.061
207	0.061
208	0.06
208	0.06
209	0.063
209	0.061
210	0.06
210	0.061
211	0.062
211	0.063
212	0.063
212	0.064
213	0.068
213	0.068
213	0.069
214	0.073
214	0.076
215	0.076
215	0.077
216	0.077
216	0.075
217	0.079
217	0.081
218	0.08
218	0.085
219	0.088
219	0.087
220	0.089
220	0.089
221	0.089
221	0.094
221	0.099
222	0.104
222	0.106
223	0.11
223	0.113
224	0.118
224	0.126
225	0.136
225	0.146
226	0.156
226	0.163
227	0.172
227	0.179
228	0.195
228	0.211
229	0.228
229	0.251
229	0.274
230	0.298
230	0.327
231	0.36
231	0.399
232	0.435
232	0.48
233	0.524
233	0.574
234	0.622
234	0.674
235	0.722
235	0.773
236	0.825
236	0.876
236	0.928
237	0.979
237	1.024
238	1.07
238	1.115
239	1.163
239	1.202
240	1.247
240	1.283
241	1.318
241	1.353
242	1.382
242	1.415
243	1.445
243	1.471
243	1.494
244	1.516
244	1.54
245	1.558
245	1.58
246	1.599
246	1.615
247	1.63
247	1.645
248	1.661
248	1.673
249	1.682
249	1.691
250	1.698
250	1.704
250	1.708
251	1.712
251	1.712
252	1.716
252	1.716
253	1.715
253	1.71
254	1.71
254	1.709
255	1.705
255	1.706
256	1.704
256	1.702
257	1.701
257	1.699
258	1.697
258	1.696
258	1.697
259	1.695
259	1.695
260	1.696
260	1.696
261	1.696
261	1.698
262	1.701
262	1.703
263	1.706
263	1.707
264	1.709
264	1.711
265	1.711
265	1.712
265	1.711
266	1.712
266	1.712
267	1.71
267	1.71
268	1.709
268	1.71
269	1.712
269	1.711
270	1.711
270	1.71
271	1.708
271	1.707
272	1.705
272	1.703
272	1.699
273	1.693
273	1.686
274	1.679
274	1.671
275	1.664
275	1.657
276	1.651
276	1.643
277	1.634
277	1.624
278	1.613
278	1.601
278	1.588
279	1.57
279	1.549
280	1.523
280	1.492
281	1.455
281	1.416
282	1.373
282	1.331
283	1.29
283	1.25
284	1.211
284	1.173
285	1.139
285	1.108
285	1.08
286	1.055
286	1.034
287	1.016
287	1
288	0.987
288	0.976
289	0.967
289	0.959
290	0.952
290	0.946
291	0.941
291	0.937
292	0.933
292	0.929
292	0.926
293	0.924
293	0.921
294	0.918
294	0.916
295	0.914
295	0.912
296	0.909
296	0.907
297	0.905
297	0.903
298	0.9
298	0.898
298	0.896
299	0.894
299	0.892
300	0.89
300	0.888
301	0.886
301	0.884
302	0.882
302	0.88
303	0.878
303	0.876
304	0.875
304	0.873
305	0.871
305	0.869
305	0.867
306	0.865
306	0.863
307	0.861
307	0.859
308	0.857
308	0.855
309	0.852
309	0.85
310	0.847
310	0.845
311	0.842
311	0.839
311	0.837
312	0.834
312	0.831
313	0.827
313	0.824
314	0.82
314	0.817
315	0.813
315	0.809
316	0.805
316	0.801
317	0.796
317	0.791
318	0.787
318	0.782
318	0.777
319	0.772
319	0.767
320	0.762
320	0.757
321	0.751
321	0.745
322	0.74
322	0.734
323	0.728
323	0.722
324	0.716
324	0.709
324	0.703
325	0.696
325	0.69
326	0.683
326	0.677
327	0.67
327	0.664
328	0.657
328	0.65
329	0.644
329	0.637
330	0.63
330	0.623
330	0.616
331	0.61
331	0.603
332	0.596
332	0.589
333	0.583
333	0.576
334	0.569
334	0.563
335	0.556
335	0.55
336	0.543
336	0.537
336	0.531
337	0.525
337	0.519
338	0.513
338	0.507
339	0.501
339	0.495
340	0.489
340	0.484
341	0.479
341	0.473
342	0.468
342	0.463
342	0.457
343	0.452
343	0.448
344	0.443
344	0.439
345	0.434
345	0.43
346	0.426
346	0.421
347	0.417
347	0.413
348	0.409
348	0.405
348	0.402
349	0.398
349	0.394
350	0.391
350	0.388
351	0.384
351	0.381
352	0.378
352	0.375
353	0.372
353	0.37
354	0.367
354	0.364
354	0.361
355	0.359
355	0.356
356	0.353
356	0.351
357	0.347
357	0.345
358	0.342
358	0.34
359	0.337
359	0.335
360	0.333
360	0.331
360	0.329
361	0.328
361	0.326
362	0.325
362	0.323
363	0.322
363	0.32
364	0.318
364	0.316
365	0.314
365	0.313
366	0.311
366	0.309
366	0.308
367	0.306
367	0.304
368	0.303
368	0.301
369	0.3
369	0.299
370	0.297
370	0.296
371	0.294
371	0.293
372	0.292
372	0.291
372	0.29
373	0.288
373	0.287
374	0.287
374	0.286
375	0.285
375	0.284
376	0.283
376	0.282
377	0.282
377	0.281
378	0.28
378	0.279
378	0.278
379	0.277
379	0.276
380	0.276
380	0.275
381	0.274
381	0.273
382	0.273
382	0.272
383	0.272
383	0.271
383	0.27
384	0.269
384	0.269
385	0.268
385	0.268
386	0.267
386	0.267
387	0.266
387	0.266
388	0.265
388	0.265
389	0.264
389	0.264
389	0.263
390	0.263
390	0.263
391	0.262
391	0.262
392	0.262
392	0.261
393	0.261
393	0.261
394	0.26
394	0.26
394	0.259
395	0.259
395	0.258
396	0.258
396	0.257
397	0.257
397	0.256
398	0.256
398	0.256
399	0.255
399	0.255
400	0.255
400	0.254
400	0.254
401	0.254
401	0.253
402	0.253
402	0.253
403	0.252
403	0.252
404	0.252
404	0.252
405	0.251
405	0.251
405	0.251
406	0.25
406	0.25
407	0.25
407	0.249
408	0.249
408	0.249
409	0.249
409	0.248
410	0.248
410	0.248
411	0.248
411	0.247
411	0.247
412	0.247
412	0.247
413	0.247
413	0.246
414	0.246
414	0.246
415	0.246
415	0.245
416	0.245
416	0.245
416	0.244
417	0.244
417	0.244
418	0.243
418	0.243
419	0.243
419	0.242
420	0.242
420	0.242
421	0.242
421	0.241
421	0.241
422	0.241
422	0.24
423	0.24
423	0.24
424	0.24
424	0.239
425	0.239
425	0.239
426	0.238
426	0.238
427	0.238
427	0.237
427	0.237
428	0.237
428	0.237
429	0.236
429	0.236
430	0.236
430	0.236
431	0.236
431	0.236
432	0.236
432	0.236
432	0.235
433	0.235
433	0.235
434	0.235
434	0.235
435	0.235
435	0.234
436	0.234
436	0.234
437	0.234
437	0.234
437	0.234
438	0.233
438	0.233
439	0.233
439	0.233
440	0.233
440	0.233
441	0.233
441	0.233
442	0.233
442	0.233
442	0.233
443	0.232
443	0.232
444	0.232
444	0.232
445	0.231
445	0.231
446	0.231
446	0.231
447	0.23
447	0.23
447	0.23
448	0.23
448	0.23
449	0.23
449	0.23
450	0.23
450	0.229
451	0.229
451	0.229
452	0.229
452	0.229
452	0.229
453	0.229
453	0.229
454	0.229
454	0.228
455	0.228
455	0.228
456	0.228
456	0.228
457	0.228
457	0.228
458	0.228
458	0.228
458	0.228
459	0.227
459	0.227
460	0.227
460	0.227
461	0.227
461	0.227
462	0.227
462	0.227
463	0.227
463	0.227
463	0.226
464	0.226
464	0.226
465	0.226
465	0.226
466	0.226
466	0.226
467	0.226
467	0.226
467	0.226
468	0.226
468	0.226
469	0.226
469	0.226
470	0.227
470	0.227
471	0.227
471	0.227
472	0.227
472	0.227
472	0.227
473	0.227
473	0.227
474	0.227
474	0.227
475	0.227
475	0.227
476	0.227
476	0.228
477	0.228
477	0.228
477	0.229
478	0.229
478	0.229
479	0.229
479	0.23
480	0.23
480	0.23
481	0.231
481	0.231
482	0.231
482	0.231
482	0.232
483	0.232
483	0.233
484	0.233
484	0.233
485	0.233
485	0.234
486	0.234
486	0.234
487	0.235
487	0.235
487	0.236
488	0.236
488	0.236
489	0.237
489	0.238
490	0.239
490	0.24
491	0.241
491	0.241
492	0.242
492	0.242
492	0.243
493	0.244
493	0.244
494	0.245
494	0.246
495	0.247
495	0.247
496	0.248
496	0.249
496	0.25
497	0.251
497	0.251
498	0.252
498	0.253
499	0.253
499	0.254
500	0.255
500	0.256
501	0.257
501	0.257
501	0.258
502	0.259
502	0.259
503	0.26
503	0.261
504	0.262
504	0.263
505	0.263
505	0.264
506	0.265
506	0.265
506	0.266
507	0.267
507	0.268
508	0.269
508	0.27
509	0.27
509	0.271
510	0.271
510	0.272
511	0.273
511	0.274
511	0.274
512	0.275
512	0.276
513	0.276
513	0.277
514	0.278
514	0.279
515	0.279
515	0.28
515	0.28
516	0.281
516	0.282
517	0.282
517	0.283
518	0.283
518	0.283
519	0.284
519	0.284
520	0.284
520	0.284
520	0.285
521	0.285
521	0.285
522	0.285
522	0.285
523	0.285
523	0.286
524	0.286
524	0.286
524	0.286
525	0.286
525	0.286
526	0.286
526	0.286
527	0.286
527	0.286
528	0.286
528	0.285
529	0.285
529	0.285
529	0.284
530	0.284
530	0.283
531	0.283
531	0.283
532	0.282
532	0.282
533	0.281
533	0.281
533	0.281
534	0.28
534	0.28
535	0.28
535	0.28
536	0.279
536	0.279
537	0.279
537	0.278
538	0.278
538	0.277
538	0.276
539	0.276
539	0.275
540	0.275
540	0.274
541	0.273
541	0.272
542	0.271
542	0.271
542	0.27
543	0.269
543	0.268
544	0.268
544	0.267
545	0.266
545	0.266
546	0.265
546	0.264
547	0.263
547	0.262
547	0.262
548	0.261
548	0.26
549	0.259
549	0.258
550	0.257
550	0.256
551	0.255
551	0.255
551	0.254
552	0.253
552	0.252
553	0.251
553	0.25
554	0.249
554	0.248
555	0.247
555	0.246
556	0.245
556	0.244
556	0.244
557	0.243
557	0.243
558	0.242
558	0.242
559	0.242
559	0.241
560	0.241
560	0.24
560	0.239
561	0.239
561	0.238
562	0.237
562	0.236
563	0.234
563	0.233
564	0.232
564	0.231
564	0.231
565	0.23
565	0.229
566	0.228
566	0.228
567	0.227
567	0.227
568	0.226
568	0.226
568	0.226
569	0.225
569	0.224
570	0.223
570	0.222
571	0.222
571	0.221
572	0.22
572	0.22
573	0.219
573	0.219
573	0.218
574	0.217
574	0.217
575	0.217
575	0.216
576	0.216
576	0.215
577	0.214
577	0.213
577	0.213
578	0.212
578	0.211
579	0.211
579	0.211
580	0.21
580	0.209
581	0.208
581	0.208
581	0.207
582	0.207
582	0.207
583	0.207
583	0.206
584	0.205
584	0.204
585	0.204
585	0.203
585	0.203
586	0.202
586	0.201
587	0.2
587	0.199
588	0.198
588	0.197
589	0.197
589	0.197
590	0.196
590	0.196
590	0.196
591	0.196
591	0.196
592	0.195
592	0.195
593	0.194
593	0.194
594	0.193
594	0.192
594	0.192
595	0.192
595	0.191
596	0.19
596	0.19
597	0.191
597	0.191
598	0.19
598	0.19
598	0.19
599	0.19
599	0.189
600	0.188
600	0.188
601	0.187
601	0.187
602	0.186
602	0.185
602	0.185
603	0.185
603	0.185
604	0.184
604	0.184
605	0.185
605	0.185
606	0.184
606	0.183
606	0.183
607	0.183
607	0.182
608	0.182
608	0.181
609	0.18
609	0.18
610	0.179
610	0.178
610	0.178
611	0.178
611	0.178
612	0.178
612	0.178
613	0.179
613	0.179
614	0.178
614	0.178
614	0.178
615	0.178
615	0.178
616	0.178
616	0.177
617	0.177
617	0.176
618	0.176
618	0.176
618	0.175
619	0.175
619	0.175
620	0.176
620	0.175
621	0.175
621	0.174
622	0.174
622	0.173
622	0.173
623	0.172
623	0.172
624	0.172
624	0.171
625	0.171
625	0.17
626	0.17
626	0.17
626	0.169
627	0.169
627	0.169
628	0.168
628	0.168
629	0.168
629	0.167
630	0.167
630	0.167
630	0.167
631	0.167
631	0.167
632	0.167
632	0.167
633	0.167
633	0.167
634	0.167
634	0.168
634	0.167
635	0.167
635	0.167
636	0.166
636	0.166
637	0.166
637	0.165
638	0.165
638	0.165
638	0.165
639	0.164
639	0.164
640	0.164
640	0.164
641	0.164
641	0.164
642	0.164
642	0.164
642	0.164
643	0.163
643	0.163
644	0.163
644	0.163
645	0.162
645	0.162
646	0.162
646	0.162
646	0.162
647	0.162
647	0.162
648	0.162
648	0.162
649	0.163
649	0.163
650	0.163
650	0.163
650	0.163
651	0.163
651	0.163
652	0.163
652	0.163
653	0.163
653	0.165
653	0.171
654	0.135
654	0.109
655	0.109
655	0.109
656	0.11
656	0.11
657	0.11
657	0.11
657	0.11
658	0.109
658	0.099
659	0.124
659	0.158
660	0.163
660	0.163
661	0.162
661	0.162
661	0.162
662	0.162
662	0.162
663	0.162
663	0.161
664	0.161
664	0.161
665	0.161
665	0.161
665	0.161
666	0.161
666	0.161
667	0.161
667	0.161
668	0.161
668	0.161
669	0.16
669	0.161
669	0.161
670	0.161
670	0.161
671	0.161
671	0.161
672	0.161
672	0.16
672	0.16
673	0.16
673	0.161
674	0.161
674	0.161
675	0.161
675	0.161
676	0.161
676	0.162
676	0.161
677	0.162
677	0.162
678	0.161
678	0.161
679	0.161
679	0.161
680	0.161
680	0.16
680	0.16
681	0.16
681	0.161
682	0.161
682	0.162
683	0.162
683	0.163
684	0.164
684	0.164
684	0.164
685	0.164
685	0.165
686	0.165
686	0.164
687	0.164
687	0.164
687	0.164
688	0.164
688	0.164
689	0.164
689	0.164
690	0.164
690	0.164
691	0.164
691	0.164
691	0.165
692	0.165
692	0.165
693	0.166
693	0.166
694	0.166
694	0.166
695	0.167
695	0.168
695	0.169
696	0.169
696	0.169
697	0.169
697	0.169
698	0.169
698	0.168
698	0.168
699	0.168
699	0.168
700	0.167
700	0.168
701	0.168
701	0.167
702	0.167
702	0.167
702	0.168
703	0.167
703	0.167
704	0.167
704	0.167
705	0.167
705	0.166
705	0.166
706	0.166
706	0.166
707	0.166
707	0.166
708	0.167
708	0.167
709	0.167
709	0.167
709	0.167
710	0.166
710	0.167
711	0.167
711	0.167
712	0.167
712	0.167
713	0.167
713	0.167
713	0.167
714	0.167
714	0.168
715	0.168
715	0.168
716	0.168
716	0.168
716	0.168
717	0.167
717	0.167
718	0.167
718	0.167
719	0.167
719	0.168
720	0.168
720	0.168
720	0.168
721	0.169
721	0.169
722	0.169
722	0.169
723	0.17
723	0.17
723	0.17
724	0.17
724	0.17
725	0.169
725	0.169
726	0.168
726	0.168
727	0.167
727	0.167
727	0.167
728	0.167
728	0.167
729	0.167
729	0.168
730	0.168
730	0.168
730	0.169
731	0.169
731	0.169
732	0.17
732	0.17
733	0.169
733	0.169
734	0.169
734	0.169
734	0.169
735	0.169
735	0.169
736	0.168
736	0.168
737	0.168
737	0.169
737	0.169
738	0.169
738	0.168
739	0.168
739	0.168
740	0.168
740	0.168
741	0.168
741	0.168
741	0.168
742	0.168
742	0.168
743	0.169
743	0.169
744	0.17
744	0.17
744	0.171
745	0.171
745	0.171
746	0.171
746	0.172
747	0.172
747	0.173
748	0.173
748	0.173
748	0.173
749	0.173
749	0.173
750	0.172
750	0.172
751	0.172
751	0.172
751	0.171
752	0.171
752	0.17
753	0.17
753	0.17
754	0.17
754	0.17
754	0.17
755	0.171
755	0.171
756	0.17
756	0.169
757	0.168
757	0.168
758	0.168
758	0.167
758	0.167
759	0.167
759	0.167
760	0.167
760	0.167
761	0.167
761	0.168
761	0.169
762	0.17
762	0.171
763	0.172
763	0.172
764	0.172
764	0.172
764	0.172
765	0.172
765	0.171
766	0.171
766	0.17
767	0.17
767	0.169
768	0.168
768	0.168
768	0.168
769	0.168
769	0.168
770	0.168
770	0.168
771	0.169
771	0.169
771	0.169
772	0.17
772	0.171
773	0.171
773	0.171
774	0.172
774	0.172
775	0.173
775	0.173
775	0.173
776	0.174
776	0.174
777	0.174
777	0.174
778	0.174
778	0.174
778	0.173
779	0.173
779	0.173
780	0.172
780	0.172
781	0.171
781	0.171
781	0.171
782	0.171
782	0.171
783	0.171
783	0.172
784	0.172
784	0.172
784	0.172
785	0.172
785	0.172
786	0.173
786	0.173
787	0.173
787	0.173
788	0.173
788	0.173
788	0.173
789	0.173
789	0.173
790	0.173
790	0.173
791	0.173
791	0.172
791	0.172
792	0.173
792	0.173
793	0.173
793	0.173
794	0.173
794	0.172
794	0.172
795	0.172
795	0.172
796	0.172
796	0.172
797	0.171
797	0.171
797	0.171
798	0.171
798	0.171
799	0.171
799	0.171
800	0.171
800	0.171
801	0.171
801	0.172
801	0.172
802	0.172
802	0.173
803	0.173
803	0.173
804	0.174
804	0.174
804	0.174
805	0.174
805	0.174
806	0.174
806	0.174
807	0.173
807	0.173
807	0.173
808	0.173
808	0.173
809	0.173
809	0.173
810	0.173
810	0.173
810	0.173
811	0.173
811	0.174
812	0.174
812	0.175
813	0.175
813	0.175
813	0.175
814	0.176
814	0.176
815	0.177
815	0.177
816	0.178
816	0.177
817	0.177
817	0.177
817	0.176
818	0.176
818	0.175
819	0.175
819	0.174
820	0.172
820	0.171
820	0.171
821	0.17
821	0.17
822	0.169
822	0.169
823	0.169
823	0.169
823	0.169
824	0.17
824	0.171
825	0.172
825	0.173
826	0.174
826	0.174
826	0.174
827	0.174
827	0.174
828	0.174
828	0.174
829	0.174
829	0.173
829	0.173
830	0.173
830	0.173
831	0.173
831	0.173
832	0.173
832	0.173
832	0.173
833	0.173
833	0.173
834	0.172
834	0.172
835	0.172
835	0.171
835	0.171
836	0.171
836	0.171
837	0.171
837	0.171
838	0.17
838	0.169
839	0.169
839	0.168
839	0.166
840	0.165
840	0.163
841	0.162
841	0.16
842	0.159
842	0.159
842	0.158
843	0.158
843	0.157
844	0.157
844	0.157
845	0.158
845	0.158
845	0.158
846	0.159
846	0.159
847	0.159
847	0.159
848	0.159
848	0.159
848	0.16
849	0.16
849	0.16
850	0.159
850	0.159
851	0.159
851	0.159
851	0.158
852	0.157
852	0.156
853	0.155
853	0.154
854	0.154
854	0.154
854	0.153
855	0.153
855	0.153
856	0.153
856	0.153
857	0.153
857	0.153
857	0.153
858	0.153
858	0.153
859	0.152
859	0.151
860	0.151
860	0.15
860	0.149
861	0.149
861	0.148
862	0.148
862	0.147
863	0.147
863	0.147
863	0.147
864	0.147
864	0.146
865	0.146
865	0.146
866	0.145
866	0.144
866	0.144
867	0.143
867	0.143
868	0.143
868	0.142
869	0.142
869	0.142
869	0.142
870	0.142
870	0.142
871	0.143
871	0.143
872	0.143
872	0.143
872	0.143
873	0.143
873	0.143
874	0.143
874	0.143
875	0.142
875	0.142
875	0.142
876	0.142
876	0.141
877	0.141
877	0.142
878	0.142
878	0.143
878	0.144
879	0.144
879	0.145
880	0.145
880	0.145
881	0.144
881	0.143
881	0.142
882	0.141
882	0.14
883	0.138
883	0.137
884	0.135
884	0.134
884	0.133
885	0.132
885	0.131
886	0.13
886	0.13
887	0.129
887	0.128
887	0.128
888	0.127
888	0.127
889	0.127
889	0.127
890	0.127
890	0.127
890	0.128
891	0.128
891	0.128
892	0.129
892	0.129
893	0.13
893	0.131
893	0.131
894	0.131
894	0.131
895	0.131
895	0.131
895	0.131
896	0.13
896	0.13
897	0.129
897	0.128
898	0.128
898	0.127
898	0.127
899	0.126
899	0.126
900	0.125
900	0.125
901	0.124
901	0.124
901	0.124
902	0.123
902	0.123
903	0.122
903	0.122
904	0.121
904	0.121
904	0.12
905	0.12
905	0.119
906	0.119
906	0.119
907	0.119
907	0.12
907	0.12
908	0.121
908	0.121
909	0.121
909	0.121
910	0.121
910	0.121
910	0.12
911	0.119
911	0.119
912	0.118
912	0.117
913	0.116
913	0.115
913	0.115
914	0.114
914	0.113
915	0.113
915	0.112
916	0.112
916	0.111
916	0.111
917	0.11
917	0.109
918	0.108
918	0.108
918	0.107
919	0.106
919	0.106
920	0.105
920	0.105
921	0.105
921	0.105
921	0.105
922	0.105
922	0.106
923	0.106
923	0.107
924	0.107
924	0.107
924	0.107
925	0.107
925	0.107
926	0.106
926	0.106
927	0.105
927	0.104
927	0.103
928	0.103
928	0.102
929	0.102
929	0.101
930	0.101
930	0.101
930	0.1
931	0.1
931	0.1
932	0.101
932	0.101
933	0.101
933	0.1
933	0.1
934	0.1
934	0.1
935	0.1
935	0.099
935	0.099
936	0.098
936	0.097
937	0.097
937	0.096
938	0.095
938	0.095
938	0.094
939	0.094
939	0.094
940	0.094
940	0.094
941	0.095
941	0.095
941	0.095
942	0.095
942	0.095
943	0.095
943	0.095
944	0.094
944	0.094
944	0.094
945	0.093
945	0.093
946	0.093
946	0.093
946	0.092
947	0.093
947	0.093
948	0.092
948	0.092
949	0.092
949	0.092
949	0.091
950	0.091
950	0.09
951	0.089
951	0.089
952	0.088
952	0.087
952	0.086
953	0.086
953	0.085
954	0.085
954	0.085
955	0.084
955	0.084
955	0.084
956	0.085
956	0.085
957	0.086
957	0.086
957	0.086
958	0.086
958	0.087
959	0.087
959	0.087
960	0.087
960	0.086
960	0.086
961	0.086
961	0.085
962	0.085
962	0.085
963	0.085
963	0.084
963	0.084
964	0.084
964	0.084
965	0.084
965	0.084
966	0.084
966	0.084
966	0.084
967	0.084
967	0.084
968	0.084
968	0.084
968	0.084
969	0.084
969	0.084
970	0.084
970	0.083
971	0.083
971	0.083
971	0.083
972	0.083
972	0.083
973	0.083
973	0.082
974	0.082
974	0.082
974	0.082
975	0.082
975	0.081
976	0.081
976	0.081
976	0.081
977	0.081
977	0.081
978	0.08
978	0.08
979	0.08
979	0.08
979	0.079
980	0.079
980	0.079
981	0.078
981	0.078
982	0.078
982	0.077
982	0.077
983	0.077
983	0.076
984	0.076
984	0.075
984	0.074
985	0.073
985	0.073
986	0.072
986	0.071
987	0.07
987	0.069
987	0.068
988	0.068
988	0.067
989	0.067
989	0.066
990	0.065
990	0.065
990	0.065
991	0.064
991	0.064
992	0.064
992	0.063
992	0.063
993	0.063
993	0.062
994	0.062
994	0.061
995	0.061
995	0.061
995	0.061
996	0.061
996	0.061
997	0.061
997	0.062
997	0.062
998	0.063
998	0.063
999	0.064
999	0.065
1000	0.066
1000	0.067
1000	0.067
1001	0.067
1001	0.068
1002	0.068
1002	0.068
1003	0.068
1003	0.068
1003	0.068
1004	0.068
1004	0.068
1005	0.068
1005	0.067
1005	0.067
1006	0.067
1006	0.067
1007	0.067
1007	0.066
1008	0.066
1008	0.066
1008	0.066
1009	0.066
1009	0.066
1010	0.066
1010	0.066
1010	0.066
1011	0.066
1011	0.065
1012	0.065
1012	0.065
1013	0.065
1013	0.064
1013	0.064
1014	0.063
1014	0.063
1015	0.062
1015	0.062
1016	0.062
1016	0.061
1016	0.06
1017	0.06
1017	0.059
1018	0.059
1018	0.059
1018	0.058
1019	0.058
1019	0.058
1020	0.057
1020	0.057
1021	0.057
1021	0.057
1021	0.057
1022	0.056
1022	0.056
1023	0.056
1023	0.056
1023	0.055
1024	0.055
1024	0.055
1025	0.054
1025	0.054
1026	0.053
1026	0.053
1026	0.052
1027	0.052
1027	0.051
1028	0.051
1028	0.051
1028	0.05
1029	0.05
1029	0.049
1030	0.049
1030	0.049
1031	0.049
1031	0.049
1031	0.048
1032	0.048
1032	0.048
1033	0.048
1033	0.048
1033	0.048
1034	0.048
1034	0.048
1035	0.048
1035	0.048
1036	0.048
1036	0.048
1036	0.048
1037	0.048
1037	0.048
1038	0.048
1038	0.048
1039	0.048
1039	0.048
1039	0.049
1040	0.049
1040	0.049
1041	0.049
1041	0.049
1041	0.049
1042	0.049
1042	0.049
1043	0.049
1043	0.049
1044	0.049
1044	0.049
1044	0.049
1045	0.049
1045	0.05
1046	0.05
1046	0.051
1046	0.051
1047	0.052
1047	0.052
1048	0.053
1048	0.054
1049	0.054
1049	0.054
1049	0.054
1050	0.054
1050	0.053
1051	0.052
1051	0.052
1051	0.051
1052	0.05
1052	0.049
1053	0.048
1053	0.047
1053	0.046
1054	0.045
1054	0.044
1055	0.044
1055	0.043
1056	0.042
1056	0.041
1056	0.04
1057	0.04
1057	0.039
1058	0.038
1058	0.037
1058	0.036
1059	0.036
1059	0.035
1060	0.034
1060	0.034
1061	0.033
1061	0.033
1061	0.033
1062	0.033
1062	0.033
1063	0.033
1063	0.033
1063	0.033
1064	0.032
1064	0.033
1065	0.032
1065	0.032
1066	0.033
1066	0.033
1066	0.033
1067	0.032
1067	0.032
1068	0.032
1068	0.032
1068	0.032
1069	0.032
1069	0.032
1070	0.031
1070	0.031
1071	0.03
1071	0.03
1071	0.029
1072	0.029
1072	0.029
1073	0.028
1073	0.028
1073	0.027
1074	0.027
1074	0.028
1075	0.027
1075	0.028
1076	0.028
1076	0.029
1076	0.029
1077	0.029
1077	0.029
1078	0.029
1078	0.029
1078	0.029
1079	0.03
1079	0.03
1080	0.029
1080	0.029
1080	0.029
1081	0.029
1081	0.029
1082	0.029
1082	0.029
1083	0.029
1083	0.028
1083	0.028
1084	0.027
1084	0.027
1085	0.027
1085	0.027
1085	0.027
1086	0.026
1086	0.025
1087	0.025
1087	0.024
1088	0.025
1088	0.024
1088	0.024
1089	0.024
1089	0.023
1090	0.022
1090	0.021
1090	0.02
1091	0.02
1091	0.02
1092	0.02
1092	0.02
1092	0.02
1093	0.019
1093	0.02
1094	0.02
1094	0.02
1095	0.02
1095	0.02
1095	0.02
1096	0.02
1096	0.019
1097	0.019
1097	0.018
1097	0.018
1098	0.017
1098	0.016
1099	0.015
1099	0.014
1100	0.013
1100	0.012
1100	0.011
1101	0.01
1101	0.009
1102	0.008
1102	0.007
1102	0.006
1103	0.005
1103	0.006
1104	0.005
1104	0.005
1104	0.004
1105	0.003
1105	0.002
1106	0.002
1106	0
1107	-0.001
1107	-0.001
1107	-0.003
1108	-0.004
1108	-0.005
1109	-0.007
1109	-0.008
1109	-0.008
1110	-0.006
1110	-0.008
1111	-0.008
1111	-0.006
