Data from reversibility-20sec_Absorbance__7986__000000000007986.txt Node

Date: Thu Dec 07 08:35:06 CET 2023
User: Marek
Spectrometer: MAYP115816
Trigger mode: 0
Integration Time (sec): 2.000000E-1
Scans to average: 10
Electric dark correction enabled: true
Nonlinearity correction enabled: true
Boxcar width: 5
XAxis mode: Wavelengths
Number of Pixels in Spectrum: 2068
>>>>>Begin Spectral Data<<<<<
199	-0.073
199	-0.046
200	0.012
200	0.058
201	0.084
201	0.099
202	0.103
202	0.112
203	0.122
203	0.124
204	0.137
204	0.146
205	0.158
205	0.164
205	0.163
206	0.161
206	0.162
207	0.166
207	0.165
208	0.164
208	0.165
209	0.169
209	0.168
210	0.168
210	0.167
211	0.169
211	0.176
212	0.175
212	0.175
213	0.179
213	0.179
213	0.177
214	0.181
214	0.185
215	0.185
215	0.186
216	0.188
216	0.184
217	0.186
217	0.191
218	0.19
218	0.194
219	0.199
219	0.196
220	0.197
220	0.201
221	0.201
221	0.203
221	0.21
222	0.219
222	0.222
223	0.231
223	0.235
224	0.24
224	0.25
225	0.258
225	0.266
226	0.276
226	0.283
227	0.29
227	0.297
228	0.31
228	0.325
229	0.342
229	0.366
229	0.386
230	0.41
230	0.441
231	0.475
231	0.512
232	0.55
232	0.594
233	0.641
233	0.687
234	0.738
234	0.789
235	0.845
235	0.898
236	0.948
236	1
236	1.052
237	1.106
237	1.152
238	1.196
238	1.241
239	1.286
239	1.328
240	1.363
240	1.397
241	1.432
241	1.465
242	1.499
242	1.529
243	1.56
243	1.585
243	1.61
244	1.63
244	1.651
245	1.671
245	1.695
246	1.711
246	1.724
247	1.738
247	1.751
248	1.763
248	1.776
249	1.784
249	1.791
250	1.795
250	1.801
250	1.802
251	1.805
251	1.809
252	1.811
252	1.81
253	1.809
253	1.807
254	1.805
254	1.806
255	1.805
255	1.805
256	1.804
256	1.803
257	1.802
257	1.8
258	1.799
258	1.8
258	1.8
259	1.799
259	1.799
260	1.8
260	1.802
261	1.804
261	1.806
262	1.808
262	1.81
263	1.812
263	1.813
264	1.813
264	1.815
265	1.815
265	1.815
265	1.814
266	1.813
266	1.813
267	1.812
267	1.813
268	1.813
268	1.811
269	1.813
269	1.814
270	1.813
270	1.812
271	1.811
271	1.811
272	1.809
272	1.807
272	1.802
273	1.796
273	1.789
274	1.783
274	1.776
275	1.769
275	1.762
276	1.754
276	1.744
277	1.734
277	1.724
278	1.712
278	1.699
278	1.685
279	1.667
279	1.645
280	1.617
280	1.585
281	1.546
281	1.503
282	1.457
282	1.412
283	1.367
283	1.323
284	1.28
284	1.24
285	1.202
285	1.167
285	1.137
286	1.11
286	1.087
287	1.067
287	1.05
288	1.036
288	1.023
289	1.013
289	1.004
290	0.996
290	0.989
291	0.983
291	0.978
292	0.974
292	0.97
292	0.966
293	0.962
293	0.958
294	0.955
294	0.952
295	0.949
295	0.946
296	0.943
296	0.94
297	0.937
297	0.934
298	0.931
298	0.928
298	0.925
299	0.922
299	0.919
300	0.916
300	0.913
301	0.911
301	0.908
302	0.906
302	0.903
303	0.901
303	0.899
304	0.897
304	0.894
305	0.892
305	0.89
305	0.888
306	0.885
306	0.883
307	0.881
307	0.878
308	0.875
308	0.873
309	0.87
309	0.867
310	0.865
310	0.861
311	0.858
311	0.855
311	0.852
312	0.848
312	0.845
313	0.841
313	0.837
314	0.833
314	0.829
315	0.825
315	0.821
316	0.816
316	0.812
317	0.807
317	0.802
318	0.797
318	0.792
318	0.786
319	0.781
319	0.775
320	0.77
320	0.764
321	0.758
321	0.751
322	0.745
322	0.738
323	0.732
323	0.725
324	0.718
324	0.711
324	0.705
325	0.698
325	0.69
326	0.683
326	0.677
327	0.669
327	0.662
328	0.655
328	0.648
329	0.641
329	0.634
330	0.627
330	0.62
330	0.613
331	0.605
331	0.598
332	0.591
332	0.584
333	0.576
333	0.569
334	0.562
334	0.555
335	0.548
335	0.541
336	0.534
336	0.527
336	0.52
337	0.513
337	0.507
338	0.5
338	0.494
339	0.488
339	0.482
340	0.476
340	0.47
341	0.464
341	0.458
342	0.453
342	0.447
342	0.442
343	0.437
343	0.431
344	0.426
344	0.421
345	0.416
345	0.412
346	0.407
346	0.402
347	0.398
347	0.394
348	0.389
348	0.385
348	0.381
349	0.377
349	0.374
350	0.37
350	0.366
351	0.363
351	0.359
352	0.356
352	0.353
353	0.35
353	0.347
354	0.344
354	0.342
354	0.339
355	0.336
355	0.333
356	0.33
356	0.327
357	0.325
357	0.322
358	0.32
358	0.317
359	0.315
359	0.312
360	0.31
360	0.308
360	0.306
361	0.305
361	0.303
362	0.301
362	0.299
363	0.297
363	0.296
364	0.294
364	0.292
365	0.29
365	0.288
366	0.286
366	0.285
366	0.283
367	0.281
367	0.28
368	0.278
368	0.277
369	0.275
369	0.274
370	0.273
370	0.271
371	0.27
371	0.269
372	0.268
372	0.266
372	0.265
373	0.264
373	0.263
374	0.263
374	0.262
375	0.261
375	0.26
376	0.259
376	0.258
377	0.258
377	0.257
378	0.256
378	0.255
378	0.254
379	0.253
379	0.253
380	0.252
380	0.251
381	0.251
381	0.25
382	0.25
382	0.249
383	0.249
383	0.248
383	0.248
384	0.247
384	0.247
385	0.246
385	0.246
386	0.246
386	0.245
387	0.245
387	0.244
388	0.244
388	0.244
389	0.244
389	0.243
389	0.243
390	0.243
390	0.243
391	0.242
391	0.242
392	0.241
392	0.241
393	0.241
393	0.24
394	0.24
394	0.24
394	0.239
395	0.239
395	0.239
396	0.238
396	0.238
397	0.238
397	0.238
398	0.238
398	0.237
399	0.237
399	0.237
400	0.237
400	0.236
400	0.236
401	0.236
401	0.235
402	0.235
402	0.235
403	0.235
403	0.235
404	0.235
404	0.234
405	0.234
405	0.234
405	0.234
406	0.234
406	0.233
407	0.233
407	0.233
408	0.233
408	0.232
409	0.232
409	0.232
410	0.232
410	0.231
411	0.231
411	0.231
411	0.231
412	0.231
412	0.23
413	0.23
413	0.23
414	0.229
414	0.229
415	0.229
415	0.229
416	0.228
416	0.228
416	0.227
417	0.227
417	0.227
418	0.227
418	0.226
419	0.226
419	0.225
420	0.225
420	0.224
421	0.224
421	0.224
421	0.223
422	0.223
422	0.223
423	0.222
423	0.222
424	0.222
424	0.221
425	0.221
425	0.221
426	0.221
426	0.221
427	0.22
427	0.22
427	0.219
428	0.219
428	0.219
429	0.218
429	0.218
430	0.217
430	0.217
431	0.217
431	0.217
432	0.217
432	0.216
432	0.216
433	0.216
433	0.216
434	0.216
434	0.216
435	0.215
435	0.215
436	0.215
436	0.215
437	0.215
437	0.214
437	0.214
438	0.214
438	0.213
439	0.213
439	0.213
440	0.212
440	0.212
441	0.212
441	0.211
442	0.211
442	0.211
442	0.211
443	0.21
443	0.21
444	0.21
444	0.21
445	0.21
445	0.21
446	0.21
446	0.209
447	0.209
447	0.209
447	0.209
448	0.209
448	0.208
449	0.208
449	0.208
450	0.207
450	0.207
451	0.207
451	0.207
452	0.207
452	0.206
452	0.206
453	0.206
453	0.206
454	0.205
454	0.205
455	0.205
455	0.205
456	0.205
456	0.204
457	0.204
457	0.204
458	0.203
458	0.203
458	0.203
459	0.203
459	0.203
460	0.202
460	0.202
461	0.202
461	0.202
462	0.201
462	0.201
463	0.201
463	0.201
463	0.2
464	0.2
464	0.199
465	0.199
465	0.199
466	0.199
466	0.199
467	0.199
467	0.198
467	0.198
468	0.198
468	0.198
469	0.198
469	0.199
470	0.199
470	0.199
471	0.198
471	0.198
472	0.198
472	0.198
472	0.198
473	0.198
473	0.198
474	0.197
474	0.197
475	0.197
475	0.197
476	0.197
476	0.197
477	0.197
477	0.196
477	0.196
478	0.196
478	0.196
479	0.196
479	0.196
480	0.196
480	0.196
481	0.196
481	0.195
482	0.196
482	0.196
482	0.196
483	0.196
483	0.196
484	0.196
484	0.196
485	0.195
485	0.195
486	0.195
486	0.195
487	0.195
487	0.195
487	0.195
488	0.195
488	0.195
489	0.195
489	0.195
490	0.196
490	0.196
491	0.197
491	0.197
492	0.197
492	0.197
492	0.198
493	0.198
493	0.198
494	0.198
494	0.199
495	0.199
495	0.199
496	0.199
496	0.199
496	0.2
497	0.2
497	0.2
498	0.2
498	0.2
499	0.201
499	0.201
500	0.202
500	0.202
501	0.203
501	0.203
501	0.203
502	0.203
502	0.203
503	0.203
503	0.204
504	0.204
504	0.204
505	0.205
505	0.205
506	0.205
506	0.205
506	0.205
507	0.206
507	0.206
508	0.207
508	0.207
509	0.207
509	0.207
510	0.208
510	0.208
511	0.208
511	0.208
511	0.209
512	0.209
512	0.21
513	0.21
513	0.21
514	0.211
514	0.211
515	0.211
515	0.211
515	0.212
516	0.212
516	0.212
517	0.213
517	0.213
518	0.213
518	0.213
519	0.213
519	0.214
520	0.214
520	0.214
520	0.214
521	0.214
521	0.214
522	0.215
522	0.215
523	0.215
523	0.216
524	0.216
524	0.216
524	0.217
525	0.217
525	0.217
526	0.217
526	0.218
527	0.218
527	0.217
528	0.217
528	0.218
529	0.218
529	0.218
529	0.218
530	0.218
530	0.218
531	0.218
531	0.217
532	0.217
532	0.217
533	0.217
533	0.217
533	0.217
534	0.217
534	0.217
535	0.217
535	0.217
536	0.217
536	0.217
537	0.217
537	0.217
538	0.217
538	0.217
538	0.217
539	0.217
539	0.217
540	0.217
540	0.217
541	0.217
541	0.217
542	0.217
542	0.217
542	0.216
543	0.217
543	0.217
544	0.216
544	0.216
545	0.216
545	0.216
546	0.216
546	0.215
547	0.215
547	0.214
547	0.214
548	0.214
548	0.213
549	0.213
549	0.213
550	0.213
550	0.213
551	0.213
551	0.213
551	0.213
552	0.213
552	0.213
553	0.213
553	0.213
554	0.213
554	0.212
555	0.212
555	0.211
556	0.211
556	0.21
556	0.211
557	0.211
557	0.211
558	0.211
558	0.211
559	0.211
559	0.211
560	0.211
560	0.211
560	0.211
561	0.211
561	0.211
562	0.21
562	0.209
563	0.209
563	0.208
564	0.207
564	0.207
564	0.207
565	0.207
565	0.207
566	0.206
566	0.206
567	0.207
567	0.207
568	0.206
568	0.206
568	0.206
569	0.206
569	0.205
570	0.204
570	0.204
571	0.203
571	0.203
572	0.202
572	0.202
573	0.202
573	0.201
573	0.201
574	0.201
574	0.201
575	0.2
575	0.2
576	0.2
576	0.199
577	0.199
577	0.198
577	0.198
578	0.198
578	0.197
579	0.197
579	0.198
580	0.198
580	0.197
581	0.197
581	0.197
581	0.197
582	0.197
582	0.197
583	0.197
583	0.197
584	0.196
584	0.194
585	0.194
585	0.194
585	0.194
586	0.194
586	0.194
587	0.193
587	0.193
588	0.192
588	0.192
589	0.192
589	0.192
590	0.192
590	0.192
590	0.192
591	0.192
591	0.192
592	0.191
592	0.19
593	0.19
593	0.19
594	0.19
594	0.189
594	0.189
595	0.188
595	0.188
596	0.187
596	0.188
597	0.189
597	0.189
598	0.189
598	0.189
598	0.189
599	0.189
599	0.188
600	0.188
600	0.188
601	0.187
601	0.187
602	0.187
602	0.186
602	0.186
603	0.186
603	0.186
604	0.186
604	0.186
605	0.186
605	0.186
606	0.186
606	0.185
606	0.185
607	0.184
607	0.184
608	0.184
608	0.183
609	0.182
609	0.182
610	0.182
610	0.181
610	0.181
611	0.182
611	0.182
612	0.182
612	0.182
613	0.182
613	0.182
614	0.182
614	0.182
614	0.182
615	0.182
615	0.182
616	0.182
616	0.182
617	0.182
617	0.182
618	0.182
618	0.182
618	0.182
619	0.182
619	0.182
620	0.182
620	0.181
621	0.181
621	0.18
622	0.18
622	0.18
622	0.179
623	0.179
623	0.179
624	0.179
624	0.178
625	0.178
625	0.178
626	0.178
626	0.178
626	0.179
627	0.179
627	0.179
628	0.179
628	0.179
629	0.178
629	0.178
630	0.178
630	0.178
630	0.178
631	0.178
631	0.177
632	0.177
632	0.177
633	0.176
633	0.176
634	0.177
634	0.177
634	0.177
635	0.176
635	0.176
636	0.176
636	0.176
637	0.175
637	0.175
638	0.175
638	0.175
638	0.175
639	0.174
639	0.174
640	0.174
640	0.174
641	0.174
641	0.173
642	0.173
642	0.173
642	0.173
643	0.173
643	0.173
644	0.174
644	0.174
645	0.174
645	0.175
646	0.176
646	0.176
646	0.176
647	0.176
647	0.176
648	0.176
648	0.175
649	0.175
649	0.174
650	0.174
650	0.174
650	0.174
651	0.174
651	0.174
652	0.174
652	0.174
653	0.175
653	0.176
653	0.181
654	0.143
654	0.115
655	0.115
655	0.115
656	0.115
656	0.116
657	0.116
657	0.116
657	0.116
658	0.115
658	0.106
659	0.133
659	0.17
660	0.175
660	0.175
661	0.174
661	0.174
661	0.173
662	0.173
662	0.172
663	0.172
663	0.172
664	0.172
664	0.172
665	0.172
665	0.172
665	0.172
666	0.172
666	0.172
667	0.173
667	0.173
668	0.173
668	0.173
669	0.173
669	0.174
669	0.174
670	0.174
670	0.174
671	0.174
671	0.173
672	0.173
672	0.173
672	0.172
673	0.172
673	0.172
674	0.172
674	0.171
675	0.171
675	0.171
676	0.171
676	0.171
676	0.172
677	0.172
677	0.172
678	0.172
678	0.172
679	0.171
679	0.172
680	0.172
680	0.172
680	0.172
681	0.172
681	0.172
682	0.172
682	0.172
683	0.172
683	0.173
684	0.172
684	0.172
684	0.172
685	0.172
685	0.172
686	0.171
686	0.171
687	0.171
687	0.171
687	0.172
688	0.172
688	0.172
689	0.173
689	0.174
690	0.174
690	0.173
691	0.173
691	0.174
691	0.174
692	0.174
692	0.174
693	0.174
693	0.175
694	0.175
694	0.175
695	0.175
695	0.176
695	0.177
696	0.177
696	0.177
697	0.177
697	0.176
698	0.176
698	0.176
698	0.176
699	0.176
699	0.175
700	0.174
700	0.174
701	0.174
701	0.174
702	0.173
702	0.173
702	0.172
703	0.172
703	0.171
704	0.171
704	0.171
705	0.171
705	0.17
705	0.17
706	0.17
706	0.171
707	0.171
707	0.171
708	0.172
708	0.172
709	0.172
709	0.172
709	0.172
710	0.173
710	0.173
711	0.174
711	0.174
712	0.175
712	0.175
713	0.175
713	0.175
713	0.175
714	0.175
714	0.175
715	0.175
715	0.175
716	0.174
716	0.174
716	0.173
717	0.173
717	0.172
718	0.172
718	0.172
719	0.172
719	0.173
720	0.173
720	0.174
720	0.174
721	0.175
721	0.176
722	0.177
722	0.178
723	0.178
723	0.178
723	0.178
724	0.178
724	0.177
725	0.176
725	0.176
726	0.175
726	0.174
727	0.174
727	0.173
727	0.173
728	0.173
728	0.173
729	0.174
729	0.174
730	0.174
730	0.174
730	0.175
731	0.175
731	0.175
732	0.176
732	0.176
733	0.176
733	0.176
734	0.177
734	0.177
734	0.177
735	0.177
735	0.177
736	0.177
736	0.177
737	0.177
737	0.177
737	0.176
738	0.176
738	0.175
739	0.175
739	0.174
740	0.175
740	0.175
741	0.176
741	0.176
741	0.177
742	0.177
742	0.178
743	0.18
743	0.18
744	0.181
744	0.182
744	0.182
745	0.182
745	0.182
746	0.182
746	0.181
747	0.181
747	0.181
748	0.18
748	0.18
748	0.18
749	0.18
749	0.181
750	0.181
750	0.181
751	0.181
751	0.182
751	0.182
752	0.182
752	0.182
753	0.182
753	0.181
754	0.181
754	0.18
754	0.18
755	0.18
755	0.18
756	0.179
756	0.178
757	0.178
757	0.178
758	0.178
758	0.178
758	0.178
759	0.178
759	0.178
760	0.178
760	0.177
761	0.178
761	0.178
761	0.179
762	0.179
762	0.179
763	0.18
763	0.18
764	0.18
764	0.18
764	0.18
765	0.18
765	0.18
766	0.18
766	0.18
767	0.179
767	0.179
768	0.178
768	0.179
768	0.179
769	0.179
769	0.179
770	0.18
770	0.18
771	0.181
771	0.181
771	0.181
772	0.181
772	0.182
773	0.182
773	0.182
774	0.182
774	0.183
775	0.183
775	0.183
775	0.183
776	0.184
776	0.184
777	0.185
777	0.186
778	0.186
778	0.185
778	0.185
779	0.185
779	0.185
780	0.184
780	0.183
781	0.183
781	0.182
781	0.181
782	0.181
782	0.181
783	0.181
783	0.181
784	0.181
784	0.182
784	0.183
785	0.183
785	0.184
786	0.184
786	0.185
787	0.185
787	0.185
788	0.184
788	0.184
788	0.183
789	0.183
789	0.184
790	0.184
790	0.184
791	0.184
791	0.184
791	0.184
792	0.185
792	0.185
793	0.185
793	0.185
794	0.185
794	0.185
794	0.185
795	0.185
795	0.185
796	0.185
796	0.185
797	0.185
797	0.185
797	0.185
798	0.185
798	0.185
799	0.185
799	0.185
800	0.185
800	0.185
801	0.185
801	0.185
801	0.186
802	0.186
802	0.187
803	0.187
803	0.188
804	0.188
804	0.189
804	0.189
805	0.189
805	0.189
806	0.189
806	0.188
807	0.188
807	0.188
807	0.188
808	0.188
808	0.187
809	0.187
809	0.187
810	0.188
810	0.188
810	0.188
811	0.188
811	0.189
812	0.19
812	0.19
813	0.191
813	0.191
813	0.192
814	0.192
814	0.193
815	0.193
815	0.193
816	0.193
816	0.192
817	0.191
817	0.191
817	0.19
818	0.19
818	0.19
819	0.189
819	0.189
820	0.188
820	0.188
820	0.188
821	0.189
821	0.189
822	0.19
822	0.19
823	0.19
823	0.19
823	0.191
824	0.192
824	0.193
825	0.194
825	0.195
826	0.196
826	0.196
826	0.197
827	0.197
827	0.198
828	0.198
828	0.198
829	0.198
829	0.199
829	0.199
830	0.199
830	0.199
831	0.2
831	0.199
832	0.199
832	0.199
832	0.199
833	0.199
833	0.199
834	0.199
834	0.198
835	0.198
835	0.197
835	0.197
836	0.197
836	0.196
837	0.196
837	0.195
838	0.195
838	0.194
839	0.193
839	0.192
839	0.191
840	0.19
840	0.189
841	0.188
841	0.187
842	0.187
842	0.186
842	0.185
843	0.185
843	0.185
844	0.185
844	0.185
845	0.185
845	0.185
845	0.185
846	0.186
846	0.186
847	0.187
847	0.187
848	0.188
848	0.188
848	0.188
849	0.187
849	0.187
850	0.186
850	0.186
851	0.185
851	0.185
851	0.184
852	0.184
852	0.184
853	0.184
853	0.184
854	0.185
854	0.186
854	0.187
855	0.188
855	0.189
856	0.19
856	0.191
857	0.192
857	0.193
857	0.194
858	0.194
858	0.194
859	0.195
859	0.195
860	0.195
860	0.195
860	0.195
861	0.194
861	0.194
862	0.193
862	0.192
863	0.192
863	0.192
863	0.191
864	0.191
864	0.191
865	0.191
865	0.191
866	0.191
866	0.19
866	0.19
867	0.191
867	0.191
868	0.191
868	0.191
869	0.19
869	0.19
869	0.189
870	0.189
870	0.189
871	0.189
871	0.189
872	0.189
872	0.189
872	0.188
873	0.188
873	0.188
874	0.187
874	0.187
875	0.187
875	0.186
875	0.186
876	0.186
876	0.185
877	0.185
877	0.185
878	0.185
878	0.185
878	0.185
879	0.185
879	0.185
880	0.185
880	0.185
881	0.186
881	0.186
881	0.186
882	0.186
882	0.186
883	0.186
883	0.187
884	0.187
884	0.188
884	0.188
885	0.188
885	0.188
886	0.188
886	0.188
887	0.188
887	0.188
887	0.188
888	0.187
888	0.187
889	0.187
889	0.187
890	0.187
890	0.188
890	0.188
891	0.188
891	0.189
892	0.189
892	0.189
893	0.189
893	0.189
893	0.188
894	0.188
894	0.187
895	0.186
895	0.186
895	0.185
896	0.185
896	0.184
897	0.183
897	0.183
898	0.182
898	0.182
898	0.181
899	0.181
899	0.18
900	0.18
900	0.18
901	0.18
901	0.179
901	0.179
902	0.179
902	0.179
903	0.179
903	0.179
904	0.179
904	0.179
904	0.179
905	0.179
905	0.178
906	0.178
906	0.178
907	0.178
907	0.178
907	0.178
908	0.178
908	0.177
909	0.177
909	0.177
910	0.176
910	0.176
910	0.175
911	0.174
911	0.174
912	0.173
912	0.172
913	0.172
913	0.171
913	0.171
914	0.17
914	0.17
915	0.17
915	0.17
916	0.17
916	0.17
916	0.17
917	0.17
917	0.17
918	0.17
918	0.17
918	0.17
919	0.17
919	0.169
920	0.169
920	0.169
921	0.169
921	0.169
921	0.169
922	0.169
922	0.17
923	0.17
923	0.17
924	0.17
924	0.17
924	0.17
925	0.17
925	0.17
926	0.17
926	0.171
927	0.171
927	0.171
927	0.171
928	0.171
928	0.171
929	0.171
929	0.171
930	0.171
930	0.171
930	0.171
931	0.17
931	0.17
932	0.169
932	0.169
933	0.168
933	0.168
933	0.167
934	0.167
934	0.166
935	0.166
935	0.165
935	0.165
936	0.165
936	0.164
937	0.164
937	0.163
938	0.163
938	0.162
938	0.162
939	0.161
939	0.161
940	0.16
940	0.16
941	0.16
941	0.16
941	0.16
942	0.161
942	0.161
943	0.161
943	0.161
944	0.161
944	0.162
944	0.162
945	0.162
945	0.162
946	0.162
946	0.161
946	0.161
947	0.161
947	0.16
948	0.16
948	0.16
949	0.159
949	0.159
949	0.158
950	0.158
950	0.157
951	0.157
951	0.156
952	0.155
952	0.155
952	0.154
953	0.153
953	0.153
954	0.152
954	0.152
955	0.152
955	0.151
955	0.152
956	0.152
956	0.153
957	0.154
957	0.155
957	0.156
958	0.157
958	0.158
959	0.159
959	0.159
960	0.16
960	0.16
960	0.16
961	0.16
961	0.16
962	0.159
962	0.159
963	0.158
963	0.157
963	0.157
964	0.156
964	0.156
965	0.156
965	0.155
966	0.155
966	0.155
966	0.155
967	0.155
967	0.155
968	0.155
968	0.155
968	0.155
969	0.155
969	0.154
970	0.154
970	0.153
971	0.152
971	0.151
971	0.15
972	0.149
972	0.148
973	0.147
973	0.147
974	0.146
974	0.146
974	0.146
975	0.146
975	0.146
976	0.146
976	0.146
976	0.146
977	0.146
977	0.146
978	0.146
978	0.147
979	0.146
979	0.146
979	0.147
980	0.147
980	0.147
981	0.147
981	0.148
982	0.148
982	0.148
982	0.148
983	0.148
983	0.148
984	0.148
984	0.148
984	0.148
985	0.148
985	0.147
986	0.147
986	0.146
987	0.146
987	0.145
987	0.145
988	0.144
988	0.143
989	0.143
989	0.142
990	0.142
990	0.142
990	0.141
991	0.141
991	0.14
992	0.14
992	0.139
992	0.139
993	0.138
993	0.137
994	0.137
994	0.136
995	0.136
995	0.135
995	0.135
996	0.135
996	0.135
997	0.135
997	0.136
997	0.136
998	0.137
998	0.137
999	0.138
999	0.138
1000	0.139
1000	0.14
1000	0.141
1001	0.141
1001	0.141
1002	0.141
1002	0.141
1003	0.141
1003	0.141
1003	0.141
1004	0.141
1004	0.14
1005	0.14
1005	0.139
1005	0.139
1006	0.139
1006	0.139
1007	0.138
1007	0.138
1008	0.138
1008	0.138
1008	0.138
1009	0.138
1009	0.138
1010	0.137
1010	0.137
1010	0.136
1011	0.136
1011	0.135
1012	0.134
1012	0.134
1013	0.133
1013	0.132
1013	0.132
1014	0.131
1014	0.131
1015	0.131
1015	0.131
1016	0.131
1016	0.131
1016	0.13
1017	0.13
1017	0.13
1018	0.131
1018	0.131
1018	0.13
1019	0.13
1019	0.13
1020	0.13
1020	0.13
1021	0.131
1021	0.131
1021	0.132
1022	0.132
1022	0.132
1023	0.132
1023	0.132
1023	0.132
1024	0.132
1024	0.132
1025	0.132
1025	0.132
1026	0.132
1026	0.131
1026	0.131
1027	0.131
1027	0.131
1028	0.131
1028	0.131
1028	0.131
1029	0.131
1029	0.131
1030	0.131
1030	0.131
1031	0.131
1031	0.131
1031	0.131
1032	0.131
1032	0.131
1033	0.13
1033	0.13
1033	0.13
1034	0.13
1034	0.13
1035	0.129
1035	0.129
1036	0.129
1036	0.129
1036	0.129
1037	0.129
1037	0.129
1038	0.128
1038	0.128
1039	0.128
1039	0.128
1039	0.128
1040	0.127
1040	0.127
1041	0.127
1041	0.127
1041	0.126
1042	0.126
1042	0.126
1043	0.126
1043	0.126
1044	0.125
1044	0.125
1044	0.125
1045	0.125
1045	0.124
1046	0.124
1046	0.124
1046	0.124
1047	0.123
1047	0.123
1048	0.123
1048	0.122
1049	0.122
1049	0.122
1049	0.122
1050	0.121
1050	0.121
1051	0.12
1051	0.12
1051	0.119
1052	0.119
1052	0.118
1053	0.118
1053	0.117
1053	0.116
1054	0.116
1054	0.116
1055	0.115
1055	0.115
1056	0.114
1056	0.114
1056	0.113
1057	0.112
1057	0.112
1058	0.111
1058	0.11
1058	0.109
1059	0.109
1059	0.108
1060	0.108
1060	0.107
1061	0.107
1061	0.107
1061	0.107
1062	0.107
1062	0.107
1063	0.107
1063	0.107
1063	0.107
1064	0.107
1064	0.107
1065	0.107
1065	0.107
1066	0.107
1066	0.106
1066	0.106
1067	0.106
1067	0.106
1068	0.106
1068	0.105
1068	0.105
1069	0.105
1069	0.105
1070	0.105
1070	0.105
1071	0.104
1071	0.104
1071	0.104
1072	0.104
1072	0.103
1073	0.103
1073	0.103
1073	0.103
1074	0.103
1074	0.103
1075	0.104
1075	0.104
1076	0.104
1076	0.105
1076	0.105
1077	0.105
1077	0.106
1078	0.105
1078	0.106
1078	0.106
1079	0.105
1079	0.104
1080	0.104
1080	0.103
1080	0.103
1081	0.103
1081	0.103
1082	0.103
1082	0.103
1083	0.103
1083	0.103
1083	0.103
1084	0.103
1084	0.104
1085	0.104
1085	0.104
1085	0.104
1086	0.105
1086	0.104
1087	0.104
1087	0.103
1088	0.104
1088	0.104
1088	0.104
1089	0.103
1089	0.102
1090	0.101
1090	0.101
1090	0.1
1091	0.099
1091	0.099
1092	0.1
1092	0.1
1092	0.1
1093	0.099
1093	0.1
1094	0.1
1094	0.1
1095	0.1
1095	0.099
1095	0.099
1096	0.098
1096	0.097
1097	0.096
1097	0.096
1097	0.095
1098	0.094
1098	0.092
1099	0.091
1099	0.09
1100	0.089
1100	0.088
1100	0.087
1101	0.087
1101	0.086
1102	0.085
1102	0.084
1102	0.082
1103	0.082
1103	0.082
1104	0.082
1104	0.082
1104	0.081
1105	0.08
1105	0.078
1106	0.076
1106	0.075
1107	0.074
1107	0.075
1107	0.075
1108	0.074
1108	0.072
1109	0.071
1109	0.071
1109	0.071
1110	0.073
1110	0.074
1111	0.075
1111	0.078
