Data from reversibility-20sec_Absorbance__8168__000000000008168.txt Node

Date: Thu Dec 07 09:35:45 CET 2023
User: Marek
Spectrometer: MAYP115816
Trigger mode: 0
Integration Time (sec): 2.000000E-1
Scans to average: 10
Electric dark correction enabled: true
Nonlinearity correction enabled: true
Boxcar width: 5
XAxis mode: Wavelengths
Number of Pixels in Spectrum: 2068
>>>>>Begin Spectral Data<<<<<
199	-0.157
199	-0.111
200	-0.04
200	0.007
201	0.028
201	0.047
202	0.057
202	0.069
203	0.074
203	0.076
204	0.092
204	0.103
205	0.111
205	0.114
205	0.112
206	0.113
206	0.111
207	0.112
207	0.109
208	0.108
208	0.106
209	0.108
209	0.107
210	0.108
210	0.109
211	0.112
211	0.115
212	0.114
212	0.115
213	0.12
213	0.12
213	0.124
214	0.125
214	0.128
215	0.129
215	0.13
216	0.132
216	0.129
217	0.134
217	0.138
218	0.137
218	0.142
219	0.145
219	0.146
220	0.152
220	0.151
221	0.15
221	0.153
221	0.16
222	0.164
222	0.167
223	0.172
223	0.176
224	0.179
224	0.187
225	0.194
225	0.208
226	0.223
226	0.233
227	0.244
227	0.253
228	0.269
228	0.286
229	0.304
229	0.329
229	0.351
230	0.375
230	0.403
231	0.433
231	0.467
232	0.506
232	0.55
233	0.592
233	0.639
234	0.69
234	0.742
235	0.796
235	0.847
236	0.896
236	0.947
236	1
237	1.049
237	1.097
238	1.143
238	1.19
239	1.235
239	1.273
240	1.313
240	1.35
241	1.387
241	1.421
242	1.452
242	1.484
243	1.511
243	1.538
243	1.563
244	1.585
244	1.61
245	1.629
245	1.65
246	1.665
246	1.681
247	1.693
247	1.708
248	1.723
248	1.738
249	1.745
249	1.753
250	1.757
250	1.766
250	1.77
251	1.777
251	1.782
252	1.788
252	1.787
253	1.788
253	1.786
254	1.79
254	1.793
255	1.793
255	1.794
256	1.796
256	1.795
257	1.796
257	1.795
258	1.795
258	1.795
258	1.794
259	1.791
259	1.789
260	1.79
260	1.79
261	1.789
261	1.791
262	1.791
262	1.791
263	1.793
263	1.793
264	1.794
264	1.795
265	1.796
265	1.796
265	1.795
266	1.794
266	1.793
267	1.791
267	1.792
268	1.791
268	1.792
269	1.793
269	1.791
270	1.79
270	1.787
271	1.786
271	1.786
272	1.785
272	1.785
272	1.781
273	1.777
273	1.773
274	1.769
274	1.765
275	1.761
275	1.757
276	1.75
276	1.743
277	1.735
277	1.725
278	1.715
278	1.705
278	1.693
279	1.679
279	1.663
280	1.643
280	1.62
281	1.591
281	1.559
282	1.524
282	1.487
283	1.45
283	1.413
284	1.377
284	1.34
285	1.306
285	1.273
285	1.244
286	1.217
286	1.193
287	1.172
287	1.154
288	1.139
288	1.125
289	1.113
289	1.103
290	1.094
290	1.086
291	1.078
291	1.072
292	1.067
292	1.061
292	1.056
293	1.051
293	1.047
294	1.043
294	1.039
295	1.036
295	1.032
296	1.028
296	1.024
297	1.021
297	1.017
298	1.014
298	1.01
298	1.007
299	1.003
299	1
300	0.996
300	0.993
301	0.99
301	0.987
302	0.984
302	0.981
303	0.978
303	0.975
304	0.972
304	0.97
305	0.967
305	0.964
305	0.961
306	0.959
306	0.956
307	0.953
307	0.95
308	0.947
308	0.944
309	0.941
309	0.938
310	0.935
310	0.932
311	0.928
311	0.925
311	0.921
312	0.917
312	0.914
313	0.909
313	0.905
314	0.901
314	0.897
315	0.892
315	0.888
316	0.883
316	0.878
317	0.874
317	0.868
318	0.863
318	0.858
318	0.852
319	0.846
319	0.841
320	0.835
320	0.829
321	0.823
321	0.817
322	0.81
322	0.804
323	0.797
323	0.791
324	0.784
324	0.777
324	0.77
325	0.763
325	0.756
326	0.749
326	0.742
327	0.735
327	0.728
328	0.721
328	0.714
329	0.706
329	0.699
330	0.692
330	0.685
330	0.678
331	0.671
331	0.663
332	0.656
332	0.649
333	0.642
333	0.635
334	0.628
334	0.621
335	0.614
335	0.607
336	0.6
336	0.593
336	0.587
337	0.58
337	0.574
338	0.567
338	0.561
339	0.555
339	0.549
340	0.542
340	0.536
341	0.53
341	0.525
342	0.519
342	0.514
342	0.508
343	0.502
343	0.497
344	0.492
344	0.487
345	0.482
345	0.477
346	0.473
346	0.468
347	0.464
347	0.459
348	0.455
348	0.451
348	0.447
349	0.443
349	0.439
350	0.435
350	0.432
351	0.428
351	0.425
352	0.421
352	0.418
353	0.415
353	0.412
354	0.409
354	0.406
354	0.403
355	0.399
355	0.396
356	0.393
356	0.391
357	0.388
357	0.385
358	0.382
358	0.379
359	0.377
359	0.375
360	0.373
360	0.371
360	0.369
361	0.366
361	0.364
362	0.362
362	0.361
363	0.359
363	0.357
364	0.355
364	0.352
365	0.35
365	0.348
366	0.346
366	0.345
366	0.343
367	0.341
367	0.339
368	0.338
368	0.336
369	0.334
369	0.333
370	0.331
370	0.33
371	0.328
371	0.327
372	0.326
372	0.324
372	0.323
373	0.322
373	0.321
374	0.32
374	0.319
375	0.318
375	0.317
376	0.316
376	0.315
377	0.313
377	0.312
378	0.311
378	0.31
378	0.309
379	0.308
379	0.307
380	0.307
380	0.306
381	0.305
381	0.304
382	0.303
382	0.303
383	0.302
383	0.302
383	0.301
384	0.3
384	0.3
385	0.299
385	0.299
386	0.298
386	0.297
387	0.297
387	0.296
388	0.296
388	0.295
389	0.295
389	0.294
389	0.294
390	0.293
390	0.293
391	0.292
391	0.292
392	0.292
392	0.292
393	0.291
393	0.29
394	0.29
394	0.289
394	0.289
395	0.289
395	0.288
396	0.288
396	0.287
397	0.287
397	0.286
398	0.286
398	0.285
399	0.285
399	0.284
400	0.284
400	0.284
400	0.283
401	0.283
401	0.282
402	0.282
402	0.281
403	0.281
403	0.281
404	0.281
404	0.28
405	0.28
405	0.279
405	0.279
406	0.279
406	0.278
407	0.278
407	0.278
408	0.277
408	0.277
409	0.277
409	0.276
410	0.276
410	0.276
411	0.275
411	0.275
411	0.275
412	0.275
412	0.274
413	0.274
413	0.273
414	0.273
414	0.273
415	0.273
415	0.272
416	0.272
416	0.272
416	0.271
417	0.271
417	0.271
418	0.27
418	0.27
419	0.269
419	0.269
420	0.268
420	0.267
421	0.267
421	0.266
421	0.266
422	0.266
422	0.265
423	0.265
423	0.265
424	0.264
424	0.264
425	0.264
425	0.264
426	0.264
426	0.263
427	0.263
427	0.263
427	0.262
428	0.262
428	0.262
429	0.261
429	0.261
430	0.261
430	0.26
431	0.26
431	0.26
432	0.259
432	0.259
432	0.259
433	0.259
433	0.258
434	0.258
434	0.258
435	0.258
435	0.258
436	0.258
436	0.258
437	0.257
437	0.257
437	0.257
438	0.257
438	0.257
439	0.256
439	0.256
440	0.256
440	0.256
441	0.255
441	0.255
442	0.255
442	0.255
442	0.255
443	0.255
443	0.255
444	0.255
444	0.254
445	0.254
445	0.254
446	0.254
446	0.254
447	0.254
447	0.253
447	0.253
448	0.253
448	0.253
449	0.253
449	0.253
450	0.253
450	0.253
451	0.253
451	0.252
452	0.253
452	0.253
452	0.253
453	0.253
453	0.253
454	0.253
454	0.252
455	0.252
455	0.252
456	0.252
456	0.252
457	0.252
457	0.252
458	0.252
458	0.252
458	0.252
459	0.252
459	0.252
460	0.252
460	0.252
461	0.252
461	0.252
462	0.252
462	0.252
463	0.252
463	0.252
463	0.252
464	0.252
464	0.252
465	0.251
465	0.252
466	0.252
466	0.252
467	0.252
467	0.252
467	0.252
468	0.252
468	0.252
469	0.252
469	0.253
470	0.253
470	0.253
471	0.254
471	0.254
472	0.254
472	0.254
472	0.255
473	0.255
473	0.255
474	0.256
474	0.256
475	0.256
475	0.256
476	0.257
476	0.257
477	0.257
477	0.258
477	0.258
478	0.258
478	0.259
479	0.259
479	0.26
480	0.26
480	0.261
481	0.261
481	0.261
482	0.262
482	0.262
482	0.263
483	0.263
483	0.263
484	0.264
484	0.264
485	0.264
485	0.264
486	0.265
486	0.265
487	0.266
487	0.266
487	0.267
488	0.267
488	0.268
489	0.269
489	0.271
490	0.272
490	0.273
491	0.274
491	0.275
492	0.276
492	0.278
492	0.278
493	0.279
493	0.28
494	0.281
494	0.282
495	0.283
495	0.284
496	0.285
496	0.286
496	0.287
497	0.287
497	0.288
498	0.289
498	0.29
499	0.291
499	0.292
500	0.293
500	0.295
501	0.296
501	0.297
501	0.298
502	0.299
502	0.299
503	0.301
503	0.301
504	0.302
504	0.303
505	0.304
505	0.305
506	0.306
506	0.307
506	0.308
507	0.309
507	0.31
508	0.31
508	0.311
509	0.312
509	0.313
510	0.314
510	0.314
511	0.315
511	0.316
511	0.317
512	0.318
512	0.319
513	0.32
513	0.321
514	0.321
514	0.322
515	0.323
515	0.323
515	0.323
516	0.324
516	0.324
517	0.325
517	0.325
518	0.326
518	0.326
519	0.326
519	0.326
520	0.327
520	0.327
520	0.327
521	0.327
521	0.327
522	0.327
522	0.327
523	0.327
523	0.327
524	0.327
524	0.327
524	0.327
525	0.326
525	0.326
526	0.326
526	0.325
527	0.325
527	0.324
528	0.324
528	0.323
529	0.323
529	0.322
529	0.321
530	0.32
530	0.32
531	0.319
531	0.318
532	0.317
532	0.316
533	0.315
533	0.314
533	0.312
534	0.311
534	0.31
535	0.309
535	0.308
536	0.307
536	0.306
537	0.304
537	0.303
538	0.302
538	0.3
538	0.299
539	0.298
539	0.297
540	0.295
540	0.294
541	0.293
541	0.291
542	0.29
542	0.288
542	0.287
543	0.285
543	0.284
544	0.282
544	0.281
545	0.279
545	0.278
546	0.276
546	0.274
547	0.272
547	0.271
547	0.269
548	0.268
548	0.266
549	0.264
549	0.263
550	0.261
550	0.259
551	0.258
551	0.256
551	0.254
552	0.253
552	0.251
553	0.249
553	0.248
554	0.246
554	0.244
555	0.243
555	0.241
556	0.239
556	0.238
556	0.236
557	0.235
557	0.234
558	0.233
558	0.232
559	0.231
559	0.229
560	0.228
560	0.227
560	0.226
561	0.225
561	0.223
562	0.221
562	0.22
563	0.218
563	0.216
564	0.214
564	0.213
564	0.211
565	0.21
565	0.209
566	0.207
566	0.206
567	0.205
567	0.204
568	0.202
568	0.201
568	0.2
569	0.199
569	0.197
570	0.195
570	0.194
571	0.192
571	0.191
572	0.19
572	0.189
573	0.188
573	0.187
573	0.185
574	0.184
574	0.184
575	0.183
575	0.182
576	0.182
576	0.18
577	0.179
577	0.178
577	0.177
578	0.176
578	0.175
579	0.175
579	0.174
580	0.173
580	0.171
581	0.17
581	0.169
581	0.169
582	0.168
582	0.167
583	0.167
583	0.166
584	0.164
584	0.162
585	0.161
585	0.161
585	0.16
586	0.159
586	0.158
587	0.157
587	0.157
588	0.156
588	0.155
589	0.155
589	0.154
590	0.154
590	0.153
590	0.153
591	0.153
591	0.152
592	0.151
592	0.15
593	0.149
593	0.149
594	0.148
594	0.147
594	0.146
595	0.145
595	0.144
596	0.143
596	0.143
597	0.143
597	0.143
598	0.142
598	0.141
598	0.141
599	0.14
599	0.14
600	0.139
600	0.139
601	0.138
601	0.138
602	0.137
602	0.136
602	0.136
603	0.135
603	0.135
604	0.136
604	0.135
605	0.135
605	0.135
606	0.134
606	0.133
606	0.133
607	0.132
607	0.132
608	0.131
608	0.13
609	0.129
609	0.129
610	0.128
610	0.127
610	0.127
611	0.127
611	0.127
612	0.127
612	0.127
613	0.127
613	0.127
614	0.126
614	0.126
614	0.126
615	0.126
615	0.125
616	0.125
616	0.124
617	0.124
617	0.123
618	0.123
618	0.122
618	0.122
619	0.122
619	0.122
620	0.122
620	0.122
621	0.121
621	0.121
622	0.12
622	0.12
622	0.119
623	0.119
623	0.119
624	0.119
624	0.118
625	0.118
625	0.118
626	0.117
626	0.117
626	0.117
627	0.117
627	0.117
628	0.116
628	0.116
629	0.116
629	0.115
630	0.114
630	0.114
630	0.114
631	0.113
631	0.113
632	0.112
632	0.112
633	0.112
633	0.111
634	0.111
634	0.112
634	0.111
635	0.111
635	0.111
636	0.111
636	0.11
637	0.11
637	0.11
638	0.11
638	0.109
638	0.109
639	0.109
639	0.108
640	0.109
640	0.108
641	0.108
641	0.108
642	0.108
642	0.108
642	0.108
643	0.108
643	0.108
644	0.108
644	0.108
645	0.107
645	0.107
646	0.107
646	0.107
646	0.107
647	0.106
647	0.106
648	0.105
648	0.104
649	0.103
649	0.103
650	0.103
650	0.103
650	0.102
651	0.102
651	0.102
652	0.102
652	0.103
653	0.103
653	0.105
653	0.11
654	0.089
654	0.072
655	0.07
655	0.07
656	0.07
656	0.071
657	0.071
657	0.071
657	0.071
658	0.07
658	0.063
659	0.078
659	0.099
660	0.104
660	0.104
661	0.104
661	0.103
661	0.103
662	0.102
662	0.101
663	0.101
663	0.1
664	0.1
664	0.1
665	0.1
665	0.099
665	0.099
666	0.099
666	0.1
667	0.1
667	0.1
668	0.1
668	0.1
669	0.101
669	0.101
669	0.101
670	0.101
670	0.101
671	0.101
671	0.1
672	0.1
672	0.099
672	0.099
673	0.099
673	0.099
674	0.098
674	0.098
675	0.098
675	0.098
676	0.098
676	0.098
676	0.098
677	0.098
677	0.098
678	0.098
678	0.097
679	0.097
679	0.097
680	0.097
680	0.096
680	0.096
681	0.096
681	0.096
682	0.097
682	0.097
683	0.097
683	0.097
684	0.097
684	0.097
684	0.096
685	0.097
685	0.097
686	0.097
686	0.096
687	0.096
687	0.096
687	0.096
688	0.096
688	0.095
689	0.096
689	0.096
690	0.096
690	0.096
691	0.096
691	0.096
691	0.096
692	0.096
692	0.096
693	0.096
693	0.097
694	0.097
694	0.097
695	0.097
695	0.099
695	0.099
696	0.099
696	0.099
697	0.099
697	0.099
698	0.099
698	0.099
698	0.099
699	0.099
699	0.099
700	0.098
700	0.098
701	0.098
701	0.098
702	0.097
702	0.097
702	0.097
703	0.096
703	0.095
704	0.094
704	0.094
705	0.094
705	0.093
705	0.093
706	0.092
706	0.092
707	0.092
707	0.092
708	0.092
708	0.093
709	0.093
709	0.093
709	0.093
710	0.093
710	0.093
711	0.094
711	0.094
712	0.094
712	0.094
713	0.094
713	0.094
713	0.094
714	0.094
714	0.093
715	0.093
715	0.092
716	0.091
716	0.091
716	0.09
717	0.09
717	0.09
718	0.089
718	0.089
719	0.09
719	0.091
720	0.091
720	0.092
720	0.092
721	0.093
721	0.094
722	0.094
722	0.094
723	0.094
723	0.094
723	0.094
724	0.093
724	0.093
725	0.092
725	0.091
726	0.09
726	0.09
727	0.089
727	0.089
727	0.089
728	0.089
728	0.089
729	0.089
729	0.089
730	0.089
730	0.089
730	0.089
731	0.089
731	0.089
732	0.09
732	0.09
733	0.09
733	0.09
734	0.09
734	0.09
734	0.09
735	0.09
735	0.09
736	0.09
736	0.09
737	0.09
737	0.09
737	0.09
738	0.089
738	0.089
739	0.089
739	0.089
740	0.089
740	0.089
741	0.089
741	0.089
741	0.089
742	0.089
742	0.09
743	0.091
743	0.091
744	0.092
744	0.092
744	0.092
745	0.091
745	0.091
746	0.091
746	0.09
747	0.09
747	0.09
748	0.089
748	0.089
748	0.089
749	0.089
749	0.089
750	0.089
750	0.089
751	0.089
751	0.089
751	0.089
752	0.089
752	0.089
753	0.088
753	0.088
754	0.088
754	0.087
754	0.087
755	0.087
755	0.087
756	0.086
756	0.085
757	0.084
757	0.084
758	0.084
758	0.084
758	0.084
759	0.085
759	0.084
760	0.084
760	0.084
761	0.084
761	0.084
761	0.085
762	0.085
762	0.085
763	0.085
763	0.084
764	0.084
764	0.084
764	0.084
765	0.084
765	0.083
766	0.083
766	0.083
767	0.082
767	0.081
768	0.081
768	0.081
768	0.081
769	0.081
769	0.081
770	0.081
770	0.082
771	0.082
771	0.082
771	0.083
772	0.083
772	0.084
773	0.084
773	0.084
774	0.084
774	0.085
775	0.085
775	0.085
775	0.085
776	0.086
776	0.086
777	0.087
777	0.087
778	0.088
778	0.088
778	0.087
779	0.087
779	0.086
780	0.085
780	0.085
781	0.084
781	0.083
781	0.082
782	0.081
782	0.081
783	0.081
783	0.081
784	0.081
784	0.081
784	0.082
785	0.082
785	0.082
786	0.082
786	0.083
787	0.083
787	0.082
788	0.082
788	0.081
788	0.08
789	0.08
789	0.079
790	0.079
790	0.078
791	0.078
791	0.077
791	0.077
792	0.077
792	0.076
793	0.076
793	0.075
794	0.075
794	0.075
794	0.074
795	0.074
795	0.075
796	0.075
796	0.075
797	0.074
797	0.075
797	0.075
798	0.076
798	0.076
799	0.076
799	0.076
800	0.076
800	0.076
801	0.076
801	0.076
801	0.076
802	0.076
802	0.077
803	0.077
803	0.077
804	0.078
804	0.078
804	0.078
805	0.078
805	0.078
806	0.078
806	0.077
807	0.077
807	0.077
807	0.077
808	0.077
808	0.076
809	0.076
809	0.076
810	0.076
810	0.076
810	0.075
811	0.075
811	0.075
812	0.076
812	0.075
813	0.075
813	0.076
813	0.076
814	0.076
814	0.076
815	0.076
815	0.076
816	0.076
816	0.076
817	0.075
817	0.075
817	0.075
818	0.074
818	0.074
819	0.074
819	0.073
820	0.073
820	0.072
820	0.072
821	0.072
821	0.072
822	0.072
822	0.073
823	0.073
823	0.073
823	0.074
824	0.075
824	0.076
825	0.077
825	0.078
826	0.078
826	0.079
826	0.079
827	0.08
827	0.08
828	0.08
828	0.08
829	0.08
829	0.08
829	0.08
830	0.08
830	0.08
831	0.08
831	0.08
832	0.08
832	0.08
832	0.08
833	0.079
833	0.079
834	0.079
834	0.078
835	0.077
835	0.077
835	0.076
836	0.075
836	0.075
837	0.074
837	0.073
838	0.073
838	0.072
839	0.072
839	0.071
839	0.07
840	0.069
840	0.069
841	0.068
841	0.067
842	0.067
842	0.066
842	0.066
843	0.065
843	0.065
844	0.064
844	0.064
845	0.063
845	0.063
845	0.063
846	0.062
846	0.062
847	0.063
847	0.063
848	0.063
848	0.064
848	0.064
849	0.064
849	0.065
850	0.065
850	0.065
851	0.065
851	0.065
851	0.065
852	0.064
852	0.064
853	0.064
853	0.064
854	0.065
854	0.065
854	0.066
855	0.067
855	0.067
856	0.068
856	0.069
857	0.07
857	0.07
857	0.071
858	0.071
858	0.07
859	0.07
859	0.07
860	0.07
860	0.069
860	0.069
861	0.069
861	0.068
862	0.068
862	0.067
863	0.067
863	0.067
863	0.067
864	0.067
864	0.067
865	0.068
865	0.068
866	0.068
866	0.068
866	0.068
867	0.068
867	0.068
868	0.069
868	0.069
869	0.069
869	0.068
869	0.068
870	0.067
870	0.067
871	0.067
871	0.066
872	0.066
872	0.065
872	0.065
873	0.064
873	0.064
874	0.063
874	0.063
875	0.062
875	0.062
875	0.062
876	0.062
876	0.062
877	0.062
877	0.062
878	0.062
878	0.063
878	0.063
879	0.063
879	0.064
880	0.064
880	0.064
881	0.064
881	0.064
881	0.064
882	0.064
882	0.064
883	0.063
883	0.063
884	0.063
884	0.063
884	0.063
885	0.062
885	0.062
886	0.061
886	0.061
887	0.061
887	0.06
887	0.06
888	0.06
888	0.059
889	0.06
889	0.06
890	0.06
890	0.061
890	0.061
891	0.061
891	0.061
892	0.061
892	0.061
893	0.061
893	0.06
893	0.06
894	0.059
894	0.058
895	0.058
895	0.058
895	0.058
896	0.058
896	0.058
897	0.059
897	0.059
898	0.06
898	0.06
898	0.061
899	0.061
899	0.061
900	0.061
900	0.061
901	0.061
901	0.061
901	0.061
902	0.061
902	0.06
903	0.06
903	0.06
904	0.06
904	0.06
904	0.059
905	0.059
905	0.059
906	0.059
906	0.059
907	0.059
907	0.059
907	0.059
908	0.059
908	0.059
909	0.059
909	0.058
910	0.058
910	0.058
910	0.058
911	0.058
911	0.057
912	0.057
912	0.056
913	0.056
913	0.056
913	0.055
914	0.055
914	0.055
915	0.054
915	0.054
916	0.054
916	0.053
916	0.053
917	0.053
917	0.053
918	0.052
918	0.052
918	0.052
919	0.052
919	0.051
920	0.051
920	0.051
921	0.051
921	0.051
921	0.051
922	0.051
922	0.051
923	0.051
923	0.052
924	0.052
924	0.053
924	0.053
925	0.054
925	0.054
926	0.054
926	0.055
927	0.055
927	0.055
927	0.056
928	0.056
928	0.056
929	0.056
929	0.056
930	0.056
930	0.056
930	0.056
931	0.056
931	0.057
932	0.057
932	0.057
933	0.058
933	0.058
933	0.058
934	0.058
934	0.058
935	0.058
935	0.058
935	0.057
936	0.057
936	0.056
937	0.055
937	0.054
938	0.054
938	0.053
938	0.052
939	0.051
939	0.05
940	0.05
940	0.05
941	0.05
941	0.05
941	0.051
942	0.051
942	0.052
943	0.052
943	0.053
944	0.053
944	0.054
944	0.055
945	0.055
945	0.055
946	0.056
946	0.056
946	0.056
947	0.056
947	0.056
948	0.056
948	0.055
949	0.055
949	0.054
949	0.054
950	0.053
950	0.053
951	0.052
951	0.052
952	0.051
952	0.051
952	0.051
953	0.051
953	0.051
954	0.05
954	0.051
955	0.051
955	0.051
955	0.051
956	0.052
956	0.052
957	0.053
957	0.053
957	0.054
958	0.055
958	0.055
959	0.055
959	0.055
960	0.056
960	0.056
960	0.056
961	0.056
961	0.056
962	0.056
962	0.055
963	0.055
963	0.055
963	0.055
964	0.055
964	0.055
965	0.054
965	0.054
966	0.054
966	0.054
966	0.055
967	0.055
967	0.055
968	0.055
968	0.055
968	0.055
969	0.054
969	0.054
970	0.053
970	0.052
971	0.051
971	0.05
971	0.049
972	0.049
972	0.048
973	0.047
973	0.047
974	0.047
974	0.047
974	0.047
975	0.047
975	0.048
976	0.049
976	0.049
976	0.049
977	0.05
977	0.05
978	0.05
978	0.05
979	0.05
979	0.05
979	0.05
980	0.049
980	0.049
981	0.049
981	0.048
982	0.048
982	0.048
982	0.048
983	0.048
983	0.047
984	0.048
984	0.048
984	0.048
985	0.048
985	0.048
986	0.048
986	0.048
987	0.048
987	0.048
987	0.049
988	0.049
988	0.049
989	0.049
989	0.049
990	0.049
990	0.049
990	0.049
991	0.049
991	0.049
992	0.049
992	0.048
992	0.047
993	0.046
993	0.046
994	0.045
994	0.044
995	0.043
995	0.043
995	0.043
996	0.042
996	0.042
997	0.042
997	0.043
997	0.043
998	0.044
998	0.044
999	0.045
999	0.046
1000	0.046
1000	0.047
1000	0.047
1001	0.047
1001	0.048
1002	0.048
1002	0.047
1003	0.047
1003	0.047
1003	0.046
1004	0.045
1004	0.044
1005	0.044
1005	0.043
1005	0.042
1006	0.041
1006	0.041
1007	0.04
1007	0.039
1008	0.039
1008	0.039
1008	0.038
1009	0.038
1009	0.038
1010	0.037
1010	0.037
1010	0.037
1011	0.037
1011	0.037
1012	0.037
1012	0.037
1013	0.037
1013	0.036
1013	0.036
1014	0.036
1014	0.037
1015	0.037
1015	0.037
1016	0.038
1016	0.038
1016	0.038
1017	0.038
1017	0.038
1018	0.038
1018	0.039
1018	0.039
1019	0.039
1019	0.039
1020	0.039
1020	0.039
1021	0.039
1021	0.04
1021	0.04
1022	0.041
1022	0.041
1023	0.041
1023	0.041
1023	0.042
1024	0.041
1024	0.042
1025	0.042
1025	0.042
1026	0.041
1026	0.041
1026	0.041
1027	0.041
1027	0.041
1028	0.041
1028	0.041
1028	0.041
1029	0.041
1029	0.041
1030	0.042
1030	0.042
1031	0.043
1031	0.043
1031	0.043
1032	0.044
1032	0.044
1033	0.044
1033	0.045
1033	0.045
1034	0.045
1034	0.045
1035	0.045
1035	0.045
1036	0.045
1036	0.045
1036	0.045
1037	0.045
1037	0.045
1038	0.044
1038	0.044
1039	0.044
1039	0.044
1039	0.044
1040	0.044
1040	0.044
1041	0.044
1041	0.043
1041	0.043
1042	0.043
1042	0.043
1043	0.043
1043	0.042
1044	0.042
1044	0.042
1044	0.041
1045	0.041
1045	0.041
1046	0.041
1046	0.041
1046	0.04
1047	0.04
1047	0.04
1048	0.04
1048	0.04
1049	0.04
1049	0.04
1049	0.04
1050	0.04
1050	0.04
1051	0.039
1051	0.039
1051	0.039
1052	0.038
1052	0.037
1053	0.036
1053	0.036
1053	0.035
1054	0.035
1054	0.034
1055	0.034
1055	0.033
1056	0.033
1056	0.033
1056	0.033
1057	0.033
1057	0.032
1058	0.032
1058	0.031
1058	0.031
1059	0.03
1059	0.03
1060	0.03
1060	0.03
1061	0.029
1061	0.029
1061	0.029
1062	0.029
1062	0.028
1063	0.029
1063	0.028
1063	0.028
1064	0.028
1064	0.028
1065	0.028
1065	0.028
1066	0.029
1066	0.028
1066	0.029
1067	0.029
1067	0.029
1068	0.029
1068	0.029
1068	0.029
1069	0.029
1069	0.029
1070	0.029
1070	0.028
1071	0.028
1071	0.028
1071	0.028
1072	0.028
1072	0.028
1073	0.027
1073	0.027
1073	0.027
1074	0.028
1074	0.028
1075	0.028
1075	0.029
1076	0.03
1076	0.031
1076	0.031
1077	0.031
1077	0.032
1078	0.032
1078	0.032
1078	0.032
1079	0.032
1079	0.032
1080	0.031
1080	0.031
1080	0.031
1081	0.03
1081	0.03
1082	0.031
1082	0.031
1083	0.03
1083	0.03
1083	0.03
1084	0.03
1084	0.031
1085	0.031
1085	0.031
1085	0.031
1086	0.032
1086	0.031
1087	0.031
1087	0.031
1088	0.031
1088	0.031
1088	0.031
1089	0.031
1089	0.03
1090	0.03
1090	0.029
1090	0.028
1091	0.028
1091	0.028
1092	0.027
1092	0.027
1092	0.027
1093	0.027
1093	0.026
1094	0.026
1094	0.026
1095	0.025
1095	0.025
1095	0.025
1096	0.024
1096	0.024
1097	0.023
1097	0.022
1097	0.022
1098	0.022
1098	0.021
1099	0.021
1099	0.02
1100	0.019
1100	0.019
1100	0.018
1101	0.017
1101	0.017
1102	0.016
1102	0.015
1102	0.013
1103	0.012
1103	0.011
1104	0.011
1104	0.011
1104	0.01
1105	0.01
1105	0.008
1106	0.006
1106	0.006
1107	0.005
1107	0.005
1107	0.004
1108	0.003
1108	0.002
1109	-0
1109	-0.001
1109	-0.003
1110	-0.002
1110	-0.002
1111	-0.003
1111	-0.007
