Data from reversibility-20sec_Absorbance__3451__000000000003451.txt Node

Date: Wed Dec 06 07:23:25 CET 2023
User: Marek
Spectrometer: MAYP115816
Trigger mode: 0
Integration Time (sec): 2.000000E-1
Scans to average: 10
Electric dark correction enabled: true
Nonlinearity correction enabled: true
Boxcar width: 5
XAxis mode: Wavelengths
Number of Pixels in Spectrum: 2068
>>>>>Begin Spectral Data<<<<<
199	-0.074
199	-0.055
200	0.002
200	0.049
201	0.077
201	0.092
202	0.099
202	0.11
203	0.12
203	0.122
204	0.133
204	0.147
205	0.159
205	0.165
205	0.163
206	0.162
206	0.163
207	0.167
207	0.167
208	0.161
208	0.161
209	0.163
209	0.161
210	0.16
210	0.163
211	0.165
211	0.169
212	0.168
212	0.168
213	0.17
213	0.174
213	0.173
214	0.174
214	0.177
215	0.179
215	0.178
216	0.177
216	0.175
217	0.177
217	0.178
218	0.177
218	0.181
219	0.189
219	0.189
220	0.191
220	0.192
221	0.193
221	0.195
221	0.198
222	0.202
222	0.209
223	0.215
223	0.217
224	0.222
224	0.23
225	0.239
225	0.251
226	0.261
226	0.274
227	0.289
227	0.3
228	0.313
228	0.328
229	0.346
229	0.368
229	0.392
230	0.417
230	0.445
231	0.478
231	0.516
232	0.551
232	0.596
233	0.639
233	0.688
234	0.74
234	0.791
235	0.843
235	0.895
236	0.944
236	0.996
236	1.048
237	1.099
237	1.147
238	1.193
238	1.239
239	1.285
239	1.326
240	1.365
240	1.405
241	1.441
241	1.473
242	1.501
242	1.534
243	1.562
243	1.587
243	1.613
244	1.634
244	1.657
245	1.677
245	1.698
246	1.717
246	1.734
247	1.75
247	1.764
248	1.778
248	1.792
249	1.799
249	1.806
250	1.81
250	1.816
250	1.814
251	1.815
251	1.817
252	1.818
252	1.815
253	1.813
253	1.809
254	1.805
254	1.805
255	1.804
255	1.801
256	1.8
256	1.798
257	1.797
257	1.795
258	1.795
258	1.794
258	1.793
259	1.795
259	1.794
260	1.793
260	1.795
261	1.797
261	1.799
262	1.802
262	1.804
263	1.807
263	1.81
264	1.811
264	1.812
265	1.814
265	1.813
265	1.812
266	1.81
266	1.811
267	1.808
267	1.809
268	1.81
268	1.809
269	1.81
269	1.809
270	1.808
270	1.807
271	1.805
271	1.804
272	1.8
272	1.797
272	1.791
273	1.782
273	1.776
274	1.768
274	1.76
275	1.752
275	1.744
276	1.737
276	1.728
277	1.719
277	1.709
278	1.697
278	1.684
278	1.668
279	1.65
279	1.627
280	1.598
280	1.564
281	1.524
281	1.481
282	1.437
282	1.391
283	1.347
283	1.305
284	1.264
284	1.225
285	1.189
285	1.156
285	1.127
286	1.102
286	1.08
287	1.061
287	1.044
288	1.03
288	1.019
289	1.009
289	1.001
290	0.994
290	0.987
291	0.982
291	0.977
292	0.973
292	0.969
292	0.966
293	0.963
293	0.96
294	0.957
294	0.954
295	0.951
295	0.948
296	0.945
296	0.942
297	0.94
297	0.937
298	0.935
298	0.932
298	0.93
299	0.927
299	0.925
300	0.923
300	0.921
301	0.918
301	0.917
302	0.914
302	0.913
303	0.911
303	0.909
304	0.907
304	0.905
305	0.903
305	0.901
305	0.898
306	0.896
306	0.894
307	0.892
307	0.89
308	0.887
308	0.885
309	0.882
309	0.879
310	0.877
310	0.874
311	0.871
311	0.869
311	0.865
312	0.862
312	0.859
313	0.856
313	0.852
314	0.848
314	0.845
315	0.841
315	0.837
316	0.833
316	0.828
317	0.824
317	0.819
318	0.815
318	0.809
318	0.804
319	0.799
319	0.794
320	0.789
320	0.783
321	0.777
321	0.772
322	0.766
322	0.76
323	0.753
323	0.747
324	0.741
324	0.735
324	0.728
325	0.722
325	0.715
326	0.708
326	0.702
327	0.695
327	0.688
328	0.682
328	0.675
329	0.668
329	0.661
330	0.654
330	0.647
330	0.641
331	0.634
331	0.627
332	0.62
332	0.614
333	0.607
333	0.6
334	0.593
334	0.587
335	0.58
335	0.574
336	0.567
336	0.56
336	0.554
337	0.548
337	0.542
338	0.535
338	0.529
339	0.523
339	0.517
340	0.512
340	0.506
341	0.5
341	0.495
342	0.49
342	0.485
342	0.479
343	0.474
343	0.469
344	0.465
344	0.46
345	0.455
345	0.451
346	0.446
346	0.442
347	0.438
347	0.434
348	0.43
348	0.426
348	0.422
349	0.418
349	0.415
350	0.411
350	0.408
351	0.405
351	0.402
352	0.398
352	0.396
353	0.393
353	0.39
354	0.387
354	0.384
354	0.382
355	0.379
355	0.376
356	0.373
356	0.37
357	0.367
357	0.364
358	0.361
358	0.359
359	0.357
359	0.354
360	0.352
360	0.351
360	0.349
361	0.347
361	0.345
362	0.344
362	0.343
363	0.341
363	0.34
364	0.338
364	0.336
365	0.334
365	0.332
366	0.331
366	0.329
366	0.327
367	0.326
367	0.324
368	0.322
368	0.321
369	0.319
369	0.318
370	0.316
370	0.315
371	0.313
371	0.312
372	0.311
372	0.31
372	0.309
373	0.308
373	0.307
374	0.307
374	0.306
375	0.305
375	0.304
376	0.303
376	0.302
377	0.301
377	0.3
378	0.299
378	0.298
378	0.297
379	0.297
379	0.296
380	0.295
380	0.294
381	0.294
381	0.293
382	0.292
382	0.292
383	0.291
383	0.291
383	0.29
384	0.29
384	0.289
385	0.289
385	0.288
386	0.288
386	0.288
387	0.287
387	0.286
388	0.286
388	0.286
389	0.285
389	0.285
389	0.285
390	0.284
390	0.284
391	0.283
391	0.283
392	0.283
392	0.283
393	0.282
393	0.282
394	0.282
394	0.281
394	0.281
395	0.281
395	0.281
396	0.28
396	0.28
397	0.28
397	0.279
398	0.279
398	0.279
399	0.278
399	0.278
400	0.278
400	0.277
400	0.277
401	0.277
401	0.276
402	0.276
402	0.276
403	0.275
403	0.275
404	0.275
404	0.275
405	0.274
405	0.274
405	0.274
406	0.274
406	0.274
407	0.273
407	0.273
408	0.273
408	0.273
409	0.272
409	0.272
410	0.272
410	0.271
411	0.271
411	0.271
411	0.271
412	0.27
412	0.27
413	0.27
413	0.269
414	0.269
414	0.269
415	0.269
415	0.268
416	0.268
416	0.268
416	0.267
417	0.267
417	0.267
418	0.266
418	0.266
419	0.266
419	0.265
420	0.265
420	0.265
421	0.265
421	0.264
421	0.264
422	0.263
422	0.263
423	0.263
423	0.263
424	0.262
424	0.262
425	0.261
425	0.261
426	0.26
426	0.26
427	0.26
427	0.26
427	0.259
428	0.259
428	0.258
429	0.258
429	0.258
430	0.258
430	0.258
431	0.257
431	0.257
432	0.257
432	0.257
432	0.256
433	0.256
433	0.256
434	0.256
434	0.256
435	0.256
435	0.255
436	0.255
436	0.255
437	0.255
437	0.255
437	0.255
438	0.255
438	0.255
439	0.254
439	0.254
440	0.254
440	0.253
441	0.253
441	0.253
442	0.252
442	0.252
442	0.252
443	0.252
443	0.252
444	0.252
444	0.252
445	0.252
445	0.251
446	0.251
446	0.251
447	0.251
447	0.25
447	0.25
448	0.25
448	0.25
449	0.249
449	0.249
450	0.249
450	0.249
451	0.248
451	0.248
452	0.248
452	0.248
452	0.248
453	0.248
453	0.248
454	0.247
454	0.247
455	0.247
455	0.247
456	0.247
456	0.246
457	0.246
457	0.246
458	0.245
458	0.245
458	0.245
459	0.245
459	0.245
460	0.245
460	0.245
461	0.245
461	0.244
462	0.244
462	0.244
463	0.244
463	0.243
463	0.243
464	0.243
464	0.242
465	0.242
465	0.241
466	0.241
466	0.241
467	0.241
467	0.241
467	0.241
468	0.241
468	0.241
469	0.241
469	0.242
470	0.242
470	0.242
471	0.242
471	0.242
472	0.242
472	0.242
472	0.242
473	0.242
473	0.242
474	0.242
474	0.241
475	0.241
475	0.241
476	0.241
476	0.241
477	0.241
477	0.241
477	0.241
478	0.241
478	0.241
479	0.241
479	0.241
480	0.241
480	0.241
481	0.241
481	0.241
482	0.241
482	0.241
482	0.241
483	0.242
483	0.242
484	0.242
484	0.242
485	0.242
485	0.242
486	0.242
486	0.242
487	0.242
487	0.242
487	0.242
488	0.242
488	0.242
489	0.242
489	0.243
490	0.243
490	0.244
491	0.244
491	0.245
492	0.246
492	0.246
492	0.247
493	0.247
493	0.248
494	0.248
494	0.249
495	0.249
495	0.25
496	0.25
496	0.251
496	0.251
497	0.251
497	0.251
498	0.252
498	0.252
499	0.252
499	0.253
500	0.253
500	0.254
501	0.254
501	0.255
501	0.255
502	0.256
502	0.256
503	0.257
503	0.257
504	0.258
504	0.258
505	0.258
505	0.259
506	0.259
506	0.26
506	0.26
507	0.261
507	0.261
508	0.262
508	0.262
509	0.263
509	0.263
510	0.264
510	0.265
511	0.265
511	0.265
511	0.266
512	0.266
512	0.267
513	0.267
513	0.268
514	0.268
514	0.269
515	0.269
515	0.269
515	0.27
516	0.27
516	0.271
517	0.271
517	0.272
518	0.272
518	0.272
519	0.272
519	0.272
520	0.273
520	0.273
520	0.273
521	0.273
521	0.274
522	0.274
522	0.274
523	0.275
523	0.275
524	0.276
524	0.276
524	0.276
525	0.276
525	0.276
526	0.276
526	0.276
527	0.276
527	0.277
528	0.277
528	0.277
529	0.277
529	0.277
529	0.277
530	0.277
530	0.277
531	0.277
531	0.277
532	0.277
532	0.277
533	0.277
533	0.276
533	0.276
534	0.276
534	0.276
535	0.275
535	0.275
536	0.275
536	0.275
537	0.274
537	0.274
538	0.274
538	0.274
538	0.273
539	0.273
539	0.273
540	0.273
540	0.273
541	0.273
541	0.273
542	0.272
542	0.272
542	0.272
543	0.272
543	0.272
544	0.271
544	0.271
545	0.271
545	0.271
546	0.27
546	0.27
547	0.269
547	0.269
547	0.269
548	0.269
548	0.268
549	0.268
549	0.267
550	0.267
550	0.267
551	0.266
551	0.266
551	0.265
552	0.265
552	0.265
553	0.264
553	0.264
554	0.264
554	0.263
555	0.262
555	0.262
556	0.261
556	0.261
556	0.261
557	0.261
557	0.26
558	0.26
558	0.26
559	0.26
559	0.26
560	0.26
560	0.26
560	0.26
561	0.26
561	0.259
562	0.259
562	0.258
563	0.257
563	0.256
564	0.255
564	0.255
564	0.255
565	0.254
565	0.254
566	0.254
566	0.253
567	0.253
567	0.253
568	0.252
568	0.252
568	0.251
569	0.251
569	0.25
570	0.25
570	0.249
571	0.248
571	0.248
572	0.248
572	0.247
573	0.247
573	0.247
573	0.247
574	0.247
574	0.247
575	0.246
575	0.246
576	0.246
576	0.245
577	0.245
577	0.244
577	0.244
578	0.243
578	0.243
579	0.243
579	0.243
580	0.242
580	0.242
581	0.241
581	0.241
581	0.241
582	0.241
582	0.241
583	0.241
583	0.241
584	0.24
584	0.239
585	0.238
585	0.238
585	0.238
586	0.238
586	0.237
587	0.236
587	0.236
588	0.235
588	0.235
589	0.234
589	0.234
590	0.234
590	0.234
590	0.234
591	0.234
591	0.233
592	0.233
592	0.232
593	0.231
593	0.231
594	0.23
594	0.23
594	0.229
595	0.228
595	0.228
596	0.227
596	0.228
597	0.229
597	0.229
598	0.229
598	0.23
598	0.23
599	0.23
599	0.23
600	0.229
600	0.229
601	0.229
601	0.228
602	0.228
602	0.227
602	0.226
603	0.226
603	0.226
604	0.226
604	0.226
605	0.225
605	0.226
606	0.225
606	0.225
606	0.224
607	0.224
607	0.224
608	0.223
608	0.222
609	0.222
609	0.222
610	0.221
610	0.221
610	0.221
611	0.22
611	0.22
612	0.22
612	0.22
613	0.221
613	0.221
614	0.22
614	0.22
614	0.22
615	0.22
615	0.22
616	0.22
616	0.22
617	0.22
617	0.22
618	0.219
618	0.219
618	0.219
619	0.219
619	0.22
620	0.22
620	0.219
621	0.219
621	0.219
622	0.218
622	0.218
622	0.217
623	0.217
623	0.217
624	0.216
624	0.216
625	0.216
625	0.216
626	0.216
626	0.215
626	0.216
627	0.216
627	0.215
628	0.215
628	0.215
629	0.215
629	0.215
630	0.214
630	0.214
630	0.214
631	0.214
631	0.214
632	0.214
632	0.213
633	0.214
633	0.214
634	0.214
634	0.214
634	0.214
635	0.214
635	0.214
636	0.214
636	0.214
637	0.214
637	0.214
638	0.213
638	0.213
638	0.212
639	0.212
639	0.211
640	0.211
640	0.211
641	0.211
641	0.211
642	0.21
642	0.211
642	0.211
643	0.211
643	0.211
644	0.211
644	0.212
645	0.212
645	0.212
646	0.213
646	0.213
646	0.213
647	0.213
647	0.213
648	0.213
648	0.212
649	0.212
649	0.212
650	0.212
650	0.211
650	0.211
651	0.211
651	0.211
652	0.211
652	0.211
653	0.211
653	0.212
653	0.218
654	0.17
654	0.135
655	0.137
655	0.138
656	0.138
656	0.138
657	0.139
657	0.139
657	0.139
658	0.138
658	0.128
659	0.162
659	0.209
660	0.212
660	0.212
661	0.211
661	0.211
661	0.21
662	0.21
662	0.209
663	0.209
663	0.209
664	0.209
664	0.208
665	0.208
665	0.209
665	0.209
666	0.209
666	0.21
667	0.21
667	0.21
668	0.211
668	0.21
669	0.21
669	0.21
669	0.211
670	0.211
670	0.211
671	0.21
671	0.21
672	0.209
672	0.209
672	0.209
673	0.208
673	0.208
674	0.208
674	0.208
675	0.208
675	0.208
676	0.208
676	0.209
676	0.209
677	0.209
677	0.21
678	0.21
678	0.21
679	0.21
679	0.21
680	0.21
680	0.21
680	0.209
681	0.21
681	0.21
682	0.21
682	0.21
683	0.211
683	0.211
684	0.211
684	0.211
684	0.211
685	0.211
685	0.211
686	0.211
686	0.211
687	0.211
687	0.211
687	0.211
688	0.211
688	0.212
689	0.213
689	0.213
690	0.213
690	0.213
691	0.214
691	0.214
691	0.215
692	0.215
692	0.215
693	0.216
693	0.216
694	0.216
694	0.216
695	0.217
695	0.218
695	0.218
696	0.218
696	0.218
697	0.218
697	0.218
698	0.218
698	0.217
698	0.218
699	0.218
699	0.217
700	0.216
700	0.216
701	0.216
701	0.215
702	0.215
702	0.214
702	0.214
703	0.214
703	0.214
704	0.213
704	0.213
705	0.214
705	0.214
705	0.214
706	0.214
706	0.214
707	0.215
707	0.215
708	0.215
708	0.215
709	0.215
709	0.215
709	0.215
710	0.214
710	0.215
711	0.215
711	0.215
712	0.215
712	0.215
713	0.216
713	0.216
713	0.216
714	0.216
714	0.216
715	0.217
715	0.216
716	0.216
716	0.216
716	0.215
717	0.215
717	0.215
718	0.214
718	0.214
719	0.214
719	0.214
720	0.214
720	0.215
720	0.215
721	0.216
721	0.217
722	0.217
722	0.218
723	0.218
723	0.219
723	0.218
724	0.218
724	0.218
725	0.217
725	0.216
726	0.216
726	0.215
727	0.215
727	0.215
727	0.215
728	0.214
728	0.215
729	0.215
729	0.216
730	0.216
730	0.217
730	0.218
731	0.218
731	0.219
732	0.219
732	0.22
733	0.22
733	0.221
734	0.221
734	0.221
734	0.221
735	0.222
735	0.222
736	0.221
736	0.221
737	0.221
737	0.221
737	0.22
738	0.22
738	0.219
739	0.219
739	0.218
740	0.218
740	0.218
741	0.218
741	0.218
741	0.218
742	0.218
742	0.219
743	0.22
743	0.22
744	0.221
744	0.221
744	0.221
745	0.221
745	0.221
746	0.222
746	0.222
747	0.222
747	0.223
748	0.223
748	0.223
748	0.223
749	0.223
749	0.223
750	0.223
750	0.223
751	0.223
751	0.223
751	0.223
752	0.223
752	0.222
753	0.222
753	0.222
754	0.221
754	0.221
754	0.22
755	0.22
755	0.22
756	0.219
756	0.219
757	0.219
757	0.219
758	0.219
758	0.219
758	0.219
759	0.219
759	0.219
760	0.219
760	0.219
761	0.219
761	0.22
761	0.22
762	0.22
762	0.221
763	0.221
763	0.221
764	0.221
764	0.221
764	0.221
765	0.221
765	0.22
766	0.22
766	0.22
767	0.22
767	0.219
768	0.219
768	0.218
768	0.218
769	0.218
769	0.218
770	0.219
770	0.219
771	0.219
771	0.22
771	0.22
772	0.221
772	0.221
773	0.222
773	0.222
774	0.223
774	0.223
775	0.224
775	0.224
775	0.225
776	0.225
776	0.225
777	0.226
777	0.226
778	0.226
778	0.225
778	0.225
779	0.224
779	0.224
780	0.223
780	0.222
781	0.222
781	0.222
781	0.221
782	0.221
782	0.221
783	0.222
783	0.222
784	0.222
784	0.223
784	0.223
785	0.224
785	0.224
786	0.224
786	0.225
787	0.225
787	0.225
788	0.225
788	0.224
788	0.224
789	0.224
789	0.223
790	0.223
790	0.223
791	0.223
791	0.222
791	0.222
792	0.223
792	0.223
793	0.223
793	0.224
794	0.224
794	0.224
794	0.224
795	0.224
795	0.224
796	0.225
796	0.225
797	0.224
797	0.224
797	0.225
798	0.225
798	0.225
799	0.225
799	0.225
800	0.225
800	0.225
801	0.225
801	0.225
801	0.225
802	0.225
802	0.225
803	0.225
803	0.225
804	0.226
804	0.226
804	0.226
805	0.227
805	0.227
806	0.227
806	0.227
807	0.227
807	0.228
807	0.228
808	0.228
808	0.228
809	0.228
809	0.228
810	0.229
810	0.229
810	0.229
811	0.229
811	0.229
812	0.23
812	0.23
813	0.23
813	0.23
813	0.231
814	0.231
814	0.232
815	0.232
815	0.232
816	0.232
816	0.231
817	0.231
817	0.23
817	0.23
818	0.229
818	0.229
819	0.228
819	0.228
820	0.227
820	0.227
820	0.227
821	0.227
821	0.228
822	0.228
822	0.229
823	0.229
823	0.23
823	0.231
824	0.232
824	0.233
825	0.234
825	0.235
826	0.236
826	0.236
826	0.236
827	0.237
827	0.237
828	0.237
828	0.237
829	0.237
829	0.237
829	0.237
830	0.237
830	0.237
831	0.238
831	0.238
832	0.238
832	0.238
832	0.239
833	0.239
833	0.239
834	0.238
834	0.238
835	0.237
835	0.237
835	0.236
836	0.235
836	0.235
837	0.234
837	0.234
838	0.233
838	0.232
839	0.231
839	0.231
839	0.23
840	0.229
840	0.229
841	0.228
841	0.227
842	0.227
842	0.227
842	0.227
843	0.227
843	0.227
844	0.227
844	0.228
845	0.228
845	0.229
845	0.229
846	0.23
846	0.23
847	0.231
847	0.231
848	0.231
848	0.231
848	0.231
849	0.231
849	0.231
850	0.231
850	0.23
851	0.23
851	0.229
851	0.229
852	0.228
852	0.228
853	0.227
853	0.227
854	0.227
854	0.227
854	0.228
855	0.228
855	0.229
856	0.229
856	0.23
857	0.231
857	0.231
857	0.231
858	0.231
858	0.231
859	0.23
859	0.23
860	0.229
860	0.228
860	0.227
861	0.226
861	0.225
862	0.224
862	0.223
863	0.223
863	0.223
863	0.223
864	0.223
864	0.223
865	0.223
865	0.224
866	0.224
866	0.224
866	0.224
867	0.224
867	0.224
868	0.224
868	0.223
869	0.223
869	0.222
869	0.222
870	0.221
870	0.221
871	0.221
871	0.221
872	0.221
872	0.221
872	0.221
873	0.222
873	0.222
874	0.221
874	0.221
875	0.221
875	0.221
875	0.221
876	0.22
876	0.22
877	0.219
877	0.22
878	0.22
878	0.22
878	0.221
879	0.222
879	0.222
880	0.223
880	0.223
881	0.224
881	0.224
881	0.224
882	0.223
882	0.223
883	0.223
883	0.222
884	0.221
884	0.221
884	0.22
885	0.22
885	0.219
886	0.218
886	0.218
887	0.217
887	0.216
887	0.216
888	0.215
888	0.214
889	0.214
889	0.214
890	0.213
890	0.213
890	0.213
891	0.212
891	0.212
892	0.212
892	0.212
893	0.211
893	0.211
893	0.211
894	0.211
894	0.21
895	0.21
895	0.21
895	0.21
896	0.21
896	0.209
897	0.209
897	0.209
898	0.208
898	0.208
898	0.207
899	0.207
899	0.207
900	0.207
900	0.206
901	0.206
901	0.206
901	0.206
902	0.206
902	0.206
903	0.206
903	0.206
904	0.206
904	0.206
904	0.205
905	0.206
905	0.206
906	0.206
906	0.207
907	0.207
907	0.208
907	0.208
908	0.208
908	0.209
909	0.209
909	0.209
910	0.209
910	0.209
910	0.208
911	0.208
911	0.207
912	0.206
912	0.206
913	0.205
913	0.205
913	0.204
914	0.203
914	0.203
915	0.202
915	0.201
916	0.201
916	0.2
916	0.2
917	0.199
917	0.198
918	0.198
918	0.197
918	0.196
919	0.195
919	0.194
920	0.194
920	0.193
921	0.193
921	0.192
921	0.192
922	0.191
922	0.191
923	0.191
923	0.191
924	0.191
924	0.191
924	0.191
925	0.192
925	0.192
926	0.192
926	0.192
927	0.192
927	0.192
927	0.192
928	0.193
928	0.193
929	0.193
929	0.193
930	0.192
930	0.192
930	0.192
931	0.192
931	0.192
932	0.191
932	0.191
933	0.191
933	0.191
933	0.19
934	0.19
934	0.19
935	0.19
935	0.19
935	0.19
936	0.189
936	0.189
937	0.189
937	0.188
938	0.188
938	0.187
938	0.186
939	0.185
939	0.184
940	0.183
940	0.182
941	0.182
941	0.181
941	0.18
942	0.18
942	0.179
943	0.179
943	0.178
944	0.177
944	0.177
944	0.177
945	0.176
945	0.176
946	0.175
946	0.175
946	0.175
947	0.175
947	0.175
948	0.175
948	0.175
949	0.175
949	0.175
949	0.175
950	0.175
950	0.175
951	0.174
951	0.173
952	0.172
952	0.171
952	0.17
953	0.169
953	0.168
954	0.167
954	0.166
955	0.165
955	0.164
955	0.164
956	0.164
956	0.164
957	0.164
957	0.164
957	0.164
958	0.165
958	0.165
959	0.165
959	0.165
960	0.165
960	0.166
960	0.166
961	0.166
961	0.166
962	0.166
962	0.165
963	0.165
963	0.165
963	0.165
964	0.165
964	0.165
965	0.165
965	0.165
966	0.165
966	0.165
966	0.166
967	0.166
967	0.166
968	0.166
968	0.166
968	0.166
969	0.165
969	0.164
970	0.164
970	0.163
971	0.162
971	0.161
971	0.16
972	0.159
972	0.158
973	0.158
973	0.157
974	0.157
974	0.156
974	0.156
975	0.156
975	0.156
976	0.156
976	0.156
976	0.155
977	0.155
977	0.154
978	0.154
978	0.153
979	0.152
979	0.152
979	0.151
980	0.151
980	0.15
981	0.149
981	0.149
982	0.148
982	0.148
982	0.148
983	0.148
983	0.148
984	0.148
984	0.147
984	0.147
985	0.147
985	0.147
986	0.147
986	0.146
987	0.146
987	0.145
987	0.145
988	0.145
988	0.144
989	0.144
989	0.143
990	0.143
990	0.142
990	0.142
991	0.142
991	0.142
992	0.141
992	0.141
992	0.14
993	0.14
993	0.14
994	0.139
994	0.139
995	0.138
995	0.138
995	0.138
996	0.138
996	0.138
997	0.137
997	0.137
997	0.137
998	0.137
998	0.137
999	0.137
999	0.137
1000	0.138
1000	0.138
1000	0.138
1001	0.138
1001	0.138
1002	0.137
1002	0.137
1003	0.137
1003	0.137
1003	0.136
1004	0.135
1004	0.135
1005	0.134
1005	0.134
1005	0.133
1006	0.132
1006	0.132
1007	0.131
1007	0.131
1008	0.131
1008	0.131
1008	0.132
1009	0.132
1009	0.132
1010	0.132
1010	0.133
1010	0.133
1011	0.133
1011	0.134
1012	0.134
1012	0.134
1013	0.134
1013	0.134
1013	0.133
1014	0.133
1014	0.133
1015	0.132
1015	0.131
1016	0.131
1016	0.13
1016	0.129
1017	0.128
1017	0.127
1018	0.126
1018	0.126
1018	0.125
1019	0.125
1019	0.125
1020	0.125
1020	0.124
1021	0.125
1021	0.125
1021	0.125
1022	0.126
1022	0.126
1023	0.126
1023	0.126
1023	0.126
1024	0.126
1024	0.126
1025	0.126
1025	0.126
1026	0.125
1026	0.125
1026	0.124
1027	0.124
1027	0.124
1028	0.123
1028	0.123
1028	0.123
1029	0.123
1029	0.123
1030	0.122
1030	0.123
1031	0.123
1031	0.123
1031	0.123
1032	0.123
1032	0.123
1033	0.123
1033	0.122
1033	0.122
1034	0.122
1034	0.122
1035	0.121
1035	0.121
1036	0.121
1036	0.12
1036	0.12
1037	0.12
1037	0.119
1038	0.119
1038	0.118
1039	0.118
1039	0.118
1039	0.118
1040	0.118
1040	0.118
1041	0.118
1041	0.117
1041	0.117
1042	0.118
1042	0.118
1043	0.118
1043	0.118
1044	0.118
1044	0.118
1044	0.118
1045	0.118
1045	0.118
1046	0.119
1046	0.119
1046	0.119
1047	0.12
1047	0.12
1048	0.12
1048	0.121
1049	0.121
1049	0.121
1049	0.121
1050	0.121
1050	0.121
1051	0.121
1051	0.121
1051	0.121
1052	0.12
1052	0.12
1053	0.119
1053	0.119
1053	0.118
1054	0.118
1054	0.117
1055	0.117
1055	0.116
1056	0.116
1056	0.115
1056	0.114
1057	0.113
1057	0.113
1058	0.112
1058	0.111
1058	0.11
1059	0.11
1059	0.109
1060	0.109
1060	0.108
1061	0.107
1061	0.107
1061	0.107
1062	0.107
1062	0.107
1063	0.107
1063	0.107
1063	0.107
1064	0.106
1064	0.106
1065	0.106
1065	0.106
1066	0.105
1066	0.105
1066	0.104
1067	0.103
1067	0.103
1068	0.103
1068	0.102
1068	0.102
1069	0.101
1069	0.101
1070	0.1
1070	0.099
1071	0.099
1071	0.098
1071	0.097
1072	0.097
1072	0.096
1073	0.095
1073	0.094
1073	0.093
1074	0.093
1074	0.093
1075	0.093
1075	0.093
1076	0.093
1076	0.093
1076	0.093
1077	0.093
1077	0.094
1078	0.094
1078	0.094
1078	0.094
1079	0.093
1079	0.093
1080	0.093
1080	0.093
1080	0.093
1081	0.093
1081	0.094
1082	0.094
1082	0.094
1083	0.094
1083	0.094
1083	0.094
1084	0.094
1084	0.094
1085	0.094
1085	0.094
1085	0.093
1086	0.093
1086	0.093
1087	0.093
1087	0.092
1088	0.092
1088	0.092
1088	0.092
1089	0.092
1089	0.092
1090	0.091
1090	0.091
1090	0.09
1091	0.089
1091	0.089
1092	0.089
1092	0.089
1092	0.089
1093	0.088
1093	0.088
1094	0.088
1094	0.088
1095	0.088
1095	0.087
1095	0.087
1096	0.087
1096	0.087
1097	0.086
1097	0.085
1097	0.085
1098	0.084
1098	0.084
1099	0.084
1099	0.083
1100	0.083
1100	0.082
1100	0.081
1101	0.08
1101	0.08
1102	0.079
1102	0.078
1102	0.077
1103	0.076
1103	0.075
1104	0.075
1104	0.073
1104	0.073
1105	0.073
1105	0.07
1106	0.07
1106	0.068
1107	0.068
1107	0.067
1107	0.067
1108	0.066
1108	0.065
1109	0.064
1109	0.064
1109	0.065
1110	0.067
1110	0.065
1111	0.067
1111	0.066
