Data from reversibility-20sec_Absorbance__647__000000000000647.txt Node

Date: Tue Dec 05 15:48:45 CET 2023
User: Marek
Spectrometer: MAYP115816
Trigger mode: 0
Integration Time (sec): 2.000000E-1
Scans to average: 10
Electric dark correction enabled: true
Nonlinearity correction enabled: true
Boxcar width: 5
XAxis mode: Wavelengths
Number of Pixels in Spectrum: 2068
>>>>>Begin Spectral Data<<<<<
199	-0.218
199	-0.192
200	-0.13
200	-0.078
201	-0.042
201	-0.024
202	-0.01
202	-0.001
203	0.005
203	0.007
204	0.018
204	0.032
205	0.044
205	0.052
205	0.052
206	0.048
206	0.047
207	0.048
207	0.046
208	0.048
208	0.05
209	0.054
209	0.051
210	0.051
210	0.052
211	0.053
211	0.059
212	0.058
212	0.06
213	0.064
213	0.065
213	0.064
214	0.067
214	0.068
215	0.073
215	0.072
216	0.076
216	0.075
217	0.078
217	0.08
218	0.081
218	0.085
219	0.09
219	0.092
220	0.097
220	0.096
221	0.096
221	0.096
221	0.1
222	0.107
222	0.111
223	0.118
223	0.12
224	0.126
224	0.134
225	0.141
225	0.153
226	0.161
226	0.174
227	0.183
227	0.192
228	0.205
228	0.216
229	0.232
229	0.254
229	0.277
230	0.301
230	0.327
231	0.36
231	0.396
232	0.431
232	0.475
233	0.518
233	0.569
234	0.619
234	0.669
235	0.719
235	0.771
236	0.821
236	0.873
236	0.927
237	0.978
237	1.027
238	1.077
238	1.123
239	1.174
239	1.215
240	1.254
240	1.291
241	1.329
241	1.362
242	1.393
242	1.426
243	1.453
243	1.477
243	1.501
244	1.522
244	1.546
245	1.564
245	1.588
246	1.605
246	1.622
247	1.635
247	1.649
248	1.665
248	1.678
249	1.687
249	1.692
250	1.7
250	1.708
250	1.712
251	1.715
251	1.718
252	1.723
252	1.723
253	1.723
253	1.72
254	1.721
254	1.724
255	1.72
255	1.721
256	1.719
256	1.718
257	1.718
257	1.716
258	1.716
258	1.716
258	1.717
259	1.716
259	1.714
260	1.714
260	1.714
261	1.714
261	1.717
262	1.72
262	1.72
263	1.723
263	1.723
264	1.723
264	1.725
265	1.727
265	1.728
265	1.727
266	1.728
266	1.726
267	1.724
267	1.725
268	1.723
268	1.722
269	1.725
269	1.722
270	1.721
270	1.721
271	1.72
271	1.718
272	1.716
272	1.713
272	1.709
273	1.706
273	1.7
274	1.693
274	1.688
275	1.681
275	1.674
276	1.667
276	1.66
277	1.653
277	1.644
278	1.635
278	1.622
278	1.608
279	1.593
279	1.574
280	1.552
280	1.523
281	1.49
281	1.454
282	1.415
282	1.376
283	1.338
283	1.3
284	1.264
284	1.228
285	1.195
285	1.164
285	1.137
286	1.113
286	1.093
287	1.074
287	1.059
288	1.045
288	1.034
289	1.024
289	1.016
290	1.009
290	1.003
291	0.997
291	0.993
292	0.989
292	0.985
292	0.981
293	0.978
293	0.975
294	0.972
294	0.969
295	0.967
295	0.964
296	0.962
296	0.959
297	0.957
297	0.955
298	0.952
298	0.95
298	0.948
299	0.946
299	0.943
300	0.941
300	0.939
301	0.936
301	0.934
302	0.932
302	0.93
303	0.928
303	0.926
304	0.924
304	0.922
305	0.92
305	0.918
305	0.916
306	0.914
306	0.911
307	0.909
307	0.907
308	0.905
308	0.902
309	0.9
309	0.897
310	0.894
310	0.892
311	0.889
311	0.886
311	0.883
312	0.879
312	0.876
313	0.873
313	0.869
314	0.865
314	0.861
315	0.858
315	0.854
316	0.85
316	0.845
317	0.841
317	0.836
318	0.831
318	0.826
318	0.822
319	0.816
319	0.811
320	0.806
320	0.8
321	0.794
321	0.788
322	0.783
322	0.777
323	0.771
323	0.764
324	0.758
324	0.752
324	0.746
325	0.739
325	0.733
326	0.726
326	0.719
327	0.713
327	0.706
328	0.699
328	0.693
329	0.686
329	0.679
330	0.672
330	0.665
330	0.659
331	0.652
331	0.645
332	0.638
332	0.631
333	0.625
333	0.618
334	0.611
334	0.605
335	0.598
335	0.592
336	0.585
336	0.579
336	0.572
337	0.566
337	0.56
338	0.554
338	0.548
339	0.542
339	0.537
340	0.531
340	0.526
341	0.52
341	0.515
342	0.51
342	0.504
342	0.499
343	0.494
343	0.489
344	0.484
344	0.48
345	0.475
345	0.471
346	0.466
346	0.462
347	0.458
347	0.454
348	0.45
348	0.446
348	0.443
349	0.439
349	0.435
350	0.432
350	0.428
351	0.425
351	0.422
352	0.419
352	0.416
353	0.413
353	0.41
354	0.407
354	0.404
354	0.401
355	0.398
355	0.395
356	0.392
356	0.39
357	0.386
357	0.384
358	0.381
358	0.379
359	0.376
359	0.374
360	0.372
360	0.37
360	0.368
361	0.367
361	0.365
362	0.364
362	0.362
363	0.36
363	0.358
364	0.356
364	0.354
365	0.353
365	0.351
366	0.349
366	0.347
366	0.345
367	0.343
367	0.342
368	0.34
368	0.338
369	0.337
369	0.336
370	0.334
370	0.333
371	0.331
371	0.33
372	0.329
372	0.327
372	0.326
373	0.325
373	0.324
374	0.323
374	0.322
375	0.321
375	0.32
376	0.319
376	0.318
377	0.317
377	0.316
378	0.315
378	0.314
378	0.313
379	0.312
379	0.311
380	0.31
380	0.309
381	0.309
381	0.308
382	0.307
382	0.306
383	0.306
383	0.305
383	0.304
384	0.303
384	0.303
385	0.302
385	0.301
386	0.301
386	0.3
387	0.299
387	0.299
388	0.298
388	0.297
389	0.297
389	0.296
389	0.296
390	0.295
390	0.295
391	0.294
391	0.294
392	0.293
392	0.293
393	0.292
393	0.292
394	0.291
394	0.291
394	0.29
395	0.29
395	0.29
396	0.289
396	0.289
397	0.288
397	0.288
398	0.287
398	0.287
399	0.286
399	0.286
400	0.285
400	0.285
400	0.284
401	0.284
401	0.283
402	0.283
402	0.282
403	0.282
403	0.282
404	0.282
404	0.281
405	0.281
405	0.281
405	0.28
406	0.28
406	0.28
407	0.279
407	0.279
408	0.278
408	0.278
409	0.277
409	0.277
410	0.277
410	0.276
411	0.276
411	0.276
411	0.275
412	0.275
412	0.275
413	0.275
413	0.274
414	0.274
414	0.274
415	0.273
415	0.273
416	0.273
416	0.272
416	0.272
417	0.272
417	0.271
418	0.271
418	0.271
419	0.27
419	0.27
420	0.27
420	0.269
421	0.269
421	0.269
421	0.268
422	0.268
422	0.268
423	0.267
423	0.267
424	0.267
424	0.267
425	0.266
425	0.266
426	0.266
426	0.266
427	0.265
427	0.265
427	0.265
428	0.265
428	0.264
429	0.264
429	0.264
430	0.264
430	0.264
431	0.264
431	0.263
432	0.263
432	0.263
432	0.263
433	0.263
433	0.262
434	0.262
434	0.262
435	0.262
435	0.262
436	0.262
436	0.262
437	0.262
437	0.261
437	0.261
438	0.261
438	0.261
439	0.261
439	0.261
440	0.26
440	0.26
441	0.26
441	0.26
442	0.26
442	0.26
442	0.26
443	0.26
443	0.26
444	0.259
444	0.259
445	0.259
445	0.259
446	0.259
446	0.259
447	0.259
447	0.258
447	0.258
448	0.258
448	0.258
449	0.258
449	0.258
450	0.258
450	0.258
451	0.258
451	0.258
452	0.258
452	0.258
452	0.258
453	0.258
453	0.258
454	0.258
454	0.258
455	0.258
455	0.258
456	0.258
456	0.258
457	0.258
457	0.258
458	0.258
458	0.258
458	0.258
459	0.258
459	0.258
460	0.258
460	0.258
461	0.258
461	0.258
462	0.258
462	0.258
463	0.258
463	0.258
463	0.258
464	0.258
464	0.258
465	0.258
465	0.258
466	0.258
466	0.258
467	0.259
467	0.259
467	0.259
468	0.26
468	0.26
469	0.26
469	0.261
470	0.261
470	0.261
471	0.261
471	0.262
472	0.262
472	0.262
472	0.262
473	0.263
473	0.263
474	0.263
474	0.264
475	0.264
475	0.265
476	0.265
476	0.265
477	0.266
477	0.266
477	0.267
478	0.268
478	0.268
479	0.268
479	0.269
480	0.27
480	0.27
481	0.271
481	0.272
482	0.272
482	0.273
482	0.273
483	0.274
483	0.275
484	0.276
484	0.277
485	0.277
485	0.278
486	0.278
486	0.279
487	0.28
487	0.281
487	0.282
488	0.282
488	0.283
489	0.284
489	0.286
490	0.287
490	0.288
491	0.289
491	0.29
492	0.291
492	0.292
492	0.294
493	0.295
493	0.296
494	0.297
494	0.299
495	0.3
495	0.301
496	0.302
496	0.304
496	0.305
497	0.306
497	0.307
498	0.309
498	0.31
499	0.311
499	0.312
500	0.314
500	0.315
501	0.316
501	0.318
501	0.319
502	0.32
502	0.321
503	0.323
503	0.324
504	0.325
504	0.326
505	0.327
505	0.329
506	0.33
506	0.331
506	0.332
507	0.333
507	0.334
508	0.336
508	0.337
509	0.338
509	0.339
510	0.34
510	0.341
511	0.342
511	0.343
511	0.344
512	0.345
512	0.346
513	0.347
513	0.348
514	0.349
514	0.35
515	0.351
515	0.352
515	0.352
516	0.353
516	0.354
517	0.355
517	0.355
518	0.356
518	0.356
519	0.356
519	0.356
520	0.357
520	0.357
520	0.357
521	0.357
521	0.357
522	0.357
522	0.357
523	0.357
523	0.357
524	0.357
524	0.358
524	0.357
525	0.357
525	0.357
526	0.357
526	0.356
527	0.356
527	0.355
528	0.354
528	0.354
529	0.353
529	0.352
529	0.351
530	0.35
530	0.349
531	0.348
531	0.347
532	0.346
532	0.346
533	0.345
533	0.344
533	0.343
534	0.342
534	0.341
535	0.34
535	0.339
536	0.338
536	0.336
537	0.335
537	0.334
538	0.332
538	0.331
538	0.329
539	0.327
539	0.326
540	0.324
540	0.323
541	0.321
541	0.319
542	0.318
542	0.316
542	0.314
543	0.313
543	0.311
544	0.31
544	0.308
545	0.306
545	0.305
546	0.303
546	0.302
547	0.3
547	0.298
547	0.297
548	0.295
548	0.293
549	0.291
549	0.289
550	0.288
550	0.285
551	0.283
551	0.281
551	0.279
552	0.277
552	0.275
553	0.274
553	0.272
554	0.27
554	0.268
555	0.267
555	0.265
556	0.263
556	0.262
556	0.26
557	0.259
557	0.258
558	0.256
558	0.255
559	0.253
559	0.252
560	0.25
560	0.249
560	0.248
561	0.246
561	0.245
562	0.243
562	0.241
563	0.239
563	0.238
564	0.236
564	0.234
564	0.233
565	0.231
565	0.23
566	0.228
566	0.226
567	0.225
567	0.224
568	0.223
568	0.222
568	0.221
569	0.22
569	0.218
570	0.217
570	0.215
571	0.214
571	0.213
572	0.212
572	0.211
573	0.209
573	0.208
573	0.207
574	0.206
574	0.205
575	0.204
575	0.204
576	0.203
576	0.201
577	0.2
577	0.199
577	0.198
578	0.197
578	0.196
579	0.195
579	0.194
580	0.193
580	0.191
581	0.19
581	0.189
581	0.188
582	0.188
582	0.187
583	0.187
583	0.186
584	0.184
584	0.182
585	0.182
585	0.181
585	0.18
586	0.179
586	0.178
587	0.176
587	0.175
588	0.174
588	0.173
589	0.172
589	0.172
590	0.171
590	0.171
590	0.17
591	0.17
591	0.169
592	0.168
592	0.167
593	0.166
593	0.166
594	0.165
594	0.164
594	0.163
595	0.163
595	0.162
596	0.161
596	0.161
597	0.161
597	0.161
598	0.16
598	0.159
598	0.159
599	0.158
599	0.158
600	0.157
600	0.156
601	0.155
601	0.155
602	0.154
602	0.153
602	0.152
603	0.152
603	0.152
604	0.151
604	0.151
605	0.151
605	0.15
606	0.15
606	0.149
606	0.148
607	0.148
607	0.147
608	0.146
608	0.146
609	0.145
609	0.144
610	0.144
610	0.143
610	0.143
611	0.142
611	0.142
612	0.142
612	0.142
613	0.142
613	0.141
614	0.141
614	0.14
614	0.14
615	0.14
615	0.139
616	0.139
616	0.138
617	0.138
617	0.137
618	0.136
618	0.136
618	0.136
619	0.136
619	0.135
620	0.136
620	0.135
621	0.134
621	0.134
622	0.134
622	0.133
622	0.133
623	0.132
623	0.132
624	0.132
624	0.131
625	0.131
625	0.13
626	0.13
626	0.13
626	0.13
627	0.129
627	0.129
628	0.128
628	0.128
629	0.127
629	0.127
630	0.126
630	0.126
630	0.126
631	0.126
631	0.125
632	0.125
632	0.125
633	0.124
633	0.124
634	0.125
634	0.125
634	0.125
635	0.124
635	0.124
636	0.123
636	0.123
637	0.123
637	0.122
638	0.122
638	0.122
638	0.121
639	0.121
639	0.12
640	0.12
640	0.12
641	0.12
641	0.119
642	0.119
642	0.119
642	0.119
643	0.119
643	0.119
644	0.119
644	0.119
645	0.119
645	0.119
646	0.119
646	0.119
646	0.119
647	0.118
647	0.118
648	0.118
648	0.118
649	0.117
649	0.117
650	0.117
650	0.117
650	0.117
651	0.117
651	0.116
652	0.116
652	0.116
653	0.117
653	0.119
653	0.124
654	0.099
654	0.081
655	0.08
655	0.08
656	0.08
656	0.08
657	0.08
657	0.08
657	0.08
658	0.079
658	0.071
659	0.088
659	0.111
660	0.115
660	0.115
661	0.115
661	0.114
661	0.114
662	0.114
662	0.114
663	0.114
663	0.113
664	0.113
664	0.113
665	0.113
665	0.113
665	0.113
666	0.113
666	0.113
667	0.112
667	0.112
668	0.112
668	0.112
669	0.112
669	0.112
669	0.112
670	0.112
670	0.112
671	0.112
671	0.111
672	0.111
672	0.11
672	0.11
673	0.11
673	0.11
674	0.11
674	0.11
675	0.11
675	0.11
676	0.11
676	0.111
676	0.111
677	0.112
677	0.112
678	0.112
678	0.111
679	0.111
679	0.111
680	0.111
680	0.111
680	0.111
681	0.111
681	0.111
682	0.111
682	0.111
683	0.111
683	0.111
684	0.112
684	0.111
684	0.111
685	0.111
685	0.111
686	0.111
686	0.111
687	0.11
687	0.11
687	0.11
688	0.11
688	0.109
689	0.11
689	0.11
690	0.11
690	0.11
691	0.11
691	0.11
691	0.11
692	0.111
692	0.111
693	0.111
693	0.112
694	0.112
694	0.111
695	0.112
695	0.113
695	0.114
696	0.113
696	0.113
697	0.113
697	0.113
698	0.113
698	0.112
698	0.112
699	0.113
699	0.112
700	0.111
700	0.111
701	0.111
701	0.111
702	0.111
702	0.111
702	0.112
703	0.111
703	0.111
704	0.111
704	0.111
705	0.111
705	0.111
705	0.111
706	0.111
706	0.111
707	0.111
707	0.111
708	0.111
708	0.111
709	0.111
709	0.11
709	0.11
710	0.11
710	0.11
711	0.11
711	0.11
712	0.11
712	0.111
713	0.111
713	0.111
713	0.111
714	0.111
714	0.111
715	0.11
715	0.11
716	0.11
716	0.11
716	0.109
717	0.109
717	0.108
718	0.108
718	0.108
719	0.109
719	0.109
720	0.11
720	0.11
720	0.11
721	0.111
721	0.111
722	0.112
722	0.112
723	0.112
723	0.113
723	0.113
724	0.113
724	0.112
725	0.112
725	0.111
726	0.111
726	0.11
727	0.11
727	0.11
727	0.109
728	0.109
728	0.109
729	0.109
729	0.109
730	0.109
730	0.109
730	0.109
731	0.11
731	0.11
732	0.11
732	0.11
733	0.11
733	0.11
734	0.109
734	0.109
734	0.109
735	0.109
735	0.109
736	0.109
736	0.109
737	0.108
737	0.109
737	0.109
738	0.108
738	0.108
739	0.108
739	0.107
740	0.107
740	0.107
741	0.107
741	0.107
741	0.107
742	0.107
742	0.107
743	0.108
743	0.108
744	0.109
744	0.109
744	0.109
745	0.109
745	0.11
746	0.11
746	0.11
747	0.11
747	0.111
748	0.111
748	0.111
748	0.11
749	0.11
749	0.11
750	0.11
750	0.109
751	0.109
751	0.109
751	0.109
752	0.108
752	0.108
753	0.108
753	0.108
754	0.108
754	0.108
754	0.108
755	0.108
755	0.108
756	0.108
756	0.107
757	0.106
757	0.105
758	0.105
758	0.104
758	0.104
759	0.104
759	0.103
760	0.103
760	0.103
761	0.103
761	0.104
761	0.105
762	0.105
762	0.105
763	0.105
763	0.105
764	0.104
764	0.104
764	0.104
765	0.103
765	0.103
766	0.102
766	0.101
767	0.1
767	0.099
768	0.098
768	0.098
768	0.098
769	0.097
769	0.097
770	0.097
770	0.097
771	0.098
771	0.098
771	0.098
772	0.099
772	0.099
773	0.1
773	0.1
774	0.1
774	0.101
775	0.101
775	0.101
775	0.101
776	0.101
776	0.101
777	0.101
777	0.101
778	0.1
778	0.1
778	0.099
779	0.099
779	0.098
780	0.097
780	0.096
781	0.095
781	0.094
781	0.094
782	0.094
782	0.093
783	0.093
783	0.093
784	0.093
784	0.093
784	0.093
785	0.093
785	0.093
786	0.093
786	0.093
787	0.093
787	0.093
788	0.092
788	0.092
788	0.091
789	0.091
789	0.091
790	0.091
790	0.09
791	0.09
791	0.089
791	0.089
792	0.089
792	0.089
793	0.088
793	0.088
794	0.088
794	0.087
794	0.086
795	0.086
795	0.085
796	0.085
796	0.085
797	0.084
797	0.084
797	0.084
798	0.084
798	0.084
799	0.084
799	0.083
800	0.083
800	0.083
801	0.083
801	0.083
801	0.083
802	0.083
802	0.083
803	0.083
803	0.083
804	0.083
804	0.083
804	0.083
805	0.083
805	0.083
806	0.083
806	0.083
807	0.082
807	0.082
807	0.082
808	0.082
808	0.082
809	0.082
809	0.081
810	0.081
810	0.081
810	0.081
811	0.08
811	0.081
812	0.081
812	0.081
813	0.081
813	0.081
813	0.081
814	0.081
814	0.081
815	0.082
815	0.082
816	0.082
816	0.081
817	0.081
817	0.08
817	0.08
818	0.079
818	0.078
819	0.077
819	0.076
820	0.075
820	0.074
820	0.073
821	0.072
821	0.071
822	0.071
822	0.07
823	0.07
823	0.07
823	0.07
824	0.071
824	0.072
825	0.073
825	0.074
826	0.074
826	0.074
826	0.074
827	0.075
827	0.075
828	0.074
828	0.074
829	0.074
829	0.073
829	0.073
830	0.073
830	0.073
831	0.073
831	0.073
832	0.073
832	0.073
832	0.073
833	0.073
833	0.073
834	0.073
834	0.072
835	0.072
835	0.072
835	0.072
836	0.073
836	0.073
837	0.072
837	0.072
838	0.071
838	0.071
839	0.07
839	0.069
839	0.067
840	0.066
840	0.065
841	0.063
841	0.062
842	0.061
842	0.06
842	0.06
843	0.059
843	0.059
844	0.059
844	0.059
845	0.059
845	0.059
845	0.059
846	0.059
846	0.059
847	0.059
847	0.06
848	0.06
848	0.061
848	0.061
849	0.061
849	0.061
850	0.061
850	0.061
851	0.061
851	0.06
851	0.06
852	0.059
852	0.057
853	0.056
853	0.055
854	0.055
854	0.055
854	0.054
855	0.055
855	0.055
856	0.055
856	0.055
857	0.055
857	0.055
857	0.056
858	0.055
858	0.055
859	0.054
859	0.053
860	0.053
860	0.052
860	0.051
861	0.051
861	0.05
862	0.05
862	0.049
863	0.049
863	0.048
863	0.048
864	0.048
864	0.048
865	0.048
865	0.047
866	0.047
866	0.047
866	0.046
867	0.046
867	0.046
868	0.047
868	0.047
869	0.047
869	0.047
869	0.047
870	0.048
870	0.048
871	0.049
871	0.049
872	0.05
872	0.05
872	0.05
873	0.05
873	0.049
874	0.049
874	0.048
875	0.048
875	0.048
875	0.047
876	0.047
876	0.047
877	0.047
877	0.047
878	0.048
878	0.048
878	0.049
879	0.05
879	0.051
880	0.051
880	0.051
881	0.051
881	0.051
881	0.05
882	0.049
882	0.048
883	0.047
883	0.046
884	0.044
884	0.043
884	0.042
885	0.041
885	0.04
886	0.04
886	0.039
887	0.038
887	0.038
887	0.037
888	0.037
888	0.037
889	0.037
889	0.036
890	0.037
890	0.037
890	0.037
891	0.037
891	0.038
892	0.038
892	0.039
893	0.039
893	0.04
893	0.041
894	0.041
894	0.042
895	0.042
895	0.042
895	0.042
896	0.042
896	0.042
897	0.042
897	0.041
898	0.041
898	0.04
898	0.04
899	0.039
899	0.039
900	0.038
900	0.038
901	0.038
901	0.037
901	0.037
902	0.037
902	0.037
903	0.037
903	0.036
904	0.036
904	0.036
904	0.035
905	0.035
905	0.035
906	0.035
906	0.035
907	0.035
907	0.036
907	0.036
908	0.037
908	0.037
909	0.038
909	0.038
910	0.038
910	0.038
910	0.038
911	0.038
911	0.037
912	0.037
912	0.037
913	0.036
913	0.036
913	0.035
914	0.035
914	0.034
915	0.034
915	0.033
916	0.033
916	0.032
916	0.031
917	0.031
917	0.03
918	0.03
918	0.029
918	0.029
919	0.028
919	0.028
920	0.028
920	0.028
921	0.028
921	0.029
921	0.029
922	0.029
922	0.03
923	0.031
923	0.031
924	0.032
924	0.032
924	0.033
925	0.033
925	0.033
926	0.033
926	0.033
927	0.033
927	0.033
927	0.032
928	0.032
928	0.032
929	0.031
929	0.031
930	0.031
930	0.031
930	0.031
931	0.031
931	0.032
932	0.032
932	0.032
933	0.033
933	0.033
933	0.033
934	0.033
934	0.033
935	0.033
935	0.033
935	0.033
936	0.032
936	0.032
937	0.031
937	0.031
938	0.03
938	0.03
938	0.03
939	0.03
939	0.029
940	0.03
940	0.03
941	0.03
941	0.03
941	0.031
942	0.031
942	0.03
943	0.03
943	0.03
944	0.03
944	0.03
944	0.029
945	0.029
945	0.028
946	0.028
946	0.027
946	0.027
947	0.027
947	0.026
948	0.026
948	0.026
949	0.025
949	0.025
949	0.025
950	0.024
950	0.024
951	0.024
951	0.024
952	0.024
952	0.024
952	0.023
953	0.023
953	0.023
954	0.023
954	0.023
955	0.023
955	0.023
955	0.023
956	0.023
956	0.024
957	0.024
957	0.025
957	0.025
958	0.026
958	0.026
959	0.027
959	0.027
960	0.027
960	0.027
960	0.027
961	0.026
961	0.026
962	0.026
962	0.026
963	0.025
963	0.025
963	0.025
964	0.025
964	0.025
965	0.025
965	0.026
966	0.026
966	0.026
966	0.027
967	0.027
967	0.028
968	0.028
968	0.028
968	0.029
969	0.029
969	0.029
970	0.028
970	0.028
971	0.028
971	0.028
971	0.028
972	0.028
972	0.027
973	0.027
973	0.027
974	0.027
974	0.027
974	0.028
975	0.028
975	0.028
976	0.028
976	0.028
976	0.028
977	0.028
977	0.028
978	0.028
978	0.027
979	0.027
979	0.026
979	0.026
980	0.026
980	0.025
981	0.024
981	0.024
982	0.023
982	0.023
982	0.022
983	0.022
983	0.022
984	0.022
984	0.021
984	0.021
985	0.021
985	0.021
986	0.021
986	0.02
987	0.02
987	0.019
987	0.019
988	0.018
988	0.018
989	0.017
989	0.017
990	0.016
990	0.016
990	0.016
991	0.015
991	0.015
992	0.015
992	0.015
992	0.014
993	0.014
993	0.013
994	0.013
994	0.013
995	0.012
995	0.012
995	0.013
996	0.013
996	0.013
997	0.014
997	0.014
997	0.015
998	0.016
998	0.017
999	0.018
999	0.019
1000	0.02
1000	0.02
1000	0.021
1001	0.021
1001	0.021
1002	0.022
1002	0.021
1003	0.022
1003	0.021
1003	0.021
1004	0.021
1004	0.02
1005	0.02
1005	0.02
1005	0.02
1006	0.019
1006	0.019
1007	0.019
1007	0.019
1008	0.019
1008	0.019
1008	0.019
1009	0.019
1009	0.019
1010	0.019
1010	0.02
1010	0.02
1011	0.02
1011	0.02
1012	0.02
1012	0.02
1013	0.02
1013	0.02
1013	0.02
1014	0.019
1014	0.019
1015	0.019
1015	0.018
1016	0.018
1016	0.017
1016	0.017
1017	0.016
1017	0.016
1018	0.016
1018	0.015
1018	0.015
1019	0.015
1019	0.015
1020	0.015
1020	0.014
1021	0.014
1021	0.014
1021	0.014
1022	0.014
1022	0.014
1023	0.014
1023	0.014
1023	0.014
1024	0.013
1024	0.013
1025	0.013
1025	0.013
1026	0.012
1026	0.012
1026	0.012
1027	0.011
1027	0.011
1028	0.011
1028	0.011
1028	0.011
1029	0.011
1029	0.011
1030	0.011
1030	0.011
1031	0.011
1031	0.011
1031	0.011
1032	0.011
1032	0.011
1033	0.011
1033	0.011
1033	0.011
1034	0.012
1034	0.012
1035	0.012
1035	0.012
1036	0.012
1036	0.012
1036	0.012
1037	0.013
1037	0.013
1038	0.013
1038	0.013
1039	0.013
1039	0.013
1039	0.013
1040	0.014
1040	0.014
1041	0.014
1041	0.014
1041	0.014
1042	0.014
1042	0.014
1043	0.014
1043	0.014
1044	0.014
1044	0.014
1044	0.015
1045	0.015
1045	0.015
1046	0.016
1046	0.016
1046	0.017
1047	0.017
1047	0.018
1048	0.018
1048	0.018
1049	0.019
1049	0.019
1049	0.019
1050	0.018
1050	0.018
1051	0.017
1051	0.017
1051	0.016
1052	0.015
1052	0.014
1053	0.013
1053	0.012
1053	0.012
1054	0.011
1054	0.01
1055	0.01
1055	0.009
1056	0.009
1056	0.008
1056	0.007
1057	0.007
1057	0.006
1058	0.006
1058	0.005
1058	0.004
1059	0.004
1059	0.004
1060	0.003
1060	0.003
1061	0.002
1061	0.002
1061	0.002
1062	0.002
1062	0.002
1063	0.002
1063	0.002
1063	0.002
1064	0.001
1064	0.001
1065	0.001
1065	0.001
1066	0.001
1066	0.001
1066	0.001
1067	0.001
1067	0.001
1068	0
1068	-0
1068	-0
1069	-0.001
1069	-0.001
1070	-0.002
1070	-0.002
1071	-0.003
1071	-0.004
1071	-0.004
1072	-0.005
1072	-0.005
1073	-0.006
1073	-0.006
1073	-0.006
1074	-0.006
1074	-0.006
1075	-0.006
1075	-0.005
1076	-0.005
1076	-0.004
1076	-0.003
1077	-0.003
1077	-0.002
1078	-0.002
1078	-0.002
1078	-0.001
1079	-0.001
1079	-0.001
1080	-0
1080	-0
1080	-0
1081	0
1081	0
1082	0.001
1082	0.002
1083	0.001
1083	0.001
1083	0.001
1084	0.001
1084	0.001
1085	0
1085	-0
1085	-0
1086	-0.001
1086	-0.002
1087	-0.002
1087	-0.003
1088	-0.003
1088	-0.003
1088	-0.003
1089	-0.003
1089	-0.004
1090	-0.004
1090	-0.005
1090	-0.005
1091	-0.005
1091	-0.005
1092	-0.005
1092	-0.005
1092	-0.005
1093	-0.005
1093	-0.005
1094	-0.005
1094	-0.005
1095	-0.005
1095	-0.005
1095	-0.005
1096	-0.005
1096	-0.006
1097	-0.006
1097	-0.007
1097	-0.008
1098	-0.008
1098	-0.01
1099	-0.01
1099	-0.011
1100	-0.012
1100	-0.013
1100	-0.015
1101	-0.016
1101	-0.017
1102	-0.017
1102	-0.017
1102	-0.018
1103	-0.019
1103	-0.019
1104	-0.02
1104	-0.021
1104	-0.022
1105	-0.022
1105	-0.023
1106	-0.024
1106	-0.025
1107	-0.027
1107	-0.027
1107	-0.028
1108	-0.029
1108	-0.03
1109	-0.03
1109	-0.031
1109	-0.031
1110	-0.03
1110	-0.031
1111	-0.031
1111	-0.03
