Data from reversibility-20sec_Absorbance__4246__000000000004246.txt Node

Date: Wed Dec 06 11:48:26 CET 2023
User: Marek
Spectrometer: MAYP115816
Trigger mode: 0
Integration Time (sec): 2.000000E-1
Scans to average: 10
Electric dark correction enabled: true
Nonlinearity correction enabled: true
Boxcar width: 5
XAxis mode: Wavelengths
Number of Pixels in Spectrum: 2068
>>>>>Begin Spectral Data<<<<<
199	-0.185
199	-0.154
200	-0.088
200	-0.034
201	-0.01
201	0.006
202	0.018
202	0.027
203	0.031
203	0.035
204	0.048
204	0.061
205	0.07
205	0.074
205	0.072
206	0.073
206	0.073
207	0.074
207	0.072
208	0.073
208	0.072
209	0.076
209	0.073
210	0.074
210	0.075
211	0.076
211	0.078
212	0.075
212	0.075
213	0.079
213	0.08
213	0.081
214	0.083
214	0.084
215	0.088
215	0.087
216	0.086
216	0.085
217	0.09
217	0.093
218	0.089
218	0.093
219	0.096
219	0.095
220	0.098
220	0.096
221	0.098
221	0.1
221	0.105
222	0.111
222	0.116
223	0.125
223	0.131
224	0.138
224	0.15
225	0.157
225	0.167
226	0.177
226	0.186
227	0.2
227	0.207
228	0.221
228	0.234
229	0.249
229	0.271
229	0.29
230	0.319
230	0.348
231	0.384
231	0.422
232	0.458
232	0.502
233	0.545
233	0.594
234	0.644
234	0.696
235	0.75
235	0.801
236	0.854
236	0.905
236	0.957
237	1.008
237	1.06
238	1.105
238	1.153
239	1.201
239	1.243
240	1.282
240	1.32
241	1.355
241	1.389
242	1.422
242	1.455
243	1.483
243	1.51
243	1.535
244	1.556
244	1.579
245	1.598
245	1.62
246	1.639
246	1.656
247	1.669
247	1.683
248	1.7
248	1.714
249	1.723
249	1.731
250	1.739
250	1.749
250	1.753
251	1.759
251	1.761
252	1.768
252	1.771
253	1.772
253	1.771
254	1.774
254	1.777
255	1.776
255	1.777
256	1.777
256	1.776
257	1.778
257	1.777
258	1.775
258	1.774
258	1.773
259	1.77
259	1.769
260	1.767
260	1.768
261	1.769
261	1.771
262	1.773
262	1.771
263	1.773
263	1.775
264	1.776
264	1.778
265	1.779
265	1.78
265	1.78
266	1.779
266	1.779
267	1.776
267	1.778
268	1.779
268	1.78
269	1.782
269	1.78
270	1.779
270	1.777
271	1.775
271	1.774
272	1.771
272	1.77
272	1.768
273	1.763
273	1.756
274	1.751
274	1.747
275	1.741
275	1.735
276	1.728
276	1.721
277	1.713
277	1.704
278	1.693
278	1.683
278	1.672
279	1.66
279	1.646
280	1.627
280	1.606
281	1.579
281	1.549
282	1.515
282	1.48
283	1.444
283	1.409
284	1.374
284	1.339
285	1.306
285	1.275
285	1.248
286	1.222
286	1.2
287	1.181
287	1.164
288	1.149
288	1.137
289	1.125
289	1.115
290	1.107
290	1.099
291	1.092
291	1.086
292	1.081
292	1.076
292	1.071
293	1.066
293	1.062
294	1.058
294	1.055
295	1.051
295	1.048
296	1.045
296	1.041
297	1.038
297	1.034
298	1.031
298	1.028
298	1.025
299	1.022
299	1.019
300	1.016
300	1.013
301	1.01
301	1.007
302	1.004
302	1.001
303	0.999
303	0.996
304	0.993
304	0.99
305	0.987
305	0.985
305	0.982
306	0.979
306	0.976
307	0.974
307	0.971
308	0.968
308	0.965
309	0.962
309	0.959
310	0.955
310	0.952
311	0.949
311	0.945
311	0.942
312	0.938
312	0.935
313	0.931
313	0.927
314	0.923
314	0.919
315	0.915
315	0.911
316	0.906
316	0.902
317	0.897
317	0.893
318	0.888
318	0.883
318	0.878
319	0.872
319	0.867
320	0.861
320	0.856
321	0.85
321	0.844
322	0.838
322	0.832
323	0.825
323	0.819
324	0.813
324	0.806
324	0.8
325	0.793
325	0.786
326	0.779
326	0.773
327	0.766
327	0.759
328	0.753
328	0.746
329	0.739
329	0.732
330	0.726
330	0.719
330	0.712
331	0.705
331	0.698
332	0.691
332	0.685
333	0.678
333	0.671
334	0.665
334	0.658
335	0.651
335	0.644
336	0.638
336	0.632
336	0.625
337	0.619
337	0.613
338	0.606
338	0.601
339	0.595
339	0.589
340	0.583
340	0.578
341	0.572
341	0.567
342	0.562
342	0.556
342	0.551
343	0.546
343	0.541
344	0.537
344	0.532
345	0.527
345	0.522
346	0.518
346	0.514
347	0.509
347	0.505
348	0.501
348	0.497
348	0.494
349	0.49
349	0.486
350	0.483
350	0.479
351	0.476
351	0.472
352	0.469
352	0.466
353	0.463
353	0.46
354	0.457
354	0.454
354	0.451
355	0.448
355	0.445
356	0.442
356	0.439
357	0.436
357	0.433
358	0.43
358	0.427
359	0.425
359	0.423
360	0.421
360	0.419
360	0.417
361	0.415
361	0.413
362	0.411
362	0.409
363	0.407
363	0.405
364	0.403
364	0.401
365	0.399
365	0.397
366	0.396
366	0.394
366	0.392
367	0.39
367	0.388
368	0.386
368	0.385
369	0.383
369	0.382
370	0.38
370	0.379
371	0.377
371	0.376
372	0.374
372	0.373
372	0.372
373	0.371
373	0.37
374	0.369
374	0.367
375	0.366
375	0.365
376	0.364
376	0.363
377	0.362
377	0.361
378	0.36
378	0.359
378	0.358
379	0.357
379	0.356
380	0.355
380	0.354
381	0.353
381	0.352
382	0.351
382	0.35
383	0.349
383	0.349
383	0.348
384	0.347
384	0.346
385	0.345
385	0.345
386	0.344
386	0.344
387	0.343
387	0.343
388	0.342
388	0.341
389	0.341
389	0.34
389	0.34
390	0.339
390	0.338
391	0.338
391	0.337
392	0.336
392	0.336
393	0.335
393	0.335
394	0.334
394	0.334
394	0.333
395	0.333
395	0.332
396	0.332
396	0.331
397	0.33
397	0.33
398	0.329
398	0.329
399	0.328
399	0.328
400	0.327
400	0.327
400	0.327
401	0.326
401	0.326
402	0.326
402	0.325
403	0.325
403	0.325
404	0.325
404	0.324
405	0.324
405	0.324
405	0.323
406	0.323
406	0.322
407	0.322
407	0.321
408	0.321
408	0.32
409	0.32
409	0.319
410	0.319
410	0.318
411	0.318
411	0.318
411	0.317
412	0.317
412	0.317
413	0.316
413	0.316
414	0.316
414	0.315
415	0.315
415	0.314
416	0.314
416	0.314
416	0.313
417	0.313
417	0.313
418	0.312
418	0.312
419	0.311
419	0.311
420	0.31
420	0.31
421	0.309
421	0.309
421	0.309
422	0.308
422	0.308
423	0.308
423	0.307
424	0.307
424	0.307
425	0.307
425	0.306
426	0.306
426	0.306
427	0.306
427	0.305
427	0.305
428	0.305
428	0.304
429	0.304
429	0.304
430	0.304
430	0.303
431	0.303
431	0.303
432	0.303
432	0.303
432	0.302
433	0.302
433	0.302
434	0.301
434	0.301
435	0.301
435	0.301
436	0.301
436	0.301
437	0.3
437	0.3
437	0.3
438	0.3
438	0.3
439	0.3
439	0.3
440	0.3
440	0.299
441	0.299
441	0.299
442	0.299
442	0.298
442	0.298
443	0.298
443	0.298
444	0.298
444	0.298
445	0.298
445	0.298
446	0.298
446	0.297
447	0.298
447	0.297
447	0.297
448	0.297
448	0.297
449	0.297
449	0.297
450	0.297
450	0.297
451	0.297
451	0.297
452	0.297
452	0.298
452	0.298
453	0.298
453	0.298
454	0.298
454	0.298
455	0.298
455	0.297
456	0.298
456	0.297
457	0.297
457	0.297
458	0.297
458	0.297
458	0.297
459	0.298
459	0.298
460	0.298
460	0.298
461	0.298
461	0.298
462	0.298
462	0.298
463	0.298
463	0.299
463	0.299
464	0.299
464	0.299
465	0.299
465	0.299
466	0.299
466	0.299
467	0.299
467	0.3
467	0.3
468	0.3
468	0.3
469	0.301
469	0.301
470	0.302
470	0.302
471	0.303
471	0.303
472	0.303
472	0.304
472	0.304
473	0.305
473	0.305
474	0.305
474	0.306
475	0.306
475	0.307
476	0.307
476	0.308
477	0.308
477	0.309
477	0.31
478	0.31
478	0.311
479	0.312
479	0.313
480	0.313
480	0.314
481	0.315
481	0.315
482	0.316
482	0.317
482	0.317
483	0.318
483	0.319
484	0.32
484	0.321
485	0.321
485	0.322
486	0.323
486	0.323
487	0.324
487	0.325
487	0.326
488	0.327
488	0.328
489	0.329
489	0.331
490	0.332
490	0.334
491	0.335
491	0.337
492	0.338
492	0.339
492	0.341
493	0.342
493	0.343
494	0.345
494	0.346
495	0.348
495	0.349
496	0.35
496	0.352
496	0.353
497	0.354
497	0.356
498	0.357
498	0.358
499	0.36
499	0.361
500	0.363
500	0.365
501	0.366
501	0.367
501	0.368
502	0.37
502	0.371
503	0.373
503	0.374
504	0.375
504	0.377
505	0.378
505	0.379
506	0.38
506	0.381
506	0.383
507	0.384
507	0.385
508	0.387
508	0.388
509	0.389
509	0.39
510	0.392
510	0.393
511	0.394
511	0.396
511	0.397
512	0.398
512	0.399
513	0.4
513	0.401
514	0.402
514	0.403
515	0.403
515	0.404
515	0.405
516	0.405
516	0.406
517	0.407
517	0.408
518	0.408
518	0.409
519	0.409
519	0.409
520	0.409
520	0.41
520	0.41
521	0.41
521	0.41
522	0.41
522	0.409
523	0.409
523	0.409
524	0.408
524	0.408
524	0.408
525	0.408
525	0.407
526	0.407
526	0.406
527	0.405
527	0.405
528	0.403
528	0.403
529	0.402
529	0.401
529	0.399
530	0.398
530	0.397
531	0.395
531	0.394
532	0.392
532	0.391
533	0.39
533	0.388
533	0.387
534	0.386
534	0.384
535	0.383
535	0.381
536	0.379
536	0.378
537	0.376
537	0.374
538	0.372
538	0.37
538	0.368
539	0.366
539	0.364
540	0.362
540	0.36
541	0.358
541	0.355
542	0.353
542	0.351
542	0.349
543	0.346
543	0.344
544	0.342
544	0.339
545	0.337
545	0.335
546	0.333
546	0.331
547	0.328
547	0.326
547	0.323
548	0.321
548	0.319
549	0.317
549	0.315
550	0.312
550	0.31
551	0.308
551	0.305
551	0.302
552	0.3
552	0.297
553	0.295
553	0.292
554	0.29
554	0.287
555	0.285
555	0.282
556	0.28
556	0.278
556	0.276
557	0.274
557	0.273
558	0.271
558	0.269
559	0.267
559	0.265
560	0.263
560	0.261
560	0.259
561	0.257
561	0.255
562	0.253
562	0.25
563	0.248
563	0.245
564	0.243
564	0.241
564	0.239
565	0.237
565	0.235
566	0.233
566	0.231
567	0.23
567	0.228
568	0.227
568	0.225
568	0.223
569	0.222
569	0.22
570	0.218
570	0.216
571	0.214
571	0.213
572	0.211
572	0.21
573	0.208
573	0.206
573	0.205
574	0.203
574	0.202
575	0.201
575	0.2
576	0.199
576	0.197
577	0.195
577	0.193
577	0.192
578	0.191
578	0.189
579	0.189
579	0.188
580	0.186
580	0.184
581	0.182
581	0.181
581	0.18
582	0.179
582	0.179
583	0.178
583	0.177
584	0.175
584	0.173
585	0.172
585	0.171
585	0.17
586	0.169
586	0.167
587	0.166
587	0.164
588	0.163
588	0.162
589	0.161
589	0.16
590	0.16
590	0.159
590	0.159
591	0.158
591	0.157
592	0.156
592	0.155
593	0.154
593	0.153
594	0.152
594	0.151
594	0.15
595	0.149
595	0.148
596	0.147
596	0.146
597	0.147
597	0.147
598	0.146
598	0.145
598	0.144
599	0.143
599	0.143
600	0.142
600	0.141
601	0.14
601	0.139
602	0.138
602	0.137
602	0.136
603	0.135
603	0.135
604	0.134
604	0.134
605	0.134
605	0.134
606	0.133
606	0.132
606	0.131
607	0.131
607	0.13
608	0.129
608	0.128
609	0.127
609	0.127
610	0.126
610	0.125
610	0.125
611	0.124
611	0.124
612	0.123
612	0.123
613	0.123
613	0.123
614	0.122
614	0.121
614	0.12
615	0.12
615	0.119
616	0.119
616	0.118
617	0.117
617	0.117
618	0.116
618	0.116
618	0.116
619	0.116
619	0.116
620	0.116
620	0.116
621	0.115
621	0.115
622	0.114
622	0.114
622	0.113
623	0.112
623	0.112
624	0.111
624	0.11
625	0.11
625	0.109
626	0.109
626	0.108
626	0.108
627	0.108
627	0.107
628	0.107
628	0.106
629	0.105
629	0.105
630	0.104
630	0.104
630	0.103
631	0.103
631	0.103
632	0.102
632	0.102
633	0.102
633	0.102
634	0.102
634	0.102
634	0.101
635	0.101
635	0.1
636	0.1
636	0.1
637	0.099
637	0.099
638	0.099
638	0.098
638	0.097
639	0.097
639	0.097
640	0.097
640	0.097
641	0.096
641	0.096
642	0.096
642	0.096
642	0.097
643	0.097
643	0.097
644	0.097
644	0.097
645	0.097
645	0.096
646	0.096
646	0.095
646	0.095
647	0.094
647	0.094
648	0.093
648	0.092
649	0.092
649	0.091
650	0.091
650	0.091
650	0.091
651	0.091
651	0.091
652	0.091
652	0.09
653	0.091
653	0.092
653	0.099
654	0.08
654	0.065
655	0.062
655	0.062
656	0.062
656	0.062
657	0.063
657	0.063
657	0.063
658	0.062
658	0.054
659	0.067
659	0.084
660	0.09
660	0.09
661	0.09
661	0.089
661	0.088
662	0.088
662	0.087
663	0.086
663	0.086
664	0.085
664	0.085
665	0.084
665	0.084
665	0.084
666	0.084
666	0.083
667	0.083
667	0.083
668	0.083
668	0.083
669	0.083
669	0.083
669	0.084
670	0.084
670	0.084
671	0.083
671	0.083
672	0.083
672	0.083
672	0.083
673	0.083
673	0.082
674	0.082
674	0.082
675	0.081
675	0.081
676	0.082
676	0.082
676	0.081
677	0.081
677	0.081
678	0.081
678	0.08
679	0.08
679	0.08
680	0.08
680	0.079
680	0.079
681	0.078
681	0.079
682	0.079
682	0.079
683	0.078
683	0.079
684	0.079
684	0.079
684	0.078
685	0.078
685	0.078
686	0.078
686	0.078
687	0.078
687	0.078
687	0.078
688	0.078
688	0.078
689	0.078
689	0.079
690	0.079
690	0.078
691	0.078
691	0.079
691	0.079
692	0.078
692	0.078
693	0.078
693	0.078
694	0.077
694	0.077
695	0.077
695	0.078
695	0.078
696	0.077
696	0.077
697	0.077
697	0.077
698	0.076
698	0.076
698	0.076
699	0.077
699	0.076
700	0.075
700	0.075
701	0.075
701	0.075
702	0.075
702	0.075
702	0.075
703	0.074
703	0.074
704	0.073
704	0.073
705	0.073
705	0.073
705	0.072
706	0.072
706	0.072
707	0.072
707	0.072
708	0.072
708	0.072
709	0.072
709	0.072
709	0.072
710	0.071
710	0.072
711	0.072
711	0.071
712	0.071
712	0.071
713	0.071
713	0.071
713	0.071
714	0.071
714	0.071
715	0.071
715	0.07
716	0.07
716	0.07
716	0.069
717	0.069
717	0.068
718	0.067
718	0.067
719	0.067
719	0.067
720	0.067
720	0.067
720	0.067
721	0.067
721	0.067
722	0.068
722	0.068
723	0.068
723	0.069
723	0.069
724	0.069
724	0.068
725	0.068
725	0.067
726	0.066
726	0.066
727	0.065
727	0.065
727	0.064
728	0.063
728	0.063
729	0.063
729	0.063
730	0.063
730	0.063
730	0.063
731	0.064
731	0.064
732	0.065
732	0.065
733	0.065
733	0.065
734	0.064
734	0.064
734	0.065
735	0.065
735	0.064
736	0.064
736	0.064
737	0.063
737	0.063
737	0.063
738	0.063
738	0.062
739	0.062
739	0.062
740	0.061
740	0.061
741	0.061
741	0.061
741	0.061
742	0.061
742	0.061
743	0.062
743	0.062
744	0.063
744	0.063
744	0.063
745	0.062
745	0.062
746	0.062
746	0.062
747	0.062
747	0.062
748	0.062
748	0.062
748	0.062
749	0.061
749	0.062
750	0.062
750	0.061
751	0.061
751	0.061
751	0.061
752	0.061
752	0.06
753	0.06
753	0.06
754	0.06
754	0.06
754	0.06
755	0.06
755	0.06
756	0.06
756	0.059
757	0.058
757	0.058
758	0.058
758	0.058
758	0.058
759	0.058
759	0.057
760	0.057
760	0.057
761	0.057
761	0.058
761	0.058
762	0.058
762	0.059
763	0.059
763	0.059
764	0.058
764	0.058
764	0.058
765	0.057
765	0.057
766	0.056
766	0.056
767	0.055
767	0.054
768	0.052
768	0.052
768	0.052
769	0.052
769	0.052
770	0.052
770	0.052
771	0.052
771	0.052
771	0.052
772	0.053
772	0.053
773	0.054
773	0.054
774	0.054
774	0.054
775	0.054
775	0.054
775	0.054
776	0.054
776	0.054
777	0.054
777	0.054
778	0.054
778	0.053
778	0.053
779	0.053
779	0.053
780	0.052
780	0.052
781	0.052
781	0.052
781	0.052
782	0.052
782	0.053
783	0.053
783	0.054
784	0.054
784	0.054
784	0.055
785	0.055
785	0.055
786	0.055
786	0.055
787	0.055
787	0.055
788	0.054
788	0.053
788	0.052
789	0.052
789	0.052
790	0.051
790	0.05
791	0.05
791	0.049
791	0.048
792	0.049
792	0.049
793	0.048
793	0.048
794	0.048
794	0.048
794	0.047
795	0.048
795	0.048
796	0.048
796	0.048
797	0.047
797	0.048
797	0.048
798	0.048
798	0.049
799	0.049
799	0.049
800	0.048
800	0.048
801	0.048
801	0.048
801	0.048
802	0.048
802	0.048
803	0.049
803	0.049
804	0.05
804	0.051
804	0.051
805	0.052
805	0.052
806	0.052
806	0.052
807	0.052
807	0.051
807	0.051
808	0.051
808	0.051
809	0.05
809	0.05
810	0.05
810	0.05
810	0.049
811	0.049
811	0.05
812	0.05
812	0.05
813	0.05
813	0.05
813	0.05
814	0.05
814	0.05
815	0.05
815	0.05
816	0.05
816	0.05
817	0.049
817	0.049
817	0.049
818	0.049
818	0.049
819	0.049
819	0.048
820	0.047
820	0.047
820	0.047
821	0.047
821	0.047
822	0.047
822	0.047
823	0.047
823	0.047
823	0.047
824	0.048
824	0.048
825	0.049
825	0.049
826	0.049
826	0.049
826	0.049
827	0.049
827	0.048
828	0.048
828	0.048
829	0.047
829	0.047
829	0.047
830	0.047
830	0.047
831	0.048
831	0.048
832	0.048
832	0.048
832	0.048
833	0.048
833	0.048
834	0.048
834	0.048
835	0.048
835	0.048
835	0.048
836	0.049
836	0.049
837	0.05
837	0.05
838	0.05
838	0.05
839	0.05
839	0.05
839	0.049
840	0.049
840	0.047
841	0.046
841	0.045
842	0.044
842	0.042
842	0.041
843	0.041
843	0.04
844	0.039
844	0.039
845	0.039
845	0.039
845	0.039
846	0.039
846	0.039
847	0.04
847	0.04
848	0.041
848	0.042
848	0.042
849	0.043
849	0.044
850	0.044
850	0.045
851	0.046
851	0.046
851	0.046
852	0.046
852	0.046
853	0.045
853	0.045
854	0.045
854	0.045
854	0.046
855	0.046
855	0.046
856	0.046
856	0.047
857	0.047
857	0.047
857	0.047
858	0.046
858	0.046
859	0.044
859	0.043
860	0.042
860	0.041
860	0.039
861	0.038
861	0.037
862	0.036
862	0.035
863	0.035
863	0.035
863	0.035
864	0.035
864	0.035
865	0.035
865	0.036
866	0.036
866	0.037
866	0.037
867	0.037
867	0.038
868	0.038
868	0.038
869	0.038
869	0.038
869	0.038
870	0.038
870	0.038
871	0.038
871	0.038
872	0.039
872	0.039
872	0.039
873	0.039
873	0.038
874	0.038
874	0.038
875	0.037
875	0.037
875	0.037
876	0.037
876	0.037
877	0.037
877	0.037
878	0.038
878	0.039
878	0.04
879	0.041
879	0.042
880	0.042
880	0.043
881	0.043
881	0.043
881	0.043
882	0.043
882	0.043
883	0.042
883	0.041
884	0.041
884	0.041
884	0.04
885	0.04
885	0.039
886	0.038
886	0.038
887	0.037
887	0.037
887	0.036
888	0.036
888	0.035
889	0.035
889	0.035
890	0.035
890	0.035
890	0.035
891	0.036
891	0.036
892	0.037
892	0.037
893	0.038
893	0.038
893	0.038
894	0.038
894	0.038
895	0.038
895	0.038
895	0.038
896	0.038
896	0.037
897	0.037
897	0.036
898	0.036
898	0.035
898	0.035
899	0.035
899	0.035
900	0.035
900	0.034
901	0.035
901	0.035
901	0.035
902	0.035
902	0.036
903	0.036
903	0.036
904	0.036
904	0.036
904	0.036
905	0.037
905	0.037
906	0.037
906	0.038
907	0.039
907	0.04
907	0.04
908	0.041
908	0.041
909	0.042
909	0.042
910	0.042
910	0.042
910	0.042
911	0.041
911	0.041
912	0.041
912	0.04
913	0.04
913	0.04
913	0.039
914	0.039
914	0.039
915	0.038
915	0.038
916	0.037
916	0.037
916	0.036
917	0.035
917	0.035
918	0.034
918	0.033
918	0.033
919	0.033
919	0.032
920	0.033
920	0.033
921	0.033
921	0.034
921	0.034
922	0.035
922	0.036
923	0.036
923	0.037
924	0.038
924	0.039
924	0.039
925	0.04
925	0.04
926	0.041
926	0.041
927	0.041
927	0.041
927	0.041
928	0.041
928	0.041
929	0.041
929	0.041
930	0.041
930	0.041
930	0.041
931	0.041
931	0.041
932	0.041
932	0.041
933	0.041
933	0.04
933	0.04
934	0.039
934	0.039
935	0.038
935	0.037
935	0.037
936	0.036
936	0.035
937	0.035
937	0.035
938	0.035
938	0.034
938	0.034
939	0.035
939	0.035
940	0.035
940	0.035
941	0.036
941	0.036
941	0.036
942	0.037
942	0.037
943	0.037
943	0.037
944	0.037
944	0.038
944	0.038
945	0.038
945	0.038
946	0.038
946	0.038
946	0.038
947	0.038
947	0.038
948	0.038
948	0.038
949	0.038
949	0.038
949	0.038
950	0.038
950	0.039
951	0.039
951	0.039
952	0.038
952	0.038
952	0.038
953	0.037
953	0.037
954	0.037
954	0.036
955	0.035
955	0.035
955	0.034
956	0.034
956	0.035
957	0.035
957	0.036
957	0.036
958	0.037
958	0.037
959	0.038
959	0.038
960	0.039
960	0.039
960	0.039
961	0.039
961	0.038
962	0.038
962	0.038
963	0.038
963	0.037
963	0.037
964	0.037
964	0.038
965	0.038
965	0.038
966	0.039
966	0.039
966	0.04
967	0.04
967	0.041
968	0.041
968	0.042
968	0.042
969	0.041
969	0.041
970	0.041
970	0.04
971	0.039
971	0.039
971	0.038
972	0.037
972	0.037
973	0.036
973	0.036
974	0.036
974	0.037
974	0.037
975	0.037
975	0.038
976	0.038
976	0.039
976	0.039
977	0.039
977	0.04
978	0.04
978	0.04
979	0.04
979	0.04
979	0.04
980	0.04
980	0.039
981	0.039
981	0.038
982	0.038
982	0.037
982	0.037
983	0.036
983	0.035
984	0.035
984	0.034
984	0.033
985	0.032
985	0.032
986	0.031
986	0.031
987	0.03
987	0.03
987	0.029
988	0.029
988	0.028
989	0.028
989	0.028
990	0.027
990	0.027
990	0.027
991	0.027
991	0.026
992	0.026
992	0.026
992	0.025
993	0.025
993	0.025
994	0.025
994	0.025
995	0.025
995	0.025
995	0.025
996	0.025
996	0.025
997	0.026
997	0.027
997	0.027
998	0.028
998	0.029
999	0.03
999	0.031
1000	0.032
1000	0.033
1000	0.033
1001	0.034
1001	0.034
1002	0.034
1002	0.034
1003	0.034
1003	0.034
1003	0.033
1004	0.033
1004	0.032
1005	0.032
1005	0.032
1005	0.032
1006	0.031
1006	0.031
1007	0.031
1007	0.031
1008	0.031
1008	0.031
1008	0.031
1009	0.031
1009	0.031
1010	0.031
1010	0.031
1010	0.031
1011	0.031
1011	0.03
1012	0.03
1012	0.03
1013	0.03
1013	0.03
1013	0.03
1014	0.029
1014	0.029
1015	0.029
1015	0.029
1016	0.029
1016	0.029
1016	0.029
1017	0.029
1017	0.029
1018	0.029
1018	0.029
1018	0.029
1019	0.029
1019	0.029
1020	0.028
1020	0.028
1021	0.028
1021	0.028
1021	0.028
1022	0.028
1022	0.028
1023	0.028
1023	0.029
1023	0.029
1024	0.029
1024	0.029
1025	0.029
1025	0.029
1026	0.029
1026	0.028
1026	0.028
1027	0.027
1027	0.027
1028	0.026
1028	0.025
1028	0.024
1029	0.024
1029	0.023
1030	0.023
1030	0.023
1031	0.023
1031	0.022
1031	0.022
1032	0.022
1032	0.022
1033	0.022
1033	0.022
1033	0.022
1034	0.022
1034	0.021
1035	0.021
1035	0.021
1036	0.021
1036	0.021
1036	0.021
1037	0.021
1037	0.021
1038	0.021
1038	0.021
1039	0.022
1039	0.022
1039	0.023
1040	0.024
1040	0.024
1041	0.025
1041	0.025
1041	0.026
1042	0.026
1042	0.027
1043	0.028
1043	0.028
1044	0.029
1044	0.029
1044	0.029
1045	0.03
1045	0.03
1046	0.03
1046	0.031
1046	0.031
1047	0.031
1047	0.031
1048	0.031
1048	0.032
1049	0.032
1049	0.032
1049	0.032
1050	0.032
1050	0.031
1051	0.031
1051	0.031
1051	0.031
1052	0.03
1052	0.03
1053	0.029
1053	0.029
1053	0.029
1054	0.028
1054	0.028
1055	0.028
1055	0.028
1056	0.027
1056	0.027
1056	0.026
1057	0.026
1057	0.025
1058	0.025
1058	0.024
1058	0.024
1059	0.023
1059	0.023
1060	0.022
1060	0.022
1061	0.022
1061	0.022
1061	0.022
1062	0.022
1062	0.022
1063	0.022
1063	0.022
1063	0.023
1064	0.022
1064	0.022
1065	0.022
1065	0.022
1066	0.022
1066	0.022
1066	0.022
1067	0.022
1067	0.022
1068	0.022
1068	0.022
1068	0.021
1069	0.021
1069	0.021
1070	0.02
1070	0.02
1071	0.019
1071	0.019
1071	0.019
1072	0.018
1072	0.017
1073	0.017
1073	0.016
1073	0.016
1074	0.016
1074	0.016
1075	0.016
1075	0.016
1076	0.016
1076	0.016
1076	0.016
1077	0.017
1077	0.017
1078	0.017
1078	0.017
1078	0.017
1079	0.017
1079	0.017
1080	0.017
1080	0.017
1080	0.017
1081	0.017
1081	0.017
1082	0.018
1082	0.018
1083	0.018
1083	0.018
1083	0.019
1084	0.018
1084	0.019
1085	0.019
1085	0.019
1085	0.019
1086	0.019
1086	0.018
1087	0.017
1087	0.017
1088	0.017
1088	0.017
1088	0.018
1089	0.017
1089	0.017
1090	0.017
1090	0.016
1090	0.015
1091	0.015
1091	0.015
1092	0.015
1092	0.015
1092	0.014
1093	0.013
1093	0.014
1094	0.014
1094	0.013
1095	0.013
1095	0.013
1095	0.013
1096	0.013
1096	0.012
1097	0.012
1097	0.012
1097	0.012
1098	0.011
1098	0.01
1099	0.009
1099	0.008
1100	0.008
1100	0.007
1100	0.006
1101	0.006
1101	0.005
1102	0.004
1102	0.003
1102	0.003
1103	0.003
1103	0.003
1104	0.003
1104	0.003
1104	0.003
1105	0.003
1105	0.001
1106	0
1106	-0.001
1107	-0.001
1107	-0.002
1107	-0.003
1108	-0.004
1108	-0.005
1109	-0.007
1109	-0.009
1109	-0.008
1110	-0.007
1110	-0.009
1111	-0.008
1111	-0.01
