Data from reversibility-20sec_Absorbance__6197__000000000006197.txt Node

Date: Wed Dec 06 22:38:46 CET 2023
User: Marek
Spectrometer: MAYP115816
Trigger mode: 0
Integration Time (sec): 2.000000E-1
Scans to average: 10
Electric dark correction enabled: true
Nonlinearity correction enabled: true
Boxcar width: 5
XAxis mode: Wavelengths
Number of Pixels in Spectrum: 2068
>>>>>Begin Spectral Data<<<<<
199	-0.2
199	-0.166
200	-0.098
200	-0.046
201	-0.016
201	-0
202	0.014
202	0.024
203	0.029
203	0.033
204	0.046
204	0.062
205	0.073
205	0.08
205	0.076
206	0.076
206	0.077
207	0.075
207	0.073
208	0.075
208	0.075
209	0.078
209	0.077
210	0.079
210	0.079
211	0.084
211	0.084
212	0.082
212	0.087
213	0.091
213	0.092
213	0.092
214	0.095
214	0.097
215	0.097
215	0.097
216	0.096
216	0.095
217	0.1
217	0.101
218	0.1
218	0.105
219	0.11
219	0.11
220	0.112
220	0.114
221	0.115
221	0.118
221	0.125
222	0.13
222	0.132
223	0.138
223	0.142
224	0.148
224	0.157
225	0.167
225	0.176
226	0.184
226	0.196
227	0.204
227	0.213
228	0.231
228	0.247
229	0.262
229	0.284
229	0.306
230	0.329
230	0.357
231	0.39
231	0.428
232	0.467
232	0.511
233	0.553
233	0.601
234	0.655
234	0.706
235	0.761
235	0.816
236	0.869
236	0.92
236	0.973
237	1.025
237	1.069
238	1.118
238	1.163
239	1.207
239	1.251
240	1.288
240	1.323
241	1.361
241	1.396
242	1.428
242	1.458
243	1.489
243	1.517
243	1.543
244	1.564
244	1.583
245	1.601
245	1.623
246	1.639
246	1.655
247	1.666
247	1.68
248	1.695
248	1.707
249	1.715
249	1.721
250	1.731
250	1.74
250	1.745
251	1.75
251	1.755
252	1.761
252	1.764
253	1.767
253	1.766
254	1.767
254	1.772
255	1.77
255	1.771
256	1.771
256	1.771
257	1.771
257	1.77
258	1.77
258	1.769
258	1.77
259	1.77
259	1.768
260	1.768
260	1.769
261	1.767
261	1.769
262	1.77
262	1.772
263	1.775
263	1.774
264	1.774
264	1.775
265	1.776
265	1.777
265	1.778
266	1.779
266	1.779
267	1.779
267	1.779
268	1.777
268	1.778
269	1.779
269	1.778
270	1.776
270	1.774
271	1.771
271	1.771
272	1.768
272	1.767
272	1.764
273	1.76
273	1.756
274	1.752
274	1.748
275	1.744
275	1.738
276	1.732
276	1.725
277	1.718
277	1.708
278	1.696
278	1.685
278	1.673
279	1.658
279	1.641
280	1.622
280	1.597
281	1.568
281	1.535
282	1.5
282	1.464
283	1.428
283	1.391
284	1.356
284	1.32
285	1.286
285	1.254
285	1.226
286	1.2
286	1.177
287	1.157
287	1.14
288	1.125
288	1.112
289	1.101
289	1.09
290	1.082
290	1.074
291	1.068
291	1.062
292	1.057
292	1.052
292	1.047
293	1.043
293	1.039
294	1.035
294	1.032
295	1.029
295	1.025
296	1.021
296	1.017
297	1.014
297	1.011
298	1.007
298	1.004
298	1.001
299	0.998
299	0.995
300	0.991
300	0.989
301	0.986
301	0.983
302	0.98
302	0.978
303	0.975
303	0.973
304	0.97
304	0.968
305	0.965
305	0.962
305	0.959
306	0.957
306	0.954
307	0.951
307	0.948
308	0.945
308	0.942
309	0.939
309	0.936
310	0.933
310	0.93
311	0.927
311	0.923
311	0.92
312	0.916
312	0.912
313	0.909
313	0.905
314	0.901
314	0.896
315	0.892
315	0.888
316	0.883
316	0.878
317	0.874
317	0.869
318	0.864
318	0.858
318	0.853
319	0.848
319	0.843
320	0.837
320	0.831
321	0.826
321	0.82
322	0.814
322	0.807
323	0.801
323	0.795
324	0.788
324	0.781
324	0.775
325	0.768
325	0.761
326	0.754
326	0.747
327	0.74
327	0.733
328	0.726
328	0.719
329	0.712
329	0.705
330	0.698
330	0.691
330	0.684
331	0.677
331	0.671
332	0.664
332	0.657
333	0.65
333	0.644
334	0.637
334	0.63
335	0.623
335	0.616
336	0.609
336	0.603
336	0.596
337	0.59
337	0.584
338	0.578
338	0.571
339	0.566
339	0.56
340	0.554
340	0.548
341	0.542
341	0.537
342	0.532
342	0.526
342	0.521
343	0.516
343	0.51
344	0.506
344	0.501
345	0.496
345	0.491
346	0.487
346	0.482
347	0.478
347	0.474
348	0.47
348	0.466
348	0.462
349	0.458
349	0.454
350	0.451
350	0.447
351	0.444
351	0.44
352	0.437
352	0.434
353	0.431
353	0.428
354	0.425
354	0.422
354	0.419
355	0.416
355	0.413
356	0.41
356	0.407
357	0.404
357	0.401
358	0.398
358	0.396
359	0.393
359	0.391
360	0.389
360	0.387
360	0.385
361	0.383
361	0.381
362	0.38
362	0.378
363	0.376
363	0.374
364	0.372
364	0.37
365	0.368
365	0.367
366	0.365
366	0.363
366	0.361
367	0.359
367	0.357
368	0.356
368	0.354
369	0.352
369	0.351
370	0.35
370	0.348
371	0.347
371	0.345
372	0.344
372	0.343
372	0.341
373	0.34
373	0.339
374	0.338
374	0.337
375	0.336
375	0.335
376	0.334
376	0.333
377	0.332
377	0.331
378	0.33
378	0.329
378	0.328
379	0.327
379	0.326
380	0.325
380	0.324
381	0.323
381	0.323
382	0.322
382	0.321
383	0.321
383	0.32
383	0.319
384	0.318
384	0.318
385	0.317
385	0.317
386	0.316
386	0.315
387	0.315
387	0.314
388	0.313
388	0.313
389	0.313
389	0.312
389	0.312
390	0.311
390	0.311
391	0.31
391	0.31
392	0.309
392	0.309
393	0.308
393	0.308
394	0.308
394	0.307
394	0.307
395	0.306
395	0.305
396	0.305
396	0.304
397	0.304
397	0.303
398	0.303
398	0.302
399	0.302
399	0.302
400	0.301
400	0.301
400	0.301
401	0.3
401	0.3
402	0.3
402	0.299
403	0.299
403	0.299
404	0.298
404	0.298
405	0.298
405	0.297
405	0.297
406	0.296
406	0.296
407	0.296
407	0.295
408	0.295
408	0.295
409	0.294
409	0.294
410	0.294
410	0.293
411	0.293
411	0.293
411	0.292
412	0.292
412	0.291
413	0.291
413	0.29
414	0.29
414	0.29
415	0.29
415	0.289
416	0.289
416	0.289
416	0.288
417	0.288
417	0.288
418	0.288
418	0.287
419	0.287
419	0.286
420	0.286
420	0.285
421	0.285
421	0.284
421	0.284
422	0.283
422	0.283
423	0.283
423	0.282
424	0.282
424	0.282
425	0.282
425	0.281
426	0.281
426	0.281
427	0.281
427	0.28
427	0.28
428	0.28
428	0.279
429	0.279
429	0.279
430	0.279
430	0.278
431	0.278
431	0.278
432	0.278
432	0.278
432	0.277
433	0.277
433	0.277
434	0.277
434	0.277
435	0.277
435	0.276
436	0.276
436	0.276
437	0.276
437	0.275
437	0.275
438	0.275
438	0.275
439	0.274
439	0.274
440	0.274
440	0.274
441	0.274
441	0.273
442	0.273
442	0.273
442	0.273
443	0.273
443	0.273
444	0.273
444	0.272
445	0.272
445	0.272
446	0.272
446	0.272
447	0.272
447	0.272
447	0.272
448	0.271
448	0.271
449	0.271
449	0.271
450	0.271
450	0.271
451	0.271
451	0.271
452	0.271
452	0.271
452	0.271
453	0.271
453	0.271
454	0.271
454	0.27
455	0.27
455	0.27
456	0.27
456	0.27
457	0.27
457	0.27
458	0.27
458	0.27
458	0.27
459	0.27
459	0.27
460	0.27
460	0.27
461	0.27
461	0.27
462	0.27
462	0.27
463	0.27
463	0.27
463	0.27
464	0.27
464	0.27
465	0.27
465	0.27
466	0.27
466	0.27
467	0.27
467	0.27
467	0.271
468	0.271
468	0.271
469	0.271
469	0.272
470	0.272
470	0.273
471	0.273
471	0.273
472	0.274
472	0.274
472	0.274
473	0.275
473	0.275
474	0.275
474	0.276
475	0.276
475	0.276
476	0.276
476	0.277
477	0.277
477	0.278
477	0.278
478	0.279
478	0.279
479	0.279
479	0.28
480	0.28
480	0.281
481	0.281
481	0.282
482	0.282
482	0.283
482	0.283
483	0.284
483	0.285
484	0.285
484	0.286
485	0.286
485	0.287
486	0.287
486	0.288
487	0.288
487	0.289
487	0.29
488	0.291
488	0.291
489	0.293
489	0.294
490	0.295
490	0.296
491	0.298
491	0.299
492	0.3
492	0.301
492	0.302
493	0.303
493	0.304
494	0.305
494	0.306
495	0.307
495	0.308
496	0.309
496	0.31
496	0.311
497	0.312
497	0.313
498	0.314
498	0.315
499	0.317
499	0.318
500	0.319
500	0.321
501	0.322
501	0.323
501	0.323
502	0.325
502	0.326
503	0.327
503	0.328
504	0.329
504	0.33
505	0.331
505	0.332
506	0.333
506	0.334
506	0.335
507	0.337
507	0.337
508	0.338
508	0.339
509	0.34
509	0.341
510	0.342
510	0.343
511	0.344
511	0.345
511	0.346
512	0.347
512	0.348
513	0.349
513	0.349
514	0.35
514	0.351
515	0.352
515	0.352
515	0.353
516	0.353
516	0.354
517	0.355
517	0.356
518	0.356
518	0.357
519	0.357
519	0.357
520	0.357
520	0.357
520	0.357
521	0.357
521	0.357
522	0.357
522	0.357
523	0.357
523	0.356
524	0.356
524	0.356
524	0.356
525	0.356
525	0.355
526	0.355
526	0.355
527	0.354
527	0.354
528	0.353
528	0.353
529	0.352
529	0.351
529	0.35
530	0.35
530	0.349
531	0.348
531	0.347
532	0.346
532	0.345
533	0.344
533	0.342
533	0.341
534	0.34
534	0.339
535	0.338
535	0.337
536	0.335
536	0.334
537	0.333
537	0.331
538	0.33
538	0.328
538	0.327
539	0.325
539	0.324
540	0.322
540	0.32
541	0.319
541	0.317
542	0.315
542	0.314
542	0.312
543	0.31
543	0.309
544	0.307
544	0.305
545	0.304
545	0.302
546	0.301
546	0.299
547	0.297
547	0.295
547	0.293
548	0.291
548	0.289
549	0.288
549	0.286
550	0.284
550	0.283
551	0.28
551	0.279
551	0.277
552	0.275
552	0.273
553	0.271
553	0.27
554	0.268
554	0.266
555	0.264
555	0.262
556	0.26
556	0.258
556	0.257
557	0.255
557	0.254
558	0.253
558	0.251
559	0.25
559	0.248
560	0.247
560	0.245
560	0.244
561	0.242
561	0.24
562	0.239
562	0.237
563	0.235
563	0.233
564	0.231
564	0.23
564	0.229
565	0.227
565	0.226
566	0.224
566	0.223
567	0.222
567	0.221
568	0.219
568	0.218
568	0.216
569	0.215
569	0.213
570	0.212
570	0.21
571	0.209
571	0.208
572	0.206
572	0.205
573	0.203
573	0.202
573	0.201
574	0.2
574	0.199
575	0.198
575	0.197
576	0.197
576	0.195
577	0.194
577	0.193
577	0.192
578	0.19
578	0.189
579	0.189
579	0.188
580	0.186
580	0.185
581	0.183
581	0.182
581	0.182
582	0.181
582	0.181
583	0.18
583	0.179
584	0.178
584	0.176
585	0.176
585	0.175
585	0.174
586	0.173
586	0.172
587	0.171
587	0.169
588	0.168
588	0.167
589	0.167
589	0.166
590	0.166
590	0.165
590	0.165
591	0.165
591	0.164
592	0.163
592	0.162
593	0.162
593	0.161
594	0.16
594	0.159
594	0.158
595	0.157
595	0.156
596	0.155
596	0.155
597	0.156
597	0.155
598	0.155
598	0.154
598	0.154
599	0.153
599	0.153
600	0.152
600	0.151
601	0.151
601	0.15
602	0.149
602	0.149
602	0.148
603	0.147
603	0.147
604	0.147
604	0.146
605	0.146
605	0.146
606	0.145
606	0.144
606	0.143
607	0.143
607	0.142
608	0.142
608	0.141
609	0.141
609	0.14
610	0.139
610	0.139
610	0.138
611	0.138
611	0.138
612	0.138
612	0.138
613	0.138
613	0.137
614	0.137
614	0.136
614	0.136
615	0.136
615	0.135
616	0.135
616	0.135
617	0.134
617	0.134
618	0.133
618	0.133
618	0.133
619	0.133
619	0.133
620	0.133
620	0.133
621	0.132
621	0.132
622	0.131
622	0.131
622	0.13
623	0.129
623	0.129
624	0.128
624	0.127
625	0.126
625	0.126
626	0.125
626	0.125
626	0.125
627	0.125
627	0.124
628	0.124
628	0.123
629	0.123
629	0.123
630	0.123
630	0.122
630	0.122
631	0.122
631	0.122
632	0.121
632	0.121
633	0.121
633	0.121
634	0.121
634	0.121
634	0.121
635	0.121
635	0.121
636	0.121
636	0.121
637	0.12
637	0.12
638	0.12
638	0.119
638	0.119
639	0.118
639	0.118
640	0.118
640	0.117
641	0.117
641	0.117
642	0.116
642	0.116
642	0.116
643	0.116
643	0.116
644	0.116
644	0.116
645	0.116
645	0.116
646	0.116
646	0.115
646	0.115
647	0.115
647	0.114
648	0.114
648	0.113
649	0.113
649	0.113
650	0.113
650	0.112
650	0.112
651	0.112
651	0.112
652	0.112
652	0.112
653	0.112
653	0.114
653	0.12
654	0.096
654	0.078
655	0.076
655	0.076
656	0.076
656	0.076
657	0.077
657	0.077
657	0.077
658	0.076
658	0.068
659	0.085
659	0.108
660	0.113
660	0.114
661	0.113
661	0.113
661	0.112
662	0.112
662	0.111
663	0.11
663	0.11
664	0.109
664	0.109
665	0.109
665	0.109
665	0.109
666	0.109
666	0.109
667	0.109
667	0.11
668	0.111
668	0.111
669	0.111
669	0.111
669	0.112
670	0.112
670	0.111
671	0.111
671	0.11
672	0.11
672	0.109
672	0.108
673	0.108
673	0.108
674	0.107
674	0.106
675	0.106
675	0.106
676	0.106
676	0.106
676	0.106
677	0.106
677	0.106
678	0.106
678	0.106
679	0.105
679	0.105
680	0.105
680	0.105
680	0.105
681	0.105
681	0.105
682	0.106
682	0.106
683	0.106
683	0.107
684	0.107
684	0.107
684	0.107
685	0.108
685	0.108
686	0.108
686	0.107
687	0.107
687	0.106
687	0.106
688	0.105
688	0.105
689	0.105
689	0.106
690	0.105
690	0.105
691	0.105
691	0.105
691	0.105
692	0.105
692	0.105
693	0.106
693	0.106
694	0.105
694	0.105
695	0.106
695	0.107
695	0.107
696	0.107
696	0.107
697	0.107
697	0.107
698	0.107
698	0.107
698	0.107
699	0.107
699	0.107
700	0.107
700	0.107
701	0.107
701	0.107
702	0.106
702	0.106
702	0.106
703	0.106
703	0.105
704	0.105
704	0.104
705	0.104
705	0.104
705	0.104
706	0.104
706	0.104
707	0.104
707	0.104
708	0.104
708	0.104
709	0.104
709	0.104
709	0.104
710	0.104
710	0.104
711	0.104
711	0.104
712	0.104
712	0.104
713	0.103
713	0.103
713	0.103
714	0.102
714	0.102
715	0.101
715	0.1
716	0.1
716	0.1
716	0.099
717	0.099
717	0.098
718	0.098
718	0.098
719	0.098
719	0.099
720	0.099
720	0.1
720	0.1
721	0.1
721	0.101
722	0.101
722	0.102
723	0.102
723	0.102
723	0.102
724	0.101
724	0.101
725	0.1
725	0.099
726	0.098
726	0.098
727	0.097
727	0.097
727	0.097
728	0.096
728	0.096
729	0.096
729	0.096
730	0.096
730	0.097
730	0.097
731	0.098
731	0.098
732	0.099
732	0.1
733	0.1
733	0.1
734	0.101
734	0.101
734	0.101
735	0.101
735	0.101
736	0.1
736	0.099
737	0.099
737	0.099
737	0.098
738	0.097
738	0.096
739	0.096
739	0.095
740	0.095
740	0.095
741	0.095
741	0.095
741	0.095
742	0.095
742	0.096
743	0.097
743	0.097
744	0.098
744	0.098
744	0.098
745	0.098
745	0.098
746	0.098
746	0.098
747	0.098
747	0.098
748	0.097
748	0.097
748	0.097
749	0.097
749	0.097
750	0.096
750	0.096
751	0.096
751	0.096
751	0.095
752	0.095
752	0.094
753	0.093
753	0.093
754	0.093
754	0.092
754	0.092
755	0.093
755	0.093
756	0.092
756	0.092
757	0.092
757	0.092
758	0.092
758	0.092
758	0.093
759	0.093
759	0.093
760	0.092
760	0.092
761	0.092
761	0.093
761	0.093
762	0.093
762	0.093
763	0.093
763	0.092
764	0.091
764	0.091
764	0.09
765	0.09
765	0.089
766	0.089
766	0.089
767	0.088
767	0.087
768	0.086
768	0.086
768	0.087
769	0.087
769	0.087
770	0.088
770	0.089
771	0.089
771	0.09
771	0.091
772	0.092
772	0.093
773	0.094
773	0.094
774	0.094
774	0.094
775	0.094
775	0.094
775	0.094
776	0.093
776	0.093
777	0.093
777	0.092
778	0.092
778	0.092
778	0.091
779	0.091
779	0.091
780	0.09
780	0.09
781	0.089
781	0.089
781	0.088
782	0.088
782	0.088
783	0.088
783	0.088
784	0.088
784	0.088
784	0.088
785	0.089
785	0.089
786	0.089
786	0.089
787	0.089
787	0.088
788	0.087
788	0.086
788	0.086
789	0.085
789	0.084
790	0.084
790	0.083
791	0.083
791	0.082
791	0.082
792	0.082
792	0.082
793	0.082
793	0.082
794	0.081
794	0.081
794	0.08
795	0.08
795	0.081
796	0.081
796	0.08
797	0.08
797	0.08
797	0.08
798	0.081
798	0.081
799	0.081
799	0.081
800	0.081
800	0.08
801	0.08
801	0.08
801	0.08
802	0.08
802	0.08
803	0.081
803	0.081
804	0.081
804	0.081
804	0.081
805	0.081
805	0.081
806	0.081
806	0.08
807	0.08
807	0.079
807	0.079
808	0.078
808	0.078
809	0.078
809	0.078
810	0.078
810	0.078
810	0.078
811	0.078
811	0.079
812	0.079
812	0.079
813	0.079
813	0.079
813	0.079
814	0.079
814	0.08
815	0.08
815	0.079
816	0.079
816	0.078
817	0.077
817	0.077
817	0.077
818	0.076
818	0.076
819	0.076
819	0.076
820	0.075
820	0.075
820	0.075
821	0.076
821	0.076
822	0.076
822	0.076
823	0.076
823	0.076
823	0.076
824	0.076
824	0.077
825	0.077
825	0.078
826	0.078
826	0.078
826	0.078
827	0.078
827	0.079
828	0.079
828	0.079
829	0.079
829	0.079
829	0.079
830	0.079
830	0.079
831	0.08
831	0.08
832	0.08
832	0.08
832	0.08
833	0.079
833	0.079
834	0.079
834	0.078
835	0.078
835	0.077
835	0.076
836	0.076
836	0.076
837	0.075
837	0.075
838	0.075
838	0.074
839	0.074
839	0.073
839	0.072
840	0.071
840	0.07
841	0.069
841	0.068
842	0.068
842	0.067
842	0.066
843	0.066
843	0.065
844	0.065
844	0.064
845	0.064
845	0.063
845	0.063
846	0.063
846	0.062
847	0.062
847	0.062
848	0.063
848	0.063
848	0.064
849	0.065
849	0.065
850	0.066
850	0.067
851	0.067
851	0.068
851	0.068
852	0.067
852	0.067
853	0.067
853	0.067
854	0.067
854	0.067
854	0.067
855	0.067
855	0.067
856	0.067
856	0.067
857	0.068
857	0.068
857	0.069
858	0.069
858	0.069
859	0.068
859	0.068
860	0.067
860	0.067
860	0.067
861	0.066
861	0.066
862	0.065
862	0.064
863	0.064
863	0.063
863	0.063
864	0.063
864	0.063
865	0.063
865	0.062
866	0.062
866	0.062
866	0.062
867	0.063
867	0.063
868	0.064
868	0.064
869	0.064
869	0.064
869	0.064
870	0.064
870	0.064
871	0.064
871	0.064
872	0.063
872	0.063
872	0.062
873	0.062
873	0.061
874	0.06
874	0.06
875	0.06
875	0.059
875	0.059
876	0.059
876	0.059
877	0.059
877	0.059
878	0.059
878	0.059
878	0.06
879	0.06
879	0.06
880	0.06
880	0.06
881	0.06
881	0.06
881	0.06
882	0.06
882	0.06
883	0.061
883	0.061
884	0.061
884	0.061
884	0.061
885	0.061
885	0.061
886	0.06
886	0.06
887	0.059
887	0.058
887	0.057
888	0.056
888	0.055
889	0.055
889	0.055
890	0.054
890	0.054
890	0.054
891	0.054
891	0.054
892	0.054
892	0.054
893	0.053
893	0.053
893	0.053
894	0.053
894	0.053
895	0.052
895	0.053
895	0.053
896	0.053
896	0.054
897	0.054
897	0.055
898	0.055
898	0.056
898	0.056
899	0.056
899	0.056
900	0.056
900	0.056
901	0.056
901	0.056
901	0.056
902	0.056
902	0.056
903	0.055
903	0.055
904	0.055
904	0.055
904	0.054
905	0.054
905	0.054
906	0.053
906	0.053
907	0.053
907	0.054
907	0.054
908	0.054
908	0.054
909	0.054
909	0.054
910	0.054
910	0.053
910	0.053
911	0.053
911	0.052
912	0.052
912	0.051
913	0.051
913	0.051
913	0.051
914	0.051
914	0.051
915	0.051
915	0.051
916	0.052
916	0.052
916	0.052
917	0.052
917	0.051
918	0.051
918	0.05
918	0.05
919	0.049
919	0.049
920	0.048
920	0.048
921	0.047
921	0.047
921	0.046
922	0.046
922	0.046
923	0.047
923	0.047
924	0.048
924	0.048
924	0.049
925	0.05
925	0.051
926	0.052
926	0.052
927	0.053
927	0.053
927	0.054
928	0.054
928	0.054
929	0.054
929	0.054
930	0.053
930	0.053
930	0.053
931	0.052
931	0.052
932	0.052
932	0.052
933	0.052
933	0.052
933	0.052
934	0.052
934	0.051
935	0.051
935	0.051
935	0.051
936	0.05
936	0.05
937	0.05
937	0.049
938	0.049
938	0.048
938	0.048
939	0.048
939	0.048
940	0.048
940	0.048
941	0.048
941	0.048
941	0.048
942	0.049
942	0.049
943	0.049
943	0.049
944	0.049
944	0.049
944	0.049
945	0.05
945	0.05
946	0.05
946	0.05
946	0.05
947	0.05
947	0.05
948	0.05
948	0.05
949	0.05
949	0.05
949	0.049
950	0.049
950	0.049
951	0.049
951	0.049
952	0.048
952	0.048
952	0.048
953	0.048
953	0.048
954	0.048
954	0.048
955	0.048
955	0.047
955	0.048
956	0.048
956	0.048
957	0.048
957	0.048
957	0.048
958	0.048
958	0.048
959	0.048
959	0.047
960	0.047
960	0.047
960	0.047
961	0.046
961	0.046
962	0.046
962	0.046
963	0.046
963	0.046
963	0.047
964	0.047
964	0.047
965	0.048
965	0.048
966	0.048
966	0.048
966	0.049
967	0.049
967	0.049
968	0.049
968	0.049
968	0.049
969	0.049
969	0.048
970	0.047
970	0.047
971	0.046
971	0.046
971	0.045
972	0.045
972	0.044
973	0.044
973	0.044
974	0.044
974	0.044
974	0.044
975	0.044
975	0.045
976	0.045
976	0.046
976	0.046
977	0.047
977	0.047
978	0.047
978	0.046
979	0.046
979	0.046
979	0.045
980	0.045
980	0.044
981	0.043
981	0.042
982	0.042
982	0.041
982	0.041
983	0.041
983	0.04
984	0.041
984	0.041
984	0.041
985	0.041
985	0.042
986	0.042
986	0.042
987	0.043
987	0.043
987	0.043
988	0.043
988	0.043
989	0.043
989	0.043
990	0.043
990	0.042
990	0.042
991	0.042
991	0.041
992	0.04
992	0.039
992	0.039
993	0.038
993	0.037
994	0.036
994	0.035
995	0.034
995	0.034
995	0.034
996	0.033
996	0.033
997	0.034
997	0.034
997	0.034
998	0.035
998	0.036
999	0.037
999	0.037
1000	0.038
1000	0.039
1000	0.039
1001	0.04
1001	0.04
1002	0.04
1002	0.039
1003	0.039
1003	0.039
1003	0.038
1004	0.037
1004	0.035
1005	0.034
1005	0.033
1005	0.032
1006	0.031
1006	0.031
1007	0.03
1007	0.03
1008	0.029
1008	0.03
1008	0.03
1009	0.031
1009	0.031
1010	0.031
1010	0.032
1010	0.033
1011	0.033
1011	0.033
1012	0.033
1012	0.033
1013	0.033
1013	0.033
1013	0.033
1014	0.032
1014	0.032
1015	0.032
1015	0.032
1016	0.032
1016	0.032
1016	0.032
1017	0.032
1017	0.032
1018	0.033
1018	0.033
1018	0.033
1019	0.034
1019	0.034
1020	0.035
1020	0.035
1021	0.036
1021	0.036
1021	0.037
1022	0.037
1022	0.038
1023	0.038
1023	0.038
1023	0.039
1024	0.039
1024	0.039
1025	0.039
1025	0.039
1026	0.039
1026	0.038
1026	0.038
1027	0.038
1027	0.038
1028	0.038
1028	0.037
1028	0.037
1029	0.037
1029	0.037
1030	0.037
1030	0.037
1031	0.037
1031	0.037
1031	0.038
1032	0.038
1032	0.038
1033	0.038
1033	0.039
1033	0.039
1034	0.039
1034	0.039
1035	0.039
1035	0.039
1036	0.039
1036	0.039
1036	0.039
1037	0.039
1037	0.039
1038	0.038
1038	0.038
1039	0.038
1039	0.038
1039	0.038
1040	0.038
1040	0.038
1041	0.038
1041	0.038
1041	0.038
1042	0.037
1042	0.037
1043	0.037
1043	0.037
1044	0.037
1044	0.037
1044	0.037
1045	0.037
1045	0.037
1046	0.037
1046	0.037
1046	0.038
1047	0.038
1047	0.038
1048	0.038
1048	0.039
1049	0.039
1049	0.039
1049	0.039
1050	0.039
1050	0.039
1051	0.038
1051	0.038
1051	0.038
1052	0.037
1052	0.037
1053	0.036
1053	0.035
1053	0.034
1054	0.034
1054	0.034
1055	0.034
1055	0.033
1056	0.033
1056	0.032
1056	0.032
1057	0.031
1057	0.031
1058	0.031
1058	0.03
1058	0.029
1059	0.029
1059	0.029
1060	0.028
1060	0.028
1061	0.028
1061	0.027
1061	0.027
1062	0.027
1062	0.027
1063	0.027
1063	0.027
1063	0.026
1064	0.026
1064	0.026
1065	0.026
1065	0.026
1066	0.026
1066	0.026
1066	0.026
1067	0.026
1067	0.026
1068	0.025
1068	0.026
1068	0.026
1069	0.026
1069	0.026
1070	0.026
1070	0.025
1071	0.025
1071	0.024
1071	0.024
1072	0.023
1072	0.023
1073	0.022
1073	0.022
1073	0.021
1074	0.021
1074	0.022
1075	0.022
1075	0.022
1076	0.023
1076	0.024
1076	0.024
1077	0.024
1077	0.025
1078	0.025
1078	0.025
1078	0.025
1079	0.026
1079	0.026
1080	0.025
1080	0.025
1080	0.025
1081	0.024
1081	0.024
1082	0.024
1082	0.025
1083	0.024
1083	0.024
1083	0.024
1084	0.024
1084	0.025
1085	0.025
1085	0.025
1085	0.025
1086	0.026
1086	0.025
1087	0.026
1087	0.026
1088	0.026
1088	0.026
1088	0.027
1089	0.027
1089	0.026
1090	0.026
1090	0.025
1090	0.024
1091	0.024
1091	0.023
1092	0.023
1092	0.023
1092	0.023
1093	0.022
1093	0.022
1094	0.022
1094	0.021
1095	0.021
1095	0.021
1095	0.021
1096	0.02
1096	0.019
1097	0.018
1097	0.017
1097	0.017
1098	0.015
1098	0.014
1099	0.013
1099	0.012
1100	0.01
1100	0.009
1100	0.008
1101	0.007
1101	0.006
1102	0.005
1102	0.004
1102	0.003
1103	0.002
1103	0.003
1104	0.002
1104	0.001
1104	0
1105	-0.001
1105	-0.003
1106	-0.005
1106	-0.006
1107	-0.007
1107	-0.008
1107	-0.009
1108	-0.01
1108	-0.012
1109	-0.012
1109	-0.012
1109	-0.012
1110	-0.01
1110	-0.011
1111	-0.01
1111	-0.012
