Data from reversibility-20sec_Absorbance__1418__000000000001418.txt Node

Date: Tue Dec 05 20:05:46 CET 2023
User: Marek
Spectrometer: MAYP115816
Trigger mode: 0
Integration Time (sec): 2.000000E-1
Scans to average: 10
Electric dark correction enabled: true
Nonlinearity correction enabled: true
Boxcar width: 5
XAxis mode: Wavelengths
Number of Pixels in Spectrum: 2068
>>>>>Begin Spectral Data<<<<<
199	-0.178
199	-0.152
200	-0.076
200	-0.021
201	0.014
201	0.032
202	0.046
202	0.055
203	0.063
203	0.067
204	0.079
204	0.093
205	0.107
205	0.109
205	0.107
206	0.105
206	0.104
207	0.105
207	0.104
208	0.103
208	0.102
209	0.104
209	0.103
210	0.104
210	0.106
211	0.105
211	0.109
212	0.108
212	0.11
213	0.112
213	0.113
213	0.111
214	0.113
214	0.116
215	0.116
215	0.115
216	0.117
216	0.114
217	0.115
217	0.116
218	0.116
218	0.119
219	0.126
219	0.128
220	0.129
220	0.129
221	0.131
221	0.133
221	0.138
222	0.146
222	0.151
223	0.155
223	0.156
224	0.159
224	0.166
225	0.177
225	0.187
226	0.196
226	0.206
227	0.215
227	0.223
228	0.233
228	0.25
229	0.267
229	0.289
229	0.311
230	0.338
230	0.369
231	0.404
231	0.442
232	0.48
232	0.522
233	0.569
233	0.617
234	0.667
234	0.719
235	0.773
235	0.822
236	0.873
236	0.925
236	0.979
237	1.033
237	1.087
238	1.139
238	1.19
239	1.244
239	1.29
240	1.334
240	1.376
241	1.416
241	1.454
242	1.49
242	1.529
243	1.56
243	1.588
243	1.616
244	1.639
244	1.666
245	1.687
245	1.715
246	1.738
246	1.758
247	1.773
247	1.79
248	1.811
248	1.827
249	1.84
249	1.849
250	1.858
250	1.868
250	1.874
251	1.879
251	1.882
252	1.89
252	1.891
253	1.893
253	1.891
254	1.891
254	1.897
255	1.896
255	1.898
256	1.895
256	1.895
257	1.896
257	1.898
258	1.9
258	1.899
258	1.901
259	1.903
259	1.902
260	1.903
260	1.907
261	1.911
261	1.918
262	1.925
262	1.928
263	1.934
263	1.938
264	1.944
264	1.949
265	1.952
265	1.956
265	1.957
266	1.96
266	1.959
267	1.958
267	1.96
268	1.961
268	1.965
269	1.969
269	1.968
270	1.97
270	1.97
271	1.967
271	1.966
272	1.965
272	1.963
272	1.957
273	1.947
273	1.936
274	1.925
274	1.916
275	1.907
275	1.9
276	1.893
276	1.887
277	1.878
277	1.866
278	1.854
278	1.842
278	1.825
279	1.805
279	1.777
280	1.743
280	1.701
281	1.653
281	1.6
282	1.547
282	1.495
283	1.445
283	1.396
284	1.352
284	1.31
285	1.27
285	1.235
285	1.204
286	1.177
286	1.154
287	1.134
287	1.117
288	1.103
288	1.091
289	1.08
289	1.071
290	1.064
290	1.057
291	1.051
291	1.046
292	1.042
292	1.038
292	1.034
293	1.031
293	1.028
294	1.025
294	1.022
295	1.02
295	1.017
296	1.014
296	1.012
297	1.009
297	1.007
298	1.005
298	1.003
298	1
299	0.998
299	0.995
300	0.993
300	0.991
301	0.989
301	0.987
302	0.984
302	0.982
303	0.98
303	0.978
304	0.975
304	0.974
305	0.972
305	0.97
305	0.968
306	0.966
306	0.964
307	0.962
307	0.959
308	0.957
308	0.955
309	0.952
309	0.95
310	0.947
310	0.944
311	0.942
311	0.938
311	0.935
312	0.932
312	0.929
313	0.925
313	0.921
314	0.917
314	0.913
315	0.909
315	0.905
316	0.901
316	0.896
317	0.891
317	0.887
318	0.882
318	0.877
318	0.872
319	0.866
319	0.861
320	0.855
320	0.85
321	0.844
321	0.838
322	0.831
322	0.825
323	0.818
323	0.811
324	0.805
324	0.798
324	0.791
325	0.784
325	0.777
326	0.77
326	0.763
327	0.756
327	0.749
328	0.742
328	0.735
329	0.728
329	0.721
330	0.713
330	0.706
330	0.699
331	0.692
331	0.685
332	0.677
332	0.67
333	0.663
333	0.656
334	0.649
334	0.642
335	0.635
335	0.628
336	0.622
336	0.615
336	0.608
337	0.602
337	0.595
338	0.589
338	0.583
339	0.576
339	0.57
340	0.564
340	0.558
341	0.552
341	0.546
342	0.541
342	0.535
342	0.53
343	0.524
343	0.519
344	0.514
344	0.509
345	0.504
345	0.499
346	0.495
346	0.49
347	0.486
347	0.481
348	0.477
348	0.473
348	0.469
349	0.465
349	0.461
350	0.458
350	0.454
351	0.45
351	0.447
352	0.444
352	0.44
353	0.437
353	0.434
354	0.431
354	0.428
354	0.426
355	0.423
355	0.42
356	0.417
356	0.415
357	0.412
357	0.409
358	0.407
358	0.404
359	0.401
359	0.399
360	0.397
360	0.394
360	0.392
361	0.39
361	0.388
362	0.386
362	0.384
363	0.382
363	0.381
364	0.378
364	0.377
365	0.375
365	0.373
366	0.371
366	0.37
366	0.368
367	0.366
367	0.364
368	0.363
368	0.361
369	0.359
369	0.358
370	0.356
370	0.355
371	0.353
371	0.352
372	0.35
372	0.349
372	0.348
373	0.347
373	0.346
374	0.345
374	0.344
375	0.343
375	0.342
376	0.341
376	0.34
377	0.339
377	0.338
378	0.337
378	0.336
378	0.335
379	0.334
379	0.333
380	0.333
380	0.332
381	0.331
381	0.33
382	0.329
382	0.329
383	0.328
383	0.328
383	0.327
384	0.326
384	0.326
385	0.325
385	0.324
386	0.323
386	0.323
387	0.322
387	0.322
388	0.321
388	0.32
389	0.32
389	0.32
389	0.319
390	0.319
390	0.319
391	0.318
391	0.318
392	0.317
392	0.317
393	0.316
393	0.316
394	0.315
394	0.315
394	0.314
395	0.314
395	0.313
396	0.313
396	0.312
397	0.312
397	0.311
398	0.311
398	0.311
399	0.31
399	0.31
400	0.309
400	0.309
400	0.309
401	0.308
401	0.308
402	0.308
402	0.307
403	0.307
403	0.307
404	0.306
404	0.306
405	0.306
405	0.305
405	0.305
406	0.304
406	0.304
407	0.304
407	0.303
408	0.303
408	0.302
409	0.302
409	0.302
410	0.301
410	0.301
411	0.301
411	0.301
411	0.3
412	0.3
412	0.3
413	0.299
413	0.299
414	0.299
414	0.299
415	0.298
415	0.297
416	0.297
416	0.297
416	0.296
417	0.296
417	0.296
418	0.295
418	0.295
419	0.295
419	0.294
420	0.294
420	0.293
421	0.293
421	0.293
421	0.292
422	0.292
422	0.292
423	0.291
423	0.291
424	0.29
424	0.29
425	0.29
425	0.289
426	0.289
426	0.289
427	0.288
427	0.288
427	0.288
428	0.287
428	0.287
429	0.287
429	0.286
430	0.286
430	0.286
431	0.286
431	0.285
432	0.285
432	0.285
432	0.285
433	0.284
433	0.284
434	0.284
434	0.283
435	0.283
435	0.283
436	0.283
436	0.283
437	0.282
437	0.282
437	0.282
438	0.281
438	0.281
439	0.281
439	0.281
440	0.281
440	0.28
441	0.28
441	0.28
442	0.28
442	0.28
442	0.28
443	0.279
443	0.279
444	0.279
444	0.279
445	0.279
445	0.278
446	0.278
446	0.278
447	0.278
447	0.277
447	0.277
448	0.277
448	0.277
449	0.276
449	0.276
450	0.276
450	0.275
451	0.275
451	0.275
452	0.275
452	0.275
452	0.274
453	0.274
453	0.274
454	0.274
454	0.273
455	0.273
455	0.273
456	0.273
456	0.272
457	0.272
457	0.272
458	0.272
458	0.272
458	0.271
459	0.271
459	0.271
460	0.271
460	0.271
461	0.27
461	0.27
462	0.27
462	0.27
463	0.27
463	0.269
463	0.269
464	0.269
464	0.269
465	0.268
465	0.268
466	0.268
466	0.268
467	0.268
467	0.267
467	0.267
468	0.267
468	0.267
469	0.267
469	0.267
470	0.267
470	0.267
471	0.267
471	0.267
472	0.266
472	0.266
472	0.266
473	0.266
473	0.266
474	0.266
474	0.266
475	0.266
475	0.265
476	0.265
476	0.265
477	0.265
477	0.266
477	0.266
478	0.266
478	0.266
479	0.266
479	0.266
480	0.266
480	0.267
481	0.267
481	0.267
482	0.267
482	0.267
482	0.267
483	0.267
483	0.268
484	0.268
484	0.267
485	0.267
485	0.267
486	0.267
486	0.268
487	0.268
487	0.268
487	0.268
488	0.268
488	0.268
489	0.269
489	0.27
490	0.27
490	0.271
491	0.271
491	0.272
492	0.272
492	0.273
492	0.273
493	0.274
493	0.274
494	0.275
494	0.275
495	0.276
495	0.276
496	0.277
496	0.277
496	0.278
497	0.279
497	0.279
498	0.279
498	0.28
499	0.28
499	0.28
500	0.281
500	0.282
501	0.282
501	0.282
501	0.282
502	0.283
502	0.283
503	0.284
503	0.284
504	0.285
504	0.285
505	0.285
505	0.286
506	0.286
506	0.287
506	0.287
507	0.288
507	0.289
508	0.289
508	0.289
509	0.29
509	0.29
510	0.291
510	0.291
511	0.292
511	0.293
511	0.293
512	0.294
512	0.294
513	0.295
513	0.295
514	0.296
514	0.297
515	0.297
515	0.297
515	0.298
516	0.298
516	0.299
517	0.3
517	0.3
518	0.3
518	0.301
519	0.301
519	0.301
520	0.301
520	0.301
520	0.302
521	0.302
521	0.302
522	0.302
522	0.302
523	0.302
523	0.302
524	0.303
524	0.303
524	0.303
525	0.304
525	0.303
526	0.304
526	0.304
527	0.304
527	0.304
528	0.304
528	0.304
529	0.304
529	0.304
529	0.304
530	0.303
530	0.303
531	0.303
531	0.303
532	0.302
532	0.302
533	0.302
533	0.302
533	0.302
534	0.302
534	0.302
535	0.302
535	0.301
536	0.301
536	0.301
537	0.301
537	0.301
538	0.301
538	0.301
538	0.3
539	0.3
539	0.3
540	0.299
540	0.299
541	0.298
541	0.298
542	0.297
542	0.297
542	0.297
543	0.296
543	0.296
544	0.295
544	0.295
545	0.295
545	0.295
546	0.294
546	0.294
547	0.293
547	0.293
547	0.292
548	0.292
548	0.292
549	0.291
549	0.291
550	0.29
550	0.29
551	0.289
551	0.289
551	0.288
552	0.288
552	0.288
553	0.287
553	0.287
554	0.286
554	0.285
555	0.284
555	0.284
556	0.283
556	0.283
556	0.282
557	0.282
557	0.282
558	0.282
558	0.282
559	0.282
559	0.281
560	0.281
560	0.281
560	0.28
561	0.28
561	0.28
562	0.279
562	0.278
563	0.277
563	0.276
564	0.276
564	0.275
564	0.275
565	0.274
565	0.274
566	0.273
566	0.273
567	0.273
567	0.273
568	0.272
568	0.272
568	0.272
569	0.272
569	0.271
570	0.27
570	0.269
571	0.269
571	0.269
572	0.268
572	0.267
573	0.267
573	0.267
573	0.266
574	0.265
574	0.265
575	0.265
575	0.265
576	0.265
576	0.264
577	0.263
577	0.263
577	0.262
578	0.262
578	0.262
579	0.262
579	0.262
580	0.261
580	0.26
581	0.259
581	0.259
581	0.259
582	0.259
582	0.259
583	0.259
583	0.259
584	0.258
584	0.256
585	0.256
585	0.256
585	0.256
586	0.255
586	0.255
587	0.253
587	0.252
588	0.252
588	0.251
589	0.251
589	0.251
590	0.251
590	0.25
590	0.251
591	0.251
591	0.251
592	0.25
592	0.25
593	0.249
593	0.249
594	0.249
594	0.248
594	0.248
595	0.247
595	0.247
596	0.246
596	0.247
597	0.247
597	0.247
598	0.247
598	0.246
598	0.246
599	0.246
599	0.245
600	0.245
600	0.244
601	0.244
601	0.244
602	0.243
602	0.243
602	0.242
603	0.242
603	0.242
604	0.242
604	0.242
605	0.242
605	0.242
606	0.242
606	0.241
606	0.24
607	0.24
607	0.24
608	0.239
608	0.238
609	0.238
609	0.237
610	0.237
610	0.236
610	0.236
611	0.236
611	0.236
612	0.236
612	0.236
613	0.236
613	0.236
614	0.236
614	0.235
614	0.235
615	0.235
615	0.235
616	0.235
616	0.234
617	0.234
617	0.234
618	0.234
618	0.234
618	0.234
619	0.234
619	0.234
620	0.234
620	0.234
621	0.233
621	0.233
622	0.232
622	0.232
622	0.231
623	0.23
623	0.23
624	0.23
624	0.23
625	0.229
625	0.229
626	0.229
626	0.228
626	0.229
627	0.228
627	0.228
628	0.228
628	0.227
629	0.227
629	0.227
630	0.226
630	0.226
630	0.226
631	0.226
631	0.225
632	0.225
632	0.225
633	0.225
633	0.226
634	0.226
634	0.226
634	0.226
635	0.226
635	0.226
636	0.226
636	0.226
637	0.226
637	0.225
638	0.225
638	0.225
638	0.224
639	0.224
639	0.223
640	0.223
640	0.223
641	0.223
641	0.223
642	0.223
642	0.223
642	0.223
643	0.223
643	0.223
644	0.223
644	0.223
645	0.223
645	0.223
646	0.223
646	0.223
646	0.223
647	0.223
647	0.223
648	0.222
648	0.222
649	0.222
649	0.222
650	0.222
650	0.222
650	0.222
651	0.222
651	0.221
652	0.221
652	0.221
653	0.222
653	0.223
653	0.231
654	0.179
654	0.142
655	0.144
655	0.145
656	0.145
656	0.145
657	0.146
657	0.146
657	0.146
658	0.144
658	0.132
659	0.168
659	0.217
660	0.221
660	0.22
661	0.22
661	0.219
661	0.219
662	0.219
662	0.218
663	0.218
663	0.217
664	0.217
664	0.217
665	0.217
665	0.217
665	0.217
666	0.217
666	0.217
667	0.217
667	0.217
668	0.217
668	0.217
669	0.217
669	0.218
669	0.218
670	0.219
670	0.219
671	0.219
671	0.219
672	0.219
672	0.218
672	0.218
673	0.218
673	0.218
674	0.218
674	0.217
675	0.217
675	0.217
676	0.217
676	0.218
676	0.217
677	0.218
677	0.217
678	0.217
678	0.217
679	0.216
679	0.216
680	0.217
680	0.217
680	0.216
681	0.216
681	0.217
682	0.218
682	0.218
683	0.219
683	0.22
684	0.221
684	0.221
684	0.221
685	0.222
685	0.222
686	0.222
686	0.222
687	0.222
687	0.222
687	0.221
688	0.221
688	0.221
689	0.221
689	0.221
690	0.221
690	0.221
691	0.221
691	0.221
691	0.222
692	0.222
692	0.222
693	0.223
693	0.223
694	0.223
694	0.224
695	0.225
695	0.226
695	0.226
696	0.226
696	0.226
697	0.226
697	0.225
698	0.225
698	0.225
698	0.225
699	0.225
699	0.225
700	0.224
700	0.224
701	0.225
701	0.225
702	0.225
702	0.225
702	0.225
703	0.225
703	0.225
704	0.225
704	0.225
705	0.225
705	0.225
705	0.225
706	0.225
706	0.225
707	0.225
707	0.225
708	0.226
708	0.226
709	0.226
709	0.226
709	0.226
710	0.225
710	0.225
711	0.225
711	0.225
712	0.225
712	0.225
713	0.225
713	0.226
713	0.226
714	0.226
714	0.226
715	0.226
715	0.226
716	0.226
716	0.226
716	0.226
717	0.225
717	0.225
718	0.225
718	0.225
719	0.225
719	0.226
720	0.226
720	0.227
720	0.227
721	0.227
721	0.228
722	0.229
722	0.229
723	0.23
723	0.23
723	0.23
724	0.23
724	0.23
725	0.229
725	0.229
726	0.228
726	0.228
727	0.227
727	0.227
727	0.227
728	0.227
728	0.227
729	0.227
729	0.227
730	0.227
730	0.227
730	0.228
731	0.228
731	0.228
732	0.228
732	0.228
733	0.228
733	0.228
734	0.228
734	0.228
734	0.229
735	0.229
735	0.229
736	0.229
736	0.229
737	0.229
737	0.229
737	0.229
738	0.229
738	0.228
739	0.227
739	0.227
740	0.226
740	0.226
741	0.226
741	0.226
741	0.226
742	0.226
742	0.226
743	0.227
743	0.227
744	0.228
744	0.229
744	0.229
745	0.23
745	0.23
746	0.23
746	0.231
747	0.231
747	0.232
748	0.232
748	0.232
748	0.232
749	0.232
749	0.232
750	0.232
750	0.231
751	0.231
751	0.231
751	0.231
752	0.23
752	0.23
753	0.229
753	0.229
754	0.23
754	0.23
754	0.23
755	0.23
755	0.231
756	0.23
756	0.229
757	0.229
757	0.228
758	0.228
758	0.227
758	0.227
759	0.228
759	0.227
760	0.227
760	0.227
761	0.228
761	0.229
761	0.23
762	0.231
762	0.232
763	0.232
763	0.232
764	0.232
764	0.232
764	0.232
765	0.232
765	0.231
766	0.231
766	0.23
767	0.229
767	0.228
768	0.227
768	0.226
768	0.226
769	0.226
769	0.226
770	0.226
770	0.227
771	0.227
771	0.227
771	0.227
772	0.228
772	0.229
773	0.229
773	0.23
774	0.23
774	0.23
775	0.231
775	0.231
775	0.231
776	0.232
776	0.232
777	0.232
777	0.232
778	0.231
778	0.23
778	0.23
779	0.23
779	0.23
780	0.229
780	0.228
781	0.228
781	0.228
781	0.228
782	0.228
782	0.228
783	0.229
783	0.229
784	0.229
784	0.229
784	0.229
785	0.23
785	0.23
786	0.23
786	0.23
787	0.23
787	0.23
788	0.23
788	0.23
788	0.23
789	0.229
789	0.23
790	0.23
790	0.23
791	0.23
791	0.23
791	0.23
792	0.231
792	0.231
793	0.231
793	0.231
794	0.231
794	0.231
794	0.231
795	0.231
795	0.231
796	0.231
796	0.231
797	0.23
797	0.23
797	0.23
798	0.23
798	0.23
799	0.23
799	0.231
800	0.231
800	0.23
801	0.231
801	0.231
801	0.231
802	0.232
802	0.232
803	0.232
803	0.233
804	0.233
804	0.234
804	0.234
805	0.234
805	0.234
806	0.234
806	0.234
807	0.233
807	0.233
807	0.233
808	0.233
808	0.233
809	0.232
809	0.232
810	0.233
810	0.233
810	0.233
811	0.232
811	0.233
812	0.233
812	0.234
813	0.234
813	0.234
813	0.235
814	0.235
814	0.236
815	0.237
815	0.237
816	0.237
816	0.237
817	0.237
817	0.237
817	0.237
818	0.236
818	0.236
819	0.236
819	0.235
820	0.234
820	0.234
820	0.233
821	0.233
821	0.233
822	0.233
822	0.233
823	0.232
823	0.232
823	0.233
824	0.234
824	0.235
825	0.236
825	0.237
826	0.237
826	0.237
826	0.237
827	0.237
827	0.237
828	0.237
828	0.237
829	0.237
829	0.236
829	0.236
830	0.236
830	0.236
831	0.237
831	0.237
832	0.237
832	0.237
832	0.237
833	0.237
833	0.237
834	0.236
834	0.236
835	0.236
835	0.236
835	0.236
836	0.236
836	0.237
837	0.237
837	0.237
838	0.237
838	0.237
839	0.236
839	0.236
839	0.235
840	0.234
840	0.232
841	0.231
841	0.23
842	0.23
842	0.229
842	0.229
843	0.228
843	0.228
844	0.228
844	0.227
845	0.227
845	0.228
845	0.228
846	0.228
846	0.228
847	0.228
847	0.228
848	0.229
848	0.229
848	0.23
849	0.23
849	0.23
850	0.231
850	0.231
851	0.232
851	0.232
851	0.232
852	0.232
852	0.231
853	0.23
853	0.23
854	0.229
854	0.229
854	0.229
855	0.229
855	0.229
856	0.229
856	0.229
857	0.229
857	0.229
857	0.229
858	0.229
858	0.229
859	0.228
859	0.227
860	0.226
860	0.225
860	0.224
861	0.223
861	0.222
862	0.22
862	0.219
863	0.218
863	0.218
863	0.218
864	0.218
864	0.218
865	0.218
865	0.218
866	0.218
866	0.218
866	0.218
867	0.218
867	0.219
868	0.219
868	0.219
869	0.219
869	0.219
869	0.219
870	0.219
870	0.219
871	0.219
871	0.22
872	0.22
872	0.22
872	0.22
873	0.22
873	0.219
874	0.219
874	0.219
875	0.219
875	0.218
875	0.218
876	0.218
876	0.218
877	0.218
877	0.218
878	0.219
878	0.22
878	0.221
879	0.221
879	0.222
880	0.222
880	0.222
881	0.222
881	0.221
881	0.221
882	0.22
882	0.218
883	0.217
883	0.216
884	0.215
884	0.214
884	0.213
885	0.212
885	0.212
886	0.211
886	0.21
887	0.21
887	0.209
887	0.208
888	0.208
888	0.207
889	0.206
889	0.206
890	0.206
890	0.206
890	0.206
891	0.206
891	0.206
892	0.206
892	0.207
893	0.207
893	0.208
893	0.208
894	0.208
894	0.208
895	0.208
895	0.209
895	0.208
896	0.208
896	0.208
897	0.208
897	0.207
898	0.207
898	0.206
898	0.206
899	0.205
899	0.205
900	0.204
900	0.204
901	0.203
901	0.203
901	0.203
902	0.203
902	0.202
903	0.202
903	0.202
904	0.201
904	0.201
904	0.2
905	0.199
905	0.199
906	0.198
906	0.198
907	0.198
907	0.198
907	0.198
908	0.198
908	0.199
909	0.199
909	0.199
910	0.2
910	0.2
910	0.2
911	0.199
911	0.199
912	0.198
912	0.198
913	0.197
913	0.197
913	0.196
914	0.196
914	0.195
915	0.195
915	0.195
916	0.194
916	0.194
916	0.194
917	0.193
917	0.192
918	0.191
918	0.19
918	0.189
919	0.189
919	0.188
920	0.187
920	0.187
921	0.187
921	0.186
921	0.186
922	0.186
922	0.186
923	0.186
923	0.186
924	0.186
924	0.186
924	0.186
925	0.186
925	0.186
926	0.185
926	0.185
927	0.184
927	0.184
927	0.183
928	0.182
928	0.182
929	0.181
929	0.181
930	0.18
930	0.18
930	0.18
931	0.179
931	0.179
932	0.179
932	0.179
933	0.179
933	0.179
933	0.178
934	0.178
934	0.177
935	0.177
935	0.176
935	0.175
936	0.175
936	0.174
937	0.173
937	0.173
938	0.172
938	0.172
938	0.172
939	0.171
939	0.171
940	0.171
940	0.172
941	0.172
941	0.172
941	0.172
942	0.172
942	0.172
943	0.172
943	0.172
944	0.171
944	0.171
944	0.17
945	0.17
945	0.17
946	0.169
946	0.169
946	0.169
947	0.169
947	0.169
948	0.168
948	0.168
949	0.168
949	0.168
949	0.167
950	0.167
950	0.166
951	0.166
951	0.165
952	0.164
952	0.163
952	0.163
953	0.162
953	0.162
954	0.161
954	0.16
955	0.16
955	0.159
955	0.159
956	0.159
956	0.16
957	0.16
957	0.16
957	0.16
958	0.161
958	0.161
959	0.161
959	0.161
960	0.161
960	0.161
960	0.16
961	0.16
961	0.159
962	0.158
962	0.158
963	0.157
963	0.156
963	0.156
964	0.155
964	0.155
965	0.155
965	0.154
966	0.154
966	0.154
966	0.154
967	0.154
967	0.154
968	0.154
968	0.154
968	0.154
969	0.153
969	0.153
970	0.153
970	0.152
971	0.152
971	0.152
971	0.152
972	0.152
972	0.152
973	0.152
973	0.152
974	0.152
974	0.152
974	0.152
975	0.152
975	0.152
976	0.152
976	0.152
976	0.151
977	0.151
977	0.151
978	0.151
978	0.15
979	0.15
979	0.15
979	0.15
980	0.149
980	0.149
981	0.148
981	0.147
982	0.146
982	0.146
982	0.145
983	0.145
983	0.144
984	0.143
984	0.142
984	0.141
985	0.14
985	0.14
986	0.139
986	0.137
987	0.136
987	0.135
987	0.134
988	0.133
988	0.133
989	0.132
989	0.131
990	0.13
990	0.13
990	0.129
991	0.129
991	0.129
992	0.128
992	0.128
992	0.128
993	0.127
993	0.127
994	0.127
994	0.126
995	0.126
995	0.126
995	0.126
996	0.126
996	0.126
997	0.127
997	0.127
997	0.127
998	0.128
998	0.128
999	0.129
999	0.13
1000	0.131
1000	0.131
1000	0.132
1001	0.132
1001	0.132
1002	0.132
1002	0.133
1003	0.133
1003	0.133
1003	0.132
1004	0.132
1004	0.131
1005	0.131
1005	0.131
1005	0.13
1006	0.13
1006	0.13
1007	0.129
1007	0.129
1008	0.129
1008	0.129
1008	0.128
1009	0.128
1009	0.128
1010	0.128
1010	0.128
1010	0.128
1011	0.127
1011	0.127
1012	0.127
1012	0.127
1013	0.127
1013	0.126
1013	0.126
1014	0.125
1014	0.125
1015	0.124
1015	0.124
1016	0.123
1016	0.122
1016	0.121
1017	0.12
1017	0.12
1018	0.119
1018	0.118
1018	0.118
1019	0.117
1019	0.117
1020	0.116
1020	0.116
1021	0.116
1021	0.116
1021	0.116
1022	0.115
1022	0.115
1023	0.115
1023	0.115
1023	0.115
1024	0.115
1024	0.115
1025	0.115
1025	0.115
1026	0.114
1026	0.114
1026	0.114
1027	0.113
1027	0.113
1028	0.113
1028	0.113
1028	0.112
1029	0.112
1029	0.112
1030	0.112
1030	0.112
1031	0.112
1031	0.112
1031	0.112
1032	0.112
1032	0.112
1033	0.112
1033	0.112
1033	0.112
1034	0.111
1034	0.111
1035	0.11
1035	0.11
1036	0.109
1036	0.109
1036	0.109
1037	0.108
1037	0.108
1038	0.107
1038	0.107
1039	0.107
1039	0.107
1039	0.107
1040	0.107
1040	0.106
1041	0.106
1041	0.106
1041	0.106
1042	0.106
1042	0.106
1043	0.105
1043	0.105
1044	0.105
1044	0.105
1044	0.105
1045	0.105
1045	0.105
1046	0.105
1046	0.106
1046	0.106
1047	0.107
1047	0.107
1048	0.108
1048	0.109
1049	0.109
1049	0.109
1049	0.109
1050	0.109
1050	0.108
1051	0.108
1051	0.108
1051	0.107
1052	0.106
1052	0.105
1053	0.104
1053	0.103
1053	0.102
1054	0.101
1054	0.1
1055	0.1
1055	0.099
1056	0.098
1056	0.098
1056	0.098
1057	0.097
1057	0.096
1058	0.096
1058	0.095
1058	0.094
1059	0.093
1059	0.093
1060	0.092
1060	0.091
1061	0.091
1061	0.09
1061	0.089
1062	0.089
1062	0.089
1063	0.089
1063	0.088
1063	0.088
1064	0.088
1064	0.088
1065	0.088
1065	0.087
1066	0.088
1066	0.088
1066	0.088
1067	0.087
1067	0.088
1068	0.087
1068	0.088
1068	0.087
1069	0.087
1069	0.087
1070	0.086
1070	0.085
1071	0.084
1071	0.084
1071	0.083
1072	0.083
1072	0.082
1073	0.081
1073	0.081
1073	0.08
1074	0.08
1074	0.08
1075	0.08
1075	0.08
1076	0.08
1076	0.081
1076	0.081
1077	0.081
1077	0.081
1078	0.081
1078	0.082
1078	0.082
1079	0.082
1079	0.082
1080	0.081
1080	0.081
1080	0.081
1081	0.081
1081	0.081
1082	0.081
1082	0.082
1083	0.081
1083	0.081
1083	0.081
1084	0.08
1084	0.081
1085	0.08
1085	0.08
1085	0.08
1086	0.08
1086	0.079
1087	0.078
1087	0.078
1088	0.078
1088	0.077
1088	0.078
1089	0.077
1089	0.076
1090	0.075
1090	0.075
1090	0.073
1091	0.073
1091	0.073
1092	0.073
1092	0.073
1092	0.073
1093	0.072
1093	0.073
1094	0.073
1094	0.073
1095	0.072
1095	0.072
1095	0.072
1096	0.071
1096	0.07
1097	0.068
1097	0.067
1097	0.067
1098	0.066
1098	0.065
1099	0.064
1099	0.062
1100	0.061
1100	0.059
1100	0.059
1101	0.057
1101	0.056
1102	0.056
1102	0.055
1102	0.053
1103	0.052
1103	0.052
1104	0.051
1104	0.052
1104	0.051
1105	0.051
1105	0.049
1106	0.047
1106	0.046
1107	0.044
1107	0.044
1107	0.044
1108	0.043
1108	0.042
1109	0.041
1109	0.039
1109	0.039
1110	0.04
1110	0.041
1111	0.043
1111	0.048
