Data from reversibility-20sec_Absorbance__6062__000000000006062.txt Node

Date: Wed Dec 06 21:53:47 CET 2023
User: Marek
Spectrometer: MAYP115816
Trigger mode: 0
Integration Time (sec): 2.000000E-1
Scans to average: 10
Electric dark correction enabled: true
Nonlinearity correction enabled: true
Boxcar width: 5
XAxis mode: Wavelengths
Number of Pixels in Spectrum: 2068
>>>>>Begin Spectral Data<<<<<
199	-0.185
199	-0.156
200	-0.089
200	-0.041
201	-0.013
201	0.002
202	0.013
202	0.02
203	0.03
203	0.033
204	0.047
204	0.06
205	0.071
205	0.075
205	0.072
206	0.073
206	0.074
207	0.077
207	0.074
208	0.072
208	0.07
209	0.073
209	0.07
210	0.069
210	0.069
211	0.073
211	0.075
212	0.07
212	0.07
213	0.077
213	0.079
213	0.079
214	0.08
214	0.081
215	0.082
215	0.085
216	0.086
216	0.084
217	0.09
217	0.092
218	0.088
218	0.09
219	0.096
219	0.098
220	0.101
220	0.104
221	0.103
221	0.104
221	0.111
222	0.116
222	0.12
223	0.127
223	0.129
224	0.136
224	0.142
225	0.149
225	0.161
226	0.169
226	0.179
227	0.187
227	0.195
228	0.211
228	0.226
229	0.246
229	0.268
229	0.293
230	0.319
230	0.347
231	0.382
231	0.42
232	0.461
232	0.507
233	0.549
233	0.597
234	0.645
234	0.697
235	0.748
235	0.801
236	0.853
236	0.904
236	0.953
237	1.002
237	1.049
238	1.099
238	1.145
239	1.192
239	1.234
240	1.277
240	1.314
241	1.35
241	1.385
242	1.418
242	1.45
243	1.48
243	1.506
243	1.534
244	1.556
244	1.577
245	1.591
245	1.614
246	1.631
246	1.648
247	1.66
247	1.676
248	1.691
248	1.703
249	1.711
249	1.719
250	1.728
250	1.738
250	1.742
251	1.748
251	1.753
252	1.759
252	1.759
253	1.761
253	1.761
254	1.761
254	1.764
255	1.763
255	1.764
256	1.765
256	1.765
257	1.765
257	1.765
258	1.766
258	1.765
258	1.765
259	1.766
259	1.766
260	1.766
260	1.769
261	1.768
261	1.77
262	1.771
262	1.773
263	1.775
263	1.775
264	1.776
264	1.777
265	1.779
265	1.778
265	1.777
266	1.776
266	1.774
267	1.774
267	1.774
268	1.773
268	1.774
269	1.776
269	1.774
270	1.773
270	1.772
271	1.77
271	1.77
272	1.768
272	1.766
272	1.764
273	1.76
273	1.755
274	1.75
274	1.746
275	1.742
275	1.737
276	1.731
276	1.723
277	1.715
277	1.706
278	1.695
278	1.684
278	1.672
279	1.659
279	1.643
280	1.623
280	1.6
281	1.572
281	1.542
282	1.51
282	1.475
283	1.44
283	1.405
284	1.37
284	1.335
285	1.301
285	1.27
285	1.242
286	1.217
286	1.193
287	1.173
287	1.156
288	1.141
288	1.127
289	1.116
289	1.106
290	1.097
290	1.089
291	1.082
291	1.076
292	1.07
292	1.065
292	1.06
293	1.055
293	1.05
294	1.046
294	1.042
295	1.039
295	1.035
296	1.031
296	1.028
297	1.024
297	1.02
298	1.017
298	1.014
298	1.011
299	1.008
299	1.004
300	1.001
300	0.998
301	0.996
301	0.993
302	0.99
302	0.987
303	0.985
303	0.982
304	0.979
304	0.976
305	0.973
305	0.971
305	0.968
306	0.965
306	0.962
307	0.959
307	0.956
308	0.953
308	0.95
309	0.947
309	0.943
310	0.94
310	0.937
311	0.934
311	0.93
311	0.927
312	0.923
312	0.919
313	0.915
313	0.912
314	0.908
314	0.904
315	0.899
315	0.895
316	0.891
316	0.886
317	0.881
317	0.876
318	0.871
318	0.866
318	0.861
319	0.856
319	0.85
320	0.845
320	0.839
321	0.833
321	0.827
322	0.82
322	0.814
323	0.808
323	0.801
324	0.795
324	0.788
324	0.781
325	0.775
325	0.768
326	0.761
326	0.754
327	0.748
327	0.741
328	0.734
328	0.727
329	0.72
329	0.713
330	0.706
330	0.699
330	0.692
331	0.686
331	0.679
332	0.672
332	0.665
333	0.658
333	0.651
334	0.644
334	0.637
335	0.631
335	0.624
336	0.617
336	0.611
336	0.604
337	0.598
337	0.592
338	0.586
338	0.58
339	0.574
339	0.568
340	0.562
340	0.556
341	0.551
341	0.546
342	0.54
342	0.535
342	0.53
343	0.524
343	0.519
344	0.514
344	0.509
345	0.505
345	0.5
346	0.496
346	0.491
347	0.487
347	0.482
348	0.478
348	0.474
348	0.47
349	0.466
349	0.463
350	0.459
350	0.456
351	0.452
351	0.449
352	0.446
352	0.443
353	0.44
353	0.437
354	0.434
354	0.431
354	0.428
355	0.424
355	0.421
356	0.418
356	0.415
357	0.411
357	0.408
358	0.406
358	0.403
359	0.4
359	0.398
360	0.396
360	0.394
360	0.392
361	0.39
361	0.388
362	0.387
362	0.385
363	0.384
363	0.382
364	0.379
364	0.377
365	0.375
365	0.374
366	0.372
366	0.37
366	0.368
367	0.367
367	0.365
368	0.363
368	0.361
369	0.36
369	0.358
370	0.357
370	0.355
371	0.354
371	0.352
372	0.35
372	0.349
372	0.348
373	0.347
373	0.346
374	0.345
374	0.343
375	0.342
375	0.341
376	0.34
376	0.339
377	0.338
377	0.337
378	0.336
378	0.335
378	0.334
379	0.333
379	0.333
380	0.332
380	0.331
381	0.33
381	0.329
382	0.329
382	0.328
383	0.327
383	0.326
383	0.326
384	0.325
384	0.324
385	0.323
385	0.323
386	0.322
386	0.321
387	0.321
387	0.32
388	0.32
388	0.319
389	0.318
389	0.318
389	0.317
390	0.317
390	0.316
391	0.316
391	0.315
392	0.315
392	0.314
393	0.314
393	0.313
394	0.313
394	0.313
394	0.312
395	0.312
395	0.311
396	0.311
396	0.31
397	0.31
397	0.309
398	0.309
398	0.309
399	0.308
399	0.308
400	0.307
400	0.307
400	0.306
401	0.306
401	0.305
402	0.305
402	0.304
403	0.304
403	0.303
404	0.303
404	0.303
405	0.302
405	0.302
405	0.302
406	0.301
406	0.301
407	0.301
407	0.3
408	0.3
408	0.299
409	0.299
409	0.298
410	0.298
410	0.298
411	0.297
411	0.297
411	0.297
412	0.296
412	0.296
413	0.296
413	0.295
414	0.295
414	0.295
415	0.294
415	0.294
416	0.293
416	0.293
416	0.292
417	0.292
417	0.292
418	0.292
418	0.291
419	0.291
419	0.29
420	0.29
420	0.289
421	0.289
421	0.289
421	0.288
422	0.288
422	0.288
423	0.287
423	0.287
424	0.286
424	0.286
425	0.286
425	0.286
426	0.285
426	0.285
427	0.285
427	0.285
427	0.285
428	0.284
428	0.284
429	0.284
429	0.283
430	0.283
430	0.283
431	0.283
431	0.282
432	0.282
432	0.282
432	0.282
433	0.282
433	0.282
434	0.282
434	0.281
435	0.281
435	0.281
436	0.281
436	0.281
437	0.28
437	0.28
437	0.28
438	0.28
438	0.28
439	0.28
439	0.28
440	0.279
440	0.279
441	0.279
441	0.279
442	0.278
442	0.278
442	0.278
443	0.278
443	0.278
444	0.278
444	0.277
445	0.277
445	0.277
446	0.277
446	0.277
447	0.277
447	0.277
447	0.277
448	0.277
448	0.277
449	0.277
449	0.277
450	0.277
450	0.277
451	0.276
451	0.276
452	0.276
452	0.276
452	0.276
453	0.276
453	0.276
454	0.276
454	0.276
455	0.276
455	0.276
456	0.276
456	0.276
457	0.276
457	0.276
458	0.276
458	0.276
458	0.276
459	0.276
459	0.276
460	0.276
460	0.276
461	0.276
461	0.276
462	0.276
462	0.276
463	0.276
463	0.276
463	0.276
464	0.276
464	0.276
465	0.276
465	0.276
466	0.276
466	0.277
467	0.277
467	0.277
467	0.277
468	0.278
468	0.278
469	0.279
469	0.279
470	0.28
470	0.28
471	0.281
471	0.281
472	0.282
472	0.282
472	0.282
473	0.283
473	0.283
474	0.283
474	0.284
475	0.284
475	0.284
476	0.285
476	0.285
477	0.286
477	0.286
477	0.286
478	0.287
478	0.287
479	0.288
479	0.288
480	0.289
480	0.29
481	0.29
481	0.291
482	0.291
482	0.292
482	0.293
483	0.293
483	0.294
484	0.295
484	0.295
485	0.296
485	0.297
486	0.297
486	0.298
487	0.299
487	0.3
487	0.301
488	0.302
488	0.302
489	0.303
489	0.305
490	0.306
490	0.307
491	0.309
491	0.31
492	0.311
492	0.312
492	0.313
493	0.314
493	0.315
494	0.317
494	0.318
495	0.319
495	0.32
496	0.321
496	0.323
496	0.324
497	0.325
497	0.326
498	0.328
498	0.329
499	0.33
499	0.332
500	0.333
500	0.335
501	0.336
501	0.337
501	0.338
502	0.339
502	0.34
503	0.342
503	0.343
504	0.344
504	0.345
505	0.347
505	0.348
506	0.349
506	0.35
506	0.351
507	0.352
507	0.353
508	0.354
508	0.355
509	0.356
509	0.357
510	0.359
510	0.359
511	0.361
511	0.362
511	0.363
512	0.364
512	0.365
513	0.366
513	0.367
514	0.368
514	0.369
515	0.369
515	0.37
515	0.37
516	0.371
516	0.372
517	0.373
517	0.374
518	0.374
518	0.374
519	0.375
519	0.375
520	0.375
520	0.375
520	0.375
521	0.375
521	0.375
522	0.375
522	0.375
523	0.374
523	0.374
524	0.373
524	0.373
524	0.373
525	0.373
525	0.372
526	0.372
526	0.372
527	0.371
527	0.371
528	0.37
528	0.37
529	0.369
529	0.368
529	0.367
530	0.366
530	0.365
531	0.364
531	0.363
532	0.361
532	0.36
533	0.358
533	0.357
533	0.356
534	0.354
534	0.353
535	0.352
535	0.35
536	0.348
536	0.347
537	0.345
537	0.344
538	0.342
538	0.341
538	0.339
539	0.337
539	0.335
540	0.334
540	0.332
541	0.33
541	0.328
542	0.326
542	0.324
542	0.322
543	0.321
543	0.319
544	0.317
544	0.315
545	0.313
545	0.311
546	0.309
546	0.307
547	0.304
547	0.302
547	0.3
548	0.298
548	0.296
549	0.294
549	0.292
550	0.29
550	0.288
551	0.285
551	0.283
551	0.281
552	0.279
552	0.277
553	0.275
553	0.273
554	0.271
554	0.268
555	0.266
555	0.264
556	0.262
556	0.259
556	0.258
557	0.256
557	0.255
558	0.253
558	0.251
559	0.249
559	0.248
560	0.246
560	0.244
560	0.242
561	0.241
561	0.239
562	0.237
562	0.234
563	0.232
563	0.23
564	0.228
564	0.227
564	0.225
565	0.223
565	0.222
566	0.22
566	0.218
567	0.217
567	0.215
568	0.214
568	0.212
568	0.21
569	0.209
569	0.207
570	0.205
570	0.203
571	0.202
571	0.2
572	0.199
572	0.197
573	0.196
573	0.194
573	0.193
574	0.191
574	0.19
575	0.189
575	0.188
576	0.187
576	0.186
577	0.184
577	0.183
577	0.182
578	0.181
578	0.18
579	0.179
579	0.178
580	0.176
580	0.174
581	0.173
581	0.172
581	0.171
582	0.171
582	0.17
583	0.169
583	0.168
584	0.167
584	0.165
585	0.164
585	0.163
585	0.162
586	0.161
586	0.16
587	0.159
587	0.157
588	0.156
588	0.155
589	0.154
589	0.153
590	0.153
590	0.152
590	0.152
591	0.151
591	0.15
592	0.15
592	0.149
593	0.148
593	0.148
594	0.147
594	0.146
594	0.145
595	0.144
595	0.143
596	0.142
596	0.141
597	0.142
597	0.141
598	0.14
598	0.139
598	0.139
599	0.138
599	0.137
600	0.136
600	0.136
601	0.135
601	0.134
602	0.133
602	0.133
602	0.132
603	0.131
603	0.131
604	0.131
604	0.131
605	0.13
605	0.13
606	0.129
606	0.128
606	0.127
607	0.127
607	0.126
608	0.126
608	0.125
609	0.124
609	0.124
610	0.123
610	0.122
610	0.122
611	0.121
611	0.121
612	0.121
612	0.121
613	0.121
613	0.12
614	0.119
614	0.119
614	0.118
615	0.118
615	0.117
616	0.117
616	0.116
617	0.116
617	0.115
618	0.115
618	0.114
618	0.114
619	0.114
619	0.115
620	0.115
620	0.115
621	0.114
621	0.113
622	0.113
622	0.112
622	0.111
623	0.11
623	0.11
624	0.109
624	0.108
625	0.107
625	0.107
626	0.106
626	0.106
626	0.106
627	0.105
627	0.105
628	0.105
628	0.104
629	0.104
629	0.103
630	0.103
630	0.102
630	0.102
631	0.102
631	0.101
632	0.101
632	0.1
633	0.1
633	0.1
634	0.1
634	0.1
634	0.1
635	0.1
635	0.1
636	0.1
636	0.1
637	0.1
637	0.1
638	0.1
638	0.099
638	0.099
639	0.098
639	0.098
640	0.097
640	0.097
641	0.097
641	0.096
642	0.096
642	0.095
642	0.095
643	0.095
643	0.095
644	0.095
644	0.095
645	0.094
645	0.094
646	0.094
646	0.094
646	0.093
647	0.093
647	0.093
648	0.092
648	0.091
649	0.091
649	0.091
650	0.091
650	0.09
650	0.09
651	0.09
651	0.09
652	0.09
652	0.089
653	0.09
653	0.091
653	0.098
654	0.079
654	0.064
655	0.062
655	0.061
656	0.062
656	0.062
657	0.062
657	0.063
657	0.063
658	0.062
658	0.054
659	0.067
659	0.085
660	0.091
660	0.091
661	0.091
661	0.09
661	0.09
662	0.089
662	0.089
663	0.088
663	0.088
664	0.087
664	0.087
665	0.087
665	0.086
665	0.086
666	0.086
666	0.087
667	0.087
667	0.087
668	0.087
668	0.088
669	0.088
669	0.088
669	0.089
670	0.089
670	0.089
671	0.088
671	0.088
672	0.087
672	0.087
672	0.086
673	0.086
673	0.085
674	0.085
674	0.084
675	0.084
675	0.084
676	0.084
676	0.084
676	0.083
677	0.083
677	0.083
678	0.083
678	0.082
679	0.081
679	0.081
680	0.081
680	0.081
680	0.08
681	0.08
681	0.08
682	0.08
682	0.08
683	0.08
683	0.081
684	0.082
684	0.081
684	0.081
685	0.082
685	0.082
686	0.082
686	0.082
687	0.082
687	0.082
687	0.082
688	0.081
688	0.081
689	0.081
689	0.082
690	0.081
690	0.081
691	0.081
691	0.081
691	0.081
692	0.081
692	0.081
693	0.081
693	0.081
694	0.08
694	0.08
695	0.08
695	0.081
695	0.082
696	0.081
696	0.081
697	0.081
697	0.081
698	0.08
698	0.08
698	0.08
699	0.08
699	0.08
700	0.079
700	0.079
701	0.079
701	0.079
702	0.079
702	0.079
702	0.079
703	0.079
703	0.079
704	0.078
704	0.078
705	0.078
705	0.078
705	0.078
706	0.078
706	0.078
707	0.078
707	0.078
708	0.078
708	0.079
709	0.079
709	0.078
709	0.078
710	0.078
710	0.078
711	0.078
711	0.078
712	0.077
712	0.077
713	0.077
713	0.077
713	0.076
714	0.075
714	0.075
715	0.075
715	0.074
716	0.073
716	0.073
716	0.073
717	0.072
717	0.072
718	0.072
718	0.071
719	0.072
719	0.072
720	0.072
720	0.072
720	0.072
721	0.073
721	0.073
722	0.073
722	0.073
723	0.073
723	0.073
723	0.073
724	0.072
724	0.072
725	0.071
725	0.071
726	0.07
726	0.07
727	0.069
727	0.069
727	0.069
728	0.069
728	0.069
729	0.069
729	0.069
730	0.069
730	0.069
730	0.069
731	0.07
731	0.07
732	0.071
732	0.071
733	0.071
733	0.071
734	0.071
734	0.072
734	0.072
735	0.072
735	0.072
736	0.072
736	0.071
737	0.071
737	0.071
737	0.07
738	0.069
738	0.068
739	0.068
739	0.067
740	0.067
740	0.066
741	0.066
741	0.066
741	0.066
742	0.065
742	0.066
743	0.067
743	0.067
744	0.068
744	0.068
744	0.068
745	0.068
745	0.069
746	0.069
746	0.069
747	0.069
747	0.069
748	0.068
748	0.068
748	0.068
749	0.068
749	0.068
750	0.067
750	0.067
751	0.067
751	0.066
751	0.066
752	0.065
752	0.064
753	0.064
753	0.063
754	0.063
754	0.062
754	0.062
755	0.062
755	0.062
756	0.062
756	0.061
757	0.061
757	0.062
758	0.062
758	0.062
758	0.062
759	0.062
759	0.062
760	0.062
760	0.061
761	0.062
761	0.062
761	0.062
762	0.062
762	0.062
763	0.062
763	0.061
764	0.06
764	0.06
764	0.06
765	0.059
765	0.059
766	0.059
766	0.059
767	0.058
767	0.057
768	0.056
768	0.056
768	0.057
769	0.057
769	0.057
770	0.058
770	0.058
771	0.059
771	0.059
771	0.06
772	0.061
772	0.062
773	0.062
773	0.062
774	0.062
774	0.062
775	0.062
775	0.062
775	0.062
776	0.062
776	0.062
777	0.062
777	0.062
778	0.062
778	0.061
778	0.061
779	0.061
779	0.061
780	0.06
780	0.06
781	0.06
781	0.059
781	0.059
782	0.058
782	0.058
783	0.059
783	0.059
784	0.059
784	0.059
784	0.059
785	0.059
785	0.06
786	0.06
786	0.06
787	0.059
787	0.058
788	0.057
788	0.056
788	0.055
789	0.054
789	0.054
790	0.053
790	0.052
791	0.052
791	0.051
791	0.051
792	0.052
792	0.052
793	0.052
793	0.052
794	0.051
794	0.051
794	0.051
795	0.051
795	0.052
796	0.052
796	0.052
797	0.052
797	0.052
797	0.053
798	0.053
798	0.054
799	0.054
799	0.054
800	0.054
800	0.053
801	0.053
801	0.053
801	0.052
802	0.052
802	0.052
803	0.052
803	0.052
804	0.052
804	0.052
804	0.052
805	0.051
805	0.051
806	0.051
806	0.051
807	0.051
807	0.05
807	0.05
808	0.051
808	0.051
809	0.051
809	0.052
810	0.052
810	0.053
810	0.053
811	0.053
811	0.053
812	0.054
812	0.054
813	0.054
813	0.053
813	0.053
814	0.053
814	0.053
815	0.053
815	0.053
816	0.053
816	0.052
817	0.052
817	0.052
817	0.051
818	0.051
818	0.051
819	0.051
819	0.05
820	0.05
820	0.049
820	0.049
821	0.049
821	0.049
822	0.049
822	0.049
823	0.049
823	0.048
823	0.049
824	0.049
824	0.05
825	0.051
825	0.051
826	0.052
826	0.052
826	0.052
827	0.053
827	0.053
828	0.053
828	0.054
829	0.054
829	0.054
829	0.054
830	0.055
830	0.055
831	0.056
831	0.056
832	0.055
832	0.055
832	0.055
833	0.055
833	0.054
834	0.054
834	0.053
835	0.053
835	0.052
835	0.051
836	0.051
836	0.05
837	0.05
837	0.05
838	0.049
838	0.049
839	0.048
839	0.047
839	0.047
840	0.046
840	0.046
841	0.045
841	0.045
842	0.044
842	0.044
842	0.044
843	0.043
843	0.043
844	0.042
844	0.042
845	0.041
845	0.041
845	0.041
846	0.041
846	0.04
847	0.04
847	0.041
848	0.041
848	0.042
848	0.042
849	0.043
849	0.044
850	0.044
850	0.045
851	0.045
851	0.045
851	0.045
852	0.044
852	0.044
853	0.043
853	0.043
854	0.042
854	0.043
854	0.043
855	0.043
855	0.043
856	0.043
856	0.044
857	0.044
857	0.045
857	0.046
858	0.046
858	0.046
859	0.046
859	0.046
860	0.046
860	0.046
860	0.046
861	0.045
861	0.045
862	0.044
862	0.043
863	0.042
863	0.042
863	0.041
864	0.041
864	0.04
865	0.04
865	0.04
866	0.039
866	0.039
866	0.04
867	0.04
867	0.041
868	0.041
868	0.042
869	0.043
869	0.043
869	0.043
870	0.043
870	0.043
871	0.043
871	0.043
872	0.043
872	0.043
872	0.043
873	0.043
873	0.043
874	0.043
874	0.043
875	0.043
875	0.042
875	0.042
876	0.043
876	0.042
877	0.042
877	0.042
878	0.043
878	0.043
878	0.043
879	0.044
879	0.044
880	0.044
880	0.044
881	0.044
881	0.045
881	0.045
882	0.044
882	0.044
883	0.044
883	0.044
884	0.044
884	0.044
884	0.044
885	0.044
885	0.044
886	0.043
886	0.043
887	0.043
887	0.042
887	0.042
888	0.041
888	0.041
889	0.04
889	0.04
890	0.04
890	0.04
890	0.04
891	0.039
891	0.039
892	0.039
892	0.039
893	0.039
893	0.039
893	0.038
894	0.038
894	0.038
895	0.038
895	0.038
895	0.038
896	0.038
896	0.039
897	0.039
897	0.04
898	0.04
898	0.04
898	0.04
899	0.041
899	0.041
900	0.041
900	0.041
901	0.041
901	0.04
901	0.04
902	0.04
902	0.04
903	0.04
903	0.04
904	0.039
904	0.039
904	0.039
905	0.038
905	0.038
906	0.038
906	0.038
907	0.038
907	0.038
907	0.038
908	0.038
908	0.038
909	0.038
909	0.038
910	0.038
910	0.039
910	0.038
911	0.038
911	0.038
912	0.038
912	0.038
913	0.038
913	0.038
913	0.038
914	0.038
914	0.038
915	0.038
915	0.038
916	0.038
916	0.038
916	0.038
917	0.037
917	0.037
918	0.037
918	0.036
918	0.036
919	0.036
919	0.035
920	0.035
920	0.035
921	0.035
921	0.035
921	0.035
922	0.035
922	0.036
923	0.036
923	0.037
924	0.037
924	0.038
924	0.038
925	0.039
925	0.039
926	0.04
926	0.041
927	0.041
927	0.042
927	0.042
928	0.042
928	0.042
929	0.042
929	0.042
930	0.042
930	0.042
930	0.042
931	0.041
931	0.041
932	0.041
932	0.04
933	0.041
933	0.04
933	0.04
934	0.04
934	0.04
935	0.04
935	0.04
935	0.039
936	0.039
936	0.038
937	0.038
937	0.037
938	0.037
938	0.036
938	0.035
939	0.035
939	0.034
940	0.034
940	0.034
941	0.034
941	0.034
941	0.035
942	0.035
942	0.035
943	0.036
943	0.036
944	0.036
944	0.036
944	0.036
945	0.037
945	0.037
946	0.037
946	0.037
946	0.037
947	0.037
947	0.037
948	0.037
948	0.037
949	0.037
949	0.037
949	0.037
950	0.037
950	0.037
951	0.037
951	0.038
952	0.038
952	0.038
952	0.038
953	0.039
953	0.039
954	0.039
954	0.039
955	0.039
955	0.039
955	0.039
956	0.04
956	0.04
957	0.04
957	0.04
957	0.041
958	0.041
958	0.041
959	0.041
959	0.041
960	0.041
960	0.041
960	0.041
961	0.041
961	0.041
962	0.041
962	0.041
963	0.041
963	0.041
963	0.041
964	0.041
964	0.041
965	0.042
965	0.042
966	0.042
966	0.042
966	0.042
967	0.042
967	0.042
968	0.042
968	0.041
968	0.041
969	0.04
969	0.039
970	0.039
970	0.038
971	0.037
971	0.036
971	0.036
972	0.035
972	0.034
973	0.034
973	0.033
974	0.033
974	0.034
974	0.034
975	0.035
975	0.035
976	0.036
976	0.037
976	0.037
977	0.037
977	0.037
978	0.037
978	0.037
979	0.036
979	0.036
979	0.036
980	0.035
980	0.034
981	0.034
981	0.034
982	0.033
982	0.033
982	0.033
983	0.033
983	0.033
984	0.033
984	0.033
984	0.033
985	0.033
985	0.033
986	0.033
986	0.033
987	0.033
987	0.033
987	0.033
988	0.034
988	0.034
989	0.034
989	0.033
990	0.033
990	0.033
990	0.033
991	0.032
991	0.032
992	0.031
992	0.03
992	0.029
993	0.029
993	0.028
994	0.027
994	0.026
995	0.025
995	0.024
995	0.024
996	0.024
996	0.024
997	0.025
997	0.025
997	0.026
998	0.026
998	0.027
999	0.028
999	0.029
1000	0.03
1000	0.031
1000	0.031
1001	0.031
1001	0.032
1002	0.032
1002	0.031
1003	0.031
1003	0.031
1003	0.03
1004	0.029
1004	0.028
1005	0.027
1005	0.027
1005	0.026
1006	0.025
1006	0.025
1007	0.024
1007	0.024
1008	0.024
1008	0.024
1008	0.024
1009	0.024
1009	0.025
1010	0.025
1010	0.026
1010	0.027
1011	0.027
1011	0.027
1012	0.027
1012	0.027
1013	0.027
1013	0.027
1013	0.026
1014	0.026
1014	0.026
1015	0.026
1015	0.025
1016	0.025
1016	0.025
1016	0.025
1017	0.025
1017	0.025
1018	0.025
1018	0.025
1018	0.025
1019	0.025
1019	0.025
1020	0.025
1020	0.026
1021	0.026
1021	0.026
1021	0.027
1022	0.027
1022	0.027
1023	0.027
1023	0.028
1023	0.028
1024	0.028
1024	0.028
1025	0.028
1025	0.028
1026	0.028
1026	0.028
1026	0.028
1027	0.028
1027	0.028
1028	0.028
1028	0.028
1028	0.028
1029	0.029
1029	0.029
1030	0.029
1030	0.029
1031	0.029
1031	0.03
1031	0.03
1032	0.03
1032	0.031
1033	0.031
1033	0.031
1033	0.031
1034	0.032
1034	0.032
1035	0.032
1035	0.032
1036	0.032
1036	0.032
1036	0.032
1037	0.032
1037	0.031
1038	0.031
1038	0.031
1039	0.031
1039	0.031
1039	0.031
1040	0.031
1040	0.031
1041	0.031
1041	0.032
1041	0.032
1042	0.032
1042	0.032
1043	0.032
1043	0.032
1044	0.032
1044	0.032
1044	0.032
1045	0.032
1045	0.032
1046	0.032
1046	0.032
1046	0.032
1047	0.032
1047	0.032
1048	0.033
1048	0.033
1049	0.033
1049	0.033
1049	0.033
1050	0.033
1050	0.032
1051	0.032
1051	0.032
1051	0.031
1052	0.031
1052	0.03
1053	0.029
1053	0.028
1053	0.028
1054	0.027
1054	0.027
1055	0.026
1055	0.026
1056	0.025
1056	0.025
1056	0.024
1057	0.024
1057	0.023
1058	0.023
1058	0.022
1058	0.022
1059	0.021
1059	0.021
1060	0.02
1060	0.02
1061	0.02
1061	0.02
1061	0.02
1062	0.02
1062	0.02
1063	0.02
1063	0.019
1063	0.019
1064	0.019
1064	0.019
1065	0.019
1065	0.019
1066	0.019
1066	0.018
1066	0.018
1067	0.018
1067	0.018
1068	0.017
1068	0.018
1068	0.018
1069	0.017
1069	0.017
1070	0.017
1070	0.017
1071	0.016
1071	0.016
1071	0.015
1072	0.015
1072	0.015
1073	0.014
1073	0.014
1073	0.014
1074	0.014
1074	0.014
1075	0.014
1075	0.015
1076	0.015
1076	0.016
1076	0.016
1077	0.016
1077	0.016
1078	0.016
1078	0.016
1078	0.017
1079	0.017
1079	0.017
1080	0.016
1080	0.016
1080	0.016
1081	0.016
1081	0.016
1082	0.016
1082	0.016
1083	0.017
1083	0.016
1083	0.016
1084	0.017
1084	0.017
1085	0.017
1085	0.017
1085	0.017
1086	0.018
1086	0.017
1087	0.017
1087	0.017
1088	0.017
1088	0.016
1088	0.017
1089	0.016
1089	0.016
1090	0.015
1090	0.015
1090	0.014
1091	0.014
1091	0.014
1092	0.014
1092	0.014
1092	0.013
1093	0.012
1093	0.013
1094	0.013
1094	0.013
1095	0.012
1095	0.012
1095	0.012
1096	0.011
1096	0.01
1097	0.01
1097	0.009
1097	0.01
1098	0.009
1098	0.007
1099	0.007
1099	0.005
1100	0.004
1100	0.002
1100	0.001
1101	0
1101	-0
1102	-0.001
1102	-0.003
1102	-0.005
1103	-0.005
1103	-0.005
1104	-0.005
1104	-0.006
1104	-0.006
1105	-0.007
1105	-0.008
1106	-0.01
1106	-0.011
1107	-0.012
1107	-0.012
1107	-0.013
1108	-0.014
1108	-0.016
1109	-0.016
1109	-0.018
1109	-0.016
1110	-0.016
1110	-0.016
1111	-0.014
1111	-0.015
