Data from reversibility-20sec_Absorbance__7054__000000000007054.txt Node

Date: Thu Dec 07 03:24:25 CET 2023
User: Marek
Spectrometer: MAYP115816
Trigger mode: 0
Integration Time (sec): 2.000000E-1
Scans to average: 10
Electric dark correction enabled: true
Nonlinearity correction enabled: true
Boxcar width: 5
XAxis mode: Wavelengths
Number of Pixels in Spectrum: 2068
>>>>>Begin Spectral Data<<<<<
199	-0.156
199	-0.139
200	-0.069
200	-0.021
201	0.009
201	0.024
202	0.035
202	0.046
203	0.053
203	0.057
204	0.07
204	0.086
205	0.101
205	0.105
205	0.107
206	0.107
206	0.108
207	0.111
207	0.109
208	0.109
208	0.11
209	0.111
209	0.108
210	0.109
210	0.112
211	0.113
211	0.115
212	0.113
212	0.112
213	0.117
213	0.119
213	0.118
214	0.123
214	0.123
215	0.124
215	0.124
216	0.125
216	0.124
217	0.127
217	0.131
218	0.128
218	0.132
219	0.136
219	0.136
220	0.14
220	0.14
221	0.14
221	0.141
221	0.149
222	0.154
222	0.155
223	0.162
223	0.166
224	0.172
224	0.181
225	0.189
225	0.2
226	0.209
226	0.221
227	0.231
227	0.243
228	0.263
228	0.281
229	0.299
229	0.322
229	0.345
230	0.37
230	0.399
231	0.431
231	0.468
232	0.503
232	0.549
233	0.589
233	0.636
234	0.686
234	0.738
235	0.792
235	0.847
236	0.898
236	0.951
236	1.002
237	1.053
237	1.099
238	1.146
238	1.189
239	1.234
239	1.274
240	1.315
240	1.35
241	1.385
241	1.419
242	1.452
242	1.487
243	1.516
243	1.542
243	1.569
244	1.592
244	1.615
245	1.632
245	1.654
246	1.672
246	1.69
247	1.702
247	1.714
248	1.727
248	1.742
249	1.751
249	1.758
250	1.766
250	1.775
250	1.779
251	1.784
251	1.788
252	1.793
252	1.795
253	1.797
253	1.795
254	1.796
254	1.797
255	1.795
255	1.794
256	1.794
256	1.796
257	1.795
257	1.793
258	1.793
258	1.795
258	1.794
259	1.794
259	1.794
260	1.794
260	1.795
261	1.795
261	1.796
262	1.799
262	1.8
263	1.802
263	1.801
264	1.802
264	1.805
265	1.805
265	1.807
265	1.807
266	1.806
266	1.806
267	1.804
267	1.805
268	1.804
268	1.804
269	1.805
269	1.803
270	1.802
270	1.798
271	1.795
271	1.795
272	1.791
272	1.79
272	1.787
273	1.782
273	1.778
274	1.773
274	1.768
275	1.762
275	1.758
276	1.753
276	1.746
277	1.738
277	1.728
278	1.717
278	1.707
278	1.694
279	1.679
279	1.663
280	1.642
280	1.616
281	1.585
281	1.551
282	1.514
282	1.478
283	1.44
283	1.402
284	1.365
284	1.328
285	1.294
285	1.261
285	1.233
286	1.207
286	1.184
287	1.164
287	1.146
288	1.131
288	1.118
289	1.106
289	1.096
290	1.088
290	1.08
291	1.073
291	1.067
292	1.062
292	1.057
292	1.053
293	1.048
293	1.044
294	1.04
294	1.036
295	1.032
295	1.029
296	1.025
296	1.022
297	1.018
297	1.014
298	1.011
298	1.008
298	1.005
299	1.002
299	0.999
300	0.995
300	0.992
301	0.989
301	0.986
302	0.983
302	0.98
303	0.978
303	0.975
304	0.972
304	0.969
305	0.967
305	0.964
305	0.961
306	0.959
306	0.956
307	0.953
307	0.95
308	0.947
308	0.944
309	0.942
309	0.939
310	0.935
310	0.932
311	0.929
311	0.925
311	0.922
312	0.918
312	0.915
313	0.911
313	0.907
314	0.902
314	0.898
315	0.894
315	0.89
316	0.885
316	0.88
317	0.875
317	0.87
318	0.865
318	0.86
318	0.854
319	0.849
319	0.843
320	0.837
320	0.832
321	0.826
321	0.82
322	0.813
322	0.807
323	0.8
323	0.794
324	0.787
324	0.78
324	0.774
325	0.767
325	0.76
326	0.753
326	0.746
327	0.739
327	0.732
328	0.725
328	0.718
329	0.711
329	0.704
330	0.697
330	0.69
330	0.683
331	0.676
331	0.669
332	0.662
332	0.655
333	0.647
333	0.641
334	0.633
334	0.627
335	0.62
335	0.613
336	0.606
336	0.6
336	0.593
337	0.587
337	0.581
338	0.574
338	0.568
339	0.562
339	0.556
340	0.55
340	0.544
341	0.538
341	0.533
342	0.527
342	0.521
342	0.516
343	0.511
343	0.506
344	0.501
344	0.496
345	0.491
345	0.486
346	0.481
346	0.477
347	0.473
347	0.468
348	0.464
348	0.46
348	0.456
349	0.452
349	0.448
350	0.445
350	0.441
351	0.438
351	0.434
352	0.431
352	0.428
353	0.425
353	0.422
354	0.419
354	0.416
354	0.413
355	0.41
355	0.407
356	0.404
356	0.401
357	0.397
357	0.394
358	0.391
358	0.389
359	0.386
359	0.384
360	0.382
360	0.38
360	0.378
361	0.376
361	0.374
362	0.373
362	0.371
363	0.37
363	0.368
364	0.366
364	0.364
365	0.362
365	0.36
366	0.358
366	0.356
366	0.354
367	0.352
367	0.35
368	0.349
368	0.347
369	0.345
369	0.344
370	0.342
370	0.341
371	0.339
371	0.338
372	0.337
372	0.335
372	0.334
373	0.333
373	0.332
374	0.331
374	0.33
375	0.329
375	0.328
376	0.327
376	0.326
377	0.325
377	0.324
378	0.323
378	0.321
378	0.321
379	0.32
379	0.319
380	0.318
380	0.317
381	0.316
381	0.315
382	0.314
382	0.314
383	0.313
383	0.312
383	0.312
384	0.311
384	0.311
385	0.31
385	0.31
386	0.309
386	0.308
387	0.308
387	0.307
388	0.307
388	0.306
389	0.306
389	0.305
389	0.305
390	0.304
390	0.304
391	0.303
391	0.303
392	0.302
392	0.302
393	0.302
393	0.301
394	0.3
394	0.3
394	0.3
395	0.299
395	0.299
396	0.298
396	0.297
397	0.297
397	0.296
398	0.296
398	0.295
399	0.295
399	0.295
400	0.294
400	0.294
400	0.294
401	0.293
401	0.293
402	0.293
402	0.292
403	0.292
403	0.292
404	0.291
404	0.291
405	0.291
405	0.29
405	0.29
406	0.29
406	0.289
407	0.289
407	0.288
408	0.288
408	0.288
409	0.287
409	0.287
410	0.287
410	0.286
411	0.286
411	0.286
411	0.286
412	0.285
412	0.285
413	0.284
413	0.284
414	0.284
414	0.283
415	0.283
415	0.283
416	0.282
416	0.282
416	0.281
417	0.281
417	0.281
418	0.28
418	0.28
419	0.279
419	0.279
420	0.278
420	0.278
421	0.277
421	0.277
421	0.277
422	0.276
422	0.276
423	0.276
423	0.275
424	0.275
424	0.275
425	0.275
425	0.275
426	0.274
426	0.274
427	0.274
427	0.273
427	0.273
428	0.273
428	0.272
429	0.272
429	0.271
430	0.271
430	0.271
431	0.27
431	0.27
432	0.27
432	0.27
432	0.27
433	0.27
433	0.269
434	0.269
434	0.269
435	0.269
435	0.269
436	0.269
436	0.269
437	0.269
437	0.268
437	0.268
438	0.268
438	0.268
439	0.267
439	0.267
440	0.267
440	0.267
441	0.266
441	0.266
442	0.266
442	0.266
442	0.265
443	0.265
443	0.265
444	0.265
444	0.265
445	0.265
445	0.265
446	0.265
446	0.264
447	0.264
447	0.264
447	0.264
448	0.264
448	0.264
449	0.264
449	0.263
450	0.263
450	0.263
451	0.263
451	0.263
452	0.263
452	0.263
452	0.263
453	0.263
453	0.263
454	0.263
454	0.263
455	0.263
455	0.263
456	0.263
456	0.262
457	0.262
457	0.262
458	0.262
458	0.262
458	0.262
459	0.262
459	0.262
460	0.262
460	0.262
461	0.262
461	0.262
462	0.262
462	0.262
463	0.262
463	0.262
463	0.262
464	0.262
464	0.262
465	0.262
465	0.262
466	0.262
466	0.262
467	0.262
467	0.262
467	0.263
468	0.263
468	0.263
469	0.263
469	0.264
470	0.264
470	0.265
471	0.265
471	0.265
472	0.265
472	0.266
472	0.266
473	0.266
473	0.266
474	0.267
474	0.267
475	0.267
475	0.267
476	0.268
476	0.268
477	0.268
477	0.269
477	0.269
478	0.27
478	0.27
479	0.271
479	0.271
480	0.271
480	0.272
481	0.272
481	0.272
482	0.273
482	0.273
482	0.274
483	0.274
483	0.275
484	0.276
484	0.276
485	0.276
485	0.277
486	0.278
486	0.278
487	0.279
487	0.279
487	0.28
488	0.281
488	0.281
489	0.282
489	0.284
490	0.285
490	0.286
491	0.287
491	0.288
492	0.289
492	0.29
492	0.291
493	0.292
493	0.293
494	0.294
494	0.295
495	0.295
495	0.296
496	0.297
496	0.299
496	0.3
497	0.301
497	0.302
498	0.303
498	0.304
499	0.305
499	0.306
500	0.308
500	0.309
501	0.31
501	0.311
501	0.312
502	0.313
502	0.314
503	0.315
503	0.316
504	0.317
504	0.318
505	0.319
505	0.32
506	0.321
506	0.322
506	0.323
507	0.323
507	0.325
508	0.325
508	0.326
509	0.327
509	0.328
510	0.329
510	0.33
511	0.331
511	0.332
511	0.333
512	0.334
512	0.335
513	0.336
513	0.336
514	0.337
514	0.338
515	0.339
515	0.339
515	0.34
516	0.341
516	0.341
517	0.342
517	0.342
518	0.343
518	0.343
519	0.344
519	0.344
520	0.344
520	0.344
520	0.344
521	0.344
521	0.344
522	0.344
522	0.344
523	0.344
523	0.344
524	0.344
524	0.344
524	0.343
525	0.343
525	0.343
526	0.342
526	0.342
527	0.341
527	0.34
528	0.34
528	0.339
529	0.339
529	0.338
529	0.337
530	0.336
530	0.335
531	0.334
531	0.333
532	0.332
532	0.331
533	0.33
533	0.328
533	0.327
534	0.326
534	0.325
535	0.324
535	0.323
536	0.322
536	0.321
537	0.32
537	0.318
538	0.317
538	0.316
538	0.314
539	0.313
539	0.312
540	0.31
540	0.309
541	0.308
541	0.306
542	0.304
542	0.303
542	0.301
543	0.3
543	0.298
544	0.296
544	0.295
545	0.293
545	0.291
546	0.29
546	0.288
547	0.286
547	0.284
547	0.282
548	0.281
548	0.279
549	0.277
549	0.276
550	0.274
550	0.272
551	0.27
551	0.268
551	0.267
552	0.265
552	0.263
553	0.261
553	0.26
554	0.258
554	0.256
555	0.254
555	0.253
556	0.251
556	0.249
556	0.248
557	0.246
557	0.245
558	0.244
558	0.243
559	0.241
559	0.24
560	0.239
560	0.237
560	0.236
561	0.235
561	0.233
562	0.232
562	0.23
563	0.228
563	0.226
564	0.224
564	0.222
564	0.221
565	0.22
565	0.218
566	0.216
566	0.215
567	0.214
567	0.212
568	0.211
568	0.21
568	0.209
569	0.207
569	0.206
570	0.204
570	0.203
571	0.201
571	0.2
572	0.199
572	0.197
573	0.196
573	0.195
573	0.194
574	0.193
574	0.192
575	0.191
575	0.19
576	0.189
576	0.188
577	0.186
577	0.185
577	0.184
578	0.183
578	0.182
579	0.181
579	0.181
580	0.179
580	0.178
581	0.177
581	0.176
581	0.176
582	0.175
582	0.175
583	0.174
583	0.173
584	0.172
584	0.17
585	0.169
585	0.168
585	0.167
586	0.167
586	0.166
587	0.165
587	0.164
588	0.163
588	0.162
589	0.161
589	0.161
590	0.16
590	0.16
590	0.159
591	0.159
591	0.158
592	0.157
592	0.156
593	0.155
593	0.155
594	0.154
594	0.153
594	0.152
595	0.151
595	0.15
596	0.149
596	0.149
597	0.149
597	0.149
598	0.149
598	0.149
598	0.148
599	0.148
599	0.147
600	0.147
600	0.146
601	0.145
601	0.145
602	0.144
602	0.143
602	0.142
603	0.142
603	0.141
604	0.141
604	0.14
605	0.14
605	0.14
606	0.139
606	0.138
606	0.137
607	0.137
607	0.136
608	0.136
608	0.135
609	0.134
609	0.134
610	0.133
610	0.132
610	0.132
611	0.132
611	0.132
612	0.132
612	0.132
613	0.132
613	0.131
614	0.131
614	0.13
614	0.13
615	0.13
615	0.13
616	0.13
616	0.13
617	0.129
617	0.129
618	0.128
618	0.128
618	0.128
619	0.128
619	0.128
620	0.128
620	0.127
621	0.126
621	0.126
622	0.125
622	0.124
622	0.124
623	0.123
623	0.123
624	0.123
624	0.122
625	0.122
625	0.122
626	0.122
626	0.121
626	0.122
627	0.122
627	0.121
628	0.121
628	0.121
629	0.121
629	0.12
630	0.12
630	0.119
630	0.119
631	0.119
631	0.118
632	0.118
632	0.117
633	0.117
633	0.117
634	0.116
634	0.116
634	0.116
635	0.116
635	0.115
636	0.115
636	0.115
637	0.114
637	0.114
638	0.114
638	0.113
638	0.113
639	0.112
639	0.112
640	0.112
640	0.112
641	0.111
641	0.111
642	0.111
642	0.111
642	0.111
643	0.111
643	0.111
644	0.111
644	0.111
645	0.111
645	0.111
646	0.111
646	0.111
646	0.111
647	0.111
647	0.111
648	0.11
648	0.109
649	0.109
649	0.109
650	0.109
650	0.108
650	0.108
651	0.108
651	0.108
652	0.108
652	0.108
653	0.109
653	0.111
653	0.116
654	0.093
654	0.075
655	0.073
655	0.073
656	0.074
656	0.074
657	0.074
657	0.074
657	0.074
658	0.073
658	0.065
659	0.081
659	0.102
660	0.108
660	0.108
661	0.107
661	0.107
661	0.106
662	0.106
662	0.105
663	0.105
663	0.105
664	0.105
664	0.104
665	0.104
665	0.104
665	0.104
666	0.104
666	0.104
667	0.104
667	0.105
668	0.105
668	0.105
669	0.105
669	0.105
669	0.105
670	0.105
670	0.105
671	0.105
671	0.104
672	0.104
672	0.103
672	0.103
673	0.102
673	0.102
674	0.102
674	0.101
675	0.1
675	0.1
676	0.101
676	0.101
676	0.101
677	0.101
677	0.101
678	0.101
678	0.1
679	0.1
679	0.1
680	0.1
680	0.1
680	0.099
681	0.099
681	0.1
682	0.1
682	0.1
683	0.1
683	0.101
684	0.101
684	0.1
684	0.1
685	0.101
685	0.101
686	0.101
686	0.101
687	0.101
687	0.101
687	0.101
688	0.101
688	0.101
689	0.102
689	0.102
690	0.102
690	0.101
691	0.101
691	0.101
691	0.101
692	0.101
692	0.101
693	0.101
693	0.102
694	0.101
694	0.101
695	0.102
695	0.103
695	0.103
696	0.102
696	0.102
697	0.102
697	0.102
698	0.102
698	0.101
698	0.101
699	0.101
699	0.101
700	0.1
700	0.1
701	0.1
701	0.099
702	0.099
702	0.098
702	0.098
703	0.097
703	0.097
704	0.096
704	0.096
705	0.096
705	0.095
705	0.095
706	0.095
706	0.094
707	0.094
707	0.094
708	0.094
708	0.094
709	0.095
709	0.094
709	0.094
710	0.094
710	0.095
711	0.096
711	0.096
712	0.096
712	0.097
713	0.097
713	0.098
713	0.098
714	0.097
714	0.097
715	0.097
715	0.096
716	0.096
716	0.095
716	0.094
717	0.093
717	0.093
718	0.092
718	0.092
719	0.093
719	0.093
720	0.093
720	0.094
720	0.095
721	0.095
721	0.096
722	0.097
722	0.097
723	0.097
723	0.097
723	0.097
724	0.097
724	0.096
725	0.095
725	0.094
726	0.093
726	0.093
727	0.092
727	0.091
727	0.091
728	0.091
728	0.091
729	0.091
729	0.091
730	0.091
730	0.092
730	0.092
731	0.092
731	0.093
732	0.093
732	0.094
733	0.094
733	0.094
734	0.094
734	0.094
734	0.095
735	0.095
735	0.095
736	0.095
736	0.095
737	0.095
737	0.095
737	0.094
738	0.094
738	0.093
739	0.092
739	0.092
740	0.091
740	0.091
741	0.091
741	0.091
741	0.091
742	0.091
742	0.092
743	0.093
743	0.093
744	0.094
744	0.094
744	0.094
745	0.094
745	0.094
746	0.094
746	0.094
747	0.093
747	0.093
748	0.093
748	0.092
748	0.092
749	0.092
749	0.093
750	0.093
750	0.093
751	0.093
751	0.093
751	0.094
752	0.093
752	0.093
753	0.093
753	0.092
754	0.092
754	0.091
754	0.09
755	0.09
755	0.09
756	0.089
756	0.087
757	0.087
757	0.087
758	0.087
758	0.087
758	0.087
759	0.087
759	0.087
760	0.087
760	0.087
761	0.087
761	0.088
761	0.088
762	0.088
762	0.088
763	0.088
763	0.087
764	0.087
764	0.087
764	0.087
765	0.086
765	0.085
766	0.085
766	0.085
767	0.084
767	0.083
768	0.082
768	0.082
768	0.082
769	0.082
769	0.082
770	0.082
770	0.083
771	0.083
771	0.083
771	0.084
772	0.084
772	0.085
773	0.086
773	0.086
774	0.086
774	0.086
775	0.086
775	0.086
775	0.086
776	0.086
776	0.086
777	0.087
777	0.086
778	0.086
778	0.086
778	0.085
779	0.085
779	0.085
780	0.084
780	0.083
781	0.082
781	0.081
781	0.081
782	0.08
782	0.08
783	0.08
783	0.08
784	0.08
784	0.08
784	0.08
785	0.081
785	0.081
786	0.081
786	0.081
787	0.081
787	0.081
788	0.08
788	0.08
788	0.079
789	0.079
789	0.079
790	0.079
790	0.079
791	0.078
791	0.078
791	0.078
792	0.078
792	0.078
793	0.077
793	0.077
794	0.077
794	0.076
794	0.076
795	0.076
795	0.076
796	0.076
796	0.076
797	0.076
797	0.076
797	0.076
798	0.076
798	0.077
799	0.076
799	0.076
800	0.076
800	0.075
801	0.075
801	0.075
801	0.075
802	0.076
802	0.076
803	0.076
803	0.076
804	0.076
804	0.076
804	0.076
805	0.076
805	0.076
806	0.076
806	0.075
807	0.075
807	0.075
807	0.075
808	0.075
808	0.075
809	0.075
809	0.075
810	0.075
810	0.075
810	0.075
811	0.075
811	0.075
812	0.076
812	0.076
813	0.076
813	0.076
813	0.077
814	0.077
814	0.078
815	0.078
815	0.079
816	0.079
816	0.078
817	0.077
817	0.077
817	0.077
818	0.076
818	0.075
819	0.074
819	0.073
820	0.072
820	0.071
820	0.071
821	0.071
821	0.071
822	0.071
822	0.071
823	0.071
823	0.071
823	0.071
824	0.072
824	0.073
825	0.075
825	0.076
826	0.076
826	0.076
826	0.077
827	0.078
827	0.078
828	0.078
828	0.078
829	0.079
829	0.079
829	0.079
830	0.079
830	0.079
831	0.079
831	0.079
832	0.079
832	0.079
832	0.078
833	0.078
833	0.078
834	0.077
834	0.077
835	0.076
835	0.075
835	0.075
836	0.074
836	0.074
837	0.074
837	0.073
838	0.073
838	0.073
839	0.072
839	0.071
839	0.071
840	0.07
840	0.069
841	0.068
841	0.067
842	0.066
842	0.065
842	0.064
843	0.064
843	0.063
844	0.063
844	0.062
845	0.062
845	0.062
845	0.062
846	0.062
846	0.062
847	0.062
847	0.062
848	0.062
848	0.062
848	0.063
849	0.063
849	0.063
850	0.063
850	0.062
851	0.062
851	0.062
851	0.062
852	0.061
852	0.061
853	0.061
853	0.06
854	0.061
854	0.061
854	0.062
855	0.063
855	0.064
856	0.064
856	0.065
857	0.066
857	0.068
857	0.068
858	0.069
858	0.069
859	0.069
859	0.069
860	0.069
860	0.069
860	0.068
861	0.068
861	0.067
862	0.066
862	0.065
863	0.064
863	0.064
863	0.063
864	0.063
864	0.063
865	0.063
865	0.063
866	0.063
866	0.063
866	0.063
867	0.063
867	0.064
868	0.064
868	0.064
869	0.064
869	0.064
869	0.064
870	0.064
870	0.064
871	0.064
871	0.064
872	0.064
872	0.064
872	0.064
873	0.064
873	0.063
874	0.063
874	0.063
875	0.062
875	0.062
875	0.062
876	0.062
876	0.061
877	0.061
877	0.061
878	0.061
878	0.061
878	0.062
879	0.062
879	0.062
880	0.062
880	0.063
881	0.063
881	0.063
881	0.063
882	0.063
882	0.063
883	0.063
883	0.063
884	0.063
884	0.063
884	0.062
885	0.062
885	0.062
886	0.062
886	0.061
887	0.061
887	0.06
887	0.06
888	0.06
888	0.059
889	0.059
889	0.059
890	0.059
890	0.059
890	0.059
891	0.059
891	0.059
892	0.059
892	0.059
893	0.058
893	0.058
893	0.058
894	0.057
894	0.056
895	0.056
895	0.055
895	0.055
896	0.055
896	0.055
897	0.055
897	0.055
898	0.055
898	0.054
898	0.054
899	0.054
899	0.055
900	0.055
900	0.055
901	0.054
901	0.055
901	0.055
902	0.055
902	0.055
903	0.055
903	0.055
904	0.055
904	0.055
904	0.055
905	0.054
905	0.054
906	0.054
906	0.054
907	0.055
907	0.055
907	0.055
908	0.055
908	0.055
909	0.055
909	0.055
910	0.055
910	0.055
910	0.054
911	0.054
911	0.054
912	0.053
912	0.053
913	0.052
913	0.052
913	0.051
914	0.051
914	0.051
915	0.051
915	0.051
916	0.05
916	0.05
916	0.05
917	0.05
917	0.05
918	0.05
918	0.05
918	0.05
919	0.05
919	0.05
920	0.05
920	0.05
921	0.05
921	0.05
921	0.05
922	0.05
922	0.05
923	0.05
923	0.05
924	0.051
924	0.051
924	0.051
925	0.051
925	0.051
926	0.051
926	0.051
927	0.051
927	0.051
927	0.051
928	0.051
928	0.052
929	0.052
929	0.052
930	0.053
930	0.053
930	0.053
931	0.054
931	0.054
932	0.054
932	0.054
933	0.054
933	0.054
933	0.054
934	0.054
934	0.053
935	0.053
935	0.052
935	0.052
936	0.051
936	0.05
937	0.05
937	0.049
938	0.049
938	0.048
938	0.048
939	0.047
939	0.047
940	0.047
940	0.047
941	0.047
941	0.048
941	0.048
942	0.049
942	0.049
943	0.049
943	0.05
944	0.05
944	0.05
944	0.05
945	0.05
945	0.051
946	0.051
946	0.051
946	0.05
947	0.05
947	0.05
948	0.05
948	0.05
949	0.05
949	0.049
949	0.049
950	0.049
950	0.048
951	0.048
951	0.048
952	0.047
952	0.047
952	0.046
953	0.046
953	0.046
954	0.046
954	0.046
955	0.046
955	0.046
955	0.046
956	0.047
956	0.047
957	0.048
957	0.048
957	0.049
958	0.05
958	0.05
959	0.051
959	0.051
960	0.052
960	0.052
960	0.052
961	0.052
961	0.052
962	0.052
962	0.052
963	0.052
963	0.051
963	0.051
964	0.051
964	0.051
965	0.051
965	0.051
966	0.051
966	0.051
966	0.051
967	0.051
967	0.051
968	0.051
968	0.051
968	0.05
969	0.05
969	0.049
970	0.048
970	0.047
971	0.047
971	0.046
971	0.045
972	0.045
972	0.044
973	0.044
973	0.044
974	0.044
974	0.044
974	0.045
975	0.046
975	0.046
976	0.047
976	0.048
976	0.048
977	0.048
977	0.049
978	0.048
978	0.048
979	0.048
979	0.048
979	0.048
980	0.048
980	0.048
981	0.047
981	0.047
982	0.048
982	0.048
982	0.048
983	0.048
983	0.048
984	0.049
984	0.049
984	0.049
985	0.049
985	0.049
986	0.049
986	0.049
987	0.048
987	0.048
987	0.048
988	0.048
988	0.048
989	0.048
989	0.048
990	0.048
990	0.047
990	0.047
991	0.048
991	0.047
992	0.047
992	0.047
992	0.046
993	0.046
993	0.045
994	0.044
994	0.043
995	0.043
995	0.042
995	0.042
996	0.042
996	0.041
997	0.041
997	0.042
997	0.042
998	0.042
998	0.043
999	0.044
999	0.044
1000	0.045
1000	0.046
1000	0.046
1001	0.046
1001	0.047
1002	0.047
1002	0.047
1003	0.047
1003	0.046
1003	0.046
1004	0.045
1004	0.044
1005	0.043
1005	0.043
1005	0.042
1006	0.041
1006	0.041
1007	0.041
1007	0.04
1008	0.04
1008	0.04
1008	0.04
1009	0.04
1009	0.04
1010	0.04
1010	0.04
1010	0.04
1011	0.039
1011	0.039
1012	0.039
1012	0.039
1013	0.039
1013	0.038
1013	0.038
1014	0.037
1014	0.037
1015	0.037
1015	0.036
1016	0.036
1016	0.036
1016	0.036
1017	0.036
1017	0.035
1018	0.036
1018	0.036
1018	0.036
1019	0.036
1019	0.036
1020	0.036
1020	0.036
1021	0.037
1021	0.037
1021	0.038
1022	0.038
1022	0.038
1023	0.039
1023	0.039
1023	0.039
1024	0.04
1024	0.04
1025	0.039
1025	0.039
1026	0.039
1026	0.039
1026	0.039
1027	0.039
1027	0.039
1028	0.039
1028	0.039
1028	0.04
1029	0.04
1029	0.04
1030	0.04
1030	0.04
1031	0.04
1031	0.041
1031	0.041
1032	0.041
1032	0.041
1033	0.041
1033	0.042
1033	0.042
1034	0.042
1034	0.042
1035	0.042
1035	0.042
1036	0.042
1036	0.043
1036	0.043
1037	0.043
1037	0.043
1038	0.043
1038	0.043
1039	0.043
1039	0.042
1039	0.042
1040	0.042
1040	0.042
1041	0.042
1041	0.041
1041	0.041
1042	0.041
1042	0.04
1043	0.04
1043	0.039
1044	0.039
1044	0.038
1044	0.038
1045	0.038
1045	0.037
1046	0.037
1046	0.037
1046	0.037
1047	0.037
1047	0.037
1048	0.037
1048	0.037
1049	0.037
1049	0.037
1049	0.037
1050	0.037
1050	0.037
1051	0.037
1051	0.037
1051	0.037
1052	0.037
1052	0.037
1053	0.036
1053	0.036
1053	0.036
1054	0.035
1054	0.035
1055	0.035
1055	0.034
1056	0.034
1056	0.033
1056	0.033
1057	0.033
1057	0.032
1058	0.032
1058	0.031
1058	0.031
1059	0.03
1059	0.03
1060	0.03
1060	0.03
1061	0.029
1061	0.029
1061	0.029
1062	0.029
1062	0.029
1063	0.029
1063	0.029
1063	0.029
1064	0.029
1064	0.029
1065	0.029
1065	0.029
1066	0.029
1066	0.029
1066	0.028
1067	0.029
1067	0.029
1068	0.029
1068	0.03
1068	0.03
1069	0.03
1069	0.03
1070	0.03
1070	0.029
1071	0.029
1071	0.029
1071	0.029
1072	0.029
1072	0.028
1073	0.028
1073	0.027
1073	0.027
1074	0.028
1074	0.028
1075	0.028
1075	0.028
1076	0.029
1076	0.029
1076	0.03
1077	0.03
1077	0.03
1078	0.03
1078	0.03
1078	0.029
1079	0.029
1079	0.028
1080	0.027
1080	0.027
1080	0.026
1081	0.026
1081	0.025
1082	0.026
1082	0.026
1083	0.025
1083	0.025
1083	0.026
1084	0.026
1084	0.026
1085	0.026
1085	0.027
1085	0.027
1086	0.028
1086	0.027
1087	0.027
1087	0.027
1088	0.027
1088	0.027
1088	0.027
1089	0.027
1089	0.026
1090	0.026
1090	0.025
1090	0.024
1091	0.025
1091	0.025
1092	0.025
1092	0.025
1092	0.025
1093	0.024
1093	0.025
1094	0.025
1094	0.025
1095	0.025
1095	0.024
1095	0.024
1096	0.023
1096	0.023
1097	0.022
1097	0.022
1097	0.022
1098	0.021
1098	0.019
1099	0.019
1099	0.018
1100	0.017
1100	0.016
1100	0.016
1101	0.014
1101	0.014
1102	0.013
1102	0.012
1102	0.011
1103	0.011
1103	0.011
1104	0.012
1104	0.011
1104	0.01
1105	0.009
1105	0.008
1106	0.006
1106	0.005
1107	0.005
1107	0.006
1107	0.005
1108	0.004
1108	0.002
1109	0.002
1109	0.001
1109	0.003
1110	0.005
1110	0.005
1111	0.008
1111	0.008
