Data from reversibility-20sec_Absorbance__5575__000000000005575.txt Node

Date: Wed Dec 06 19:11:25 CET 2023
User: Marek
Spectrometer: MAYP115816
Trigger mode: 0
Integration Time (sec): 2.000000E-1
Scans to average: 10
Electric dark correction enabled: true
Nonlinearity correction enabled: true
Boxcar width: 5
XAxis mode: Wavelengths
Number of Pixels in Spectrum: 2068
>>>>>Begin Spectral Data<<<<<
199	-0.164
199	-0.138
200	-0.068
200	-0.014
201	0.018
201	0.036
202	0.047
202	0.057
203	0.064
203	0.069
204	0.083
204	0.098
205	0.114
205	0.118
205	0.116
206	0.115
206	0.113
207	0.115
207	0.113
208	0.112
208	0.112
209	0.116
209	0.111
210	0.11
210	0.112
211	0.114
211	0.116
212	0.115
212	0.116
213	0.12
213	0.117
213	0.114
214	0.116
214	0.119
215	0.12
215	0.118
216	0.118
216	0.115
217	0.118
217	0.122
218	0.121
218	0.13
219	0.136
219	0.137
220	0.141
220	0.139
221	0.142
221	0.143
221	0.151
222	0.157
222	0.161
223	0.166
223	0.166
224	0.171
224	0.176
225	0.184
225	0.195
226	0.204
226	0.215
227	0.227
227	0.236
228	0.25
228	0.262
229	0.28
229	0.304
229	0.327
230	0.352
230	0.38
231	0.414
231	0.454
232	0.486
232	0.529
233	0.572
233	0.62
234	0.671
234	0.721
235	0.772
235	0.823
236	0.874
236	0.922
236	0.97
237	1.025
237	1.073
238	1.122
238	1.171
239	1.217
239	1.257
240	1.297
240	1.335
241	1.371
241	1.406
242	1.438
242	1.469
243	1.5
243	1.525
243	1.548
244	1.569
244	1.593
245	1.61
245	1.631
246	1.65
246	1.667
247	1.679
247	1.694
248	1.707
248	1.719
249	1.729
249	1.738
250	1.744
250	1.753
250	1.757
251	1.76
251	1.763
252	1.767
252	1.765
253	1.765
253	1.764
254	1.764
254	1.764
255	1.762
255	1.762
256	1.762
256	1.762
257	1.761
257	1.76
258	1.76
258	1.76
258	1.759
259	1.76
259	1.76
260	1.76
260	1.761
261	1.761
261	1.762
262	1.767
262	1.769
263	1.773
263	1.775
264	1.777
264	1.778
265	1.779
265	1.782
265	1.782
266	1.783
266	1.784
267	1.782
267	1.782
268	1.782
268	1.783
269	1.785
269	1.783
270	1.782
270	1.78
271	1.779
271	1.778
272	1.774
272	1.771
272	1.767
273	1.761
273	1.753
274	1.746
274	1.739
275	1.731
275	1.725
276	1.716
276	1.709
277	1.7
277	1.69
278	1.678
278	1.666
278	1.651
279	1.634
279	1.613
280	1.586
280	1.553
281	1.514
281	1.472
282	1.428
282	1.384
283	1.34
283	1.298
284	1.257
284	1.218
285	1.182
285	1.149
285	1.12
286	1.095
286	1.072
287	1.053
287	1.037
288	1.023
288	1.011
289	1.001
289	0.992
290	0.985
290	0.978
291	0.972
291	0.968
292	0.963
292	0.959
292	0.955
293	0.952
293	0.948
294	0.945
294	0.942
295	0.939
295	0.937
296	0.934
296	0.931
297	0.928
297	0.926
298	0.923
298	0.921
298	0.918
299	0.916
299	0.914
300	0.911
300	0.908
301	0.906
301	0.903
302	0.901
302	0.899
303	0.896
303	0.894
304	0.892
304	0.89
305	0.888
305	0.886
305	0.883
306	0.881
306	0.879
307	0.877
307	0.874
308	0.872
308	0.87
309	0.867
309	0.864
310	0.862
310	0.859
311	0.856
311	0.853
311	0.85
312	0.847
312	0.843
313	0.84
313	0.836
314	0.832
314	0.828
315	0.824
315	0.82
316	0.816
316	0.812
317	0.807
317	0.802
318	0.798
318	0.793
318	0.788
319	0.783
319	0.778
320	0.772
320	0.766
321	0.76
321	0.754
322	0.748
322	0.742
323	0.736
323	0.729
324	0.723
324	0.717
324	0.71
325	0.704
325	0.697
326	0.69
326	0.684
327	0.677
327	0.67
328	0.663
328	0.656
329	0.649
329	0.642
330	0.635
330	0.628
330	0.621
331	0.614
331	0.607
332	0.6
332	0.593
333	0.587
333	0.58
334	0.573
334	0.567
335	0.56
335	0.553
336	0.547
336	0.54
336	0.534
337	0.528
337	0.522
338	0.515
338	0.509
339	0.503
339	0.497
340	0.492
340	0.486
341	0.48
341	0.475
342	0.469
342	0.464
342	0.459
343	0.454
343	0.449
344	0.444
344	0.439
345	0.434
345	0.429
346	0.425
346	0.421
347	0.416
347	0.412
348	0.408
348	0.404
348	0.4
349	0.397
349	0.393
350	0.39
350	0.386
351	0.383
351	0.38
352	0.376
352	0.374
353	0.371
353	0.368
354	0.365
354	0.362
354	0.359
355	0.356
355	0.354
356	0.351
356	0.348
357	0.345
357	0.342
358	0.34
358	0.337
359	0.335
359	0.333
360	0.331
360	0.33
360	0.327
361	0.325
361	0.324
362	0.323
362	0.321
363	0.319
363	0.318
364	0.316
364	0.314
365	0.312
365	0.31
366	0.309
366	0.307
366	0.306
367	0.304
367	0.302
368	0.301
368	0.3
369	0.298
369	0.297
370	0.295
370	0.294
371	0.293
371	0.291
372	0.29
372	0.289
372	0.288
373	0.287
373	0.286
374	0.285
374	0.284
375	0.284
375	0.283
376	0.282
376	0.282
377	0.281
377	0.28
378	0.279
378	0.278
378	0.277
379	0.277
379	0.276
380	0.276
380	0.275
381	0.274
381	0.274
382	0.273
382	0.273
383	0.272
383	0.272
383	0.271
384	0.27
384	0.27
385	0.269
385	0.269
386	0.269
386	0.268
387	0.268
387	0.267
388	0.267
388	0.266
389	0.266
389	0.266
389	0.265
390	0.265
390	0.265
391	0.264
391	0.264
392	0.264
392	0.264
393	0.263
393	0.263
394	0.263
394	0.262
394	0.262
395	0.262
395	0.262
396	0.261
396	0.261
397	0.261
397	0.26
398	0.26
398	0.26
399	0.259
399	0.259
400	0.259
400	0.258
400	0.258
401	0.258
401	0.258
402	0.258
402	0.258
403	0.257
403	0.257
404	0.257
404	0.257
405	0.256
405	0.256
405	0.256
406	0.256
406	0.256
407	0.255
407	0.255
408	0.255
408	0.254
409	0.254
409	0.254
410	0.254
410	0.254
411	0.253
411	0.253
411	0.253
412	0.253
412	0.253
413	0.252
413	0.252
414	0.252
414	0.252
415	0.251
415	0.251
416	0.25
416	0.25
416	0.25
417	0.249
417	0.249
418	0.249
418	0.249
419	0.248
419	0.248
420	0.247
420	0.247
421	0.246
421	0.246
421	0.246
422	0.245
422	0.245
423	0.245
423	0.244
424	0.244
424	0.244
425	0.244
425	0.243
426	0.243
426	0.243
427	0.242
427	0.242
427	0.242
428	0.242
428	0.241
429	0.241
429	0.241
430	0.24
430	0.24
431	0.24
431	0.24
432	0.24
432	0.24
432	0.239
433	0.239
433	0.239
434	0.239
434	0.238
435	0.238
435	0.238
436	0.238
436	0.237
437	0.237
437	0.237
437	0.236
438	0.236
438	0.236
439	0.236
439	0.236
440	0.236
440	0.235
441	0.235
441	0.235
442	0.235
442	0.235
442	0.234
443	0.234
443	0.234
444	0.233
444	0.233
445	0.233
445	0.233
446	0.232
446	0.232
447	0.232
447	0.231
447	0.231
448	0.231
448	0.231
449	0.231
449	0.231
450	0.231
450	0.231
451	0.231
451	0.23
452	0.23
452	0.23
452	0.23
453	0.23
453	0.229
454	0.229
454	0.229
455	0.229
455	0.228
456	0.228
456	0.228
457	0.228
457	0.227
458	0.227
458	0.227
458	0.227
459	0.226
459	0.226
460	0.226
460	0.226
461	0.226
461	0.225
462	0.225
462	0.225
463	0.225
463	0.224
463	0.224
464	0.224
464	0.223
465	0.223
465	0.223
466	0.223
466	0.223
467	0.222
467	0.222
467	0.222
468	0.222
468	0.222
469	0.222
469	0.222
470	0.222
470	0.222
471	0.222
471	0.222
472	0.222
472	0.222
472	0.222
473	0.222
473	0.222
474	0.222
474	0.222
475	0.222
475	0.222
476	0.222
476	0.221
477	0.221
477	0.221
477	0.221
478	0.221
478	0.221
479	0.221
479	0.221
480	0.221
480	0.221
481	0.221
481	0.221
482	0.221
482	0.221
482	0.221
483	0.221
483	0.221
484	0.221
484	0.221
485	0.221
485	0.221
486	0.221
486	0.221
487	0.221
487	0.221
487	0.221
488	0.221
488	0.221
489	0.221
489	0.222
490	0.222
490	0.222
491	0.223
491	0.223
492	0.224
492	0.224
492	0.224
493	0.225
493	0.225
494	0.225
494	0.225
495	0.226
495	0.226
496	0.226
496	0.227
496	0.227
497	0.227
497	0.227
498	0.228
498	0.228
499	0.228
499	0.229
500	0.229
500	0.23
501	0.23
501	0.231
501	0.231
502	0.231
502	0.232
503	0.232
503	0.232
504	0.233
504	0.233
505	0.233
505	0.234
506	0.234
506	0.234
506	0.234
507	0.235
507	0.235
508	0.235
508	0.235
509	0.235
509	0.236
510	0.236
510	0.237
511	0.237
511	0.238
511	0.238
512	0.239
512	0.239
513	0.24
513	0.24
514	0.241
514	0.241
515	0.242
515	0.242
515	0.242
516	0.242
516	0.243
517	0.244
517	0.244
518	0.245
518	0.245
519	0.245
519	0.245
520	0.246
520	0.246
520	0.246
521	0.246
521	0.246
522	0.246
522	0.246
523	0.246
523	0.247
524	0.247
524	0.247
524	0.247
525	0.247
525	0.247
526	0.247
526	0.247
527	0.247
527	0.247
528	0.247
528	0.248
529	0.248
529	0.248
529	0.248
530	0.248
530	0.248
531	0.248
531	0.248
532	0.248
532	0.248
533	0.248
533	0.248
533	0.248
534	0.248
534	0.248
535	0.248
535	0.248
536	0.248
536	0.248
537	0.248
537	0.249
538	0.249
538	0.248
538	0.248
539	0.248
539	0.248
540	0.248
540	0.248
541	0.247
541	0.247
542	0.247
542	0.246
542	0.246
543	0.246
543	0.246
544	0.246
544	0.246
545	0.246
545	0.246
546	0.245
546	0.245
547	0.245
547	0.245
547	0.244
548	0.244
548	0.244
549	0.244
549	0.244
550	0.244
550	0.244
551	0.243
551	0.243
551	0.243
552	0.242
552	0.242
553	0.242
553	0.242
554	0.241
554	0.241
555	0.24
555	0.24
556	0.239
556	0.239
556	0.239
557	0.239
557	0.239
558	0.239
558	0.239
559	0.239
559	0.239
560	0.239
560	0.239
560	0.239
561	0.239
561	0.239
562	0.239
562	0.238
563	0.237
563	0.236
564	0.236
564	0.235
564	0.235
565	0.235
565	0.234
566	0.234
566	0.234
567	0.234
567	0.234
568	0.234
568	0.234
568	0.234
569	0.233
569	0.233
570	0.232
570	0.231
571	0.231
571	0.231
572	0.23
572	0.229
573	0.229
573	0.228
573	0.228
574	0.227
574	0.227
575	0.227
575	0.228
576	0.228
576	0.227
577	0.227
577	0.226
577	0.226
578	0.226
578	0.226
579	0.226
579	0.226
580	0.225
580	0.224
581	0.224
581	0.224
581	0.224
582	0.224
582	0.224
583	0.224
583	0.224
584	0.223
584	0.222
585	0.222
585	0.222
585	0.222
586	0.222
586	0.221
587	0.22
587	0.22
588	0.219
588	0.219
589	0.218
589	0.218
590	0.218
590	0.218
590	0.219
591	0.219
591	0.219
592	0.218
592	0.218
593	0.218
593	0.218
594	0.217
594	0.216
594	0.216
595	0.216
595	0.215
596	0.215
596	0.215
597	0.216
597	0.216
598	0.215
598	0.215
598	0.215
599	0.215
599	0.215
600	0.214
600	0.214
601	0.213
601	0.213
602	0.213
602	0.212
602	0.212
603	0.212
603	0.212
604	0.212
604	0.212
605	0.213
605	0.213
606	0.212
606	0.212
606	0.211
607	0.211
607	0.211
608	0.211
608	0.21
609	0.21
609	0.21
610	0.209
610	0.209
610	0.209
611	0.209
611	0.209
612	0.209
612	0.21
613	0.21
613	0.209
614	0.209
614	0.209
614	0.209
615	0.209
615	0.209
616	0.209
616	0.209
617	0.209
617	0.208
618	0.208
618	0.208
618	0.208
619	0.208
619	0.208
620	0.209
620	0.209
621	0.208
621	0.207
622	0.207
622	0.206
622	0.206
623	0.205
623	0.205
624	0.205
624	0.204
625	0.203
625	0.203
626	0.203
626	0.203
626	0.203
627	0.203
627	0.202
628	0.202
628	0.202
629	0.201
629	0.201
630	0.201
630	0.2
630	0.201
631	0.201
631	0.201
632	0.2
632	0.2
633	0.201
633	0.201
634	0.201
634	0.201
634	0.202
635	0.201
635	0.201
636	0.201
636	0.201
637	0.201
637	0.201
638	0.201
638	0.201
638	0.2
639	0.2
639	0.2
640	0.2
640	0.2
641	0.199
641	0.199
642	0.199
642	0.199
642	0.199
643	0.199
643	0.199
644	0.199
644	0.199
645	0.199
645	0.199
646	0.199
646	0.199
646	0.199
647	0.199
647	0.199
648	0.198
648	0.198
649	0.198
649	0.198
650	0.198
650	0.198
650	0.197
651	0.197
651	0.197
652	0.197
652	0.197
653	0.198
653	0.199
653	0.206
654	0.161
654	0.129
655	0.129
655	0.13
656	0.13
656	0.131
657	0.131
657	0.132
657	0.132
658	0.13
658	0.119
659	0.151
659	0.194
660	0.199
660	0.199
661	0.198
661	0.198
661	0.197
662	0.197
662	0.196
663	0.196
663	0.196
664	0.196
664	0.196
665	0.196
665	0.196
665	0.196
666	0.197
666	0.197
667	0.197
667	0.197
668	0.198
668	0.198
669	0.198
669	0.199
669	0.2
670	0.2
670	0.2
671	0.2
671	0.199
672	0.199
672	0.199
672	0.198
673	0.198
673	0.198
674	0.198
674	0.197
675	0.197
675	0.196
676	0.196
676	0.196
676	0.196
677	0.196
677	0.196
678	0.196
678	0.195
679	0.195
679	0.195
680	0.195
680	0.195
680	0.195
681	0.195
681	0.196
682	0.197
682	0.197
683	0.198
683	0.199
684	0.199
684	0.199
684	0.199
685	0.199
685	0.2
686	0.2
686	0.199
687	0.199
687	0.199
687	0.199
688	0.199
688	0.199
689	0.199
689	0.2
690	0.199
690	0.199
691	0.199
691	0.199
691	0.199
692	0.199
692	0.199
693	0.199
693	0.199
694	0.199
694	0.199
695	0.2
695	0.201
695	0.201
696	0.2
696	0.2
697	0.2
697	0.2
698	0.2
698	0.199
698	0.2
699	0.2
699	0.199
700	0.199
700	0.2
701	0.2
701	0.2
702	0.201
702	0.201
702	0.201
703	0.202
703	0.202
704	0.201
704	0.202
705	0.202
705	0.201
705	0.201
706	0.201
706	0.202
707	0.202
707	0.202
708	0.202
708	0.202
709	0.203
709	0.203
709	0.202
710	0.202
710	0.203
711	0.203
711	0.203
712	0.202
712	0.202
713	0.202
713	0.202
713	0.202
714	0.201
714	0.201
715	0.2
715	0.2
716	0.2
716	0.2
716	0.199
717	0.199
717	0.199
718	0.198
718	0.198
719	0.199
719	0.199
720	0.2
720	0.201
720	0.201
721	0.202
721	0.202
722	0.203
722	0.203
723	0.204
723	0.204
723	0.205
724	0.205
724	0.204
725	0.204
725	0.203
726	0.203
726	0.203
727	0.202
727	0.202
727	0.202
728	0.202
728	0.202
729	0.202
729	0.202
730	0.202
730	0.202
730	0.203
731	0.203
731	0.204
732	0.204
732	0.205
733	0.205
733	0.205
734	0.205
734	0.205
734	0.206
735	0.206
735	0.206
736	0.206
736	0.206
737	0.206
737	0.206
737	0.206
738	0.206
738	0.205
739	0.205
739	0.205
740	0.204
740	0.204
741	0.205
741	0.205
741	0.205
742	0.205
742	0.206
743	0.207
743	0.207
744	0.208
744	0.209
744	0.209
745	0.21
745	0.21
746	0.21
746	0.21
747	0.211
747	0.211
748	0.211
748	0.211
748	0.211
749	0.21
749	0.21
750	0.21
750	0.209
751	0.209
751	0.208
751	0.208
752	0.207
752	0.206
753	0.206
753	0.206
754	0.205
754	0.205
754	0.205
755	0.206
755	0.206
756	0.206
756	0.206
757	0.205
757	0.206
758	0.206
758	0.206
758	0.207
759	0.208
759	0.208
760	0.208
760	0.208
761	0.209
761	0.209
761	0.21
762	0.21
762	0.211
763	0.211
763	0.21
764	0.21
764	0.21
764	0.21
765	0.209
765	0.209
766	0.209
766	0.209
767	0.209
767	0.208
768	0.208
768	0.207
768	0.208
769	0.208
769	0.208
770	0.208
770	0.209
771	0.209
771	0.21
771	0.21
772	0.211
772	0.212
773	0.213
773	0.213
774	0.213
774	0.213
775	0.214
775	0.214
775	0.214
776	0.214
776	0.214
777	0.214
777	0.214
778	0.214
778	0.214
778	0.214
779	0.214
779	0.214
780	0.214
780	0.214
781	0.214
781	0.214
781	0.214
782	0.214
782	0.214
783	0.214
783	0.215
784	0.215
784	0.215
784	0.216
785	0.216
785	0.217
786	0.217
786	0.217
787	0.217
787	0.217
788	0.216
788	0.216
788	0.215
789	0.214
789	0.214
790	0.213
790	0.213
791	0.212
791	0.212
791	0.212
792	0.213
792	0.213
793	0.213
793	0.213
794	0.214
794	0.214
794	0.214
795	0.214
795	0.215
796	0.215
796	0.215
797	0.215
797	0.215
797	0.216
798	0.216
798	0.216
799	0.216
799	0.216
800	0.216
800	0.216
801	0.215
801	0.216
801	0.216
802	0.216
802	0.216
803	0.216
803	0.217
804	0.217
804	0.217
804	0.217
805	0.217
805	0.217
806	0.216
806	0.216
807	0.216
807	0.216
807	0.216
808	0.216
808	0.216
809	0.216
809	0.216
810	0.217
810	0.217
810	0.217
811	0.218
811	0.218
812	0.219
812	0.22
813	0.22
813	0.22
813	0.221
814	0.221
814	0.222
815	0.222
815	0.223
816	0.223
816	0.223
817	0.223
817	0.223
817	0.223
818	0.223
818	0.223
819	0.223
819	0.222
820	0.222
820	0.221
820	0.221
821	0.221
821	0.221
822	0.221
822	0.221
823	0.221
823	0.221
823	0.221
824	0.222
824	0.222
825	0.223
825	0.223
826	0.223
826	0.223
826	0.223
827	0.224
827	0.224
828	0.224
828	0.225
829	0.225
829	0.225
829	0.225
830	0.225
830	0.226
831	0.227
831	0.227
832	0.227
832	0.228
832	0.228
833	0.228
833	0.227
834	0.227
834	0.227
835	0.227
835	0.227
835	0.227
836	0.227
836	0.227
837	0.227
837	0.226
838	0.226
838	0.226
839	0.225
839	0.224
839	0.223
840	0.222
840	0.22
841	0.219
841	0.219
842	0.218
842	0.217
842	0.217
843	0.216
843	0.216
844	0.216
844	0.215
845	0.215
845	0.215
845	0.215
846	0.215
846	0.215
847	0.215
847	0.216
848	0.216
848	0.217
848	0.218
849	0.219
849	0.22
850	0.22
850	0.221
851	0.222
851	0.222
851	0.222
852	0.222
852	0.221
853	0.221
853	0.221
854	0.221
854	0.221
854	0.221
855	0.221
855	0.222
856	0.222
856	0.222
857	0.222
857	0.223
857	0.223
858	0.223
858	0.222
859	0.222
859	0.221
860	0.22
860	0.22
860	0.22
861	0.219
861	0.219
862	0.219
862	0.218
863	0.218
863	0.218
863	0.218
864	0.219
864	0.219
865	0.219
865	0.219
866	0.219
866	0.219
866	0.219
867	0.22
867	0.22
868	0.221
868	0.222
869	0.223
869	0.223
869	0.224
870	0.224
870	0.225
871	0.225
871	0.225
872	0.226
872	0.225
872	0.225
873	0.225
873	0.224
874	0.223
874	0.223
875	0.222
875	0.221
875	0.221
876	0.22
876	0.22
877	0.219
877	0.219
878	0.219
878	0.219
878	0.219
879	0.219
879	0.219
880	0.219
880	0.219
881	0.219
881	0.219
881	0.219
882	0.219
882	0.219
883	0.219
883	0.219
884	0.219
884	0.219
884	0.219
885	0.218
885	0.218
886	0.218
886	0.218
887	0.217
887	0.217
887	0.216
888	0.215
888	0.215
889	0.214
889	0.214
890	0.213
890	0.213
890	0.213
891	0.212
891	0.212
892	0.212
892	0.212
893	0.212
893	0.212
893	0.212
894	0.212
894	0.211
895	0.211
895	0.211
895	0.211
896	0.211
896	0.212
897	0.212
897	0.212
898	0.212
898	0.212
898	0.212
899	0.212
899	0.212
900	0.211
900	0.211
901	0.211
901	0.21
901	0.21
902	0.209
902	0.209
903	0.208
903	0.208
904	0.208
904	0.207
904	0.207
905	0.206
905	0.206
906	0.206
906	0.206
907	0.206
907	0.206
907	0.206
908	0.206
908	0.206
909	0.205
909	0.205
910	0.205
910	0.204
910	0.204
911	0.203
911	0.203
912	0.202
912	0.202
913	0.201
913	0.201
913	0.201
914	0.201
914	0.201
915	0.201
915	0.201
916	0.201
916	0.201
916	0.2
917	0.2
917	0.2
918	0.199
918	0.199
918	0.199
919	0.198
919	0.198
920	0.198
920	0.198
921	0.198
921	0.198
921	0.197
922	0.197
922	0.197
923	0.197
923	0.198
924	0.198
924	0.199
924	0.199
925	0.2
925	0.2
926	0.201
926	0.201
927	0.201
927	0.201
927	0.201
928	0.201
928	0.201
929	0.2
929	0.2
930	0.199
930	0.198
930	0.197
931	0.197
931	0.196
932	0.195
932	0.195
933	0.195
933	0.194
933	0.193
934	0.193
934	0.192
935	0.192
935	0.192
935	0.192
936	0.191
936	0.191
937	0.191
937	0.19
938	0.19
938	0.189
938	0.189
939	0.188
939	0.187
940	0.187
940	0.186
941	0.186
941	0.186
941	0.185
942	0.185
942	0.185
943	0.185
943	0.185
944	0.185
944	0.185
944	0.185
945	0.185
945	0.185
946	0.185
946	0.185
946	0.185
947	0.185
947	0.185
948	0.185
948	0.185
949	0.185
949	0.185
949	0.184
950	0.184
950	0.184
951	0.184
951	0.183
952	0.182
952	0.182
952	0.181
953	0.181
953	0.181
954	0.18
954	0.179
955	0.179
955	0.178
955	0.178
956	0.178
956	0.177
957	0.177
957	0.177
957	0.176
958	0.176
958	0.175
959	0.175
959	0.174
960	0.174
960	0.174
960	0.173
961	0.172
961	0.172
962	0.172
962	0.171
963	0.171
963	0.171
963	0.171
964	0.171
964	0.171
965	0.172
965	0.172
966	0.172
966	0.173
966	0.173
967	0.173
967	0.173
968	0.173
968	0.173
968	0.173
969	0.173
969	0.172
970	0.171
970	0.17
971	0.17
971	0.169
971	0.168
972	0.168
972	0.167
973	0.167
973	0.166
974	0.166
974	0.166
974	0.167
975	0.167
975	0.167
976	0.168
976	0.168
976	0.168
977	0.168
977	0.168
978	0.168
978	0.167
979	0.167
979	0.166
979	0.166
980	0.165
980	0.164
981	0.163
981	0.162
982	0.162
982	0.161
982	0.161
983	0.16
983	0.16
984	0.16
984	0.16
984	0.16
985	0.16
985	0.159
986	0.159
986	0.159
987	0.159
987	0.158
987	0.158
988	0.158
988	0.158
989	0.158
989	0.157
990	0.157
990	0.156
990	0.156
991	0.155
991	0.154
992	0.153
992	0.152
992	0.151
993	0.15
993	0.149
994	0.148
994	0.147
995	0.146
995	0.145
995	0.145
996	0.145
996	0.145
997	0.145
997	0.145
997	0.146
998	0.146
998	0.147
999	0.148
999	0.149
1000	0.15
1000	0.15
1000	0.151
1001	0.151
1001	0.151
1002	0.15
1002	0.15
1003	0.149
1003	0.149
1003	0.148
1004	0.147
1004	0.146
1005	0.145
1005	0.144
1005	0.143
1006	0.142
1006	0.142
1007	0.141
1007	0.141
1008	0.141
1008	0.141
1008	0.141
1009	0.141
1009	0.141
1010	0.142
1010	0.142
1010	0.142
1011	0.142
1011	0.142
1012	0.142
1012	0.142
1013	0.142
1013	0.141
1013	0.141
1014	0.141
1014	0.14
1015	0.14
1015	0.14
1016	0.14
1016	0.14
1016	0.139
1017	0.139
1017	0.139
1018	0.139
1018	0.139
1018	0.139
1019	0.139
1019	0.139
1020	0.139
1020	0.139
1021	0.139
1021	0.14
1021	0.14
1022	0.14
1022	0.14
1023	0.14
1023	0.141
1023	0.141
1024	0.141
1024	0.141
1025	0.141
1025	0.141
1026	0.141
1026	0.141
1026	0.141
1027	0.141
1027	0.14
1028	0.14
1028	0.139
1028	0.139
1029	0.139
1029	0.139
1030	0.139
1030	0.139
1031	0.138
1031	0.139
1031	0.139
1032	0.139
1032	0.139
1033	0.139
1033	0.139
1033	0.139
1034	0.138
1034	0.138
1035	0.137
1035	0.137
1036	0.136
1036	0.136
1036	0.136
1037	0.136
1037	0.136
1038	0.135
1038	0.135
1039	0.135
1039	0.135
1039	0.136
1040	0.135
1040	0.135
1041	0.135
1041	0.135
1041	0.135
1042	0.134
1042	0.134
1043	0.134
1043	0.133
1044	0.133
1044	0.133
1044	0.133
1045	0.133
1045	0.133
1046	0.133
1046	0.133
1046	0.133
1047	0.133
1047	0.134
1048	0.134
1048	0.134
1049	0.134
1049	0.134
1049	0.133
1050	0.133
1050	0.132
1051	0.131
1051	0.131
1051	0.13
1052	0.129
1052	0.128
1053	0.127
1053	0.125
1053	0.125
1054	0.123
1054	0.123
1055	0.122
1055	0.121
1056	0.121
1056	0.12
1056	0.119
1057	0.118
1057	0.118
1058	0.118
1058	0.117
1058	0.116
1059	0.116
1059	0.116
1060	0.115
1060	0.114
1061	0.114
1061	0.113
1061	0.113
1062	0.113
1062	0.112
1063	0.112
1063	0.111
1063	0.111
1064	0.111
1064	0.111
1065	0.11
1065	0.11
1066	0.109
1066	0.109
1066	0.108
1067	0.108
1067	0.107
1068	0.107
1068	0.107
1068	0.106
1069	0.105
1069	0.105
1070	0.105
1070	0.104
1071	0.103
1071	0.103
1071	0.102
1072	0.102
1072	0.101
1073	0.1
1073	0.1
1073	0.099
1074	0.099
1074	0.1
1075	0.099
1075	0.1
1076	0.1
1076	0.1
1076	0.1
1077	0.1
1077	0.101
1078	0.1
1078	0.101
1078	0.101
1079	0.1
1079	0.1
1080	0.099
1080	0.099
1080	0.099
1081	0.098
1081	0.098
1082	0.098
1082	0.098
1083	0.098
1083	0.098
1083	0.098
1084	0.098
1084	0.098
1085	0.098
1085	0.098
1085	0.098
1086	0.098
1086	0.097
1087	0.097
1087	0.096
1088	0.096
1088	0.095
1088	0.096
1089	0.095
1089	0.094
1090	0.093
1090	0.093
1090	0.092
1091	0.091
1091	0.091
1092	0.091
1092	0.091
1092	0.091
1093	0.09
1093	0.091
1094	0.091
1094	0.091
1095	0.091
1095	0.09
1095	0.09
1096	0.09
1096	0.088
1097	0.088
1097	0.087
1097	0.087
1098	0.085
1098	0.083
1099	0.082
1099	0.081
1100	0.08
1100	0.078
1100	0.077
1101	0.075
1101	0.074
1102	0.073
1102	0.071
1102	0.069
1103	0.069
1103	0.068
1104	0.067
1104	0.067
1104	0.066
1105	0.064
1105	0.062
1106	0.061
1106	0.059
1107	0.057
1107	0.056
1107	0.054
1108	0.053
1108	0.051
1109	0.05
1109	0.049
1109	0.049
1110	0.049
1110	0.047
1111	0.048
1111	0.052
