Data from reversibility-20sec_Absorbance__4237__000000000004237.txt Node

Date: Wed Dec 06 11:45:26 CET 2023
User: Marek
Spectrometer: MAYP115816
Trigger mode: 0
Integration Time (sec): 2.000000E-1
Scans to average: 10
Electric dark correction enabled: true
Nonlinearity correction enabled: true
Boxcar width: 5
XAxis mode: Wavelengths
Number of Pixels in Spectrum: 2068
>>>>>Begin Spectral Data<<<<<
199	-0.204
199	-0.175
200	-0.107
200	-0.055
201	-0.023
201	-0.007
202	0.006
202	0.018
203	0.027
203	0.03
204	0.039
204	0.055
205	0.069
205	0.075
205	0.074
206	0.073
206	0.075
207	0.076
207	0.076
208	0.073
208	0.072
209	0.076
209	0.075
210	0.074
210	0.074
211	0.076
211	0.079
212	0.075
212	0.077
213	0.081
213	0.083
213	0.085
214	0.089
214	0.089
215	0.094
215	0.095
216	0.096
216	0.094
217	0.098
217	0.1
218	0.097
218	0.102
219	0.107
219	0.107
220	0.109
220	0.108
221	0.108
221	0.111
221	0.118
222	0.124
222	0.128
223	0.135
223	0.137
224	0.141
224	0.147
225	0.159
225	0.169
226	0.18
226	0.191
227	0.202
227	0.211
228	0.227
228	0.243
229	0.261
229	0.284
229	0.309
230	0.334
230	0.365
231	0.4
231	0.438
232	0.472
232	0.516
233	0.558
233	0.605
234	0.656
234	0.709
235	0.762
235	0.812
236	0.862
236	0.911
236	0.964
237	1.018
237	1.069
238	1.116
238	1.165
239	1.212
239	1.253
240	1.294
240	1.333
241	1.368
241	1.403
242	1.433
242	1.465
243	1.492
243	1.518
243	1.542
244	1.56
244	1.581
245	1.598
245	1.619
246	1.639
246	1.655
247	1.668
247	1.684
248	1.7
248	1.713
249	1.723
249	1.733
250	1.743
250	1.752
250	1.756
251	1.761
251	1.766
252	1.771
252	1.769
253	1.771
253	1.77
254	1.77
254	1.772
255	1.77
255	1.772
256	1.772
256	1.772
257	1.77
257	1.77
258	1.772
258	1.773
258	1.773
259	1.773
259	1.771
260	1.772
260	1.771
261	1.772
261	1.774
262	1.776
262	1.776
263	1.778
263	1.777
264	1.777
264	1.778
265	1.778
265	1.779
265	1.779
266	1.778
266	1.779
267	1.777
267	1.778
268	1.775
268	1.776
269	1.777
269	1.776
270	1.776
270	1.774
271	1.772
271	1.772
272	1.77
272	1.769
272	1.766
273	1.763
273	1.759
274	1.756
274	1.751
275	1.746
275	1.74
276	1.733
276	1.725
277	1.717
277	1.708
278	1.698
278	1.687
278	1.674
279	1.66
279	1.644
280	1.625
280	1.602
281	1.574
281	1.542
282	1.509
282	1.474
283	1.44
283	1.404
284	1.369
284	1.335
285	1.301
285	1.271
285	1.243
286	1.218
286	1.197
287	1.177
287	1.16
288	1.145
288	1.132
289	1.121
289	1.112
290	1.103
290	1.096
291	1.089
291	1.083
292	1.077
292	1.072
292	1.068
293	1.063
293	1.059
294	1.056
294	1.052
295	1.049
295	1.045
296	1.042
296	1.039
297	1.035
297	1.032
298	1.028
298	1.026
298	1.023
299	1.02
299	1.016
300	1.013
300	1.01
301	1.008
301	1.005
302	1.002
302	1
303	0.997
303	0.994
304	0.991
304	0.989
305	0.987
305	0.984
305	0.981
306	0.979
306	0.976
307	0.973
307	0.97
308	0.967
308	0.965
309	0.962
309	0.959
310	0.955
310	0.952
311	0.949
311	0.946
311	0.943
312	0.939
312	0.935
313	0.931
313	0.927
314	0.923
314	0.919
315	0.915
315	0.91
316	0.906
316	0.902
317	0.897
317	0.892
318	0.887
318	0.882
318	0.877
319	0.872
319	0.867
320	0.861
320	0.856
321	0.85
321	0.844
322	0.838
322	0.832
323	0.825
323	0.819
324	0.812
324	0.806
324	0.8
325	0.793
325	0.786
326	0.779
326	0.773
327	0.766
327	0.759
328	0.753
328	0.746
329	0.739
329	0.732
330	0.725
330	0.718
330	0.711
331	0.704
331	0.698
332	0.691
332	0.684
333	0.677
333	0.67
334	0.664
334	0.657
335	0.651
335	0.644
336	0.637
336	0.631
336	0.625
337	0.619
337	0.613
338	0.606
338	0.6
339	0.594
339	0.588
340	0.583
340	0.577
341	0.571
341	0.566
342	0.56
342	0.555
342	0.55
343	0.545
343	0.54
344	0.535
344	0.53
345	0.526
345	0.521
346	0.517
346	0.512
347	0.508
347	0.504
348	0.5
348	0.496
348	0.492
349	0.489
349	0.485
350	0.481
350	0.478
351	0.474
351	0.471
352	0.468
352	0.465
353	0.462
353	0.459
354	0.456
354	0.453
354	0.449
355	0.446
355	0.443
356	0.44
356	0.437
357	0.434
357	0.431
358	0.428
358	0.425
359	0.423
359	0.421
360	0.419
360	0.417
360	0.415
361	0.413
361	0.411
362	0.41
362	0.408
363	0.406
363	0.405
364	0.402
364	0.4
365	0.398
365	0.397
366	0.395
366	0.393
366	0.391
367	0.39
367	0.388
368	0.386
368	0.384
369	0.382
369	0.381
370	0.379
370	0.378
371	0.376
371	0.375
372	0.373
372	0.372
372	0.371
373	0.37
373	0.368
374	0.367
374	0.366
375	0.365
375	0.364
376	0.363
376	0.362
377	0.361
377	0.36
378	0.359
378	0.358
378	0.357
379	0.356
379	0.355
380	0.354
380	0.353
381	0.352
381	0.351
382	0.351
382	0.35
383	0.349
383	0.348
383	0.347
384	0.347
384	0.346
385	0.345
385	0.345
386	0.344
386	0.343
387	0.343
387	0.342
388	0.341
388	0.341
389	0.34
389	0.34
389	0.339
390	0.338
390	0.338
391	0.337
391	0.337
392	0.336
392	0.336
393	0.335
393	0.335
394	0.334
394	0.334
394	0.333
395	0.333
395	0.332
396	0.332
396	0.331
397	0.331
397	0.33
398	0.33
398	0.329
399	0.329
399	0.328
400	0.328
400	0.327
400	0.327
401	0.326
401	0.326
402	0.326
402	0.325
403	0.325
403	0.325
404	0.324
404	0.324
405	0.324
405	0.323
405	0.323
406	0.322
406	0.322
407	0.321
407	0.321
408	0.321
408	0.32
409	0.319
409	0.319
410	0.319
410	0.318
411	0.318
411	0.318
411	0.318
412	0.317
412	0.317
413	0.316
413	0.316
414	0.316
414	0.315
415	0.315
415	0.315
416	0.314
416	0.314
416	0.313
417	0.313
417	0.313
418	0.312
418	0.312
419	0.312
419	0.311
420	0.311
420	0.31
421	0.31
421	0.31
421	0.309
422	0.309
422	0.308
423	0.308
423	0.308
424	0.307
424	0.307
425	0.307
425	0.306
426	0.306
426	0.306
427	0.305
427	0.305
427	0.305
428	0.304
428	0.304
429	0.304
429	0.304
430	0.303
430	0.303
431	0.303
431	0.303
432	0.303
432	0.302
432	0.302
433	0.302
433	0.301
434	0.301
434	0.301
435	0.301
435	0.301
436	0.301
436	0.3
437	0.3
437	0.3
437	0.3
438	0.3
438	0.3
439	0.3
439	0.3
440	0.299
440	0.299
441	0.299
441	0.299
442	0.299
442	0.298
442	0.298
443	0.298
443	0.298
444	0.298
444	0.298
445	0.298
445	0.298
446	0.298
446	0.297
447	0.297
447	0.297
447	0.297
448	0.297
448	0.297
449	0.297
449	0.297
450	0.297
450	0.297
451	0.297
451	0.297
452	0.297
452	0.297
452	0.297
453	0.297
453	0.297
454	0.297
454	0.297
455	0.297
455	0.297
456	0.297
456	0.297
457	0.297
457	0.297
458	0.297
458	0.297
458	0.297
459	0.297
459	0.297
460	0.297
460	0.298
461	0.298
461	0.297
462	0.298
462	0.298
463	0.298
463	0.298
463	0.298
464	0.298
464	0.298
465	0.298
465	0.298
466	0.298
466	0.299
467	0.299
467	0.299
467	0.299
468	0.299
468	0.299
469	0.3
469	0.3
470	0.301
470	0.301
471	0.301
471	0.302
472	0.302
472	0.303
472	0.303
473	0.304
473	0.304
474	0.305
474	0.305
475	0.306
475	0.306
476	0.306
476	0.307
477	0.308
477	0.308
477	0.309
478	0.31
478	0.31
479	0.311
479	0.312
480	0.312
480	0.313
481	0.314
481	0.314
482	0.315
482	0.316
482	0.316
483	0.317
483	0.318
484	0.319
484	0.319
485	0.32
485	0.321
486	0.321
486	0.322
487	0.323
487	0.324
487	0.325
488	0.326
488	0.327
489	0.328
489	0.33
490	0.331
490	0.332
491	0.334
491	0.335
492	0.337
492	0.338
492	0.339
493	0.34
493	0.342
494	0.343
494	0.344
495	0.346
495	0.347
496	0.348
496	0.35
496	0.352
497	0.353
497	0.354
498	0.356
498	0.357
499	0.358
499	0.36
500	0.362
500	0.363
501	0.364
501	0.365
501	0.367
502	0.368
502	0.369
503	0.371
503	0.372
504	0.373
504	0.374
505	0.375
505	0.377
506	0.378
506	0.379
506	0.381
507	0.382
507	0.383
508	0.384
508	0.385
509	0.386
509	0.388
510	0.389
510	0.39
511	0.392
511	0.393
511	0.394
512	0.395
512	0.396
513	0.398
513	0.398
514	0.399
514	0.4
515	0.401
515	0.402
515	0.402
516	0.403
516	0.403
517	0.404
517	0.405
518	0.405
518	0.406
519	0.406
519	0.406
520	0.407
520	0.407
520	0.407
521	0.407
521	0.407
522	0.407
522	0.407
523	0.406
523	0.406
524	0.406
524	0.406
524	0.406
525	0.405
525	0.405
526	0.404
526	0.403
527	0.403
527	0.402
528	0.401
528	0.4
529	0.399
529	0.398
529	0.397
530	0.396
530	0.395
531	0.394
531	0.393
532	0.391
532	0.389
533	0.388
533	0.386
533	0.385
534	0.384
534	0.382
535	0.381
535	0.379
536	0.378
536	0.376
537	0.375
537	0.373
538	0.371
538	0.369
538	0.367
539	0.365
539	0.364
540	0.362
540	0.36
541	0.357
541	0.355
542	0.353
542	0.35
542	0.348
543	0.346
543	0.344
544	0.341
544	0.339
545	0.337
545	0.335
546	0.332
546	0.33
547	0.328
547	0.325
547	0.323
548	0.321
548	0.319
549	0.317
549	0.315
550	0.313
550	0.31
551	0.308
551	0.305
551	0.303
552	0.3
552	0.298
553	0.295
553	0.293
554	0.291
554	0.288
555	0.286
555	0.283
556	0.281
556	0.279
556	0.278
557	0.276
557	0.274
558	0.273
558	0.271
559	0.269
559	0.267
560	0.266
560	0.264
560	0.262
561	0.26
561	0.258
562	0.255
562	0.253
563	0.25
563	0.248
564	0.246
564	0.243
564	0.241
565	0.24
565	0.238
566	0.236
566	0.234
567	0.232
567	0.231
568	0.229
568	0.227
568	0.226
569	0.225
569	0.223
570	0.221
570	0.219
571	0.218
571	0.216
572	0.214
572	0.213
573	0.211
573	0.209
573	0.208
574	0.206
574	0.205
575	0.204
575	0.203
576	0.202
576	0.2
577	0.198
577	0.197
577	0.196
578	0.194
578	0.193
579	0.192
579	0.192
580	0.19
580	0.188
581	0.186
581	0.185
581	0.184
582	0.184
582	0.183
583	0.182
583	0.181
584	0.179
584	0.177
585	0.176
585	0.175
585	0.174
586	0.172
586	0.171
587	0.17
587	0.169
588	0.167
588	0.166
589	0.165
589	0.165
590	0.164
590	0.164
590	0.163
591	0.163
591	0.162
592	0.161
592	0.159
593	0.159
593	0.158
594	0.157
594	0.156
594	0.155
595	0.154
595	0.152
596	0.151
596	0.151
597	0.151
597	0.151
598	0.15
598	0.15
598	0.149
599	0.148
599	0.148
600	0.147
600	0.146
601	0.145
601	0.144
602	0.143
602	0.142
602	0.141
603	0.14
603	0.14
604	0.139
604	0.139
605	0.139
605	0.138
606	0.138
606	0.137
606	0.136
607	0.136
607	0.135
608	0.134
608	0.133
609	0.132
609	0.132
610	0.131
610	0.13
610	0.13
611	0.13
611	0.129
612	0.129
612	0.129
613	0.128
613	0.128
614	0.127
614	0.126
614	0.126
615	0.125
615	0.125
616	0.124
616	0.124
617	0.124
617	0.123
618	0.122
618	0.122
618	0.122
619	0.122
619	0.122
620	0.122
620	0.122
621	0.121
621	0.121
622	0.12
622	0.119
622	0.119
623	0.118
623	0.117
624	0.117
624	0.116
625	0.115
625	0.115
626	0.114
626	0.114
626	0.113
627	0.113
627	0.112
628	0.112
628	0.111
629	0.111
629	0.11
630	0.11
630	0.11
630	0.109
631	0.109
631	0.109
632	0.109
632	0.108
633	0.108
633	0.108
634	0.108
634	0.108
634	0.108
635	0.108
635	0.107
636	0.107
636	0.107
637	0.106
637	0.106
638	0.106
638	0.105
638	0.105
639	0.104
639	0.103
640	0.103
640	0.103
641	0.103
641	0.103
642	0.103
642	0.103
642	0.103
643	0.103
643	0.103
644	0.103
644	0.103
645	0.103
645	0.103
646	0.102
646	0.102
646	0.101
647	0.101
647	0.1
648	0.099
648	0.099
649	0.098
649	0.098
650	0.098
650	0.098
650	0.098
651	0.098
651	0.097
652	0.097
652	0.097
653	0.098
653	0.099
653	0.106
654	0.085
654	0.069
655	0.066
655	0.066
656	0.066
656	0.066
657	0.067
657	0.067
657	0.067
658	0.066
658	0.058
659	0.072
659	0.091
660	0.097
660	0.097
661	0.096
661	0.096
661	0.095
662	0.094
662	0.094
663	0.093
663	0.093
664	0.092
664	0.092
665	0.091
665	0.091
665	0.091
666	0.09
666	0.09
667	0.09
667	0.09
668	0.09
668	0.09
669	0.09
669	0.09
669	0.091
670	0.091
670	0.091
671	0.091
671	0.091
672	0.09
672	0.09
672	0.09
673	0.09
673	0.089
674	0.089
674	0.089
675	0.088
675	0.088
676	0.088
676	0.089
676	0.088
677	0.088
677	0.088
678	0.088
678	0.088
679	0.087
679	0.087
680	0.087
680	0.086
680	0.086
681	0.086
681	0.086
682	0.086
682	0.085
683	0.085
683	0.085
684	0.086
684	0.085
684	0.085
685	0.085
685	0.085
686	0.085
686	0.085
687	0.085
687	0.085
687	0.085
688	0.085
688	0.085
689	0.086
689	0.087
690	0.086
690	0.086
691	0.086
691	0.086
691	0.086
692	0.086
692	0.086
693	0.086
693	0.086
694	0.085
694	0.085
695	0.085
695	0.086
695	0.086
696	0.086
696	0.085
697	0.085
697	0.085
698	0.084
698	0.084
698	0.084
699	0.084
699	0.083
700	0.083
700	0.083
701	0.083
701	0.083
702	0.083
702	0.083
702	0.083
703	0.083
703	0.082
704	0.082
704	0.081
705	0.081
705	0.081
705	0.08
706	0.08
706	0.08
707	0.08
707	0.079
708	0.08
708	0.08
709	0.079
709	0.079
709	0.079
710	0.078
710	0.078
711	0.079
711	0.078
712	0.078
712	0.078
713	0.078
713	0.078
713	0.078
714	0.078
714	0.078
715	0.078
715	0.078
716	0.078
716	0.077
716	0.077
717	0.076
717	0.076
718	0.075
718	0.075
719	0.075
719	0.075
720	0.075
720	0.076
720	0.076
721	0.076
721	0.076
722	0.077
722	0.077
723	0.077
723	0.078
723	0.078
724	0.077
724	0.077
725	0.076
725	0.075
726	0.074
726	0.073
727	0.072
727	0.072
727	0.071
728	0.071
728	0.07
729	0.07
729	0.07
730	0.07
730	0.071
730	0.071
731	0.072
731	0.072
732	0.073
732	0.073
733	0.073
733	0.073
734	0.073
734	0.073
734	0.073
735	0.073
735	0.073
736	0.072
736	0.072
737	0.071
737	0.071
737	0.071
738	0.07
738	0.069
739	0.069
739	0.069
740	0.068
740	0.068
741	0.069
741	0.069
741	0.069
742	0.069
742	0.069
743	0.07
743	0.07
744	0.071
744	0.071
744	0.07
745	0.07
745	0.07
746	0.07
746	0.07
747	0.07
747	0.069
748	0.069
748	0.069
748	0.069
749	0.068
749	0.068
750	0.068
750	0.068
751	0.067
751	0.067
751	0.067
752	0.066
752	0.066
753	0.066
753	0.066
754	0.066
754	0.066
754	0.067
755	0.067
755	0.067
756	0.067
756	0.066
757	0.066
757	0.066
758	0.065
758	0.065
758	0.064
759	0.064
759	0.063
760	0.063
760	0.063
761	0.063
761	0.063
761	0.064
762	0.064
762	0.065
763	0.065
763	0.065
764	0.064
764	0.064
764	0.064
765	0.064
765	0.064
766	0.063
766	0.063
767	0.062
767	0.061
768	0.06
768	0.059
768	0.059
769	0.058
769	0.058
770	0.058
770	0.058
771	0.058
771	0.058
771	0.058
772	0.059
772	0.059
773	0.06
773	0.06
774	0.06
774	0.06
775	0.06
775	0.06
775	0.06
776	0.06
776	0.06
777	0.06
777	0.06
778	0.06
778	0.06
778	0.06
779	0.061
779	0.061
780	0.06
780	0.06
781	0.06
781	0.06
781	0.06
782	0.06
782	0.06
783	0.06
783	0.06
784	0.06
784	0.06
784	0.06
785	0.06
785	0.06
786	0.06
786	0.06
787	0.06
787	0.06
788	0.059
788	0.059
788	0.058
789	0.057
789	0.057
790	0.057
790	0.057
791	0.056
791	0.055
791	0.055
792	0.055
792	0.055
793	0.054
793	0.054
794	0.054
794	0.053
794	0.053
795	0.054
795	0.054
796	0.054
796	0.054
797	0.053
797	0.054
797	0.054
798	0.054
798	0.055
799	0.055
799	0.055
800	0.055
800	0.054
801	0.054
801	0.054
801	0.054
802	0.054
802	0.054
803	0.055
803	0.055
804	0.055
804	0.056
804	0.057
805	0.057
805	0.057
806	0.057
806	0.057
807	0.057
807	0.057
807	0.056
808	0.056
808	0.056
809	0.055
809	0.055
810	0.054
810	0.054
810	0.053
811	0.053
811	0.053
812	0.054
812	0.054
813	0.054
813	0.054
813	0.054
814	0.054
814	0.055
815	0.055
815	0.055
816	0.055
816	0.054
817	0.054
817	0.054
817	0.053
818	0.053
818	0.053
819	0.053
819	0.052
820	0.051
820	0.051
820	0.051
821	0.051
821	0.051
822	0.051
822	0.052
823	0.052
823	0.052
823	0.052
824	0.053
824	0.054
825	0.055
825	0.055
826	0.055
826	0.055
826	0.055
827	0.055
827	0.054
828	0.054
828	0.053
829	0.053
829	0.052
829	0.052
830	0.052
830	0.052
831	0.053
831	0.053
832	0.052
832	0.053
832	0.053
833	0.053
833	0.052
834	0.052
834	0.052
835	0.052
835	0.052
835	0.052
836	0.052
836	0.053
837	0.053
837	0.053
838	0.053
838	0.054
839	0.054
839	0.053
839	0.053
840	0.052
840	0.051
841	0.049
841	0.048
842	0.047
842	0.046
842	0.046
843	0.045
843	0.044
844	0.044
844	0.044
845	0.044
845	0.044
845	0.044
846	0.044
846	0.044
847	0.045
847	0.045
848	0.046
848	0.046
848	0.047
849	0.047
849	0.047
850	0.048
850	0.048
851	0.049
851	0.049
851	0.049
852	0.049
852	0.048
853	0.048
853	0.048
854	0.048
854	0.048
854	0.048
855	0.048
855	0.049
856	0.049
856	0.049
857	0.049
857	0.05
857	0.05
858	0.049
858	0.049
859	0.048
859	0.047
860	0.046
860	0.045
860	0.044
861	0.043
861	0.042
862	0.041
862	0.04
863	0.04
863	0.039
863	0.039
864	0.039
864	0.039
865	0.04
865	0.04
866	0.04
866	0.04
866	0.041
867	0.041
867	0.041
868	0.041
868	0.041
869	0.041
869	0.041
869	0.041
870	0.041
870	0.041
871	0.041
871	0.041
872	0.042
872	0.042
872	0.042
873	0.042
873	0.041
874	0.041
874	0.041
875	0.041
875	0.041
875	0.041
876	0.041
876	0.041
877	0.041
877	0.042
878	0.042
878	0.043
878	0.044
879	0.045
879	0.045
880	0.046
880	0.046
881	0.046
881	0.046
881	0.046
882	0.045
882	0.045
883	0.044
883	0.044
884	0.044
884	0.043
884	0.043
885	0.043
885	0.043
886	0.042
886	0.042
887	0.042
887	0.041
887	0.041
888	0.041
888	0.04
889	0.04
889	0.04
890	0.04
890	0.04
890	0.04
891	0.04
891	0.04
892	0.04
892	0.04
893	0.041
893	0.041
893	0.041
894	0.041
894	0.041
895	0.041
895	0.041
895	0.04
896	0.04
896	0.039
897	0.039
897	0.038
898	0.038
898	0.037
898	0.037
899	0.036
899	0.036
900	0.036
900	0.036
901	0.036
901	0.036
901	0.036
902	0.036
902	0.037
903	0.037
903	0.037
904	0.038
904	0.038
904	0.038
905	0.038
905	0.038
906	0.039
906	0.039
907	0.04
907	0.041
907	0.041
908	0.041
908	0.041
909	0.041
909	0.042
910	0.042
910	0.042
910	0.041
911	0.041
911	0.041
912	0.04
912	0.04
913	0.04
913	0.04
913	0.04
914	0.04
914	0.039
915	0.039
915	0.039
916	0.039
916	0.038
916	0.037
917	0.037
917	0.036
918	0.036
918	0.035
918	0.034
919	0.034
919	0.034
920	0.034
920	0.034
921	0.035
921	0.035
921	0.035
922	0.036
922	0.036
923	0.037
923	0.038
924	0.039
924	0.039
924	0.04
925	0.041
925	0.041
926	0.041
926	0.042
927	0.042
927	0.042
927	0.042
928	0.042
928	0.043
929	0.043
929	0.043
930	0.042
930	0.042
930	0.042
931	0.042
931	0.043
932	0.043
932	0.043
933	0.042
933	0.042
933	0.042
934	0.041
934	0.041
935	0.041
935	0.04
935	0.04
936	0.039
936	0.039
937	0.039
937	0.038
938	0.038
938	0.038
938	0.037
939	0.037
939	0.037
940	0.037
940	0.037
941	0.037
941	0.037
941	0.037
942	0.038
942	0.038
943	0.038
943	0.038
944	0.038
944	0.038
944	0.038
945	0.038
945	0.038
946	0.038
946	0.037
946	0.037
947	0.037
947	0.038
948	0.038
948	0.037
949	0.037
949	0.038
949	0.038
950	0.038
950	0.038
951	0.039
951	0.039
952	0.039
952	0.039
952	0.039
953	0.039
953	0.039
954	0.039
954	0.038
955	0.038
955	0.037
955	0.037
956	0.037
956	0.037
957	0.038
957	0.038
957	0.038
958	0.039
958	0.039
959	0.04
959	0.04
960	0.04
960	0.041
960	0.041
961	0.041
961	0.041
962	0.041
962	0.041
963	0.04
963	0.04
963	0.04
964	0.04
964	0.041
965	0.041
965	0.041
966	0.041
966	0.041
966	0.041
967	0.042
967	0.042
968	0.042
968	0.042
968	0.042
969	0.042
969	0.042
970	0.041
970	0.041
971	0.04
971	0.04
971	0.04
972	0.039
972	0.039
973	0.039
973	0.039
974	0.039
974	0.039
974	0.039
975	0.04
975	0.04
976	0.041
976	0.041
976	0.041
977	0.042
977	0.042
978	0.042
978	0.042
979	0.042
979	0.042
979	0.042
980	0.042
980	0.042
981	0.041
981	0.04
982	0.04
982	0.039
982	0.039
983	0.038
983	0.037
984	0.036
984	0.035
984	0.034
985	0.033
985	0.033
986	0.032
986	0.031
987	0.031
987	0.03
987	0.03
988	0.029
988	0.029
989	0.028
989	0.028
990	0.028
990	0.027
990	0.027
991	0.027
991	0.026
992	0.026
992	0.026
992	0.025
993	0.026
993	0.025
994	0.025
994	0.026
995	0.026
995	0.026
995	0.026
996	0.027
996	0.027
997	0.028
997	0.029
997	0.029
998	0.03
998	0.031
999	0.032
999	0.033
1000	0.034
1000	0.034
1000	0.035
1001	0.035
1001	0.036
1002	0.036
1002	0.036
1003	0.036
1003	0.036
1003	0.036
1004	0.036
1004	0.036
1005	0.035
1005	0.035
1005	0.035
1006	0.035
1006	0.035
1007	0.035
1007	0.034
1008	0.034
1008	0.034
1008	0.034
1009	0.034
1009	0.034
1010	0.033
1010	0.033
1010	0.033
1011	0.033
1011	0.032
1012	0.032
1012	0.032
1013	0.032
1013	0.031
1013	0.031
1014	0.031
1014	0.031
1015	0.031
1015	0.031
1016	0.031
1016	0.03
1016	0.03
1017	0.03
1017	0.029
1018	0.029
1018	0.029
1018	0.029
1019	0.029
1019	0.028
1020	0.028
1020	0.028
1021	0.028
1021	0.028
1021	0.028
1022	0.029
1022	0.029
1023	0.029
1023	0.029
1023	0.03
1024	0.03
1024	0.03
1025	0.03
1025	0.03
1026	0.029
1026	0.029
1026	0.028
1027	0.028
1027	0.027
1028	0.026
1028	0.026
1028	0.025
1029	0.025
1029	0.024
1030	0.024
1030	0.024
1031	0.024
1031	0.024
1031	0.023
1032	0.023
1032	0.024
1033	0.023
1033	0.023
1033	0.023
1034	0.023
1034	0.023
1035	0.023
1035	0.022
1036	0.023
1036	0.022
1036	0.022
1037	0.022
1037	0.022
1038	0.023
1038	0.023
1039	0.023
1039	0.023
1039	0.024
1040	0.024
1040	0.025
1041	0.025
1041	0.026
1041	0.026
1042	0.027
1042	0.028
1043	0.028
1043	0.029
1044	0.029
1044	0.03
1044	0.03
1045	0.031
1045	0.031
1046	0.032
1046	0.032
1046	0.032
1047	0.033
1047	0.033
1048	0.034
1048	0.034
1049	0.034
1049	0.035
1049	0.034
1050	0.034
1050	0.034
1051	0.034
1051	0.033
1051	0.033
1052	0.032
1052	0.032
1053	0.031
1053	0.031
1053	0.03
1054	0.029
1054	0.029
1055	0.029
1055	0.029
1056	0.029
1056	0.028
1056	0.028
1057	0.028
1057	0.027
1058	0.027
1058	0.026
1058	0.026
1059	0.025
1059	0.025
1060	0.024
1060	0.024
1061	0.024
1061	0.024
1061	0.024
1062	0.023
1062	0.024
1063	0.023
1063	0.023
1063	0.023
1064	0.023
1064	0.023
1065	0.023
1065	0.023
1066	0.023
1066	0.023
1066	0.023
1067	0.023
1067	0.023
1068	0.023
1068	0.023
1068	0.023
1069	0.023
1069	0.022
1070	0.022
1070	0.021
1071	0.021
1071	0.021
1071	0.02
1072	0.02
1072	0.02
1073	0.019
1073	0.019
1073	0.018
1074	0.019
1074	0.019
1075	0.019
1075	0.019
1076	0.019
1076	0.02
1076	0.02
1077	0.02
1077	0.02
1078	0.02
1078	0.021
1078	0.021
1079	0.021
1079	0.021
1080	0.021
1080	0.021
1080	0.021
1081	0.021
1081	0.022
1082	0.022
1082	0.022
1083	0.022
1083	0.022
1083	0.022
1084	0.022
1084	0.022
1085	0.022
1085	0.021
1085	0.021
1086	0.021
1086	0.021
1087	0.02
1087	0.02
1088	0.02
1088	0.019
1088	0.019
1089	0.018
1089	0.018
1090	0.017
1090	0.017
1090	0.016
1091	0.015
1091	0.015
1092	0.015
1092	0.014
1092	0.014
1093	0.014
1093	0.014
1094	0.014
1094	0.014
1095	0.014
1095	0.014
1095	0.014
1096	0.014
1096	0.013
1097	0.013
1097	0.012
1097	0.012
1098	0.011
1098	0.011
1099	0.01
1099	0.009
1100	0.008
1100	0.007
1100	0.006
1101	0.005
1101	0.005
1102	0.004
1102	0.003
1102	0.003
1103	0.002
1103	0.002
1104	0.002
1104	0.002
1104	0.002
1105	0.001
1105	-0.001
1106	-0.002
1106	-0.003
1107	-0.004
1107	-0.004
1107	-0.005
1108	-0.006
1108	-0.007
1109	-0.009
1109	-0.01
1109	-0.01
1110	-0.009
1110	-0.011
1111	-0.01
1111	-0.009
