Data from reversibility-20sec_Absorbance__4212__000000000004212.txt Node

Date: Wed Dec 06 11:37:06 CET 2023
User: Marek
Spectrometer: MAYP115816
Trigger mode: 0
Integration Time (sec): 2.000000E-1
Scans to average: 10
Electric dark correction enabled: true
Nonlinearity correction enabled: true
Boxcar width: 5
XAxis mode: Wavelengths
Number of Pixels in Spectrum: 2068
>>>>>Begin Spectral Data<<<<<
199	-0.119
199	-0.093
200	-0.03
200	0.024
201	0.048
201	0.062
202	0.074
202	0.085
203	0.094
203	0.099
204	0.111
204	0.126
205	0.139
205	0.148
205	0.146
206	0.148
206	0.148
207	0.151
207	0.151
208	0.149
208	0.147
209	0.149
209	0.143
210	0.142
210	0.141
211	0.141
211	0.143
212	0.143
212	0.146
213	0.145
213	0.147
213	0.144
214	0.148
214	0.15
215	0.152
215	0.151
216	0.151
216	0.151
217	0.153
217	0.152
218	0.15
218	0.151
219	0.158
219	0.16
220	0.161
220	0.161
221	0.161
221	0.166
221	0.169
222	0.173
222	0.179
223	0.187
223	0.191
224	0.194
224	0.2
225	0.211
225	0.222
226	0.231
226	0.24
227	0.251
227	0.259
228	0.275
228	0.291
229	0.308
229	0.334
229	0.358
230	0.379
230	0.407
231	0.438
231	0.475
232	0.512
232	0.556
233	0.597
233	0.644
234	0.697
234	0.751
235	0.8
235	0.854
236	0.908
236	0.964
236	1.02
237	1.07
237	1.121
238	1.17
238	1.215
239	1.259
239	1.3
240	1.34
240	1.379
241	1.414
241	1.446
242	1.475
242	1.508
243	1.535
243	1.559
243	1.586
244	1.608
244	1.628
245	1.648
245	1.669
246	1.688
246	1.704
247	1.716
247	1.729
248	1.744
248	1.759
249	1.766
249	1.774
250	1.778
250	1.782
250	1.785
251	1.786
251	1.787
252	1.789
252	1.788
253	1.786
253	1.78
254	1.779
254	1.778
255	1.776
255	1.776
256	1.774
256	1.772
257	1.769
257	1.769
258	1.77
258	1.77
258	1.772
259	1.772
259	1.772
260	1.771
260	1.773
261	1.775
261	1.779
262	1.783
262	1.785
263	1.789
263	1.79
264	1.792
264	1.793
265	1.795
265	1.797
265	1.797
266	1.797
266	1.797
267	1.794
267	1.793
268	1.791
268	1.793
269	1.794
269	1.793
270	1.792
270	1.792
271	1.79
271	1.788
272	1.785
272	1.783
272	1.78
273	1.773
273	1.764
274	1.757
274	1.749
275	1.741
275	1.732
276	1.723
276	1.716
277	1.709
277	1.698
278	1.687
278	1.674
278	1.658
279	1.64
279	1.617
280	1.589
280	1.556
281	1.516
281	1.472
282	1.426
282	1.382
283	1.338
283	1.296
284	1.255
284	1.216
285	1.18
285	1.147
285	1.118
286	1.093
286	1.071
287	1.052
287	1.036
288	1.022
288	1.01
289	1.001
289	0.993
290	0.986
290	0.979
291	0.974
291	0.969
292	0.965
292	0.961
292	0.958
293	0.954
293	0.951
294	0.948
294	0.946
295	0.943
295	0.94
296	0.938
296	0.935
297	0.932
297	0.93
298	0.927
298	0.925
298	0.922
299	0.92
299	0.917
300	0.915
300	0.912
301	0.91
301	0.908
302	0.906
302	0.904
303	0.901
303	0.899
304	0.897
304	0.895
305	0.893
305	0.891
305	0.889
306	0.887
306	0.885
307	0.883
307	0.88
308	0.878
308	0.876
309	0.873
309	0.871
310	0.868
310	0.866
311	0.863
311	0.86
311	0.857
312	0.854
312	0.85
313	0.847
313	0.844
314	0.84
314	0.836
315	0.832
315	0.828
316	0.824
316	0.82
317	0.816
317	0.811
318	0.806
318	0.801
318	0.796
319	0.791
319	0.786
320	0.78
320	0.775
321	0.769
321	0.763
322	0.757
322	0.751
323	0.745
323	0.739
324	0.732
324	0.726
324	0.719
325	0.713
325	0.706
326	0.7
326	0.693
327	0.686
327	0.679
328	0.673
328	0.666
329	0.659
329	0.652
330	0.645
330	0.638
330	0.631
331	0.624
331	0.618
332	0.611
332	0.604
333	0.598
333	0.591
334	0.584
334	0.577
335	0.571
335	0.564
336	0.558
336	0.551
336	0.545
337	0.539
337	0.533
338	0.526
338	0.521
339	0.515
339	0.509
340	0.503
340	0.498
341	0.492
341	0.487
342	0.481
342	0.476
342	0.471
343	0.466
343	0.46
344	0.456
344	0.451
345	0.446
345	0.442
346	0.437
346	0.433
347	0.429
347	0.425
348	0.42
348	0.417
348	0.413
349	0.409
349	0.406
350	0.402
350	0.399
351	0.396
351	0.392
352	0.389
352	0.386
353	0.384
353	0.381
354	0.378
354	0.375
354	0.372
355	0.369
355	0.366
356	0.364
356	0.361
357	0.358
357	0.355
358	0.353
358	0.35
359	0.348
359	0.346
360	0.344
360	0.342
360	0.34
361	0.338
361	0.337
362	0.336
362	0.334
363	0.332
363	0.331
364	0.329
364	0.327
365	0.325
365	0.324
366	0.322
366	0.32
366	0.318
367	0.317
367	0.315
368	0.314
368	0.312
369	0.311
369	0.309
370	0.308
370	0.307
371	0.305
371	0.304
372	0.303
372	0.302
372	0.301
373	0.3
373	0.299
374	0.298
374	0.298
375	0.297
375	0.296
376	0.295
376	0.295
377	0.294
377	0.293
378	0.292
378	0.291
378	0.29
379	0.29
379	0.289
380	0.288
380	0.287
381	0.287
381	0.286
382	0.285
382	0.285
383	0.284
383	0.283
383	0.283
384	0.282
384	0.282
385	0.281
385	0.281
386	0.281
386	0.28
387	0.28
387	0.279
388	0.279
388	0.279
389	0.278
389	0.278
389	0.278
390	0.278
390	0.277
391	0.277
391	0.277
392	0.276
392	0.276
393	0.276
393	0.275
394	0.275
394	0.274
394	0.274
395	0.274
395	0.273
396	0.273
396	0.273
397	0.272
397	0.272
398	0.272
398	0.271
399	0.271
399	0.271
400	0.271
400	0.27
400	0.27
401	0.27
401	0.27
402	0.27
402	0.269
403	0.269
403	0.269
404	0.269
404	0.269
405	0.268
405	0.268
405	0.268
406	0.268
406	0.267
407	0.267
407	0.266
408	0.266
408	0.266
409	0.266
409	0.265
410	0.265
410	0.265
411	0.265
411	0.264
411	0.264
412	0.264
412	0.264
413	0.263
413	0.263
414	0.263
414	0.263
415	0.262
415	0.262
416	0.261
416	0.261
416	0.261
417	0.26
417	0.26
418	0.26
418	0.26
419	0.259
419	0.259
420	0.258
420	0.258
421	0.258
421	0.257
421	0.257
422	0.257
422	0.257
423	0.256
423	0.256
424	0.256
424	0.255
425	0.255
425	0.255
426	0.254
426	0.254
427	0.253
427	0.253
427	0.253
428	0.252
428	0.252
429	0.252
429	0.251
430	0.251
430	0.251
431	0.251
431	0.251
432	0.251
432	0.251
432	0.251
433	0.25
433	0.25
434	0.25
434	0.25
435	0.25
435	0.25
436	0.249
436	0.249
437	0.249
437	0.249
437	0.248
438	0.248
438	0.248
439	0.248
439	0.248
440	0.247
440	0.247
441	0.247
441	0.247
442	0.246
442	0.246
442	0.246
443	0.246
443	0.246
444	0.245
444	0.245
445	0.245
445	0.245
446	0.245
446	0.244
447	0.244
447	0.244
447	0.243
448	0.243
448	0.243
449	0.243
449	0.242
450	0.242
450	0.242
451	0.242
451	0.242
452	0.241
452	0.241
452	0.241
453	0.241
453	0.241
454	0.241
454	0.24
455	0.24
455	0.24
456	0.24
456	0.239
457	0.239
457	0.239
458	0.239
458	0.238
458	0.238
459	0.238
459	0.238
460	0.238
460	0.237
461	0.237
461	0.237
462	0.237
462	0.236
463	0.236
463	0.236
463	0.236
464	0.235
464	0.235
465	0.235
465	0.235
466	0.234
466	0.234
467	0.234
467	0.234
467	0.234
468	0.234
468	0.234
469	0.234
469	0.234
470	0.234
470	0.234
471	0.234
471	0.234
472	0.234
472	0.234
472	0.234
473	0.234
473	0.234
474	0.234
474	0.233
475	0.233
475	0.233
476	0.233
476	0.233
477	0.233
477	0.233
477	0.233
478	0.233
478	0.233
479	0.234
479	0.233
480	0.233
480	0.233
481	0.233
481	0.233
482	0.233
482	0.233
482	0.233
483	0.234
483	0.234
484	0.234
484	0.234
485	0.234
485	0.234
486	0.233
486	0.233
487	0.233
487	0.233
487	0.234
488	0.234
488	0.234
489	0.234
489	0.234
490	0.235
490	0.235
491	0.236
491	0.236
492	0.236
492	0.237
492	0.237
493	0.238
493	0.238
494	0.238
494	0.239
495	0.239
495	0.239
496	0.24
496	0.24
496	0.24
497	0.241
497	0.241
498	0.241
498	0.241
499	0.242
499	0.242
500	0.243
500	0.244
501	0.244
501	0.244
501	0.244
502	0.245
502	0.245
503	0.245
503	0.246
504	0.246
504	0.247
505	0.247
505	0.247
506	0.247
506	0.248
506	0.248
507	0.248
507	0.249
508	0.249
508	0.249
509	0.249
509	0.25
510	0.25
510	0.251
511	0.251
511	0.252
511	0.253
512	0.253
512	0.254
513	0.254
513	0.254
514	0.255
514	0.255
515	0.256
515	0.256
515	0.257
516	0.257
516	0.257
517	0.258
517	0.258
518	0.259
518	0.259
519	0.259
519	0.259
520	0.26
520	0.26
520	0.26
521	0.26
521	0.261
522	0.261
522	0.261
523	0.261
523	0.261
524	0.261
524	0.261
524	0.262
525	0.262
525	0.262
526	0.262
526	0.262
527	0.262
527	0.263
528	0.263
528	0.263
529	0.263
529	0.263
529	0.263
530	0.263
530	0.263
531	0.264
531	0.264
532	0.264
532	0.263
533	0.263
533	0.263
533	0.263
534	0.263
534	0.263
535	0.263
535	0.263
536	0.263
536	0.263
537	0.263
537	0.263
538	0.263
538	0.263
538	0.263
539	0.263
539	0.263
540	0.262
540	0.262
541	0.262
541	0.262
542	0.261
542	0.261
542	0.261
543	0.261
543	0.261
544	0.261
544	0.26
545	0.26
545	0.26
546	0.26
546	0.26
547	0.26
547	0.26
547	0.26
548	0.26
548	0.259
549	0.259
549	0.258
550	0.258
550	0.258
551	0.257
551	0.257
551	0.257
552	0.256
552	0.256
553	0.256
553	0.256
554	0.255
554	0.255
555	0.254
555	0.254
556	0.253
556	0.253
556	0.253
557	0.253
557	0.253
558	0.253
558	0.253
559	0.254
559	0.254
560	0.254
560	0.254
560	0.254
561	0.254
561	0.253
562	0.253
562	0.252
563	0.251
563	0.25
564	0.249
564	0.249
564	0.249
565	0.248
565	0.248
566	0.248
566	0.247
567	0.247
567	0.248
568	0.247
568	0.247
568	0.247
569	0.247
569	0.247
570	0.246
570	0.245
571	0.245
571	0.244
572	0.244
572	0.244
573	0.244
573	0.243
573	0.243
574	0.243
574	0.243
575	0.243
575	0.243
576	0.243
576	0.242
577	0.242
577	0.241
577	0.241
578	0.24
578	0.24
579	0.24
579	0.24
580	0.24
580	0.239
581	0.238
581	0.238
581	0.238
582	0.238
582	0.238
583	0.238
583	0.238
584	0.237
584	0.236
585	0.236
585	0.236
585	0.235
586	0.235
586	0.234
587	0.234
587	0.233
588	0.233
588	0.232
589	0.232
589	0.232
590	0.232
590	0.232
590	0.232
591	0.232
591	0.232
592	0.231
592	0.231
593	0.23
593	0.23
594	0.23
594	0.229
594	0.229
595	0.228
595	0.228
596	0.227
596	0.228
597	0.229
597	0.229
598	0.229
598	0.229
598	0.229
599	0.229
599	0.228
600	0.228
600	0.227
601	0.226
601	0.226
602	0.225
602	0.225
602	0.224
603	0.224
603	0.224
604	0.224
604	0.224
605	0.224
605	0.224
606	0.224
606	0.223
606	0.223
607	0.223
607	0.223
608	0.223
608	0.222
609	0.222
609	0.222
610	0.222
610	0.221
610	0.221
611	0.221
611	0.221
612	0.221
612	0.221
613	0.221
613	0.221
614	0.221
614	0.22
614	0.22
615	0.22
615	0.22
616	0.22
616	0.22
617	0.22
617	0.22
618	0.219
618	0.219
618	0.219
619	0.22
619	0.22
620	0.22
620	0.22
621	0.22
621	0.219
622	0.219
622	0.219
622	0.218
623	0.218
623	0.217
624	0.217
624	0.216
625	0.216
625	0.216
626	0.215
626	0.215
626	0.215
627	0.215
627	0.215
628	0.215
628	0.214
629	0.214
629	0.214
630	0.214
630	0.214
630	0.214
631	0.214
631	0.214
632	0.214
632	0.214
633	0.214
633	0.214
634	0.215
634	0.215
634	0.215
635	0.214
635	0.213
636	0.213
636	0.212
637	0.212
637	0.212
638	0.211
638	0.211
638	0.211
639	0.21
639	0.21
640	0.21
640	0.21
641	0.21
641	0.21
642	0.21
642	0.211
642	0.211
643	0.211
643	0.211
644	0.211
644	0.212
645	0.212
645	0.212
646	0.212
646	0.212
646	0.212
647	0.212
647	0.212
648	0.211
648	0.211
649	0.211
649	0.21
650	0.21
650	0.21
650	0.21
651	0.209
651	0.209
652	0.209
652	0.209
653	0.21
653	0.211
653	0.218
654	0.17
654	0.136
655	0.137
655	0.138
656	0.138
656	0.138
657	0.138
657	0.139
657	0.139
658	0.137
658	0.126
659	0.16
659	0.207
660	0.211
660	0.211
661	0.211
661	0.21
661	0.21
662	0.21
662	0.21
663	0.209
663	0.209
664	0.209
664	0.209
665	0.209
665	0.208
665	0.209
666	0.209
666	0.209
667	0.209
667	0.209
668	0.21
668	0.21
669	0.21
669	0.21
669	0.21
670	0.21
670	0.21
671	0.21
671	0.21
672	0.209
672	0.209
672	0.209
673	0.209
673	0.209
674	0.209
674	0.209
675	0.209
675	0.209
676	0.209
676	0.209
676	0.209
677	0.209
677	0.209
678	0.209
678	0.209
679	0.209
679	0.209
680	0.209
680	0.209
680	0.209
681	0.209
681	0.209
682	0.209
682	0.209
683	0.209
683	0.209
684	0.21
684	0.209
684	0.209
685	0.209
685	0.209
686	0.21
686	0.21
687	0.21
687	0.21
687	0.21
688	0.21
688	0.21
689	0.211
689	0.211
690	0.211
690	0.211
691	0.211
691	0.212
691	0.212
692	0.212
692	0.213
693	0.214
693	0.214
694	0.214
694	0.214
695	0.216
695	0.217
695	0.217
696	0.217
696	0.217
697	0.217
697	0.217
698	0.216
698	0.216
698	0.216
699	0.216
699	0.215
700	0.214
700	0.215
701	0.215
701	0.214
702	0.214
702	0.214
702	0.214
703	0.214
703	0.214
704	0.214
704	0.214
705	0.214
705	0.214
705	0.214
706	0.214
706	0.214
707	0.214
707	0.214
708	0.214
708	0.214
709	0.215
709	0.215
709	0.214
710	0.214
710	0.215
711	0.215
711	0.215
712	0.215
712	0.215
713	0.216
713	0.216
713	0.216
714	0.216
714	0.216
715	0.216
715	0.216
716	0.216
716	0.216
716	0.215
717	0.215
717	0.215
718	0.214
718	0.214
719	0.214
719	0.215
720	0.215
720	0.216
720	0.216
721	0.217
721	0.217
722	0.218
722	0.219
723	0.219
723	0.22
723	0.22
724	0.22
724	0.22
725	0.219
725	0.219
726	0.218
726	0.218
727	0.217
727	0.217
727	0.216
728	0.216
728	0.216
729	0.216
729	0.216
730	0.216
730	0.216
730	0.217
731	0.217
731	0.218
732	0.219
732	0.219
733	0.219
733	0.22
734	0.22
734	0.22
734	0.221
735	0.221
735	0.221
736	0.22
736	0.22
737	0.219
737	0.219
737	0.219
738	0.218
738	0.218
739	0.217
739	0.218
740	0.217
740	0.218
741	0.219
741	0.219
741	0.22
742	0.22
742	0.221
743	0.222
743	0.223
744	0.223
744	0.224
744	0.224
745	0.224
745	0.223
746	0.223
746	0.223
747	0.223
747	0.223
748	0.223
748	0.223
748	0.223
749	0.223
749	0.223
750	0.223
750	0.223
751	0.223
751	0.223
751	0.223
752	0.222
752	0.222
753	0.222
753	0.222
754	0.222
754	0.222
754	0.222
755	0.223
755	0.223
756	0.223
756	0.223
757	0.223
757	0.223
758	0.223
758	0.223
758	0.223
759	0.223
759	0.223
760	0.223
760	0.223
761	0.223
761	0.224
761	0.224
762	0.224
762	0.225
763	0.226
763	0.226
764	0.226
764	0.226
764	0.226
765	0.226
765	0.225
766	0.225
766	0.224
767	0.223
767	0.222
768	0.221
768	0.22
768	0.219
769	0.218
769	0.218
770	0.218
770	0.218
771	0.218
771	0.219
771	0.219
772	0.22
772	0.221
773	0.222
773	0.222
774	0.223
774	0.224
775	0.224
775	0.225
775	0.225
776	0.225
776	0.226
777	0.226
777	0.226
778	0.227
778	0.227
778	0.227
779	0.228
779	0.228
780	0.227
780	0.227
781	0.227
781	0.226
781	0.226
782	0.226
782	0.225
783	0.225
783	0.225
784	0.225
784	0.225
784	0.225
785	0.225
785	0.226
786	0.226
786	0.226
787	0.226
787	0.226
788	0.226
788	0.226
788	0.225
789	0.225
789	0.225
790	0.225
790	0.225
791	0.224
791	0.224
791	0.224
792	0.224
792	0.225
793	0.225
793	0.225
794	0.225
794	0.225
794	0.225
795	0.225
795	0.226
796	0.226
796	0.226
797	0.226
797	0.226
797	0.226
798	0.226
798	0.226
799	0.227
799	0.226
800	0.226
800	0.226
801	0.226
801	0.226
801	0.226
802	0.227
802	0.227
803	0.228
803	0.228
804	0.229
804	0.23
804	0.23
805	0.231
805	0.231
806	0.231
806	0.231
807	0.231
807	0.231
807	0.23
808	0.23
808	0.23
809	0.23
809	0.229
810	0.229
810	0.229
810	0.229
811	0.229
811	0.229
812	0.23
812	0.23
813	0.23
813	0.231
813	0.231
814	0.232
814	0.233
815	0.234
815	0.234
816	0.235
816	0.234
817	0.234
817	0.234
817	0.234
818	0.234
818	0.234
819	0.233
819	0.232
820	0.232
820	0.231
820	0.231
821	0.231
821	0.23
822	0.23
822	0.23
823	0.23
823	0.23
823	0.231
824	0.232
824	0.233
825	0.234
825	0.235
826	0.235
826	0.235
826	0.236
827	0.236
827	0.236
828	0.236
828	0.236
829	0.236
829	0.236
829	0.235
830	0.235
830	0.236
831	0.236
831	0.236
832	0.236
832	0.236
832	0.237
833	0.237
833	0.237
834	0.237
834	0.236
835	0.236
835	0.236
835	0.237
836	0.237
836	0.238
837	0.238
837	0.238
838	0.238
838	0.238
839	0.238
839	0.238
839	0.237
840	0.236
840	0.235
841	0.234
841	0.233
842	0.232
842	0.231
842	0.23
843	0.229
843	0.229
844	0.229
844	0.229
845	0.229
845	0.23
845	0.23
846	0.23
846	0.231
847	0.231
847	0.232
848	0.233
848	0.233
848	0.234
849	0.234
849	0.234
850	0.235
850	0.235
851	0.235
851	0.236
851	0.236
852	0.235
852	0.235
853	0.235
853	0.235
854	0.235
854	0.236
854	0.236
855	0.236
855	0.237
856	0.237
856	0.237
857	0.237
857	0.238
857	0.237
858	0.237
858	0.236
859	0.235
859	0.234
860	0.233
860	0.232
860	0.231
861	0.23
861	0.229
862	0.228
862	0.228
863	0.227
863	0.227
863	0.227
864	0.227
864	0.227
865	0.227
865	0.227
866	0.227
866	0.227
866	0.227
867	0.227
867	0.227
868	0.227
868	0.227
869	0.227
869	0.227
869	0.226
870	0.226
870	0.226
871	0.226
871	0.226
872	0.227
872	0.227
872	0.227
873	0.227
873	0.227
874	0.226
874	0.227
875	0.227
875	0.227
875	0.227
876	0.227
876	0.227
877	0.228
877	0.228
878	0.229
878	0.229
878	0.23
879	0.231
879	0.231
880	0.232
880	0.232
881	0.232
881	0.232
881	0.232
882	0.231
882	0.23
883	0.229
883	0.229
884	0.228
884	0.227
884	0.226
885	0.226
885	0.225
886	0.225
886	0.224
887	0.224
887	0.223
887	0.223
888	0.222
888	0.222
889	0.221
889	0.221
890	0.221
890	0.222
890	0.222
891	0.222
891	0.222
892	0.222
892	0.222
893	0.223
893	0.223
893	0.223
894	0.223
894	0.222
895	0.221
895	0.221
895	0.22
896	0.22
896	0.219
897	0.219
897	0.218
898	0.217
898	0.217
898	0.217
899	0.216
899	0.216
900	0.216
900	0.216
901	0.216
901	0.216
901	0.216
902	0.216
902	0.216
903	0.216
903	0.216
904	0.216
904	0.216
904	0.216
905	0.216
905	0.215
906	0.216
906	0.216
907	0.216
907	0.217
907	0.217
908	0.218
908	0.218
909	0.218
909	0.218
910	0.218
910	0.218
910	0.217
911	0.217
911	0.216
912	0.216
912	0.215
913	0.214
913	0.214
913	0.213
914	0.212
914	0.212
915	0.211
915	0.21
916	0.21
916	0.209
916	0.208
917	0.208
917	0.207
918	0.206
918	0.205
918	0.205
919	0.204
919	0.204
920	0.203
920	0.203
921	0.203
921	0.203
921	0.203
922	0.203
922	0.203
923	0.203
923	0.204
924	0.204
924	0.205
924	0.205
925	0.205
925	0.206
926	0.206
926	0.206
927	0.207
927	0.207
927	0.207
928	0.207
928	0.207
929	0.206
929	0.206
930	0.206
930	0.205
930	0.205
931	0.205
931	0.205
932	0.205
932	0.205
933	0.205
933	0.205
933	0.204
934	0.204
934	0.204
935	0.204
935	0.204
935	0.203
936	0.203
936	0.202
937	0.201
937	0.201
938	0.2
938	0.199
938	0.198
939	0.198
939	0.197
940	0.196
940	0.195
941	0.194
941	0.194
941	0.194
942	0.193
942	0.192
943	0.192
943	0.191
944	0.191
944	0.19
944	0.189
945	0.189
945	0.189
946	0.188
946	0.187
946	0.186
947	0.186
947	0.186
948	0.185
948	0.185
949	0.185
949	0.185
949	0.184
950	0.184
950	0.184
951	0.185
951	0.184
952	0.184
952	0.184
952	0.183
953	0.183
953	0.183
954	0.182
954	0.182
955	0.181
955	0.181
955	0.18
956	0.18
956	0.181
957	0.181
957	0.181
957	0.181
958	0.182
958	0.182
959	0.182
959	0.182
960	0.182
960	0.182
960	0.182
961	0.181
961	0.181
962	0.18
962	0.18
963	0.179
963	0.179
963	0.179
964	0.179
964	0.179
965	0.179
965	0.179
966	0.179
966	0.179
966	0.179
967	0.179
967	0.179
968	0.179
968	0.179
968	0.179
969	0.179
969	0.178
970	0.178
970	0.177
971	0.177
971	0.176
971	0.176
972	0.176
972	0.175
973	0.174
973	0.174
974	0.174
974	0.174
974	0.174
975	0.174
975	0.174
976	0.174
976	0.174
976	0.174
977	0.174
977	0.174
978	0.174
978	0.174
979	0.174
979	0.174
979	0.173
980	0.173
980	0.172
981	0.171
981	0.17
982	0.169
982	0.168
982	0.167
983	0.166
983	0.165
984	0.163
984	0.162
984	0.161
985	0.16
985	0.16
986	0.159
986	0.158
987	0.158
987	0.157
987	0.156
988	0.156
988	0.155
989	0.154
989	0.154
990	0.153
990	0.152
990	0.152
991	0.151
991	0.151
992	0.15
992	0.15
992	0.149
993	0.149
993	0.148
994	0.148
994	0.147
995	0.147
995	0.147
995	0.147
996	0.147
996	0.147
997	0.147
997	0.148
997	0.148
998	0.149
998	0.149
999	0.15
999	0.151
1000	0.151
1000	0.152
1000	0.152
1001	0.153
1001	0.153
1002	0.154
1002	0.154
1003	0.154
1003	0.154
1003	0.154
1004	0.153
1004	0.153
1005	0.152
1005	0.152
1005	0.151
1006	0.151
1006	0.15
1007	0.15
1007	0.149
1008	0.149
1008	0.149
1008	0.148
1009	0.148
1009	0.148
1010	0.148
1010	0.147
1010	0.147
1011	0.147
1011	0.147
1012	0.147
1012	0.146
1013	0.146
1013	0.146
1013	0.146
1014	0.145
1014	0.145
1015	0.144
1015	0.144
1016	0.143
1016	0.143
1016	0.142
1017	0.141
1017	0.141
1018	0.14
1018	0.139
1018	0.139
1019	0.138
1019	0.138
1020	0.137
1020	0.137
1021	0.137
1021	0.136
1021	0.136
1022	0.136
1022	0.136
1023	0.136
1023	0.136
1023	0.136
1024	0.136
1024	0.135
1025	0.135
1025	0.135
1026	0.134
1026	0.134
1026	0.133
1027	0.133
1027	0.132
1028	0.132
1028	0.131
1028	0.131
1029	0.13
1029	0.13
1030	0.129
1030	0.129
1031	0.129
1031	0.129
1031	0.129
1032	0.129
1032	0.129
1033	0.129
1033	0.129
1033	0.128
1034	0.128
1034	0.127
1035	0.127
1035	0.126
1036	0.126
1036	0.125
1036	0.125
1037	0.125
1037	0.124
1038	0.124
1038	0.124
1039	0.124
1039	0.124
1039	0.125
1040	0.125
1040	0.125
1041	0.126
1041	0.126
1041	0.126
1042	0.127
1042	0.127
1043	0.128
1043	0.128
1044	0.128
1044	0.128
1044	0.128
1045	0.128
1045	0.128
1046	0.128
1046	0.128
1046	0.129
1047	0.129
1047	0.129
1048	0.13
1048	0.13
1049	0.131
1049	0.131
1049	0.131
1050	0.131
1050	0.131
1051	0.131
1051	0.13
1051	0.129
1052	0.129
1052	0.128
1053	0.127
1053	0.126
1053	0.125
1054	0.124
1054	0.123
1055	0.123
1055	0.123
1056	0.122
1056	0.121
1056	0.12
1057	0.12
1057	0.119
1058	0.118
1058	0.117
1058	0.116
1059	0.115
1059	0.115
1060	0.114
1060	0.114
1061	0.113
1061	0.113
1061	0.113
1062	0.112
1062	0.112
1063	0.112
1063	0.112
1063	0.112
1064	0.111
1064	0.111
1065	0.111
1065	0.111
1066	0.11
1066	0.11
1066	0.11
1067	0.109
1067	0.109
1068	0.109
1068	0.109
1068	0.108
1069	0.108
1069	0.107
1070	0.106
1070	0.106
1071	0.105
1071	0.105
1071	0.104
1072	0.103
1072	0.103
1073	0.102
1073	0.102
1073	0.102
1074	0.102
1074	0.102
1075	0.102
1075	0.103
1076	0.103
1076	0.104
1076	0.104
1077	0.104
1077	0.105
1078	0.105
1078	0.105
1078	0.104
1079	0.104
1079	0.104
1080	0.104
1080	0.103
1080	0.103
1081	0.103
1081	0.103
1082	0.104
1082	0.104
1083	0.104
1083	0.103
1083	0.103
1084	0.103
1084	0.103
1085	0.102
1085	0.102
1085	0.102
1086	0.102
1086	0.1
1087	0.1
1087	0.099
1088	0.099
1088	0.099
1088	0.098
1089	0.098
1089	0.097
1090	0.096
1090	0.095
1090	0.094
1091	0.093
1091	0.092
1092	0.092
1092	0.092
1092	0.091
1093	0.09
1093	0.09
1094	0.09
1094	0.089
1095	0.089
1095	0.089
1095	0.089
1096	0.088
1096	0.088
1097	0.087
1097	0.086
1097	0.087
1098	0.086
1098	0.085
1099	0.085
1099	0.083
1100	0.082
1100	0.081
1100	0.08
1101	0.079
1101	0.078
1102	0.078
1102	0.076
1102	0.074
1103	0.074
1103	0.074
1104	0.074
1104	0.073
1104	0.073
1105	0.072
1105	0.071
1106	0.07
1106	0.069
1107	0.069
1107	0.069
1107	0.069
1108	0.068
1108	0.066
1109	0.066
1109	0.065
1109	0.067
1110	0.068
1110	0.066
1111	0.068
1111	0.07
