Data from reversibility-20sec_Absorbance__5881__000000000005881.txt Node

Date: Wed Dec 06 20:53:25 CET 2023
User: Marek
Spectrometer: MAYP115816
Trigger mode: 0
Integration Time (sec): 2.000000E-1
Scans to average: 10
Electric dark correction enabled: true
Nonlinearity correction enabled: true
Boxcar width: 5
XAxis mode: Wavelengths
Number of Pixels in Spectrum: 2068
>>>>>Begin Spectral Data<<<<<
199	-0.15
199	-0.113
200	-0.05
200	-0.001
201	0.028
201	0.048
202	0.058
202	0.067
203	0.077
203	0.079
204	0.092
204	0.107
205	0.118
205	0.125
205	0.124
206	0.125
206	0.122
207	0.123
207	0.12
208	0.119
208	0.117
209	0.12
209	0.116
210	0.117
210	0.116
211	0.117
211	0.119
212	0.118
212	0.12
213	0.124
213	0.124
213	0.125
214	0.127
214	0.128
215	0.131
215	0.132
216	0.131
216	0.126
217	0.129
217	0.13
218	0.129
218	0.132
219	0.135
219	0.134
220	0.14
220	0.138
221	0.135
221	0.14
221	0.149
222	0.153
222	0.158
223	0.165
223	0.167
224	0.171
224	0.179
225	0.187
225	0.2
226	0.212
226	0.223
227	0.232
227	0.245
228	0.261
228	0.275
229	0.291
229	0.315
229	0.336
230	0.359
230	0.388
231	0.42
231	0.455
232	0.492
232	0.533
233	0.576
233	0.624
234	0.675
234	0.729
235	0.782
235	0.833
236	0.883
236	0.935
236	0.986
237	1.037
237	1.085
238	1.129
238	1.175
239	1.222
239	1.262
240	1.303
240	1.338
241	1.371
241	1.406
242	1.44
242	1.472
243	1.5
243	1.527
243	1.551
244	1.573
244	1.593
245	1.61
245	1.634
246	1.652
246	1.669
247	1.68
247	1.694
248	1.71
248	1.725
249	1.737
249	1.744
250	1.752
250	1.76
250	1.763
251	1.767
251	1.768
252	1.772
252	1.772
253	1.77
253	1.766
254	1.763
254	1.764
255	1.762
255	1.761
256	1.76
256	1.761
257	1.761
257	1.759
258	1.759
258	1.759
258	1.759
259	1.761
259	1.76
260	1.76
260	1.762
261	1.763
261	1.766
262	1.768
262	1.77
263	1.774
263	1.778
264	1.779
264	1.781
265	1.784
265	1.786
265	1.786
266	1.786
266	1.785
267	1.783
267	1.783
268	1.782
268	1.781
269	1.783
269	1.782
270	1.78
270	1.778
271	1.776
271	1.776
272	1.773
272	1.771
272	1.767
273	1.762
273	1.756
274	1.747
274	1.741
275	1.734
275	1.727
276	1.719
276	1.711
277	1.702
277	1.692
278	1.68
278	1.668
278	1.653
279	1.638
279	1.616
280	1.59
280	1.558
281	1.522
281	1.481
282	1.439
282	1.396
283	1.353
283	1.311
284	1.271
284	1.232
285	1.195
285	1.162
285	1.132
286	1.106
286	1.084
287	1.064
287	1.047
288	1.032
288	1.02
289	1.01
289	1.001
290	0.994
290	0.987
291	0.981
291	0.976
292	0.972
292	0.967
292	0.963
293	0.96
293	0.957
294	0.954
294	0.951
295	0.948
295	0.945
296	0.942
296	0.939
297	0.937
297	0.934
298	0.931
298	0.928
298	0.926
299	0.923
299	0.92
300	0.917
300	0.915
301	0.912
301	0.91
302	0.907
302	0.905
303	0.903
303	0.901
304	0.898
304	0.896
305	0.894
305	0.892
305	0.89
306	0.887
306	0.885
307	0.883
307	0.88
308	0.878
308	0.875
309	0.873
309	0.87
310	0.867
310	0.864
311	0.861
311	0.858
311	0.855
312	0.852
312	0.848
313	0.845
313	0.841
314	0.837
314	0.833
315	0.829
315	0.826
316	0.821
316	0.817
317	0.812
317	0.808
318	0.803
318	0.798
318	0.793
319	0.788
319	0.782
320	0.777
320	0.771
321	0.765
321	0.759
322	0.753
322	0.747
323	0.74
323	0.734
324	0.728
324	0.721
324	0.715
325	0.708
325	0.701
326	0.695
326	0.688
327	0.681
327	0.674
328	0.667
328	0.661
329	0.653
329	0.647
330	0.639
330	0.633
330	0.626
331	0.619
331	0.612
332	0.605
332	0.598
333	0.591
333	0.584
334	0.578
334	0.571
335	0.564
335	0.557
336	0.551
336	0.544
336	0.538
337	0.532
337	0.525
338	0.519
338	0.513
339	0.507
339	0.501
340	0.496
340	0.49
341	0.485
341	0.479
342	0.474
342	0.469
342	0.463
343	0.458
343	0.453
344	0.448
344	0.443
345	0.438
345	0.434
346	0.429
346	0.425
347	0.42
347	0.416
348	0.412
348	0.408
348	0.405
349	0.401
349	0.397
350	0.394
350	0.39
351	0.387
351	0.384
352	0.381
352	0.378
353	0.375
353	0.372
354	0.369
354	0.366
354	0.363
355	0.36
355	0.358
356	0.355
356	0.352
357	0.35
357	0.347
358	0.344
358	0.342
359	0.34
359	0.337
360	0.335
360	0.333
360	0.331
361	0.329
361	0.328
362	0.326
362	0.324
363	0.323
363	0.321
364	0.319
364	0.317
365	0.315
365	0.314
366	0.312
366	0.31
366	0.309
367	0.307
367	0.305
368	0.304
368	0.302
369	0.301
369	0.3
370	0.298
370	0.297
371	0.296
371	0.295
372	0.293
372	0.292
372	0.291
373	0.29
373	0.289
374	0.288
374	0.287
375	0.287
375	0.286
376	0.285
376	0.284
377	0.283
377	0.282
378	0.281
378	0.281
378	0.28
379	0.279
379	0.279
380	0.278
380	0.277
381	0.277
381	0.276
382	0.275
382	0.275
383	0.274
383	0.274
383	0.273
384	0.273
384	0.272
385	0.272
385	0.271
386	0.271
386	0.27
387	0.27
387	0.27
388	0.269
388	0.269
389	0.269
389	0.268
389	0.268
390	0.268
390	0.268
391	0.267
391	0.267
392	0.267
392	0.267
393	0.266
393	0.266
394	0.266
394	0.265
394	0.265
395	0.264
395	0.264
396	0.264
396	0.263
397	0.263
397	0.262
398	0.262
398	0.262
399	0.262
399	0.261
400	0.261
400	0.261
400	0.261
401	0.261
401	0.26
402	0.26
402	0.26
403	0.26
403	0.26
404	0.26
404	0.26
405	0.259
405	0.259
405	0.259
406	0.258
406	0.258
407	0.258
407	0.257
408	0.257
408	0.256
409	0.256
409	0.256
410	0.256
410	0.255
411	0.255
411	0.255
411	0.255
412	0.254
412	0.254
413	0.254
413	0.254
414	0.253
414	0.253
415	0.253
415	0.252
416	0.252
416	0.252
416	0.251
417	0.251
417	0.251
418	0.251
418	0.25
419	0.25
419	0.249
420	0.249
420	0.249
421	0.248
421	0.248
421	0.248
422	0.247
422	0.247
423	0.246
423	0.246
424	0.246
424	0.245
425	0.245
425	0.245
426	0.245
426	0.245
427	0.244
427	0.244
427	0.244
428	0.244
428	0.243
429	0.243
429	0.243
430	0.243
430	0.242
431	0.242
431	0.242
432	0.242
432	0.242
432	0.241
433	0.241
433	0.241
434	0.241
434	0.241
435	0.24
435	0.24
436	0.24
436	0.24
437	0.239
437	0.239
437	0.239
438	0.238
438	0.238
439	0.238
439	0.238
440	0.237
440	0.237
441	0.237
441	0.237
442	0.237
442	0.237
442	0.236
443	0.236
443	0.236
444	0.236
444	0.235
445	0.235
445	0.235
446	0.235
446	0.234
447	0.234
447	0.233
447	0.233
448	0.233
448	0.233
449	0.233
449	0.233
450	0.233
450	0.233
451	0.232
451	0.233
452	0.233
452	0.232
452	0.232
453	0.232
453	0.232
454	0.232
454	0.231
455	0.231
455	0.231
456	0.231
456	0.23
457	0.23
457	0.23
458	0.23
458	0.229
458	0.229
459	0.229
459	0.229
460	0.229
460	0.229
461	0.228
461	0.228
462	0.228
462	0.228
463	0.227
463	0.227
463	0.227
464	0.227
464	0.226
465	0.226
465	0.226
466	0.225
466	0.225
467	0.226
467	0.225
467	0.225
468	0.225
468	0.225
469	0.225
469	0.225
470	0.226
470	0.226
471	0.226
471	0.226
472	0.225
472	0.226
472	0.226
473	0.226
473	0.226
474	0.226
474	0.226
475	0.225
475	0.225
476	0.225
476	0.225
477	0.225
477	0.225
477	0.225
478	0.225
478	0.225
479	0.225
479	0.225
480	0.225
480	0.225
481	0.225
481	0.225
482	0.225
482	0.225
482	0.225
483	0.225
483	0.225
484	0.225
484	0.225
485	0.225
485	0.225
486	0.225
486	0.225
487	0.225
487	0.225
487	0.225
488	0.225
488	0.226
489	0.226
489	0.227
490	0.227
490	0.228
491	0.228
491	0.229
492	0.229
492	0.229
492	0.23
493	0.23
493	0.231
494	0.231
494	0.231
495	0.232
495	0.232
496	0.232
496	0.233
496	0.233
497	0.233
497	0.234
498	0.234
498	0.234
499	0.234
499	0.235
500	0.235
500	0.236
501	0.237
501	0.237
501	0.237
502	0.238
502	0.238
503	0.239
503	0.239
504	0.24
504	0.24
505	0.24
505	0.241
506	0.241
506	0.241
506	0.241
507	0.242
507	0.242
508	0.242
508	0.243
509	0.243
509	0.244
510	0.244
510	0.245
511	0.245
511	0.246
511	0.246
512	0.247
512	0.247
513	0.247
513	0.248
514	0.248
514	0.249
515	0.249
515	0.249
515	0.25
516	0.251
516	0.251
517	0.252
517	0.252
518	0.253
518	0.253
519	0.253
519	0.254
520	0.254
520	0.254
520	0.254
521	0.254
521	0.254
522	0.254
522	0.254
523	0.254
523	0.254
524	0.254
524	0.254
524	0.254
525	0.255
525	0.255
526	0.255
526	0.255
527	0.255
527	0.255
528	0.255
528	0.256
529	0.256
529	0.255
529	0.255
530	0.255
530	0.255
531	0.255
531	0.255
532	0.255
532	0.254
533	0.254
533	0.254
533	0.254
534	0.254
534	0.253
535	0.253
535	0.253
536	0.253
536	0.253
537	0.253
537	0.253
538	0.253
538	0.253
538	0.253
539	0.253
539	0.253
540	0.252
540	0.252
541	0.251
541	0.251
542	0.251
542	0.251
542	0.251
543	0.25
543	0.25
544	0.25
544	0.25
545	0.249
545	0.249
546	0.249
546	0.249
547	0.248
547	0.248
547	0.247
548	0.247
548	0.247
549	0.246
549	0.246
550	0.246
550	0.246
551	0.245
551	0.245
551	0.245
552	0.245
552	0.244
553	0.243
553	0.243
554	0.243
554	0.242
555	0.241
555	0.24
556	0.24
556	0.239
556	0.239
557	0.239
557	0.239
558	0.239
558	0.239
559	0.239
559	0.239
560	0.239
560	0.238
560	0.238
561	0.238
561	0.238
562	0.237
562	0.236
563	0.235
563	0.235
564	0.234
564	0.233
564	0.233
565	0.232
565	0.232
566	0.232
566	0.231
567	0.231
567	0.231
568	0.231
568	0.231
568	0.231
569	0.231
569	0.23
570	0.229
570	0.228
571	0.228
571	0.227
572	0.227
572	0.226
573	0.226
573	0.225
573	0.224
574	0.224
574	0.224
575	0.224
575	0.224
576	0.224
576	0.223
577	0.223
577	0.222
577	0.222
578	0.222
578	0.221
579	0.222
579	0.222
580	0.221
580	0.22
581	0.219
581	0.219
581	0.219
582	0.219
582	0.219
583	0.219
583	0.219
584	0.218
584	0.217
585	0.217
585	0.217
585	0.217
586	0.217
586	0.216
587	0.215
587	0.215
588	0.214
588	0.214
589	0.213
589	0.213
590	0.213
590	0.213
590	0.214
591	0.214
591	0.214
592	0.213
592	0.213
593	0.212
593	0.212
594	0.212
594	0.211
594	0.21
595	0.21
595	0.21
596	0.209
596	0.209
597	0.21
597	0.21
598	0.21
598	0.21
598	0.209
599	0.209
599	0.209
600	0.208
600	0.208
601	0.208
601	0.207
602	0.207
602	0.206
602	0.206
603	0.206
603	0.206
604	0.206
604	0.206
605	0.206
605	0.206
606	0.205
606	0.205
606	0.204
607	0.204
607	0.204
608	0.204
608	0.203
609	0.203
609	0.203
610	0.202
610	0.202
610	0.202
611	0.202
611	0.202
612	0.203
612	0.203
613	0.203
613	0.203
614	0.202
614	0.202
614	0.201
615	0.201
615	0.201
616	0.201
616	0.201
617	0.201
617	0.201
618	0.201
618	0.201
618	0.201
619	0.201
619	0.202
620	0.202
620	0.202
621	0.201
621	0.201
622	0.2
622	0.2
622	0.199
623	0.198
623	0.198
624	0.198
624	0.197
625	0.196
625	0.196
626	0.195
626	0.195
626	0.195
627	0.195
627	0.194
628	0.194
628	0.194
629	0.194
629	0.194
630	0.193
630	0.193
630	0.194
631	0.194
631	0.193
632	0.193
632	0.193
633	0.193
633	0.193
634	0.194
634	0.194
634	0.194
635	0.194
635	0.194
636	0.193
636	0.193
637	0.193
637	0.193
638	0.193
638	0.193
638	0.192
639	0.192
639	0.191
640	0.192
640	0.192
641	0.191
641	0.191
642	0.191
642	0.192
642	0.192
643	0.192
643	0.192
644	0.192
644	0.192
645	0.192
645	0.192
646	0.192
646	0.191
646	0.191
647	0.191
647	0.19
648	0.19
648	0.189
649	0.189
649	0.189
650	0.189
650	0.189
650	0.189
651	0.189
651	0.189
652	0.189
652	0.189
653	0.19
653	0.192
653	0.198
654	0.155
654	0.124
655	0.125
655	0.125
656	0.125
656	0.126
657	0.126
657	0.127
657	0.127
658	0.126
658	0.115
659	0.145
659	0.187
660	0.192
660	0.192
661	0.191
661	0.191
661	0.19
662	0.19
662	0.189
663	0.189
663	0.189
664	0.188
664	0.188
665	0.188
665	0.188
665	0.189
666	0.189
666	0.189
667	0.189
667	0.19
668	0.19
668	0.191
669	0.191
669	0.191
669	0.192
670	0.192
670	0.192
671	0.191
671	0.191
672	0.191
672	0.19
672	0.19
673	0.19
673	0.19
674	0.19
674	0.189
675	0.189
675	0.189
676	0.19
676	0.19
676	0.189
677	0.189
677	0.189
678	0.189
678	0.188
679	0.188
679	0.188
680	0.187
680	0.187
680	0.187
681	0.187
681	0.187
682	0.188
682	0.188
683	0.189
683	0.19
684	0.19
684	0.19
684	0.19
685	0.191
685	0.191
686	0.191
686	0.191
687	0.191
687	0.19
687	0.19
688	0.19
688	0.189
689	0.19
689	0.19
690	0.19
690	0.19
691	0.19
691	0.19
691	0.191
692	0.191
692	0.191
693	0.191
693	0.192
694	0.191
694	0.191
695	0.192
695	0.193
695	0.193
696	0.193
696	0.193
697	0.192
697	0.192
698	0.192
698	0.192
698	0.192
699	0.192
699	0.192
700	0.192
700	0.192
701	0.193
701	0.193
702	0.193
702	0.193
702	0.193
703	0.193
703	0.193
704	0.193
704	0.193
705	0.193
705	0.193
705	0.193
706	0.193
706	0.193
707	0.193
707	0.193
708	0.193
708	0.193
709	0.193
709	0.193
709	0.193
710	0.193
710	0.193
711	0.193
711	0.193
712	0.193
712	0.193
713	0.193
713	0.193
713	0.193
714	0.193
714	0.193
715	0.192
715	0.192
716	0.192
716	0.192
716	0.192
717	0.192
717	0.191
718	0.191
718	0.191
719	0.191
719	0.191
720	0.192
720	0.192
720	0.193
721	0.193
721	0.193
722	0.194
722	0.194
723	0.194
723	0.195
723	0.194
724	0.194
724	0.194
725	0.193
725	0.192
726	0.192
726	0.191
727	0.191
727	0.191
727	0.191
728	0.19
728	0.19
729	0.191
729	0.192
730	0.192
730	0.192
730	0.193
731	0.194
731	0.194
732	0.195
732	0.195
733	0.195
733	0.195
734	0.196
734	0.196
734	0.196
735	0.197
735	0.197
736	0.196
736	0.196
737	0.196
737	0.197
737	0.197
738	0.196
738	0.196
739	0.195
739	0.195
740	0.195
740	0.195
741	0.195
741	0.195
741	0.195
742	0.195
742	0.196
743	0.197
743	0.198
744	0.199
744	0.199
744	0.2
745	0.2
745	0.2
746	0.2
746	0.201
747	0.201
747	0.201
748	0.201
748	0.201
748	0.2
749	0.2
749	0.2
750	0.199
750	0.199
751	0.198
751	0.198
751	0.197
752	0.197
752	0.196
753	0.195
753	0.195
754	0.195
754	0.195
754	0.196
755	0.196
755	0.197
756	0.197
756	0.197
757	0.197
757	0.197
758	0.198
758	0.198
758	0.199
759	0.199
759	0.199
760	0.199
760	0.2
761	0.2
761	0.201
761	0.201
762	0.201
762	0.201
763	0.202
763	0.201
764	0.2
764	0.201
764	0.201
765	0.2
765	0.2
766	0.2
766	0.2
767	0.199
767	0.199
768	0.198
768	0.198
768	0.198
769	0.199
769	0.199
770	0.199
770	0.2
771	0.2
771	0.201
771	0.202
772	0.203
772	0.204
773	0.205
773	0.205
774	0.206
774	0.206
775	0.206
775	0.206
775	0.206
776	0.206
776	0.206
777	0.206
777	0.206
778	0.205
778	0.205
778	0.205
779	0.206
779	0.206
780	0.205
780	0.205
781	0.205
781	0.205
781	0.205
782	0.205
782	0.205
783	0.205
783	0.206
784	0.205
784	0.206
784	0.206
785	0.207
785	0.207
786	0.207
786	0.208
787	0.208
787	0.208
788	0.207
788	0.206
788	0.206
789	0.205
789	0.205
790	0.205
790	0.204
791	0.204
791	0.203
791	0.203
792	0.204
792	0.205
793	0.205
793	0.205
794	0.205
794	0.205
794	0.205
795	0.205
795	0.206
796	0.206
796	0.206
797	0.206
797	0.206
797	0.206
798	0.206
798	0.206
799	0.206
799	0.206
800	0.206
800	0.205
801	0.205
801	0.205
801	0.205
802	0.206
802	0.206
803	0.207
803	0.207
804	0.207
804	0.208
804	0.208
805	0.208
805	0.208
806	0.208
806	0.208
807	0.207
807	0.207
807	0.207
808	0.206
808	0.206
809	0.206
809	0.206
810	0.207
810	0.207
810	0.207
811	0.207
811	0.208
812	0.209
812	0.21
813	0.21
813	0.211
813	0.211
814	0.212
814	0.212
815	0.213
815	0.213
816	0.213
816	0.212
817	0.211
817	0.211
817	0.211
818	0.211
818	0.211
819	0.211
819	0.21
820	0.21
820	0.209
820	0.209
821	0.21
821	0.21
822	0.21
822	0.21
823	0.21
823	0.21
823	0.211
824	0.211
824	0.212
825	0.213
825	0.214
826	0.214
826	0.214
826	0.214
827	0.214
827	0.215
828	0.215
828	0.215
829	0.215
829	0.215
829	0.215
830	0.215
830	0.216
831	0.217
831	0.217
832	0.217
832	0.217
832	0.217
833	0.217
833	0.217
834	0.217
834	0.217
835	0.216
835	0.216
835	0.216
836	0.215
836	0.215
837	0.215
837	0.215
838	0.214
838	0.214
839	0.213
839	0.213
839	0.212
840	0.211
840	0.21
841	0.209
841	0.208
842	0.207
842	0.206
842	0.206
843	0.205
843	0.204
844	0.204
844	0.203
845	0.203
845	0.202
845	0.202
846	0.202
846	0.202
847	0.202
847	0.203
848	0.203
848	0.204
848	0.205
849	0.205
849	0.206
850	0.207
850	0.208
851	0.208
851	0.209
851	0.209
852	0.208
852	0.208
853	0.208
853	0.208
854	0.208
854	0.209
854	0.209
855	0.209
855	0.209
856	0.209
856	0.209
857	0.21
857	0.21
857	0.21
858	0.21
858	0.21
859	0.209
859	0.209
860	0.208
860	0.208
860	0.207
861	0.207
861	0.206
862	0.206
862	0.205
863	0.205
863	0.205
863	0.205
864	0.206
864	0.206
865	0.206
865	0.207
866	0.207
866	0.207
866	0.207
867	0.207
867	0.208
868	0.208
868	0.208
869	0.208
869	0.208
869	0.208
870	0.208
870	0.208
871	0.208
871	0.208
872	0.208
872	0.208
872	0.207
873	0.207
873	0.207
874	0.206
874	0.206
875	0.206
875	0.205
875	0.205
876	0.205
876	0.205
877	0.204
877	0.204
878	0.204
878	0.204
878	0.204
879	0.204
879	0.204
880	0.204
880	0.204
881	0.204
881	0.204
881	0.204
882	0.203
882	0.203
883	0.203
883	0.203
884	0.203
884	0.203
884	0.202
885	0.202
885	0.201
886	0.201
886	0.2
887	0.199
887	0.199
887	0.198
888	0.197
888	0.196
889	0.196
889	0.196
890	0.195
890	0.196
890	0.196
891	0.196
891	0.196
892	0.196
892	0.196
893	0.195
893	0.195
893	0.195
894	0.194
894	0.194
895	0.194
895	0.194
895	0.193
896	0.194
896	0.194
897	0.194
897	0.195
898	0.195
898	0.195
898	0.195
899	0.195
899	0.195
900	0.195
900	0.195
901	0.195
901	0.194
901	0.194
902	0.194
902	0.194
903	0.193
903	0.193
904	0.193
904	0.192
904	0.192
905	0.191
905	0.191
906	0.19
906	0.19
907	0.19
907	0.19
907	0.19
908	0.189
908	0.189
909	0.189
909	0.188
910	0.188
910	0.187
910	0.186
911	0.185
911	0.185
912	0.184
912	0.184
913	0.183
913	0.183
913	0.183
914	0.183
914	0.183
915	0.184
915	0.184
916	0.184
916	0.184
916	0.184
917	0.184
917	0.183
918	0.182
918	0.182
918	0.181
919	0.181
919	0.181
920	0.18
920	0.18
921	0.18
921	0.179
921	0.179
922	0.179
922	0.179
923	0.18
923	0.18
924	0.18
924	0.181
924	0.182
925	0.182
925	0.183
926	0.184
926	0.184
927	0.184
927	0.184
927	0.184
928	0.184
928	0.183
929	0.183
929	0.182
930	0.181
930	0.18
930	0.179
931	0.179
931	0.178
932	0.178
932	0.177
933	0.177
933	0.177
933	0.177
934	0.176
934	0.176
935	0.176
935	0.175
935	0.175
936	0.175
936	0.174
937	0.174
937	0.174
938	0.173
938	0.173
938	0.173
939	0.172
939	0.172
940	0.172
940	0.172
941	0.172
941	0.171
941	0.171
942	0.171
942	0.171
943	0.171
943	0.171
944	0.17
944	0.17
944	0.17
945	0.17
945	0.17
946	0.17
946	0.169
946	0.169
947	0.169
947	0.169
948	0.169
948	0.169
949	0.169
949	0.169
949	0.168
950	0.168
950	0.168
951	0.167
951	0.167
952	0.166
952	0.166
952	0.165
953	0.164
953	0.164
954	0.163
954	0.163
955	0.162
955	0.161
955	0.161
956	0.161
956	0.161
957	0.161
957	0.161
957	0.16
958	0.16
958	0.16
959	0.16
959	0.159
960	0.159
960	0.158
960	0.158
961	0.157
961	0.157
962	0.157
962	0.157
963	0.157
963	0.157
963	0.157
964	0.157
964	0.157
965	0.157
965	0.157
966	0.157
966	0.157
966	0.158
967	0.158
967	0.158
968	0.158
968	0.157
968	0.157
969	0.157
969	0.156
970	0.156
970	0.155
971	0.154
971	0.154
971	0.153
972	0.152
972	0.152
973	0.152
973	0.151
974	0.152
974	0.152
974	0.152
975	0.152
975	0.153
976	0.153
976	0.154
976	0.154
977	0.154
977	0.154
978	0.153
978	0.153
979	0.152
979	0.152
979	0.151
980	0.15
980	0.149
981	0.148
981	0.147
982	0.146
982	0.146
982	0.145
983	0.145
983	0.145
984	0.145
984	0.144
984	0.144
985	0.144
985	0.144
986	0.144
986	0.144
987	0.145
987	0.144
987	0.144
988	0.144
988	0.144
989	0.144
989	0.143
990	0.143
990	0.142
990	0.142
991	0.141
991	0.141
992	0.14
992	0.139
992	0.138
993	0.137
993	0.136
994	0.134
994	0.134
995	0.133
995	0.132
995	0.131
996	0.131
996	0.131
997	0.131
997	0.131
997	0.132
998	0.132
998	0.133
999	0.134
999	0.135
1000	0.135
1000	0.136
1000	0.137
1001	0.137
1001	0.137
1002	0.137
1002	0.136
1003	0.136
1003	0.135
1003	0.134
1004	0.133
1004	0.132
1005	0.131
1005	0.13
1005	0.129
1006	0.128
1006	0.127
1007	0.126
1007	0.126
1008	0.126
1008	0.126
1008	0.126
1009	0.127
1009	0.127
1010	0.128
1010	0.128
1010	0.129
1011	0.129
1011	0.129
1012	0.129
1012	0.129
1013	0.129
1013	0.129
1013	0.128
1014	0.127
1014	0.127
1015	0.127
1015	0.127
1016	0.126
1016	0.126
1016	0.126
1017	0.125
1017	0.125
1018	0.125
1018	0.125
1018	0.125
1019	0.125
1019	0.126
1020	0.126
1020	0.126
1021	0.126
1021	0.127
1021	0.127
1022	0.128
1022	0.128
1023	0.128
1023	0.129
1023	0.129
1024	0.129
1024	0.129
1025	0.129
1025	0.129
1026	0.129
1026	0.129
1026	0.128
1027	0.128
1027	0.127
1028	0.127
1028	0.127
1028	0.126
1029	0.126
1029	0.126
1030	0.126
1030	0.126
1031	0.126
1031	0.126
1031	0.126
1032	0.126
1032	0.126
1033	0.126
1033	0.126
1033	0.126
1034	0.126
1034	0.126
1035	0.125
1035	0.125
1036	0.125
1036	0.125
1036	0.124
1037	0.124
1037	0.124
1038	0.123
1038	0.123
1039	0.123
1039	0.123
1039	0.122
1040	0.122
1040	0.122
1041	0.122
1041	0.122
1041	0.121
1042	0.121
1042	0.121
1043	0.121
1043	0.121
1044	0.12
1044	0.12
1044	0.12
1045	0.12
1045	0.121
1046	0.121
1046	0.121
1046	0.121
1047	0.121
1047	0.122
1048	0.122
1048	0.122
1049	0.122
1049	0.122
1049	0.121
1050	0.121
1050	0.12
1051	0.12
1051	0.119
1051	0.118
1052	0.117
1052	0.116
1053	0.115
1053	0.114
1053	0.113
1054	0.113
1054	0.112
1055	0.111
1055	0.111
1056	0.11
1056	0.109
1056	0.109
1057	0.108
1057	0.108
1058	0.107
1058	0.106
1058	0.105
1059	0.104
1059	0.104
1060	0.103
1060	0.103
1061	0.102
1061	0.101
1061	0.101
1062	0.1
1062	0.1
1063	0.1
1063	0.1
1063	0.1
1064	0.1
1064	0.099
1065	0.099
1065	0.099
1066	0.099
1066	0.099
1066	0.099
1067	0.099
1067	0.099
1068	0.098
1068	0.098
1068	0.098
1069	0.098
1069	0.097
1070	0.097
1070	0.096
1071	0.095
1071	0.095
1071	0.094
1072	0.093
1072	0.093
1073	0.092
1073	0.092
1073	0.092
1074	0.093
1074	0.092
1075	0.092
1075	0.093
1076	0.093
1076	0.093
1076	0.094
1077	0.094
1077	0.094
1078	0.094
1078	0.094
1078	0.094
1079	0.093
1079	0.093
1080	0.093
1080	0.093
1080	0.092
1081	0.093
1081	0.093
1082	0.093
1082	0.093
1083	0.092
1083	0.092
1083	0.092
1084	0.092
1084	0.092
1085	0.092
1085	0.092
1085	0.092
1086	0.092
1086	0.091
1087	0.091
1087	0.091
1088	0.091
1088	0.09
1088	0.091
1089	0.09
1089	0.089
1090	0.088
1090	0.088
1090	0.087
1091	0.087
1091	0.086
1092	0.086
1092	0.086
1092	0.086
1093	0.085
1093	0.086
1094	0.085
1094	0.085
1095	0.084
1095	0.084
1095	0.083
1096	0.083
1096	0.082
1097	0.082
1097	0.081
1097	0.08
1098	0.079
1098	0.077
1099	0.077
1099	0.076
1100	0.074
1100	0.072
1100	0.071
1101	0.07
1101	0.069
1102	0.068
1102	0.066
1102	0.064
1103	0.064
1103	0.063
1104	0.061
1104	0.062
1104	0.061
1105	0.06
1105	0.058
1106	0.056
1106	0.054
1107	0.053
1107	0.052
1107	0.051
1108	0.05
1108	0.05
1109	0.047
1109	0.045
1109	0.046
1110	0.046
1110	0.045
1111	0.044
1111	0.045
