Data from reversibility-20sec_Absorbance__5489__000000000005489.txt Node

Date: Wed Dec 06 18:42:46 CET 2023
User: Marek
Spectrometer: MAYP115816
Trigger mode: 0
Integration Time (sec): 2.000000E-1
Scans to average: 10
Electric dark correction enabled: true
Nonlinearity correction enabled: true
Boxcar width: 5
XAxis mode: Wavelengths
Number of Pixels in Spectrum: 2068
>>>>>Begin Spectral Data<<<<<
199	-0.161
199	-0.136
200	-0.069
200	-0.01
201	0.017
201	0.036
202	0.051
202	0.057
203	0.063
203	0.067
204	0.08
204	0.094
205	0.107
205	0.113
205	0.108
206	0.11
206	0.107
207	0.108
207	0.11
208	0.11
208	0.107
209	0.11
209	0.108
210	0.11
210	0.111
211	0.111
211	0.113
212	0.11
212	0.109
213	0.111
213	0.112
213	0.113
214	0.114
214	0.114
215	0.112
215	0.112
216	0.114
216	0.112
217	0.118
217	0.119
218	0.118
218	0.125
219	0.127
219	0.129
220	0.133
220	0.134
221	0.135
221	0.136
221	0.143
222	0.146
222	0.15
223	0.156
223	0.159
224	0.163
224	0.171
225	0.179
225	0.19
226	0.201
226	0.212
227	0.22
227	0.229
228	0.245
228	0.258
229	0.272
229	0.295
229	0.318
230	0.342
230	0.369
231	0.398
231	0.434
232	0.472
232	0.516
233	0.56
233	0.608
234	0.658
234	0.711
235	0.763
235	0.816
236	0.866
236	0.919
236	0.973
237	1.023
237	1.072
238	1.118
238	1.165
239	1.212
239	1.254
240	1.292
240	1.331
241	1.37
241	1.404
242	1.434
242	1.466
243	1.497
243	1.52
243	1.546
244	1.568
244	1.591
245	1.611
245	1.633
246	1.651
246	1.67
247	1.684
247	1.699
248	1.711
248	1.727
249	1.736
249	1.743
250	1.75
250	1.757
250	1.759
251	1.762
251	1.762
252	1.765
252	1.766
253	1.767
253	1.763
254	1.764
254	1.765
255	1.762
255	1.762
256	1.761
256	1.76
257	1.761
257	1.76
258	1.761
258	1.761
258	1.763
259	1.763
259	1.763
260	1.763
260	1.765
261	1.768
261	1.77
262	1.773
262	1.775
263	1.778
263	1.778
264	1.779
264	1.781
265	1.781
265	1.782
265	1.781
266	1.782
266	1.781
267	1.779
267	1.78
268	1.78
268	1.78
269	1.781
269	1.78
270	1.78
270	1.779
271	1.776
271	1.775
272	1.773
272	1.77
272	1.765
273	1.757
273	1.75
274	1.743
274	1.736
275	1.729
275	1.723
276	1.715
276	1.707
277	1.698
277	1.689
278	1.676
278	1.665
278	1.652
279	1.633
279	1.611
280	1.584
280	1.55
281	1.513
281	1.47
282	1.426
282	1.381
283	1.338
283	1.296
284	1.255
284	1.217
285	1.18
285	1.147
285	1.117
286	1.091
286	1.069
287	1.05
287	1.034
288	1.02
288	1.008
289	0.997
289	0.989
290	0.982
290	0.975
291	0.97
291	0.965
292	0.96
292	0.956
292	0.952
293	0.949
293	0.946
294	0.943
294	0.94
295	0.937
295	0.934
296	0.931
296	0.928
297	0.925
297	0.922
298	0.92
298	0.917
298	0.914
299	0.912
299	0.909
300	0.907
300	0.904
301	0.902
301	0.9
302	0.897
302	0.895
303	0.893
303	0.891
304	0.889
304	0.887
305	0.885
305	0.883
305	0.881
306	0.879
306	0.877
307	0.875
307	0.872
308	0.87
308	0.867
309	0.865
309	0.862
310	0.859
310	0.856
311	0.853
311	0.85
311	0.847
312	0.844
312	0.841
313	0.837
313	0.833
314	0.83
314	0.826
315	0.822
315	0.818
316	0.814
316	0.809
317	0.805
317	0.8
318	0.796
318	0.791
318	0.786
319	0.78
319	0.775
320	0.77
320	0.764
321	0.758
321	0.752
322	0.746
322	0.74
323	0.734
323	0.727
324	0.721
324	0.714
324	0.708
325	0.701
325	0.694
326	0.688
326	0.681
327	0.674
327	0.667
328	0.66
328	0.654
329	0.647
329	0.64
330	0.633
330	0.626
330	0.619
331	0.612
331	0.605
332	0.598
332	0.591
333	0.584
333	0.578
334	0.571
334	0.564
335	0.557
335	0.551
336	0.544
336	0.538
336	0.532
337	0.525
337	0.519
338	0.513
338	0.507
339	0.501
339	0.495
340	0.489
340	0.483
341	0.478
341	0.472
342	0.467
342	0.461
342	0.456
343	0.451
343	0.446
344	0.441
344	0.437
345	0.432
345	0.427
346	0.423
346	0.418
347	0.414
347	0.41
348	0.406
348	0.402
348	0.398
349	0.394
349	0.391
350	0.387
350	0.384
351	0.381
351	0.377
352	0.374
352	0.371
353	0.369
353	0.366
354	0.363
354	0.36
354	0.357
355	0.355
355	0.352
356	0.349
356	0.346
357	0.343
357	0.341
358	0.338
358	0.336
359	0.333
359	0.331
360	0.329
360	0.327
360	0.326
361	0.324
361	0.322
362	0.321
362	0.319
363	0.317
363	0.315
364	0.314
364	0.312
365	0.31
365	0.308
366	0.307
366	0.305
366	0.303
367	0.302
367	0.3
368	0.299
368	0.297
369	0.296
369	0.294
370	0.293
370	0.292
371	0.291
371	0.289
372	0.288
372	0.287
372	0.286
373	0.285
373	0.284
374	0.283
374	0.282
375	0.281
375	0.28
376	0.28
376	0.279
377	0.278
377	0.277
378	0.276
378	0.275
378	0.275
379	0.274
379	0.274
380	0.273
380	0.272
381	0.272
381	0.271
382	0.271
382	0.27
383	0.27
383	0.269
383	0.269
384	0.268
384	0.267
385	0.267
385	0.267
386	0.266
386	0.266
387	0.265
387	0.265
388	0.264
388	0.264
389	0.263
389	0.263
389	0.263
390	0.262
390	0.262
391	0.262
391	0.262
392	0.262
392	0.262
393	0.261
393	0.261
394	0.261
394	0.26
394	0.26
395	0.26
395	0.259
396	0.259
396	0.259
397	0.258
397	0.258
398	0.258
398	0.257
399	0.257
399	0.257
400	0.257
400	0.256
400	0.256
401	0.256
401	0.256
402	0.256
402	0.255
403	0.255
403	0.255
404	0.255
404	0.255
405	0.255
405	0.255
405	0.254
406	0.254
406	0.253
407	0.253
407	0.253
408	0.253
408	0.252
409	0.252
409	0.252
410	0.251
410	0.251
411	0.251
411	0.251
411	0.251
412	0.25
412	0.25
413	0.25
413	0.249
414	0.249
414	0.249
415	0.249
415	0.248
416	0.248
416	0.247
416	0.247
417	0.247
417	0.247
418	0.246
418	0.246
419	0.246
419	0.245
420	0.245
420	0.244
421	0.244
421	0.244
421	0.243
422	0.243
422	0.243
423	0.242
423	0.242
424	0.242
424	0.241
425	0.241
425	0.241
426	0.241
426	0.241
427	0.24
427	0.24
427	0.24
428	0.239
428	0.239
429	0.239
429	0.238
430	0.238
430	0.238
431	0.238
431	0.237
432	0.237
432	0.237
432	0.237
433	0.237
433	0.237
434	0.236
434	0.236
435	0.236
435	0.236
436	0.236
436	0.236
437	0.235
437	0.235
437	0.235
438	0.235
438	0.234
439	0.234
439	0.234
440	0.233
440	0.233
441	0.233
441	0.233
442	0.233
442	0.233
442	0.232
443	0.232
443	0.232
444	0.232
444	0.231
445	0.231
445	0.231
446	0.231
446	0.23
447	0.23
447	0.23
447	0.23
448	0.23
448	0.229
449	0.229
449	0.229
450	0.229
450	0.228
451	0.228
451	0.228
452	0.228
452	0.227
452	0.227
453	0.227
453	0.227
454	0.227
454	0.226
455	0.226
455	0.226
456	0.226
456	0.226
457	0.225
457	0.225
458	0.225
458	0.225
458	0.225
459	0.225
459	0.224
460	0.224
460	0.224
461	0.224
461	0.224
462	0.223
462	0.223
463	0.223
463	0.222
463	0.222
464	0.222
464	0.221
465	0.221
465	0.221
466	0.22
466	0.22
467	0.22
467	0.22
467	0.22
468	0.22
468	0.22
469	0.22
469	0.22
470	0.22
470	0.22
471	0.22
471	0.22
472	0.22
472	0.22
472	0.22
473	0.22
473	0.22
474	0.22
474	0.22
475	0.219
475	0.219
476	0.219
476	0.219
477	0.219
477	0.219
477	0.219
478	0.219
478	0.219
479	0.219
479	0.219
480	0.219
480	0.219
481	0.219
481	0.219
482	0.219
482	0.219
482	0.219
483	0.219
483	0.219
484	0.219
484	0.219
485	0.219
485	0.219
486	0.219
486	0.219
487	0.219
487	0.22
487	0.22
488	0.22
488	0.22
489	0.22
489	0.221
490	0.222
490	0.222
491	0.222
491	0.223
492	0.223
492	0.223
492	0.223
493	0.223
493	0.223
494	0.224
494	0.224
495	0.224
495	0.224
496	0.225
496	0.225
496	0.226
497	0.226
497	0.226
498	0.227
498	0.227
499	0.228
499	0.228
500	0.229
500	0.229
501	0.23
501	0.23
501	0.23
502	0.23
502	0.23
503	0.231
503	0.231
504	0.231
504	0.232
505	0.232
505	0.232
506	0.233
506	0.233
506	0.234
507	0.234
507	0.234
508	0.235
508	0.235
509	0.235
509	0.235
510	0.236
510	0.236
511	0.237
511	0.238
511	0.238
512	0.239
512	0.239
513	0.239
513	0.24
514	0.24
514	0.241
515	0.241
515	0.242
515	0.242
516	0.242
516	0.243
517	0.243
517	0.244
518	0.244
518	0.244
519	0.245
519	0.245
520	0.245
520	0.245
520	0.245
521	0.245
521	0.245
522	0.245
522	0.246
523	0.246
523	0.246
524	0.246
524	0.246
524	0.246
525	0.247
525	0.246
526	0.246
526	0.247
527	0.247
527	0.247
528	0.247
528	0.248
529	0.248
529	0.248
529	0.248
530	0.248
530	0.248
531	0.248
531	0.248
532	0.248
532	0.247
533	0.247
533	0.247
533	0.247
534	0.247
534	0.247
535	0.247
535	0.247
536	0.247
536	0.247
537	0.247
537	0.247
538	0.247
538	0.247
538	0.247
539	0.247
539	0.247
540	0.247
540	0.247
541	0.246
541	0.246
542	0.246
542	0.245
542	0.245
543	0.245
543	0.245
544	0.245
544	0.245
545	0.245
545	0.245
546	0.244
546	0.244
547	0.244
547	0.243
547	0.243
548	0.243
548	0.243
549	0.243
549	0.242
550	0.242
550	0.242
551	0.242
551	0.241
551	0.241
552	0.241
552	0.241
553	0.24
553	0.24
554	0.239
554	0.238
555	0.238
555	0.237
556	0.237
556	0.236
556	0.237
557	0.237
557	0.237
558	0.237
558	0.237
559	0.237
559	0.237
560	0.237
560	0.236
560	0.236
561	0.236
561	0.236
562	0.235
562	0.235
563	0.234
563	0.233
564	0.233
564	0.232
564	0.232
565	0.232
565	0.232
566	0.231
566	0.231
567	0.231
567	0.231
568	0.231
568	0.231
568	0.23
569	0.23
569	0.23
570	0.229
570	0.228
571	0.228
571	0.228
572	0.227
572	0.227
573	0.226
573	0.226
573	0.226
574	0.225
574	0.225
575	0.225
575	0.225
576	0.225
576	0.225
577	0.224
577	0.223
577	0.223
578	0.223
578	0.222
579	0.222
579	0.222
580	0.222
580	0.221
581	0.22
581	0.22
581	0.22
582	0.22
582	0.22
583	0.221
583	0.22
584	0.22
584	0.219
585	0.218
585	0.219
585	0.218
586	0.218
586	0.217
587	0.216
587	0.216
588	0.215
588	0.215
589	0.215
589	0.215
590	0.214
590	0.214
590	0.215
591	0.215
591	0.215
592	0.215
592	0.214
593	0.214
593	0.214
594	0.213
594	0.212
594	0.212
595	0.212
595	0.211
596	0.211
596	0.211
597	0.212
597	0.212
598	0.212
598	0.212
598	0.211
599	0.211
599	0.211
600	0.21
600	0.21
601	0.21
601	0.209
602	0.209
602	0.208
602	0.208
603	0.208
603	0.208
604	0.208
604	0.208
605	0.208
605	0.209
606	0.208
606	0.207
606	0.207
607	0.207
607	0.206
608	0.206
608	0.206
609	0.205
609	0.205
610	0.204
610	0.204
610	0.204
611	0.204
611	0.204
612	0.204
612	0.205
613	0.205
613	0.204
614	0.204
614	0.204
614	0.204
615	0.204
615	0.204
616	0.204
616	0.204
617	0.204
617	0.204
618	0.203
618	0.204
618	0.204
619	0.204
619	0.204
620	0.204
620	0.204
621	0.204
621	0.204
622	0.203
622	0.203
622	0.202
623	0.202
623	0.202
624	0.201
624	0.201
625	0.2
625	0.2
626	0.2
626	0.199
626	0.2
627	0.2
627	0.199
628	0.199
628	0.198
629	0.198
629	0.197
630	0.197
630	0.196
630	0.196
631	0.196
631	0.196
632	0.196
632	0.196
633	0.196
633	0.196
634	0.197
634	0.197
634	0.197
635	0.197
635	0.197
636	0.197
636	0.197
637	0.197
637	0.196
638	0.196
638	0.196
638	0.195
639	0.195
639	0.195
640	0.195
640	0.194
641	0.194
641	0.194
642	0.194
642	0.194
642	0.194
643	0.195
643	0.195
644	0.195
644	0.195
645	0.194
645	0.195
646	0.195
646	0.195
646	0.195
647	0.195
647	0.194
648	0.193
648	0.193
649	0.193
649	0.193
650	0.193
650	0.192
650	0.192
651	0.192
651	0.192
652	0.192
652	0.192
653	0.192
653	0.194
653	0.2
654	0.157
654	0.126
655	0.126
655	0.127
656	0.127
656	0.128
657	0.128
657	0.129
657	0.129
658	0.127
658	0.117
659	0.147
659	0.189
660	0.194
660	0.194
661	0.193
661	0.193
661	0.193
662	0.192
662	0.192
663	0.192
663	0.192
664	0.191
664	0.191
665	0.191
665	0.191
665	0.191
666	0.192
666	0.192
667	0.192
667	0.193
668	0.193
668	0.194
669	0.194
669	0.195
669	0.195
670	0.196
670	0.196
671	0.196
671	0.196
672	0.196
672	0.195
672	0.195
673	0.194
673	0.194
674	0.194
674	0.193
675	0.192
675	0.192
676	0.192
676	0.192
676	0.192
677	0.192
677	0.192
678	0.191
678	0.191
679	0.191
679	0.191
680	0.191
680	0.191
680	0.191
681	0.191
681	0.192
682	0.192
682	0.193
683	0.193
683	0.194
684	0.195
684	0.195
684	0.195
685	0.195
685	0.195
686	0.195
686	0.195
687	0.195
687	0.195
687	0.195
688	0.194
688	0.194
689	0.194
689	0.195
690	0.195
690	0.194
691	0.194
691	0.194
691	0.194
692	0.194
692	0.194
693	0.194
693	0.195
694	0.194
694	0.194
695	0.195
695	0.196
695	0.196
696	0.195
696	0.195
697	0.195
697	0.195
698	0.194
698	0.194
698	0.194
699	0.194
699	0.193
700	0.193
700	0.194
701	0.194
701	0.194
702	0.194
702	0.195
702	0.195
703	0.196
703	0.196
704	0.196
704	0.196
705	0.197
705	0.197
705	0.197
706	0.197
706	0.197
707	0.197
707	0.197
708	0.198
708	0.198
709	0.199
709	0.199
709	0.198
710	0.198
710	0.199
711	0.199
711	0.199
712	0.198
712	0.198
713	0.198
713	0.197
713	0.197
714	0.197
714	0.196
715	0.196
715	0.196
716	0.196
716	0.196
716	0.195
717	0.195
717	0.195
718	0.195
718	0.194
719	0.195
719	0.195
720	0.196
720	0.197
720	0.197
721	0.198
721	0.198
722	0.199
722	0.2
723	0.2
723	0.201
723	0.201
724	0.201
724	0.201
725	0.2
725	0.2
726	0.199
726	0.199
727	0.198
727	0.198
727	0.197
728	0.197
728	0.197
729	0.197
729	0.197
730	0.196
730	0.196
730	0.197
731	0.197
731	0.198
732	0.198
732	0.199
733	0.199
733	0.199
734	0.199
734	0.199
734	0.2
735	0.201
735	0.201
736	0.201
736	0.201
737	0.201
737	0.202
737	0.202
738	0.202
738	0.201
739	0.201
739	0.201
740	0.2
740	0.2
741	0.2
741	0.2
741	0.2
742	0.2
742	0.2
743	0.202
743	0.202
744	0.203
744	0.204
744	0.204
745	0.204
745	0.205
746	0.205
746	0.205
747	0.205
747	0.205
748	0.205
748	0.205
748	0.205
749	0.205
749	0.205
750	0.204
750	0.204
751	0.203
751	0.203
751	0.203
752	0.202
752	0.201
753	0.201
753	0.2
754	0.2
754	0.2
754	0.2
755	0.2
755	0.201
756	0.2
756	0.2
757	0.199
757	0.2
758	0.2
758	0.2
758	0.201
759	0.202
759	0.202
760	0.202
760	0.202
761	0.202
761	0.203
761	0.204
762	0.204
762	0.204
763	0.204
763	0.204
764	0.204
764	0.204
764	0.204
765	0.203
765	0.203
766	0.203
766	0.203
767	0.203
767	0.202
768	0.201
768	0.201
768	0.202
769	0.202
769	0.202
770	0.202
770	0.203
771	0.203
771	0.204
771	0.204
772	0.205
772	0.206
773	0.206
773	0.206
774	0.207
774	0.207
775	0.208
775	0.208
775	0.208
776	0.208
776	0.209
777	0.209
777	0.209
778	0.209
778	0.209
778	0.209
779	0.209
779	0.209
780	0.208
780	0.208
781	0.208
781	0.208
781	0.208
782	0.208
782	0.208
783	0.209
783	0.21
784	0.21
784	0.21
784	0.211
785	0.212
785	0.212
786	0.212
786	0.213
787	0.213
787	0.212
788	0.211
788	0.211
788	0.21
789	0.209
789	0.208
790	0.208
790	0.207
791	0.206
791	0.206
791	0.205
792	0.206
792	0.206
793	0.206
793	0.207
794	0.207
794	0.207
794	0.207
795	0.208
795	0.208
796	0.209
796	0.209
797	0.209
797	0.209
797	0.21
798	0.21
798	0.21
799	0.21
799	0.21
800	0.21
800	0.21
801	0.21
801	0.21
801	0.21
802	0.21
802	0.21
803	0.21
803	0.21
804	0.211
804	0.211
804	0.211
805	0.211
805	0.211
806	0.21
806	0.21
807	0.21
807	0.21
807	0.21
808	0.21
808	0.21
809	0.21
809	0.211
810	0.211
810	0.211
810	0.212
811	0.212
811	0.213
812	0.214
812	0.215
813	0.215
813	0.216
813	0.216
814	0.217
814	0.218
815	0.219
815	0.219
816	0.22
816	0.219
817	0.219
817	0.219
817	0.219
818	0.218
818	0.218
819	0.218
819	0.218
820	0.217
820	0.217
820	0.217
821	0.217
821	0.217
822	0.217
822	0.217
823	0.217
823	0.216
823	0.217
824	0.217
824	0.218
825	0.219
825	0.219
826	0.219
826	0.219
826	0.22
827	0.22
827	0.22
828	0.22
828	0.22
829	0.22
829	0.22
829	0.22
830	0.22
830	0.221
831	0.222
831	0.222
832	0.222
832	0.222
832	0.222
833	0.222
833	0.221
834	0.221
834	0.221
835	0.221
835	0.22
835	0.22
836	0.22
836	0.221
837	0.221
837	0.221
838	0.221
838	0.22
839	0.22
839	0.219
839	0.218
840	0.217
840	0.216
841	0.215
841	0.214
842	0.213
842	0.212
842	0.212
843	0.211
843	0.21
844	0.21
844	0.209
845	0.209
845	0.209
845	0.209
846	0.209
846	0.209
847	0.209
847	0.21
848	0.21
848	0.211
848	0.212
849	0.213
849	0.214
850	0.215
850	0.215
851	0.216
851	0.216
851	0.217
852	0.216
852	0.216
853	0.216
853	0.215
854	0.216
854	0.216
854	0.216
855	0.217
855	0.217
856	0.217
856	0.218
857	0.218
857	0.219
857	0.219
858	0.219
858	0.219
859	0.218
859	0.218
860	0.217
860	0.216
860	0.215
861	0.215
861	0.214
862	0.213
862	0.212
863	0.212
863	0.211
863	0.212
864	0.212
864	0.212
865	0.213
865	0.213
866	0.213
866	0.213
866	0.214
867	0.214
867	0.215
868	0.216
868	0.216
869	0.217
869	0.217
869	0.217
870	0.217
870	0.217
871	0.218
871	0.218
872	0.218
872	0.218
872	0.217
873	0.217
873	0.216
874	0.216
874	0.215
875	0.214
875	0.214
875	0.213
876	0.213
876	0.212
877	0.212
877	0.212
878	0.211
878	0.211
878	0.212
879	0.212
879	0.212
880	0.212
880	0.212
881	0.213
881	0.213
881	0.213
882	0.212
882	0.212
883	0.212
883	0.212
884	0.212
884	0.212
884	0.212
885	0.212
885	0.212
886	0.211
886	0.211
887	0.21
887	0.209
887	0.208
888	0.207
888	0.207
889	0.206
889	0.206
890	0.205
890	0.205
890	0.205
891	0.205
891	0.205
892	0.205
892	0.205
893	0.205
893	0.205
893	0.205
894	0.205
894	0.204
895	0.204
895	0.205
895	0.205
896	0.205
896	0.205
897	0.206
897	0.206
898	0.206
898	0.206
898	0.206
899	0.205
899	0.205
900	0.205
900	0.204
901	0.203
901	0.203
901	0.202
902	0.201
902	0.2
903	0.2
903	0.199
904	0.198
904	0.198
904	0.197
905	0.197
905	0.196
906	0.196
906	0.196
907	0.196
907	0.196
907	0.196
908	0.196
908	0.196
909	0.195
909	0.195
910	0.195
910	0.195
910	0.194
911	0.194
911	0.193
912	0.193
912	0.193
913	0.193
913	0.193
913	0.193
914	0.193
914	0.194
915	0.194
915	0.194
916	0.194
916	0.195
916	0.195
917	0.194
917	0.194
918	0.194
918	0.194
918	0.193
919	0.193
919	0.193
920	0.193
920	0.192
921	0.192
921	0.192
921	0.191
922	0.191
922	0.191
923	0.191
923	0.191
924	0.191
924	0.192
924	0.192
925	0.192
925	0.193
926	0.193
926	0.193
927	0.193
927	0.193
927	0.193
928	0.193
928	0.192
929	0.192
929	0.191
930	0.19
930	0.189
930	0.188
931	0.187
931	0.187
932	0.186
932	0.185
933	0.185
933	0.185
933	0.184
934	0.184
934	0.184
935	0.184
935	0.184
935	0.184
936	0.184
936	0.184
937	0.184
937	0.183
938	0.183
938	0.183
938	0.182
939	0.182
939	0.181
940	0.18
940	0.18
941	0.179
941	0.179
941	0.179
942	0.178
942	0.178
943	0.178
943	0.178
944	0.177
944	0.177
944	0.178
945	0.178
945	0.178
946	0.178
946	0.178
946	0.178
947	0.178
947	0.178
948	0.178
948	0.178
949	0.178
949	0.177
949	0.176
950	0.176
950	0.175
951	0.175
951	0.174
952	0.173
952	0.172
952	0.172
953	0.172
953	0.172
954	0.172
954	0.171
955	0.172
955	0.171
955	0.171
956	0.171
956	0.171
957	0.171
957	0.171
957	0.171
958	0.171
958	0.17
959	0.17
959	0.169
960	0.169
960	0.168
960	0.168
961	0.167
961	0.167
962	0.167
962	0.166
963	0.166
963	0.166
963	0.167
964	0.167
964	0.167
965	0.167
965	0.168
966	0.168
966	0.168
966	0.167
967	0.167
967	0.167
968	0.167
968	0.166
968	0.166
969	0.165
969	0.164
970	0.163
970	0.162
971	0.162
971	0.161
971	0.16
972	0.16
972	0.159
973	0.158
973	0.158
974	0.158
974	0.157
974	0.157
975	0.157
975	0.157
976	0.158
976	0.158
976	0.158
977	0.158
977	0.158
978	0.157
978	0.157
979	0.157
979	0.157
979	0.157
980	0.156
980	0.156
981	0.155
981	0.154
982	0.154
982	0.154
982	0.153
983	0.153
983	0.153
984	0.153
984	0.152
984	0.152
985	0.152
985	0.152
986	0.151
986	0.151
987	0.151
987	0.15
987	0.15
988	0.15
988	0.149
989	0.149
989	0.148
990	0.148
990	0.147
990	0.147
991	0.146
991	0.146
992	0.145
992	0.144
992	0.144
993	0.143
993	0.142
994	0.141
994	0.141
995	0.14
995	0.14
995	0.14
996	0.14
996	0.14
997	0.141
997	0.141
997	0.141
998	0.142
998	0.142
999	0.143
999	0.144
1000	0.144
1000	0.145
1000	0.145
1001	0.145
1001	0.145
1002	0.144
1002	0.144
1003	0.144
1003	0.143
1003	0.142
1004	0.141
1004	0.14
1005	0.14
1005	0.139
1005	0.138
1006	0.138
1006	0.138
1007	0.137
1007	0.137
1008	0.137
1008	0.137
1008	0.138
1009	0.138
1009	0.138
1010	0.138
1010	0.139
1010	0.139
1011	0.139
1011	0.139
1012	0.139
1012	0.139
1013	0.139
1013	0.138
1013	0.138
1014	0.137
1014	0.137
1015	0.137
1015	0.137
1016	0.136
1016	0.136
1016	0.135
1017	0.135
1017	0.134
1018	0.134
1018	0.134
1018	0.133
1019	0.133
1019	0.132
1020	0.131
1020	0.131
1021	0.131
1021	0.131
1021	0.131
1022	0.132
1022	0.132
1023	0.132
1023	0.132
1023	0.132
1024	0.132
1024	0.132
1025	0.132
1025	0.132
1026	0.132
1026	0.131
1026	0.131
1027	0.131
1027	0.131
1028	0.13
1028	0.13
1028	0.13
1029	0.13
1029	0.13
1030	0.13
1030	0.13
1031	0.13
1031	0.13
1031	0.13
1032	0.131
1032	0.131
1033	0.131
1033	0.131
1033	0.131
1034	0.131
1034	0.131
1035	0.13
1035	0.13
1036	0.13
1036	0.13
1036	0.13
1037	0.13
1037	0.13
1038	0.13
1038	0.129
1039	0.129
1039	0.13
1039	0.13
1040	0.13
1040	0.13
1041	0.13
1041	0.13
1041	0.13
1042	0.13
1042	0.129
1043	0.129
1043	0.129
1044	0.129
1044	0.129
1044	0.129
1045	0.129
1045	0.128
1046	0.128
1046	0.128
1046	0.128
1047	0.128
1047	0.128
1048	0.129
1048	0.129
1049	0.129
1049	0.128
1049	0.128
1050	0.127
1050	0.127
1051	0.126
1051	0.125
1051	0.125
1052	0.124
1052	0.123
1053	0.121
1053	0.12
1053	0.12
1054	0.119
1054	0.118
1055	0.118
1055	0.117
1056	0.117
1056	0.116
1056	0.115
1057	0.115
1057	0.114
1058	0.114
1058	0.113
1058	0.112
1059	0.111
1059	0.111
1060	0.11
1060	0.109
1061	0.109
1061	0.108
1061	0.108
1062	0.107
1062	0.107
1063	0.107
1063	0.107
1063	0.107
1064	0.106
1064	0.106
1065	0.106
1065	0.105
1066	0.105
1066	0.105
1066	0.105
1067	0.104
1067	0.104
1068	0.104
1068	0.103
1068	0.103
1069	0.103
1069	0.102
1070	0.102
1070	0.101
1071	0.1
1071	0.1
1071	0.099
1072	0.098
1072	0.097
1073	0.096
1073	0.096
1073	0.095
1074	0.095
1074	0.095
1075	0.094
1075	0.095
1076	0.095
1076	0.095
1076	0.095
1077	0.095
1077	0.095
1078	0.095
1078	0.095
1078	0.094
1079	0.094
1079	0.093
1080	0.093
1080	0.093
1080	0.093
1081	0.092
1081	0.092
1082	0.092
1082	0.093
1083	0.092
1083	0.092
1083	0.092
1084	0.092
1084	0.092
1085	0.092
1085	0.092
1085	0.092
1086	0.092
1086	0.091
1087	0.091
1087	0.09
1088	0.09
1088	0.09
1088	0.09
1089	0.089
1089	0.088
1090	0.087
1090	0.087
1090	0.086
1091	0.086
1091	0.086
1092	0.086
1092	0.086
1092	0.086
1093	0.086
1093	0.087
1094	0.086
1094	0.086
1095	0.085
1095	0.085
1095	0.085
1096	0.084
1096	0.083
1097	0.082
1097	0.08
1097	0.079
1098	0.078
1098	0.077
1099	0.076
1099	0.074
1100	0.073
1100	0.072
1100	0.07
1101	0.069
1101	0.067
1102	0.067
1102	0.065
1102	0.063
1103	0.062
1103	0.06
1104	0.06
1104	0.06
1104	0.059
1105	0.057
1105	0.055
1106	0.053
1106	0.051
1107	0.051
1107	0.051
1107	0.05
1108	0.05
1108	0.048
1109	0.046
1109	0.046
1109	0.046
1110	0.047
1110	0.047
1111	0.046
1111	0.044
