Data from reversibility-20sec_Absorbance__1384__000000000001384.txt Node

Date: Tue Dec 05 19:54:26 CET 2023
User: Marek
Spectrometer: MAYP115816
Trigger mode: 0
Integration Time (sec): 2.000000E-1
Scans to average: 10
Electric dark correction enabled: true
Nonlinearity correction enabled: true
Boxcar width: 5
XAxis mode: Wavelengths
Number of Pixels in Spectrum: 2068
>>>>>Begin Spectral Data<<<<<
199	-0.21
199	-0.184
200	-0.11
200	-0.054
201	-0.022
201	-0.006
202	0.004
202	0.011
203	0.017
203	0.019
204	0.032
204	0.047
205	0.061
205	0.064
205	0.062
206	0.063
206	0.062
207	0.065
207	0.064
208	0.063
208	0.066
209	0.068
209	0.065
210	0.064
210	0.068
211	0.067
211	0.067
212	0.066
212	0.066
213	0.072
213	0.075
213	0.072
214	0.077
214	0.078
215	0.081
215	0.081
216	0.083
216	0.081
217	0.086
217	0.088
218	0.085
218	0.087
219	0.092
219	0.093
220	0.096
220	0.096
221	0.097
221	0.1
221	0.105
222	0.109
222	0.113
223	0.119
223	0.121
224	0.127
224	0.137
225	0.144
225	0.158
226	0.167
226	0.177
227	0.189
227	0.199
228	0.213
228	0.231
229	0.249
229	0.27
229	0.294
230	0.321
230	0.347
231	0.377
231	0.417
232	0.453
232	0.501
233	0.545
233	0.592
234	0.644
234	0.699
235	0.748
235	0.8
236	0.854
236	0.91
236	0.962
237	1.017
237	1.064
238	1.114
238	1.161
239	1.213
239	1.259
240	1.304
240	1.345
241	1.384
241	1.42
242	1.457
242	1.494
243	1.529
243	1.56
243	1.592
244	1.616
244	1.639
245	1.659
245	1.684
246	1.707
246	1.731
247	1.747
247	1.765
248	1.784
248	1.802
249	1.816
249	1.825
250	1.838
250	1.853
250	1.864
251	1.869
251	1.874
252	1.883
252	1.886
253	1.891
253	1.891
254	1.892
254	1.9
255	1.9
255	1.902
256	1.905
256	1.909
257	1.912
257	1.914
258	1.916
258	1.918
258	1.921
259	1.925
259	1.926
260	1.927
260	1.928
261	1.93
261	1.934
262	1.939
262	1.941
263	1.948
263	1.95
264	1.953
264	1.954
265	1.958
265	1.961
265	1.965
266	1.968
266	1.969
267	1.966
267	1.969
268	1.969
268	1.969
269	1.972
269	1.973
270	1.973
270	1.974
271	1.973
271	1.972
272	1.971
272	1.972
272	1.968
273	1.962
273	1.956
274	1.952
274	1.947
275	1.94
275	1.935
276	1.927
276	1.921
277	1.914
277	1.904
278	1.895
278	1.886
278	1.872
279	1.855
279	1.835
280	1.812
280	1.782
281	1.747
281	1.707
282	1.666
282	1.625
283	1.583
283	1.541
284	1.501
284	1.462
285	1.425
285	1.391
285	1.361
286	1.333
286	1.31
287	1.288
287	1.27
288	1.254
288	1.24
289	1.229
289	1.218
290	1.209
290	1.201
291	1.194
291	1.188
292	1.182
292	1.177
292	1.172
293	1.167
293	1.163
294	1.159
294	1.156
295	1.152
295	1.149
296	1.145
296	1.142
297	1.139
297	1.135
298	1.132
298	1.129
298	1.126
299	1.123
299	1.12
300	1.116
300	1.113
301	1.11
301	1.108
302	1.105
302	1.102
303	1.099
303	1.097
304	1.094
304	1.091
305	1.088
305	1.085
305	1.082
306	1.08
306	1.077
307	1.074
307	1.071
308	1.069
308	1.066
309	1.062
309	1.059
310	1.056
310	1.053
311	1.049
311	1.045
311	1.042
312	1.038
312	1.034
313	1.029
313	1.025
314	1.021
314	1.017
315	1.012
315	1.008
316	1.003
316	0.999
317	0.994
317	0.988
318	0.983
318	0.978
318	0.972
319	0.967
319	0.961
320	0.955
320	0.949
321	0.943
321	0.936
322	0.93
322	0.923
323	0.917
323	0.91
324	0.904
324	0.897
324	0.89
325	0.883
325	0.877
326	0.869
326	0.862
327	0.855
327	0.848
328	0.841
328	0.834
329	0.827
329	0.82
330	0.812
330	0.805
330	0.798
331	0.79
331	0.783
332	0.776
332	0.769
333	0.762
333	0.754
334	0.747
334	0.74
335	0.733
335	0.726
336	0.719
336	0.712
336	0.706
337	0.699
337	0.693
338	0.686
338	0.68
339	0.674
339	0.668
340	0.662
340	0.657
341	0.651
341	0.645
342	0.64
342	0.634
342	0.628
343	0.623
343	0.618
344	0.612
344	0.607
345	0.602
345	0.597
346	0.593
346	0.588
347	0.583
347	0.579
348	0.574
348	0.57
348	0.566
349	0.562
349	0.559
350	0.555
350	0.551
351	0.547
351	0.544
352	0.541
352	0.537
353	0.534
353	0.531
354	0.528
354	0.525
354	0.521
355	0.518
355	0.515
356	0.512
356	0.51
357	0.506
357	0.503
358	0.5
358	0.497
359	0.494
359	0.492
360	0.489
360	0.487
360	0.485
361	0.482
361	0.48
362	0.479
362	0.477
363	0.475
363	0.473
364	0.471
364	0.468
365	0.466
365	0.464
366	0.462
366	0.46
366	0.458
367	0.456
367	0.454
368	0.452
368	0.45
369	0.449
369	0.447
370	0.445
370	0.444
371	0.442
371	0.44
372	0.439
372	0.437
372	0.436
373	0.434
373	0.433
374	0.431
374	0.43
375	0.429
375	0.428
376	0.427
376	0.425
377	0.424
377	0.423
378	0.421
378	0.42
378	0.419
379	0.418
379	0.417
380	0.416
380	0.415
381	0.414
381	0.412
382	0.411
382	0.41
383	0.41
383	0.409
383	0.408
384	0.407
384	0.406
385	0.405
385	0.404
386	0.403
386	0.402
387	0.401
387	0.401
388	0.4
388	0.399
389	0.398
389	0.398
389	0.397
390	0.396
390	0.396
391	0.395
391	0.395
392	0.394
392	0.393
393	0.393
393	0.392
394	0.391
394	0.39
394	0.39
395	0.389
395	0.388
396	0.387
396	0.386
397	0.386
397	0.385
398	0.384
398	0.384
399	0.383
399	0.382
400	0.382
400	0.382
400	0.381
401	0.381
401	0.38
402	0.379
402	0.379
403	0.378
403	0.378
404	0.377
404	0.377
405	0.376
405	0.376
405	0.375
406	0.375
406	0.374
407	0.374
407	0.373
408	0.373
408	0.372
409	0.371
409	0.371
410	0.37
410	0.37
411	0.369
411	0.369
411	0.369
412	0.368
412	0.368
413	0.367
413	0.367
414	0.366
414	0.366
415	0.366
415	0.365
416	0.364
416	0.364
416	0.364
417	0.363
417	0.363
418	0.363
418	0.362
419	0.362
419	0.361
420	0.361
420	0.36
421	0.36
421	0.359
421	0.359
422	0.359
422	0.358
423	0.358
423	0.357
424	0.357
424	0.356
425	0.356
425	0.356
426	0.355
426	0.355
427	0.355
427	0.354
427	0.354
428	0.354
428	0.353
429	0.353
429	0.352
430	0.352
430	0.352
431	0.351
431	0.351
432	0.351
432	0.351
432	0.35
433	0.35
433	0.35
434	0.35
434	0.35
435	0.35
435	0.349
436	0.349
436	0.349
437	0.349
437	0.348
437	0.349
438	0.348
438	0.348
439	0.348
439	0.348
440	0.348
440	0.348
441	0.348
441	0.348
442	0.347
442	0.347
442	0.347
443	0.347
443	0.347
444	0.346
444	0.346
445	0.346
445	0.346
446	0.346
446	0.346
447	0.346
447	0.346
447	0.345
448	0.345
448	0.345
449	0.345
449	0.345
450	0.345
450	0.345
451	0.345
451	0.345
452	0.345
452	0.345
452	0.345
453	0.345
453	0.345
454	0.345
454	0.344
455	0.344
455	0.344
456	0.344
456	0.344
457	0.344
457	0.344
458	0.344
458	0.345
458	0.345
459	0.345
459	0.345
460	0.345
460	0.345
461	0.346
461	0.345
462	0.346
462	0.346
463	0.346
463	0.346
463	0.346
464	0.346
464	0.346
465	0.346
465	0.346
466	0.346
466	0.346
467	0.347
467	0.347
467	0.347
468	0.347
468	0.347
469	0.348
469	0.348
470	0.349
470	0.349
471	0.35
471	0.351
472	0.351
472	0.352
472	0.352
473	0.353
473	0.353
474	0.354
474	0.354
475	0.354
475	0.355
476	0.355
476	0.356
477	0.356
477	0.357
477	0.358
478	0.359
478	0.359
479	0.36
479	0.361
480	0.362
480	0.362
481	0.363
481	0.364
482	0.364
482	0.365
482	0.366
483	0.367
483	0.368
484	0.369
484	0.37
485	0.371
485	0.372
486	0.373
486	0.373
487	0.374
487	0.376
487	0.377
488	0.378
488	0.379
489	0.38
489	0.382
490	0.384
490	0.385
491	0.387
491	0.389
492	0.39
492	0.391
492	0.393
493	0.394
493	0.396
494	0.398
494	0.399
495	0.4
495	0.402
496	0.403
496	0.405
496	0.407
497	0.408
497	0.41
498	0.411
498	0.413
499	0.414
499	0.416
500	0.418
500	0.42
501	0.421
501	0.423
501	0.424
502	0.425
502	0.427
503	0.428
503	0.43
504	0.431
504	0.433
505	0.434
505	0.435
506	0.437
506	0.438
506	0.44
507	0.442
507	0.443
508	0.444
508	0.446
509	0.447
509	0.449
510	0.45
510	0.451
511	0.453
511	0.454
511	0.455
512	0.457
512	0.458
513	0.459
513	0.46
514	0.461
514	0.461
515	0.462
515	0.463
515	0.463
516	0.464
516	0.465
517	0.466
517	0.467
518	0.467
518	0.467
519	0.467
519	0.468
520	0.468
520	0.468
520	0.468
521	0.468
521	0.468
522	0.468
522	0.467
523	0.467
523	0.467
524	0.467
524	0.467
524	0.467
525	0.466
525	0.465
526	0.465
526	0.464
527	0.463
527	0.462
528	0.461
528	0.46
529	0.459
529	0.458
529	0.457
530	0.455
530	0.454
531	0.453
531	0.451
532	0.45
532	0.448
533	0.446
533	0.445
533	0.443
534	0.441
534	0.439
535	0.438
535	0.436
536	0.434
536	0.432
537	0.43
537	0.427
538	0.425
538	0.423
538	0.421
539	0.418
539	0.416
540	0.414
540	0.411
541	0.408
541	0.406
542	0.403
542	0.401
542	0.398
543	0.396
543	0.393
544	0.39
544	0.387
545	0.385
545	0.383
546	0.38
546	0.377
547	0.374
547	0.372
547	0.369
548	0.367
548	0.364
549	0.361
549	0.359
550	0.356
550	0.353
551	0.35
551	0.347
551	0.344
552	0.341
552	0.338
553	0.336
553	0.333
554	0.33
554	0.328
555	0.325
555	0.322
556	0.319
556	0.317
556	0.314
557	0.312
557	0.31
558	0.308
558	0.306
559	0.303
559	0.301
560	0.298
560	0.296
560	0.293
561	0.291
561	0.289
562	0.286
562	0.284
563	0.281
563	0.278
564	0.276
564	0.273
564	0.271
565	0.269
565	0.267
566	0.264
566	0.262
567	0.26
567	0.258
568	0.256
568	0.255
568	0.253
569	0.251
569	0.249
570	0.247
570	0.245
571	0.244
571	0.242
572	0.24
572	0.237
573	0.236
573	0.234
573	0.232
574	0.23
574	0.228
575	0.227
575	0.225
576	0.224
576	0.222
577	0.22
577	0.218
577	0.217
578	0.215
578	0.214
579	0.213
579	0.212
580	0.21
580	0.208
581	0.206
581	0.205
581	0.204
582	0.203
582	0.202
583	0.201
583	0.2
584	0.197
584	0.195
585	0.194
585	0.193
585	0.191
586	0.19
586	0.188
587	0.187
587	0.185
588	0.184
588	0.182
589	0.181
589	0.181
590	0.18
590	0.179
590	0.179
591	0.178
591	0.177
592	0.175
592	0.174
593	0.173
593	0.172
594	0.171
594	0.169
594	0.168
595	0.167
595	0.166
596	0.164
596	0.164
597	0.164
597	0.163
598	0.162
598	0.161
598	0.16
599	0.16
599	0.159
600	0.158
600	0.157
601	0.156
601	0.155
602	0.154
602	0.153
602	0.152
603	0.151
603	0.151
604	0.151
604	0.15
605	0.149
605	0.149
606	0.148
606	0.147
606	0.146
607	0.145
607	0.145
608	0.144
608	0.142
609	0.141
609	0.141
610	0.14
610	0.139
610	0.138
611	0.138
611	0.137
612	0.137
612	0.137
613	0.136
613	0.136
614	0.135
614	0.134
614	0.134
615	0.133
615	0.133
616	0.132
616	0.132
617	0.131
617	0.131
618	0.13
618	0.13
618	0.129
619	0.129
619	0.129
620	0.129
620	0.128
621	0.127
621	0.127
622	0.126
622	0.125
622	0.124
623	0.123
623	0.123
624	0.122
624	0.121
625	0.121
625	0.12
626	0.12
626	0.119
626	0.119
627	0.119
627	0.118
628	0.118
628	0.117
629	0.117
629	0.116
630	0.115
630	0.115
630	0.114
631	0.114
631	0.114
632	0.113
632	0.113
633	0.112
633	0.112
634	0.112
634	0.112
634	0.112
635	0.111
635	0.11
636	0.11
636	0.11
637	0.109
637	0.108
638	0.108
638	0.107
638	0.107
639	0.106
639	0.106
640	0.106
640	0.106
641	0.106
641	0.105
642	0.105
642	0.105
642	0.105
643	0.104
643	0.104
644	0.103
644	0.103
645	0.102
645	0.102
646	0.102
646	0.101
646	0.101
647	0.1
647	0.1
648	0.1
648	0.099
649	0.099
649	0.098
650	0.098
650	0.098
650	0.098
651	0.097
651	0.097
652	0.096
652	0.096
653	0.096
653	0.098
653	0.105
654	0.084
654	0.069
655	0.067
655	0.067
656	0.067
656	0.067
657	0.067
657	0.067
657	0.067
658	0.065
658	0.057
659	0.071
659	0.089
660	0.093
660	0.093
661	0.092
661	0.091
661	0.091
662	0.09
662	0.09
663	0.089
663	0.089
664	0.088
664	0.088
665	0.088
665	0.087
665	0.087
666	0.087
666	0.087
667	0.087
667	0.087
668	0.087
668	0.087
669	0.087
669	0.087
669	0.087
670	0.088
670	0.087
671	0.087
671	0.087
672	0.086
672	0.086
672	0.085
673	0.085
673	0.085
674	0.085
674	0.084
675	0.084
675	0.084
676	0.084
676	0.084
676	0.084
677	0.084
677	0.083
678	0.083
678	0.082
679	0.082
679	0.081
680	0.081
680	0.081
680	0.08
681	0.08
681	0.08
682	0.081
682	0.081
683	0.081
683	0.082
684	0.082
684	0.082
684	0.082
685	0.082
685	0.082
686	0.082
686	0.081
687	0.08
687	0.08
687	0.079
688	0.079
688	0.078
689	0.078
689	0.079
690	0.078
690	0.078
691	0.078
691	0.078
691	0.079
692	0.079
692	0.079
693	0.079
693	0.079
694	0.078
694	0.078
695	0.079
695	0.079
695	0.079
696	0.079
696	0.079
697	0.078
697	0.078
698	0.077
698	0.077
698	0.077
699	0.077
699	0.076
700	0.076
700	0.076
701	0.076
701	0.076
702	0.075
702	0.075
702	0.075
703	0.075
703	0.074
704	0.074
704	0.073
705	0.073
705	0.072
705	0.072
706	0.071
706	0.071
707	0.071
707	0.071
708	0.071
708	0.071
709	0.071
709	0.071
709	0.07
710	0.07
710	0.071
711	0.071
711	0.071
712	0.071
712	0.071
713	0.071
713	0.071
713	0.071
714	0.071
714	0.071
715	0.07
715	0.07
716	0.07
716	0.07
716	0.069
717	0.069
717	0.068
718	0.068
718	0.067
719	0.068
719	0.068
720	0.068
720	0.068
720	0.068
721	0.068
721	0.069
722	0.069
722	0.069
723	0.07
723	0.07
723	0.07
724	0.07
724	0.069
725	0.069
725	0.068
726	0.067
726	0.067
727	0.066
727	0.065
727	0.065
728	0.064
728	0.064
729	0.064
729	0.064
730	0.064
730	0.064
730	0.064
731	0.064
731	0.064
732	0.064
732	0.065
733	0.064
733	0.064
734	0.065
734	0.065
734	0.065
735	0.065
735	0.065
736	0.065
736	0.065
737	0.065
737	0.066
737	0.066
738	0.065
738	0.064
739	0.064
739	0.063
740	0.062
740	0.062
741	0.062
741	0.061
741	0.06
742	0.059
742	0.06
743	0.06
743	0.06
744	0.061
744	0.061
744	0.061
745	0.062
745	0.062
746	0.062
746	0.063
747	0.063
747	0.063
748	0.063
748	0.063
748	0.063
749	0.062
749	0.062
750	0.062
750	0.061
751	0.061
751	0.061
751	0.061
752	0.06
752	0.06
753	0.059
753	0.059
754	0.059
754	0.059
754	0.059
755	0.06
755	0.06
756	0.059
756	0.058
757	0.057
757	0.056
758	0.056
758	0.055
758	0.055
759	0.055
759	0.054
760	0.054
760	0.054
761	0.054
761	0.055
761	0.056
762	0.056
762	0.057
763	0.057
763	0.057
764	0.057
764	0.057
764	0.057
765	0.057
765	0.056
766	0.056
766	0.055
767	0.054
767	0.053
768	0.052
768	0.051
768	0.051
769	0.051
769	0.051
770	0.051
770	0.051
771	0.051
771	0.051
771	0.051
772	0.052
772	0.052
773	0.053
773	0.053
774	0.053
774	0.053
775	0.053
775	0.053
775	0.052
776	0.052
776	0.052
777	0.052
777	0.052
778	0.052
778	0.051
778	0.051
779	0.051
779	0.051
780	0.05
780	0.05
781	0.049
781	0.049
781	0.049
782	0.049
782	0.049
783	0.049
783	0.05
784	0.05
784	0.05
784	0.051
785	0.051
785	0.051
786	0.052
786	0.052
787	0.052
787	0.052
788	0.052
788	0.051
788	0.051
789	0.051
789	0.051
790	0.051
790	0.051
791	0.051
791	0.05
791	0.05
792	0.051
792	0.051
793	0.05
793	0.05
794	0.05
794	0.05
794	0.049
795	0.049
795	0.049
796	0.049
796	0.049
797	0.049
797	0.049
797	0.049
798	0.049
798	0.048
799	0.048
799	0.048
800	0.047
800	0.046
801	0.046
801	0.046
801	0.046
802	0.046
802	0.046
803	0.047
803	0.047
804	0.048
804	0.049
804	0.049
805	0.049
805	0.049
806	0.049
806	0.048
807	0.048
807	0.048
807	0.047
808	0.047
808	0.047
809	0.046
809	0.046
810	0.046
810	0.046
810	0.046
811	0.046
811	0.046
812	0.047
812	0.047
813	0.047
813	0.047
813	0.047
814	0.048
814	0.049
815	0.05
815	0.05
816	0.051
816	0.051
817	0.051
817	0.051
817	0.051
818	0.051
818	0.051
819	0.05
819	0.049
820	0.048
820	0.047
820	0.046
821	0.046
821	0.046
822	0.046
822	0.046
823	0.046
823	0.046
823	0.046
824	0.047
824	0.048
825	0.048
825	0.049
826	0.049
826	0.048
826	0.048
827	0.048
827	0.048
828	0.048
828	0.048
829	0.048
829	0.048
829	0.048
830	0.048
830	0.048
831	0.049
831	0.05
832	0.05
832	0.05
832	0.051
833	0.051
833	0.051
834	0.051
834	0.051
835	0.05
835	0.05
835	0.05
836	0.05
836	0.05
837	0.05
837	0.05
838	0.049
838	0.049
839	0.048
839	0.047
839	0.046
840	0.045
840	0.044
841	0.043
841	0.042
842	0.041
842	0.041
842	0.041
843	0.041
843	0.041
844	0.041
844	0.041
845	0.041
845	0.042
845	0.042
846	0.042
846	0.041
847	0.042
847	0.042
848	0.042
848	0.043
848	0.043
849	0.044
849	0.044
850	0.045
850	0.045
851	0.046
851	0.046
851	0.046
852	0.045
852	0.044
853	0.043
853	0.042
854	0.041
854	0.041
854	0.041
855	0.04
855	0.04
856	0.04
856	0.04
857	0.04
857	0.04
857	0.04
858	0.04
858	0.04
859	0.04
859	0.039
860	0.039
860	0.039
860	0.038
861	0.038
861	0.038
862	0.037
862	0.037
863	0.036
863	0.036
863	0.036
864	0.036
864	0.036
865	0.036
865	0.036
866	0.035
866	0.035
866	0.035
867	0.035
867	0.036
868	0.036
868	0.036
869	0.037
869	0.037
869	0.037
870	0.037
870	0.038
871	0.039
871	0.04
872	0.04
872	0.04
872	0.041
873	0.041
873	0.041
874	0.041
874	0.041
875	0.041
875	0.04
875	0.04
876	0.04
876	0.04
877	0.04
877	0.04
878	0.041
878	0.042
878	0.043
879	0.043
879	0.044
880	0.044
880	0.044
881	0.044
881	0.044
881	0.043
882	0.043
882	0.042
883	0.041
883	0.04
884	0.039
884	0.038
884	0.038
885	0.037
885	0.037
886	0.036
886	0.036
887	0.036
887	0.035
887	0.035
888	0.035
888	0.035
889	0.035
889	0.035
890	0.035
890	0.035
890	0.035
891	0.035
891	0.036
892	0.036
892	0.037
893	0.037
893	0.038
893	0.038
894	0.038
894	0.038
895	0.038
895	0.038
895	0.038
896	0.038
896	0.038
897	0.037
897	0.037
898	0.036
898	0.036
898	0.036
899	0.035
899	0.035
900	0.035
900	0.035
901	0.035
901	0.035
901	0.035
902	0.035
902	0.035
903	0.035
903	0.035
904	0.035
904	0.036
904	0.036
905	0.036
905	0.036
906	0.037
906	0.037
907	0.038
907	0.038
907	0.039
908	0.039
908	0.04
909	0.04
909	0.04
910	0.04
910	0.04
910	0.04
911	0.039
911	0.039
912	0.039
912	0.038
913	0.038
913	0.038
913	0.037
914	0.037
914	0.037
915	0.037
915	0.036
916	0.036
916	0.036
916	0.035
917	0.035
917	0.034
918	0.034
918	0.033
918	0.033
919	0.033
919	0.033
920	0.033
920	0.033
921	0.034
921	0.034
921	0.035
922	0.036
922	0.036
923	0.037
923	0.038
924	0.038
924	0.038
924	0.038
925	0.039
925	0.039
926	0.039
926	0.038
927	0.038
927	0.038
927	0.038
928	0.038
928	0.038
929	0.038
929	0.037
930	0.037
930	0.037
930	0.036
931	0.036
931	0.036
932	0.036
932	0.036
933	0.036
933	0.036
933	0.036
934	0.036
934	0.036
935	0.036
935	0.036
935	0.036
936	0.036
936	0.036
937	0.036
937	0.036
938	0.037
938	0.037
938	0.037
939	0.037
939	0.037
940	0.038
940	0.039
941	0.039
941	0.04
941	0.04
942	0.04
942	0.04
943	0.04
943	0.04
944	0.04
944	0.04
944	0.039
945	0.039
945	0.039
946	0.039
946	0.038
946	0.038
947	0.039
947	0.039
948	0.039
948	0.039
949	0.04
949	0.04
949	0.04
950	0.04
950	0.041
951	0.041
951	0.04
952	0.04
952	0.04
952	0.04
953	0.04
953	0.039
954	0.039
954	0.039
955	0.039
955	0.038
955	0.039
956	0.039
956	0.04
957	0.04
957	0.041
957	0.041
958	0.041
958	0.042
959	0.042
959	0.042
960	0.042
960	0.042
960	0.042
961	0.042
961	0.042
962	0.042
962	0.042
963	0.042
963	0.042
963	0.041
964	0.041
964	0.041
965	0.041
965	0.041
966	0.042
966	0.042
966	0.042
967	0.043
967	0.043
968	0.043
968	0.043
968	0.043
969	0.043
969	0.043
970	0.043
970	0.043
971	0.043
971	0.043
971	0.043
972	0.043
972	0.043
973	0.043
973	0.043
974	0.044
974	0.044
974	0.044
975	0.044
975	0.045
976	0.045
976	0.045
976	0.045
977	0.045
977	0.044
978	0.044
978	0.044
979	0.044
979	0.043
979	0.043
980	0.042
980	0.042
981	0.041
981	0.04
982	0.04
982	0.039
982	0.039
983	0.038
983	0.038
984	0.037
984	0.037
984	0.036
985	0.036
985	0.035
986	0.035
986	0.034
987	0.034
987	0.033
987	0.033
988	0.032
988	0.032
989	0.032
989	0.031
990	0.031
990	0.03
990	0.03
991	0.03
991	0.029
992	0.029
992	0.029
992	0.029
993	0.028
993	0.028
994	0.028
994	0.028
995	0.028
995	0.028
995	0.028
996	0.028
996	0.028
997	0.028
997	0.029
997	0.03
998	0.03
998	0.031
999	0.032
999	0.033
1000	0.035
1000	0.036
1000	0.037
1001	0.037
1001	0.038
1002	0.039
1002	0.039
1003	0.039
1003	0.039
1003	0.039
1004	0.039
1004	0.038
1005	0.038
1005	0.038
1005	0.037
1006	0.037
1006	0.036
1007	0.036
1007	0.036
1008	0.035
1008	0.035
1008	0.035
1009	0.035
1009	0.035
1010	0.034
1010	0.034
1010	0.034
1011	0.034
1011	0.033
1012	0.033
1012	0.033
1013	0.033
1013	0.033
1013	0.033
1014	0.032
1014	0.032
1015	0.032
1015	0.032
1016	0.032
1016	0.032
1016	0.032
1017	0.032
1017	0.031
1018	0.031
1018	0.031
1018	0.031
1019	0.03
1019	0.03
1020	0.03
1020	0.029
1021	0.029
1021	0.029
1021	0.029
1022	0.029
1022	0.029
1023	0.029
1023	0.029
1023	0.03
1024	0.03
1024	0.03
1025	0.03
1025	0.03
1026	0.03
1026	0.03
1026	0.029
1027	0.029
1027	0.029
1028	0.028
1028	0.028
1028	0.028
1029	0.027
1029	0.027
1030	0.027
1030	0.027
1031	0.027
1031	0.027
1031	0.027
1032	0.028
1032	0.028
1033	0.028
1033	0.028
1033	0.028
1034	0.028
1034	0.028
1035	0.028
1035	0.027
1036	0.028
1036	0.027
1036	0.027
1037	0.027
1037	0.027
1038	0.027
1038	0.027
1039	0.027
1039	0.027
1039	0.027
1040	0.028
1040	0.028
1041	0.028
1041	0.029
1041	0.029
1042	0.029
1042	0.029
1043	0.029
1043	0.03
1044	0.03
1044	0.03
1044	0.03
1045	0.031
1045	0.031
1046	0.031
1046	0.032
1046	0.032
1047	0.033
1047	0.033
1048	0.034
1048	0.034
1049	0.035
1049	0.035
1049	0.035
1050	0.035
1050	0.034
1051	0.034
1051	0.034
1051	0.033
1052	0.032
1052	0.032
1053	0.031
1053	0.03
1053	0.029
1054	0.029
1054	0.028
1055	0.028
1055	0.028
1056	0.027
1056	0.027
1056	0.027
1057	0.027
1057	0.026
1058	0.026
1058	0.025
1058	0.025
1059	0.025
1059	0.025
1060	0.024
1060	0.023
1061	0.023
1061	0.023
1061	0.023
1062	0.023
1062	0.023
1063	0.023
1063	0.023
1063	0.022
1064	0.022
1064	0.022
1065	0.023
1065	0.023
1066	0.023
1066	0.023
1066	0.023
1067	0.024
1067	0.024
1068	0.023
1068	0.024
1068	0.024
1069	0.023
1069	0.023
1070	0.023
1070	0.022
1071	0.021
1071	0.021
1071	0.02
1072	0.02
1072	0.02
1073	0.019
1073	0.018
1073	0.018
1074	0.018
1074	0.018
1075	0.017
1075	0.018
1076	0.018
1076	0.018
1076	0.019
1077	0.019
1077	0.019
1078	0.019
1078	0.019
1078	0.019
1079	0.019
1079	0.02
1080	0.019
1080	0.02
1080	0.02
1081	0.02
1081	0.02
1082	0.02
1082	0.021
1083	0.021
1083	0.021
1083	0.021
1084	0.021
1084	0.021
1085	0.02
1085	0.02
1085	0.02
1086	0.02
1086	0.019
1087	0.019
1087	0.018
1088	0.018
1088	0.017
1088	0.018
1089	0.017
1089	0.017
1090	0.016
1090	0.016
1090	0.014
1091	0.014
1091	0.014
1092	0.013
1092	0.014
1092	0.013
1093	0.013
1093	0.013
1094	0.013
1094	0.012
1095	0.012
1095	0.012
1095	0.012
1096	0.012
1096	0.011
1097	0.011
1097	0.011
1097	0.011
1098	0.01
1098	0.009
1099	0.008
1099	0.007
1100	0.007
1100	0.006
1100	0.005
1101	0.004
1101	0.003
1102	0.002
1102	0.001
1102	0
1103	-0
1103	-0
1104	-0
1104	-0.001
1104	-0.002
1105	-0.002
1105	-0.004
1106	-0.005
1106	-0.007
1107	-0.008
1107	-0.008
1107	-0.009
1108	-0.009
1108	-0.01
1109	-0.01
1109	-0.012
1109	-0.011
1110	-0.01
1110	-0.01
1111	-0.008
1111	-0.008
