Data from reversibility-20sec_Absorbance__1690__000000000001690.txt Node

Date: Tue Dec 05 21:36:25 CET 2023
User: Marek
Spectrometer: MAYP115816
Trigger mode: 0
Integration Time (sec): 2.000000E-1
Scans to average: 10
Electric dark correction enabled: true
Nonlinearity correction enabled: true
Boxcar width: 5
XAxis mode: Wavelengths
Number of Pixels in Spectrum: 2068
>>>>>Begin Spectral Data<<<<<
199	-0.24
199	-0.208
200	-0.136
200	-0.08
201	-0.051
201	-0.034
202	-0.018
202	-0.009
203	-0.001
203	0.002
204	0.017
204	0.032
205	0.047
205	0.052
205	0.051
206	0.052
206	0.05
207	0.049
207	0.046
208	0.047
208	0.047
209	0.049
209	0.047
210	0.044
210	0.045
211	0.045
211	0.046
212	0.048
212	0.051
213	0.057
213	0.057
213	0.054
214	0.057
214	0.058
215	0.06
215	0.057
216	0.058
216	0.057
217	0.06
217	0.061
218	0.058
218	0.065
219	0.071
219	0.071
220	0.075
220	0.075
221	0.079
221	0.081
221	0.085
222	0.089
222	0.092
223	0.097
223	0.099
224	0.105
224	0.114
225	0.123
225	0.132
226	0.143
226	0.155
227	0.169
227	0.18
228	0.196
228	0.211
229	0.226
229	0.249
229	0.272
230	0.296
230	0.325
231	0.357
231	0.395
232	0.429
232	0.474
233	0.519
233	0.569
234	0.62
234	0.673
235	0.724
235	0.778
236	0.831
236	0.882
236	0.934
237	0.991
237	1.039
238	1.088
238	1.137
239	1.188
239	1.232
240	1.277
240	1.317
241	1.358
241	1.398
242	1.436
242	1.472
243	1.507
243	1.539
243	1.565
244	1.59
244	1.616
245	1.638
245	1.664
246	1.687
246	1.705
247	1.721
247	1.739
248	1.757
248	1.774
249	1.789
249	1.801
250	1.812
250	1.827
250	1.836
251	1.844
251	1.852
252	1.863
252	1.867
253	1.872
253	1.872
254	1.876
254	1.882
255	1.884
255	1.886
256	1.887
256	1.888
257	1.892
257	1.892
258	1.895
258	1.897
258	1.899
259	1.901
259	1.899
260	1.9
260	1.901
261	1.902
261	1.907
262	1.911
262	1.914
263	1.918
263	1.919
264	1.922
264	1.926
265	1.931
265	1.933
265	1.935
266	1.939
266	1.941
267	1.939
267	1.943
268	1.944
268	1.945
269	1.947
269	1.948
270	1.948
270	1.95
271	1.948
271	1.948
272	1.946
272	1.945
272	1.942
273	1.937
273	1.931
274	1.926
274	1.922
275	1.917
275	1.911
276	1.906
276	1.898
277	1.891
277	1.883
278	1.873
278	1.862
278	1.849
279	1.833
279	1.812
280	1.787
280	1.758
281	1.722
281	1.683
282	1.643
282	1.602
283	1.56
283	1.52
284	1.48
284	1.441
285	1.405
285	1.372
285	1.343
286	1.316
286	1.293
287	1.272
287	1.254
288	1.238
288	1.225
289	1.213
289	1.203
290	1.195
290	1.187
291	1.18
291	1.174
292	1.168
292	1.163
292	1.159
293	1.155
293	1.151
294	1.147
294	1.144
295	1.14
295	1.137
296	1.133
296	1.13
297	1.127
297	1.124
298	1.121
298	1.117
298	1.114
299	1.112
299	1.109
300	1.105
300	1.103
301	1.1
301	1.097
302	1.094
302	1.091
303	1.088
303	1.085
304	1.082
304	1.079
305	1.076
305	1.074
305	1.071
306	1.068
306	1.066
307	1.063
307	1.06
308	1.058
308	1.055
309	1.052
309	1.049
310	1.046
310	1.042
311	1.039
311	1.035
311	1.032
312	1.028
312	1.024
313	1.019
313	1.015
314	1.011
314	1.007
315	1.002
315	0.998
316	0.993
316	0.989
317	0.984
317	0.979
318	0.974
318	0.969
318	0.963
319	0.957
319	0.952
320	0.946
320	0.94
321	0.934
321	0.927
322	0.921
322	0.914
323	0.907
323	0.901
324	0.894
324	0.887
324	0.88
325	0.873
325	0.866
326	0.859
326	0.852
327	0.845
327	0.838
328	0.831
328	0.824
329	0.816
329	0.809
330	0.802
330	0.795
330	0.788
331	0.781
331	0.773
332	0.766
332	0.759
333	0.752
333	0.744
334	0.737
334	0.73
335	0.724
335	0.716
336	0.71
336	0.703
336	0.696
337	0.69
337	0.683
338	0.677
338	0.671
339	0.665
339	0.659
340	0.653
340	0.647
341	0.641
341	0.635
342	0.63
342	0.624
342	0.619
343	0.614
343	0.608
344	0.603
344	0.599
345	0.594
345	0.589
346	0.584
346	0.58
347	0.575
347	0.571
348	0.566
348	0.563
348	0.559
349	0.554
349	0.55
350	0.547
350	0.543
351	0.539
351	0.536
352	0.532
352	0.529
353	0.526
353	0.523
354	0.519
354	0.516
354	0.514
355	0.511
355	0.508
356	0.505
356	0.502
357	0.498
357	0.496
358	0.493
358	0.49
359	0.487
359	0.485
360	0.482
360	0.48
360	0.478
361	0.475
361	0.473
362	0.472
362	0.469
363	0.467
363	0.465
364	0.463
364	0.461
365	0.458
365	0.456
366	0.454
366	0.452
366	0.45
367	0.448
367	0.447
368	0.445
368	0.443
369	0.441
369	0.439
370	0.438
370	0.436
371	0.434
371	0.433
372	0.431
372	0.43
372	0.428
373	0.427
373	0.426
374	0.424
374	0.423
375	0.422
375	0.421
376	0.42
376	0.418
377	0.417
377	0.416
378	0.415
378	0.413
378	0.413
379	0.411
379	0.41
380	0.409
380	0.408
381	0.407
381	0.406
382	0.405
382	0.404
383	0.403
383	0.402
383	0.401
384	0.401
384	0.4
385	0.399
385	0.398
386	0.397
386	0.396
387	0.395
387	0.395
388	0.394
388	0.393
389	0.392
389	0.392
389	0.391
390	0.39
390	0.389
391	0.389
391	0.388
392	0.388
392	0.387
393	0.387
393	0.386
394	0.385
394	0.384
394	0.384
395	0.383
395	0.382
396	0.381
396	0.381
397	0.38
397	0.379
398	0.379
398	0.378
399	0.378
399	0.377
400	0.377
400	0.376
400	0.376
401	0.375
401	0.374
402	0.374
402	0.374
403	0.373
403	0.373
404	0.372
404	0.372
405	0.371
405	0.371
405	0.37
406	0.37
406	0.369
407	0.368
407	0.368
408	0.367
408	0.367
409	0.366
409	0.366
410	0.365
410	0.365
411	0.365
411	0.364
411	0.364
412	0.363
412	0.363
413	0.362
413	0.362
414	0.362
414	0.361
415	0.36
415	0.36
416	0.36
416	0.359
416	0.358
417	0.358
417	0.358
418	0.357
418	0.357
419	0.357
419	0.356
420	0.356
420	0.356
421	0.355
421	0.355
421	0.354
422	0.354
422	0.354
423	0.353
423	0.353
424	0.352
424	0.352
425	0.351
425	0.351
426	0.351
426	0.35
427	0.35
427	0.35
427	0.349
428	0.349
428	0.349
429	0.348
429	0.348
430	0.348
430	0.347
431	0.347
431	0.347
432	0.347
432	0.346
432	0.346
433	0.346
433	0.346
434	0.345
434	0.345
435	0.345
435	0.345
436	0.345
436	0.345
437	0.344
437	0.344
437	0.344
438	0.344
438	0.344
439	0.344
439	0.344
440	0.343
440	0.343
441	0.343
441	0.343
442	0.342
442	0.342
442	0.342
443	0.342
443	0.341
444	0.341
444	0.341
445	0.341
445	0.341
446	0.341
446	0.341
447	0.341
447	0.34
447	0.341
448	0.341
448	0.341
449	0.341
449	0.341
450	0.341
450	0.34
451	0.34
451	0.34
452	0.341
452	0.341
452	0.341
453	0.341
453	0.341
454	0.341
454	0.34
455	0.34
455	0.34
456	0.34
456	0.34
457	0.34
457	0.339
458	0.34
458	0.34
458	0.34
459	0.34
459	0.34
460	0.34
460	0.34
461	0.34
461	0.341
462	0.341
462	0.341
463	0.341
463	0.341
463	0.341
464	0.341
464	0.341
465	0.341
465	0.341
466	0.341
466	0.341
467	0.342
467	0.342
467	0.342
468	0.342
468	0.343
469	0.343
469	0.343
470	0.344
470	0.344
471	0.345
471	0.345
472	0.346
472	0.346
472	0.346
473	0.347
473	0.347
474	0.348
474	0.348
475	0.349
475	0.35
476	0.35
476	0.351
477	0.351
477	0.352
477	0.353
478	0.354
478	0.354
479	0.355
479	0.356
480	0.357
480	0.357
481	0.358
481	0.359
482	0.359
482	0.36
482	0.361
483	0.362
483	0.364
484	0.365
484	0.365
485	0.366
485	0.367
486	0.368
486	0.369
487	0.37
487	0.371
487	0.372
488	0.373
488	0.374
489	0.375
489	0.377
490	0.378
490	0.38
491	0.382
491	0.383
492	0.385
492	0.386
492	0.388
493	0.389
493	0.391
494	0.393
494	0.394
495	0.395
495	0.397
496	0.398
496	0.4
496	0.401
497	0.402
497	0.404
498	0.405
498	0.407
499	0.408
499	0.41
500	0.412
500	0.414
501	0.416
501	0.417
501	0.418
502	0.42
502	0.421
503	0.423
503	0.424
504	0.426
504	0.427
505	0.429
505	0.43
506	0.431
506	0.433
506	0.435
507	0.436
507	0.438
508	0.439
508	0.44
509	0.442
509	0.443
510	0.444
510	0.445
511	0.447
511	0.449
511	0.45
512	0.451
512	0.452
513	0.453
513	0.454
514	0.455
514	0.456
515	0.457
515	0.458
515	0.458
516	0.459
516	0.46
517	0.461
517	0.461
518	0.461
518	0.462
519	0.462
519	0.462
520	0.463
520	0.463
520	0.463
521	0.463
521	0.462
522	0.462
522	0.462
523	0.462
523	0.462
524	0.462
524	0.461
524	0.461
525	0.461
525	0.46
526	0.459
526	0.459
527	0.458
527	0.457
528	0.456
528	0.456
529	0.454
529	0.453
529	0.451
530	0.45
530	0.448
531	0.447
531	0.445
532	0.444
532	0.442
533	0.44
533	0.438
533	0.437
534	0.435
534	0.434
535	0.432
535	0.43
536	0.429
536	0.427
537	0.425
537	0.423
538	0.421
538	0.418
538	0.416
539	0.414
539	0.412
540	0.409
540	0.407
541	0.404
541	0.402
542	0.399
542	0.397
542	0.394
543	0.391
543	0.389
544	0.386
544	0.384
545	0.382
545	0.379
546	0.377
546	0.374
547	0.371
547	0.368
547	0.366
548	0.363
548	0.361
549	0.358
549	0.355
550	0.353
550	0.35
551	0.347
551	0.344
551	0.342
552	0.339
552	0.336
553	0.334
553	0.331
554	0.329
554	0.326
555	0.323
555	0.32
556	0.318
556	0.315
556	0.313
557	0.31
557	0.308
558	0.306
558	0.303
559	0.301
559	0.298
560	0.296
560	0.293
560	0.291
561	0.289
561	0.287
562	0.284
562	0.282
563	0.279
563	0.277
564	0.274
564	0.272
564	0.27
565	0.268
565	0.266
566	0.264
566	0.261
567	0.26
567	0.258
568	0.256
568	0.255
568	0.253
569	0.252
569	0.25
570	0.248
570	0.246
571	0.244
571	0.242
572	0.24
572	0.238
573	0.236
573	0.234
573	0.231
574	0.229
574	0.228
575	0.226
575	0.225
576	0.223
576	0.221
577	0.219
577	0.217
577	0.216
578	0.215
578	0.213
579	0.212
579	0.211
580	0.209
580	0.207
581	0.205
581	0.204
581	0.203
582	0.202
582	0.202
583	0.201
583	0.2
584	0.198
584	0.196
585	0.195
585	0.194
585	0.192
586	0.191
586	0.19
587	0.188
587	0.187
588	0.185
588	0.184
589	0.183
589	0.182
590	0.181
590	0.18
590	0.18
591	0.179
591	0.177
592	0.176
592	0.175
593	0.174
593	0.173
594	0.172
594	0.17
594	0.169
595	0.168
595	0.167
596	0.166
596	0.165
597	0.165
597	0.164
598	0.163
598	0.163
598	0.162
599	0.161
599	0.16
600	0.159
600	0.158
601	0.157
601	0.156
602	0.155
602	0.154
602	0.153
603	0.152
603	0.152
604	0.151
604	0.151
605	0.15
605	0.15
606	0.149
606	0.148
606	0.147
607	0.146
607	0.146
608	0.145
608	0.144
609	0.143
609	0.143
610	0.142
610	0.141
610	0.14
611	0.14
611	0.139
612	0.139
612	0.139
613	0.138
613	0.138
614	0.137
614	0.136
614	0.136
615	0.135
615	0.135
616	0.134
616	0.133
617	0.133
617	0.132
618	0.131
618	0.131
618	0.13
619	0.13
619	0.13
620	0.13
620	0.129
621	0.129
621	0.128
622	0.127
622	0.126
622	0.126
623	0.125
623	0.125
624	0.124
624	0.123
625	0.122
625	0.122
626	0.122
626	0.121
626	0.121
627	0.121
627	0.121
628	0.121
628	0.12
629	0.12
629	0.119
630	0.118
630	0.118
630	0.117
631	0.117
631	0.116
632	0.116
632	0.115
633	0.115
633	0.115
634	0.115
634	0.115
634	0.115
635	0.115
635	0.114
636	0.114
636	0.114
637	0.113
637	0.113
638	0.112
638	0.112
638	0.111
639	0.11
639	0.109
640	0.109
640	0.109
641	0.108
641	0.108
642	0.107
642	0.107
642	0.107
643	0.107
643	0.106
644	0.106
644	0.106
645	0.106
645	0.106
646	0.106
646	0.106
646	0.105
647	0.105
647	0.104
648	0.103
648	0.103
649	0.102
649	0.102
650	0.102
650	0.102
650	0.102
651	0.101
651	0.101
652	0.101
652	0.101
653	0.101
653	0.102
653	0.109
654	0.088
654	0.071
655	0.069
655	0.069
656	0.069
656	0.069
657	0.069
657	0.069
657	0.069
658	0.067
658	0.059
659	0.073
659	0.092
660	0.097
660	0.097
661	0.097
661	0.096
661	0.095
662	0.095
662	0.094
663	0.094
663	0.093
664	0.093
664	0.092
665	0.091
665	0.091
665	0.09
666	0.09
666	0.09
667	0.089
667	0.09
668	0.09
668	0.09
669	0.09
669	0.09
669	0.09
670	0.091
670	0.09
671	0.09
671	0.09
672	0.089
672	0.089
672	0.088
673	0.088
673	0.088
674	0.087
674	0.087
675	0.086
675	0.086
676	0.087
676	0.087
676	0.086
677	0.086
677	0.086
678	0.085
678	0.085
679	0.084
679	0.084
680	0.084
680	0.084
680	0.083
681	0.083
681	0.083
682	0.084
682	0.084
683	0.085
683	0.086
684	0.086
684	0.086
684	0.085
685	0.085
685	0.085
686	0.085
686	0.085
687	0.084
687	0.084
687	0.083
688	0.082
688	0.082
689	0.082
689	0.082
690	0.082
690	0.082
691	0.082
691	0.082
691	0.083
692	0.083
692	0.082
693	0.083
693	0.083
694	0.083
694	0.082
695	0.083
695	0.083
695	0.083
696	0.082
696	0.082
697	0.081
697	0.08
698	0.08
698	0.079
698	0.079
699	0.079
699	0.078
700	0.078
700	0.078
701	0.079
701	0.079
702	0.079
702	0.079
702	0.079
703	0.079
703	0.079
704	0.079
704	0.078
705	0.078
705	0.077
705	0.077
706	0.076
706	0.076
707	0.076
707	0.076
708	0.076
708	0.076
709	0.076
709	0.075
709	0.075
710	0.074
710	0.075
711	0.075
711	0.075
712	0.075
712	0.074
713	0.074
713	0.074
713	0.074
714	0.074
714	0.074
715	0.074
715	0.074
716	0.074
716	0.073
716	0.073
717	0.072
717	0.072
718	0.071
718	0.071
719	0.071
719	0.071
720	0.071
720	0.071
720	0.072
721	0.072
721	0.072
722	0.073
722	0.073
723	0.073
723	0.074
723	0.074
724	0.073
724	0.073
725	0.072
725	0.071
726	0.07
726	0.069
727	0.069
727	0.068
727	0.067
728	0.067
728	0.066
729	0.066
729	0.066
730	0.066
730	0.066
730	0.066
731	0.066
731	0.066
732	0.067
732	0.067
733	0.067
733	0.067
734	0.067
734	0.067
734	0.067
735	0.067
735	0.067
736	0.066
736	0.066
737	0.066
737	0.067
737	0.067
738	0.066
738	0.065
739	0.065
739	0.065
740	0.064
740	0.063
741	0.063
741	0.062
741	0.062
742	0.061
742	0.061
743	0.061
743	0.062
744	0.062
744	0.063
744	0.063
745	0.063
745	0.064
746	0.064
746	0.065
747	0.066
747	0.066
748	0.066
748	0.066
748	0.065
749	0.065
749	0.065
750	0.064
750	0.064
751	0.063
751	0.063
751	0.063
752	0.062
752	0.061
753	0.061
753	0.06
754	0.06
754	0.06
754	0.06
755	0.06
755	0.06
756	0.059
756	0.058
757	0.057
757	0.056
758	0.056
758	0.056
758	0.055
759	0.055
759	0.055
760	0.054
760	0.054
761	0.054
761	0.055
761	0.056
762	0.056
762	0.057
763	0.057
763	0.057
764	0.057
764	0.058
764	0.058
765	0.057
765	0.057
766	0.057
766	0.056
767	0.055
767	0.054
768	0.053
768	0.052
768	0.052
769	0.052
769	0.052
770	0.051
770	0.051
771	0.051
771	0.051
771	0.052
772	0.052
772	0.053
773	0.053
773	0.053
774	0.053
774	0.054
775	0.054
775	0.054
775	0.054
776	0.054
776	0.054
777	0.053
777	0.053
778	0.053
778	0.052
778	0.052
779	0.051
779	0.051
780	0.05
780	0.05
781	0.05
781	0.049
781	0.049
782	0.049
782	0.049
783	0.05
783	0.05
784	0.05
784	0.051
784	0.051
785	0.052
785	0.052
786	0.053
786	0.053
787	0.053
787	0.053
788	0.052
788	0.052
788	0.052
789	0.051
789	0.052
790	0.051
790	0.051
791	0.051
791	0.051
791	0.051
792	0.051
792	0.051
793	0.051
793	0.051
794	0.051
794	0.051
794	0.051
795	0.051
795	0.051
796	0.051
796	0.051
797	0.05
797	0.05
797	0.05
798	0.049
798	0.049
799	0.048
799	0.048
800	0.048
800	0.047
801	0.047
801	0.047
801	0.047
802	0.047
802	0.048
803	0.048
803	0.049
804	0.05
804	0.051
804	0.051
805	0.051
805	0.051
806	0.051
806	0.05
807	0.05
807	0.049
807	0.049
808	0.049
808	0.048
809	0.048
809	0.048
810	0.048
810	0.048
810	0.048
811	0.048
811	0.048
812	0.049
812	0.049
813	0.049
813	0.049
813	0.05
814	0.05
814	0.051
815	0.051
815	0.051
816	0.052
816	0.051
817	0.051
817	0.051
817	0.051
818	0.051
818	0.051
819	0.05
819	0.05
820	0.049
820	0.048
820	0.048
821	0.048
821	0.048
822	0.047
822	0.047
823	0.047
823	0.047
823	0.048
824	0.048
824	0.049
825	0.05
825	0.05
826	0.05
826	0.049
826	0.049
827	0.049
827	0.048
828	0.048
828	0.047
829	0.047
829	0.046
829	0.046
830	0.046
830	0.046
831	0.047
831	0.048
832	0.048
832	0.049
832	0.05
833	0.05
833	0.05
834	0.05
834	0.05
835	0.05
835	0.051
835	0.051
836	0.051
836	0.052
837	0.052
837	0.052
838	0.052
838	0.051
839	0.051
839	0.05
839	0.049
840	0.047
840	0.046
841	0.045
841	0.044
842	0.043
842	0.042
842	0.042
843	0.042
843	0.042
844	0.042
844	0.042
845	0.042
845	0.042
845	0.043
846	0.043
846	0.043
847	0.043
847	0.043
848	0.043
848	0.043
848	0.044
849	0.044
849	0.044
850	0.044
850	0.044
851	0.044
851	0.044
851	0.043
852	0.042
852	0.042
853	0.041
853	0.041
854	0.041
854	0.041
854	0.041
855	0.042
855	0.042
856	0.043
856	0.043
857	0.043
857	0.044
857	0.044
858	0.044
858	0.044
859	0.043
859	0.042
860	0.042
860	0.041
860	0.04
861	0.04
861	0.039
862	0.038
862	0.037
863	0.037
863	0.037
863	0.036
864	0.036
864	0.036
865	0.036
865	0.036
866	0.036
866	0.036
866	0.036
867	0.036
867	0.036
868	0.036
868	0.036
869	0.037
869	0.037
869	0.037
870	0.037
870	0.038
871	0.038
871	0.039
872	0.04
872	0.04
872	0.041
873	0.041
873	0.041
874	0.041
874	0.042
875	0.042
875	0.042
875	0.042
876	0.042
876	0.042
877	0.042
877	0.043
878	0.043
878	0.044
878	0.045
879	0.045
879	0.045
880	0.046
880	0.046
881	0.045
881	0.045
881	0.044
882	0.043
882	0.042
883	0.041
883	0.04
884	0.039
884	0.038
884	0.037
885	0.036
885	0.036
886	0.035
886	0.035
887	0.035
887	0.034
887	0.034
888	0.034
888	0.034
889	0.033
889	0.033
890	0.034
890	0.034
890	0.034
891	0.035
891	0.036
892	0.036
892	0.037
893	0.038
893	0.039
893	0.039
894	0.04
894	0.04
895	0.041
895	0.041
895	0.041
896	0.041
896	0.042
897	0.041
897	0.041
898	0.04
898	0.04
898	0.04
899	0.04
899	0.04
900	0.04
900	0.04
901	0.04
901	0.04
901	0.04
902	0.041
902	0.041
903	0.04
903	0.041
904	0.04
904	0.04
904	0.04
905	0.04
905	0.039
906	0.039
906	0.04
907	0.04
907	0.04
907	0.041
908	0.041
908	0.041
909	0.041
909	0.042
910	0.042
910	0.042
910	0.042
911	0.042
911	0.042
912	0.042
912	0.042
913	0.042
913	0.042
913	0.041
914	0.041
914	0.041
915	0.041
915	0.041
916	0.04
916	0.04
916	0.04
917	0.039
917	0.039
918	0.038
918	0.037
918	0.037
919	0.036
919	0.036
920	0.036
920	0.035
921	0.035
921	0.036
921	0.036
922	0.036
922	0.037
923	0.037
923	0.038
924	0.038
924	0.038
924	0.039
925	0.039
925	0.039
926	0.039
926	0.038
927	0.038
927	0.038
927	0.037
928	0.037
928	0.036
929	0.036
929	0.036
930	0.036
930	0.036
930	0.036
931	0.036
931	0.036
932	0.036
932	0.036
933	0.036
933	0.036
933	0.036
934	0.036
934	0.036
935	0.035
935	0.035
935	0.035
936	0.034
936	0.034
937	0.035
937	0.035
938	0.035
938	0.035
938	0.035
939	0.035
939	0.035
940	0.036
940	0.036
941	0.037
941	0.038
941	0.038
942	0.038
942	0.039
943	0.039
943	0.039
944	0.04
944	0.04
944	0.04
945	0.041
945	0.041
946	0.041
946	0.041
946	0.042
947	0.042
947	0.042
948	0.043
948	0.043
949	0.042
949	0.043
949	0.042
950	0.042
950	0.042
951	0.042
951	0.042
952	0.041
952	0.041
952	0.041
953	0.041
953	0.041
954	0.041
954	0.04
955	0.041
955	0.04
955	0.041
956	0.041
956	0.042
957	0.042
957	0.042
957	0.042
958	0.043
958	0.043
959	0.043
959	0.043
960	0.043
960	0.044
960	0.044
961	0.043
961	0.043
962	0.043
962	0.043
963	0.043
963	0.043
963	0.043
964	0.043
964	0.043
965	0.043
965	0.043
966	0.043
966	0.043
966	0.043
967	0.044
967	0.044
968	0.044
968	0.044
968	0.044
969	0.045
969	0.045
970	0.045
970	0.044
971	0.044
971	0.044
971	0.044
972	0.044
972	0.044
973	0.044
973	0.044
974	0.044
974	0.044
974	0.044
975	0.044
975	0.044
976	0.044
976	0.044
976	0.044
977	0.044
977	0.044
978	0.044
978	0.044
979	0.044
979	0.043
979	0.043
980	0.043
980	0.042
981	0.042
981	0.041
982	0.041
982	0.041
982	0.04
983	0.04
983	0.039
984	0.039
984	0.038
984	0.037
985	0.037
985	0.036
986	0.036
986	0.035
987	0.035
987	0.034
987	0.034
988	0.034
988	0.033
989	0.033
989	0.033
990	0.033
990	0.033
990	0.033
991	0.033
991	0.033
992	0.033
992	0.033
992	0.033
993	0.033
993	0.033
994	0.033
994	0.033
995	0.032
995	0.032
995	0.032
996	0.032
996	0.033
997	0.033
997	0.033
997	0.034
998	0.034
998	0.035
999	0.036
999	0.037
1000	0.038
1000	0.038
1000	0.039
1001	0.04
1001	0.04
1002	0.04
1002	0.041
1003	0.041
1003	0.04
1003	0.039
1004	0.039
1004	0.038
1005	0.038
1005	0.037
1005	0.037
1006	0.036
1006	0.036
1007	0.035
1007	0.035
1008	0.035
1008	0.036
1008	0.036
1009	0.036
1009	0.036
1010	0.036
1010	0.037
1010	0.037
1011	0.037
1011	0.037
1012	0.037
1012	0.037
1013	0.037
1013	0.037
1013	0.037
1014	0.036
1014	0.036
1015	0.036
1015	0.036
1016	0.035
1016	0.035
1016	0.035
1017	0.035
1017	0.034
1018	0.034
1018	0.034
1018	0.034
1019	0.034
1019	0.033
1020	0.033
1020	0.033
1021	0.032
1021	0.032
1021	0.032
1022	0.032
1022	0.032
1023	0.032
1023	0.032
1023	0.032
1024	0.032
1024	0.032
1025	0.032
1025	0.032
1026	0.032
1026	0.031
1026	0.031
1027	0.031
1027	0.031
1028	0.032
1028	0.031
1028	0.031
1029	0.032
1029	0.032
1030	0.032
1030	0.032
1031	0.032
1031	0.032
1031	0.033
1032	0.033
1032	0.033
1033	0.033
1033	0.033
1033	0.032
1034	0.032
1034	0.032
1035	0.032
1035	0.031
1036	0.031
1036	0.031
1036	0.031
1037	0.031
1037	0.031
1038	0.032
1038	0.032
1039	0.032
1039	0.032
1039	0.032
1040	0.032
1040	0.032
1041	0.032
1041	0.032
1041	0.031
1042	0.031
1042	0.031
1043	0.03
1043	0.03
1044	0.029
1044	0.029
1044	0.029
1045	0.029
1045	0.029
1046	0.03
1046	0.03
1046	0.031
1047	0.031
1047	0.032
1048	0.032
1048	0.033
1049	0.033
1049	0.034
1049	0.034
1050	0.033
1050	0.033
1051	0.032
1051	0.032
1051	0.031
1052	0.03
1052	0.03
1053	0.029
1053	0.028
1053	0.027
1054	0.027
1054	0.026
1055	0.026
1055	0.026
1056	0.026
1056	0.025
1056	0.025
1057	0.025
1057	0.025
1058	0.025
1058	0.024
1058	0.023
1059	0.023
1059	0.023
1060	0.022
1060	0.022
1061	0.021
1061	0.021
1061	0.021
1062	0.021
1062	0.021
1063	0.022
1063	0.021
1063	0.021
1064	0.021
1064	0.022
1065	0.022
1065	0.022
1066	0.022
1066	0.022
1066	0.022
1067	0.022
1067	0.022
1068	0.022
1068	0.022
1068	0.022
1069	0.021
1069	0.021
1070	0.02
1070	0.02
1071	0.019
1071	0.018
1071	0.018
1072	0.017
1072	0.017
1073	0.016
1073	0.015
1073	0.015
1074	0.016
1074	0.016
1075	0.016
1075	0.016
1076	0.017
1076	0.017
1076	0.018
1077	0.018
1077	0.018
1078	0.018
1078	0.018
1078	0.018
1079	0.018
1079	0.017
1080	0.017
1080	0.017
1080	0.016
1081	0.016
1081	0.016
1082	0.017
1082	0.017
1083	0.017
1083	0.016
1083	0.017
1084	0.017
1084	0.017
1085	0.017
1085	0.017
1085	0.017
1086	0.017
1086	0.016
1087	0.016
1087	0.016
1088	0.015
1088	0.015
1088	0.015
1089	0.014
1089	0.014
1090	0.013
1090	0.013
1090	0.012
1091	0.012
1091	0.012
1092	0.012
1092	0.012
1092	0.012
1093	0.012
1093	0.012
1094	0.012
1094	0.013
1095	0.013
1095	0.013
1095	0.013
1096	0.012
1096	0.012
1097	0.011
1097	0.01
1097	0.009
1098	0.008
1098	0.007
1099	0.006
1099	0.005
1100	0.004
1100	0.004
1100	0.003
1101	0.002
1101	0.001
1102	0.001
1102	0
1102	-0.001
1103	-0.002
1103	-0.002
1104	-0.003
1104	-0.003
1104	-0.004
1105	-0.005
1105	-0.008
1106	-0.01
1106	-0.011
1107	-0.011
1107	-0.011
1107	-0.012
1108	-0.014
1108	-0.015
1109	-0.016
1109	-0.017
1109	-0.017
1110	-0.014
1110	-0.014
1111	-0.014
1111	-0.015
