Data from reversibility-20sec_Absorbance__7967__000000000007967.txt Node

Date: Thu Dec 07 08:28:46 CET 2023
User: Marek
Spectrometer: MAYP115816
Trigger mode: 0
Integration Time (sec): 2.000000E-1
Scans to average: 10
Electric dark correction enabled: true
Nonlinearity correction enabled: true
Boxcar width: 5
XAxis mode: Wavelengths
Number of Pixels in Spectrum: 2068
>>>>>Begin Spectral Data<<<<<
199	-0.073
199	-0.057
200	-0.005
200	0.039
201	0.066
201	0.083
202	0.092
202	0.099
203	0.107
203	0.11
204	0.123
204	0.137
205	0.148
205	0.153
205	0.152
206	0.152
206	0.151
207	0.153
207	0.153
208	0.154
208	0.152
209	0.153
209	0.147
210	0.148
210	0.147
211	0.15
211	0.154
212	0.15
212	0.152
213	0.153
213	0.15
213	0.151
214	0.154
214	0.158
215	0.161
215	0.161
216	0.16
216	0.158
217	0.166
217	0.165
218	0.166
218	0.171
219	0.174
219	0.175
220	0.177
220	0.177
221	0.178
221	0.181
221	0.185
222	0.19
222	0.195
223	0.199
223	0.207
224	0.216
224	0.223
225	0.231
225	0.241
226	0.255
226	0.267
227	0.278
227	0.287
228	0.301
228	0.32
229	0.334
229	0.356
229	0.379
230	0.401
230	0.432
231	0.46
231	0.499
232	0.535
232	0.578
233	0.623
233	0.665
234	0.717
234	0.768
235	0.822
235	0.879
236	0.929
236	0.985
236	1.035
237	1.087
237	1.138
238	1.184
238	1.233
239	1.276
239	1.313
240	1.354
240	1.388
241	1.421
241	1.452
242	1.484
242	1.518
243	1.543
243	1.568
243	1.593
244	1.614
244	1.641
245	1.656
245	1.678
246	1.697
246	1.714
247	1.727
247	1.737
248	1.754
248	1.766
249	1.775
249	1.783
250	1.789
250	1.797
250	1.798
251	1.802
251	1.806
252	1.811
252	1.813
253	1.811
253	1.81
254	1.806
254	1.808
255	1.806
255	1.806
256	1.807
256	1.807
257	1.805
257	1.802
258	1.804
258	1.804
258	1.806
259	1.808
259	1.807
260	1.806
260	1.807
261	1.807
261	1.809
262	1.811
262	1.813
263	1.814
263	1.815
264	1.814
264	1.815
265	1.815
265	1.816
265	1.816
266	1.815
266	1.815
267	1.813
267	1.814
268	1.813
268	1.813
269	1.814
269	1.812
270	1.812
270	1.812
271	1.81
271	1.81
272	1.808
272	1.807
272	1.804
273	1.798
273	1.793
274	1.786
274	1.78
275	1.773
275	1.766
276	1.758
276	1.75
277	1.742
277	1.731
278	1.72
278	1.708
278	1.694
279	1.679
279	1.66
280	1.636
280	1.606
281	1.572
281	1.532
282	1.49
282	1.448
283	1.405
283	1.364
284	1.324
284	1.285
285	1.248
285	1.214
285	1.184
286	1.157
286	1.134
287	1.114
287	1.096
288	1.082
288	1.069
289	1.057
289	1.048
290	1.039
290	1.032
291	1.025
291	1.02
292	1.015
292	1.01
292	1.005
293	1.001
293	0.997
294	0.993
294	0.989
295	0.986
295	0.983
296	0.979
296	0.976
297	0.972
297	0.969
298	0.966
298	0.963
298	0.96
299	0.957
299	0.954
300	0.951
300	0.948
301	0.945
301	0.942
302	0.94
302	0.937
303	0.935
303	0.932
304	0.93
304	0.927
305	0.925
305	0.922
305	0.92
306	0.917
306	0.915
307	0.912
307	0.909
308	0.907
308	0.904
309	0.901
309	0.898
310	0.896
310	0.893
311	0.889
311	0.886
311	0.882
312	0.878
312	0.875
313	0.871
313	0.867
314	0.863
314	0.859
315	0.855
315	0.851
316	0.846
316	0.842
317	0.837
317	0.832
318	0.827
318	0.822
318	0.817
319	0.811
319	0.805
320	0.799
320	0.793
321	0.787
321	0.781
322	0.774
322	0.768
323	0.761
323	0.755
324	0.748
324	0.741
324	0.734
325	0.728
325	0.72
326	0.713
326	0.706
327	0.699
327	0.692
328	0.685
328	0.678
329	0.671
329	0.664
330	0.656
330	0.649
330	0.642
331	0.635
331	0.628
332	0.62
332	0.613
333	0.606
333	0.599
334	0.592
334	0.584
335	0.578
335	0.571
336	0.564
336	0.557
336	0.551
337	0.544
337	0.538
338	0.531
338	0.525
339	0.519
339	0.513
340	0.507
340	0.501
341	0.495
341	0.489
342	0.484
342	0.478
342	0.472
343	0.467
343	0.462
344	0.457
344	0.452
345	0.447
345	0.442
346	0.437
346	0.433
347	0.428
347	0.424
348	0.419
348	0.415
348	0.411
349	0.407
349	0.404
350	0.4
350	0.396
351	0.393
351	0.389
352	0.386
352	0.383
353	0.38
353	0.377
354	0.374
354	0.371
354	0.368
355	0.365
355	0.362
356	0.359
356	0.357
357	0.353
357	0.35
358	0.348
358	0.345
359	0.343
359	0.34
360	0.338
360	0.336
360	0.334
361	0.332
361	0.331
362	0.329
362	0.327
363	0.326
363	0.324
364	0.322
364	0.32
365	0.318
365	0.316
366	0.315
366	0.313
366	0.311
367	0.31
367	0.308
368	0.306
368	0.305
369	0.303
369	0.302
370	0.3
370	0.299
371	0.297
371	0.296
372	0.294
372	0.293
372	0.292
373	0.291
373	0.29
374	0.289
374	0.288
375	0.287
375	0.286
376	0.286
376	0.285
377	0.284
377	0.283
378	0.282
378	0.281
378	0.28
379	0.279
379	0.278
380	0.277
380	0.277
381	0.276
381	0.275
382	0.275
382	0.274
383	0.274
383	0.273
383	0.273
384	0.272
384	0.272
385	0.271
385	0.271
386	0.271
386	0.27
387	0.269
387	0.269
388	0.269
388	0.268
389	0.268
389	0.267
389	0.267
390	0.266
390	0.266
391	0.266
391	0.265
392	0.265
392	0.265
393	0.264
393	0.264
394	0.263
394	0.263
394	0.263
395	0.262
395	0.262
396	0.262
396	0.261
397	0.261
397	0.261
398	0.26
398	0.26
399	0.26
399	0.259
400	0.259
400	0.259
400	0.258
401	0.258
401	0.258
402	0.258
402	0.257
403	0.257
403	0.257
404	0.256
404	0.256
405	0.256
405	0.256
405	0.255
406	0.255
406	0.255
407	0.254
407	0.254
408	0.254
408	0.254
409	0.254
409	0.253
410	0.253
410	0.253
411	0.252
411	0.252
411	0.252
412	0.252
412	0.251
413	0.251
413	0.251
414	0.251
414	0.25
415	0.25
415	0.249
416	0.249
416	0.249
416	0.248
417	0.248
417	0.247
418	0.247
418	0.247
419	0.246
419	0.246
420	0.245
420	0.245
421	0.245
421	0.244
421	0.244
422	0.243
422	0.243
423	0.243
423	0.243
424	0.242
424	0.242
425	0.242
425	0.241
426	0.241
426	0.241
427	0.241
427	0.24
427	0.24
428	0.239
428	0.239
429	0.239
429	0.238
430	0.238
430	0.238
431	0.237
431	0.237
432	0.237
432	0.237
432	0.236
433	0.236
433	0.236
434	0.236
434	0.236
435	0.236
435	0.236
436	0.236
436	0.236
437	0.235
437	0.235
437	0.235
438	0.235
438	0.234
439	0.234
439	0.234
440	0.233
440	0.233
441	0.233
441	0.232
442	0.232
442	0.232
442	0.232
443	0.231
443	0.231
444	0.231
444	0.231
445	0.23
445	0.23
446	0.23
446	0.23
447	0.23
447	0.23
447	0.229
448	0.23
448	0.229
449	0.229
449	0.229
450	0.229
450	0.229
451	0.229
451	0.229
452	0.229
452	0.229
452	0.228
453	0.228
453	0.228
454	0.228
454	0.228
455	0.227
455	0.227
456	0.227
456	0.227
457	0.226
457	0.226
458	0.226
458	0.226
458	0.225
459	0.225
459	0.225
460	0.225
460	0.225
461	0.225
461	0.225
462	0.225
462	0.225
463	0.225
463	0.224
463	0.224
464	0.224
464	0.224
465	0.223
465	0.223
466	0.223
466	0.223
467	0.223
467	0.223
467	0.223
468	0.223
468	0.223
469	0.223
469	0.224
470	0.224
470	0.224
471	0.224
471	0.224
472	0.224
472	0.224
472	0.224
473	0.224
473	0.224
474	0.224
474	0.224
475	0.224
475	0.224
476	0.224
476	0.224
477	0.224
477	0.224
477	0.224
478	0.224
478	0.224
479	0.224
479	0.224
480	0.224
480	0.224
481	0.225
481	0.225
482	0.225
482	0.225
482	0.225
483	0.226
483	0.226
484	0.226
484	0.226
485	0.226
485	0.226
486	0.226
486	0.226
487	0.227
487	0.227
487	0.227
488	0.227
488	0.227
489	0.228
489	0.228
490	0.229
490	0.23
491	0.23
491	0.231
492	0.231
492	0.232
492	0.233
493	0.233
493	0.234
494	0.235
494	0.235
495	0.236
495	0.236
496	0.236
496	0.237
496	0.237
497	0.238
497	0.238
498	0.239
498	0.239
499	0.24
499	0.24
500	0.241
500	0.242
501	0.243
501	0.243
501	0.243
502	0.244
502	0.244
503	0.245
503	0.245
504	0.246
504	0.247
505	0.247
505	0.247
506	0.248
506	0.249
506	0.249
507	0.25
507	0.251
508	0.251
508	0.252
509	0.252
509	0.252
510	0.253
510	0.253
511	0.254
511	0.254
511	0.255
512	0.256
512	0.256
513	0.256
513	0.257
514	0.257
514	0.258
515	0.258
515	0.259
515	0.259
516	0.26
516	0.26
517	0.26
517	0.261
518	0.261
518	0.261
519	0.262
519	0.262
520	0.262
520	0.262
520	0.262
521	0.262
521	0.262
522	0.262
522	0.262
523	0.263
523	0.263
524	0.263
524	0.263
524	0.263
525	0.263
525	0.263
526	0.263
526	0.262
527	0.262
527	0.262
528	0.262
528	0.262
529	0.262
529	0.262
529	0.261
530	0.261
530	0.261
531	0.26
531	0.26
532	0.26
532	0.259
533	0.258
533	0.258
533	0.257
534	0.257
534	0.256
535	0.256
535	0.256
536	0.255
536	0.255
537	0.254
537	0.254
538	0.253
538	0.253
538	0.252
539	0.252
539	0.252
540	0.251
540	0.251
541	0.25
541	0.25
542	0.249
542	0.248
542	0.248
543	0.247
543	0.247
544	0.246
544	0.245
545	0.245
545	0.244
546	0.243
546	0.242
547	0.241
547	0.24
547	0.239
548	0.238
548	0.238
549	0.237
549	0.237
550	0.236
550	0.235
551	0.234
551	0.234
551	0.234
552	0.233
552	0.232
553	0.232
553	0.231
554	0.23
554	0.229
555	0.228
555	0.227
556	0.226
556	0.226
556	0.225
557	0.225
557	0.225
558	0.224
558	0.224
559	0.223
559	0.223
560	0.222
560	0.221
560	0.221
561	0.22
561	0.22
562	0.218
562	0.217
563	0.216
563	0.215
564	0.214
564	0.213
564	0.213
565	0.212
565	0.212
566	0.211
566	0.21
567	0.21
567	0.21
568	0.209
568	0.208
568	0.208
569	0.207
569	0.207
570	0.205
570	0.204
571	0.204
571	0.203
572	0.202
572	0.201
573	0.201
573	0.2
573	0.199
574	0.199
574	0.198
575	0.198
575	0.197
576	0.197
576	0.196
577	0.195
577	0.194
577	0.194
578	0.193
578	0.193
579	0.193
579	0.193
580	0.192
580	0.191
581	0.191
581	0.19
581	0.19
582	0.19
582	0.19
583	0.19
583	0.189
584	0.188
584	0.187
585	0.186
585	0.186
585	0.186
586	0.185
586	0.185
587	0.184
587	0.183
588	0.183
588	0.183
589	0.182
589	0.182
590	0.182
590	0.182
590	0.182
591	0.182
591	0.181
592	0.18
592	0.179
593	0.179
593	0.178
594	0.178
594	0.177
594	0.176
595	0.176
595	0.175
596	0.175
596	0.175
597	0.176
597	0.176
598	0.176
598	0.175
598	0.175
599	0.175
599	0.174
600	0.174
600	0.173
601	0.173
601	0.172
602	0.172
602	0.171
602	0.171
603	0.17
603	0.17
604	0.171
604	0.17
605	0.17
605	0.17
606	0.17
606	0.169
606	0.169
607	0.168
607	0.168
608	0.167
608	0.166
609	0.166
609	0.165
610	0.165
610	0.164
610	0.164
611	0.164
611	0.164
612	0.165
612	0.165
613	0.165
613	0.165
614	0.165
614	0.164
614	0.164
615	0.165
615	0.164
616	0.164
616	0.164
617	0.164
617	0.164
618	0.164
618	0.164
618	0.164
619	0.164
619	0.163
620	0.163
620	0.163
621	0.162
621	0.162
622	0.161
622	0.161
622	0.16
623	0.16
623	0.16
624	0.159
624	0.159
625	0.159
625	0.159
626	0.159
626	0.159
626	0.159
627	0.159
627	0.159
628	0.159
628	0.158
629	0.158
629	0.158
630	0.158
630	0.157
630	0.157
631	0.157
631	0.157
632	0.157
632	0.156
633	0.156
633	0.156
634	0.156
634	0.156
634	0.156
635	0.156
635	0.155
636	0.155
636	0.155
637	0.155
637	0.155
638	0.155
638	0.154
638	0.154
639	0.153
639	0.153
640	0.153
640	0.153
641	0.152
641	0.152
642	0.152
642	0.152
642	0.152
643	0.152
643	0.152
644	0.152
644	0.152
645	0.152
645	0.153
646	0.153
646	0.154
646	0.154
647	0.154
647	0.154
648	0.153
648	0.153
649	0.153
649	0.152
650	0.152
650	0.152
650	0.152
651	0.151
651	0.151
652	0.151
652	0.151
653	0.152
653	0.154
653	0.158
654	0.126
654	0.101
655	0.101
655	0.101
656	0.101
656	0.101
657	0.102
657	0.102
657	0.102
658	0.101
658	0.092
659	0.116
659	0.147
660	0.152
660	0.152
661	0.151
661	0.151
661	0.15
662	0.15
662	0.149
663	0.149
663	0.149
664	0.149
664	0.149
665	0.149
665	0.149
665	0.149
666	0.15
666	0.15
667	0.15
667	0.15
668	0.15
668	0.15
669	0.15
669	0.15
669	0.15
670	0.151
670	0.15
671	0.15
671	0.149
672	0.149
672	0.149
672	0.148
673	0.148
673	0.148
674	0.148
674	0.147
675	0.147
675	0.147
676	0.147
676	0.148
676	0.148
677	0.148
677	0.148
678	0.148
678	0.148
679	0.148
679	0.148
680	0.148
680	0.148
680	0.148
681	0.148
681	0.148
682	0.148
682	0.148
683	0.148
683	0.148
684	0.148
684	0.148
684	0.147
685	0.147
685	0.148
686	0.148
686	0.148
687	0.148
687	0.148
687	0.149
688	0.149
688	0.149
689	0.15
689	0.151
690	0.151
690	0.15
691	0.15
691	0.15
691	0.15
692	0.15
692	0.151
693	0.151
693	0.151
694	0.151
694	0.151
695	0.152
695	0.153
695	0.153
696	0.153
696	0.153
697	0.153
697	0.152
698	0.152
698	0.152
698	0.152
699	0.152
699	0.151
700	0.15
700	0.15
701	0.149
701	0.149
702	0.148
702	0.147
702	0.147
703	0.146
703	0.146
704	0.146
704	0.146
705	0.145
705	0.145
705	0.145
706	0.145
706	0.145
707	0.146
707	0.146
708	0.146
708	0.147
709	0.147
709	0.147
709	0.147
710	0.147
710	0.148
711	0.149
711	0.149
712	0.149
712	0.149
713	0.149
713	0.149
713	0.149
714	0.149
714	0.149
715	0.149
715	0.149
716	0.149
716	0.148
716	0.148
717	0.147
717	0.147
718	0.147
718	0.147
719	0.148
719	0.148
720	0.149
720	0.149
720	0.15
721	0.151
721	0.152
722	0.152
722	0.153
723	0.153
723	0.153
723	0.153
724	0.153
724	0.152
725	0.151
725	0.15
726	0.15
726	0.149
727	0.148
727	0.148
727	0.148
728	0.147
728	0.147
729	0.147
729	0.147
730	0.147
730	0.147
730	0.147
731	0.148
731	0.148
732	0.149
732	0.149
733	0.149
733	0.15
734	0.15
734	0.151
734	0.151
735	0.152
735	0.152
736	0.152
736	0.152
737	0.152
737	0.152
737	0.151
738	0.151
738	0.15
739	0.15
739	0.15
740	0.15
740	0.15
741	0.15
741	0.151
741	0.151
742	0.152
742	0.153
743	0.154
743	0.154
744	0.155
744	0.156
744	0.156
745	0.156
745	0.156
746	0.156
746	0.155
747	0.155
747	0.155
748	0.155
748	0.155
748	0.155
749	0.155
749	0.155
750	0.156
750	0.156
751	0.156
751	0.156
751	0.156
752	0.156
752	0.156
753	0.155
753	0.155
754	0.155
754	0.154
754	0.154
755	0.154
755	0.153
756	0.153
756	0.152
757	0.152
757	0.152
758	0.152
758	0.152
758	0.152
759	0.152
759	0.152
760	0.152
760	0.152
761	0.152
761	0.152
761	0.153
762	0.153
762	0.153
763	0.153
763	0.153
764	0.152
764	0.152
764	0.152
765	0.152
765	0.152
766	0.152
766	0.152
767	0.151
767	0.151
768	0.15
768	0.15
768	0.15
769	0.15
769	0.15
770	0.151
770	0.151
771	0.151
771	0.152
771	0.152
772	0.152
772	0.153
773	0.153
773	0.153
774	0.154
774	0.154
775	0.154
775	0.154
775	0.154
776	0.154
776	0.155
777	0.155
777	0.155
778	0.155
778	0.155
778	0.155
779	0.155
779	0.154
780	0.153
780	0.152
781	0.151
781	0.15
781	0.15
782	0.149
782	0.149
783	0.149
783	0.149
784	0.149
784	0.149
784	0.15
785	0.15
785	0.151
786	0.151
786	0.152
787	0.152
787	0.152
788	0.152
788	0.152
788	0.152
789	0.151
789	0.152
790	0.152
790	0.152
791	0.152
791	0.152
791	0.152
792	0.153
792	0.153
793	0.153
793	0.153
794	0.152
794	0.152
794	0.152
795	0.152
795	0.152
796	0.152
796	0.152
797	0.151
797	0.151
797	0.151
798	0.15
798	0.15
799	0.15
799	0.149
800	0.149
800	0.149
801	0.149
801	0.149
801	0.149
802	0.149
802	0.15
803	0.15
803	0.151
804	0.151
804	0.151
804	0.151
805	0.151
805	0.151
806	0.15
806	0.15
807	0.15
807	0.15
807	0.15
808	0.15
808	0.149
809	0.149
809	0.149
810	0.15
810	0.15
810	0.15
811	0.151
811	0.151
812	0.152
812	0.152
813	0.152
813	0.153
813	0.153
814	0.154
814	0.154
815	0.155
815	0.155
816	0.155
816	0.155
817	0.154
817	0.154
817	0.154
818	0.153
818	0.153
819	0.152
819	0.151
820	0.151
820	0.15
820	0.15
821	0.15
821	0.149
822	0.149
822	0.149
823	0.149
823	0.148
823	0.149
824	0.15
824	0.151
825	0.152
825	0.152
826	0.153
826	0.154
826	0.154
827	0.155
827	0.156
828	0.156
828	0.156
829	0.157
829	0.157
829	0.157
830	0.157
830	0.157
831	0.158
831	0.157
832	0.157
832	0.157
832	0.157
833	0.156
833	0.156
834	0.155
834	0.155
835	0.154
835	0.153
835	0.153
836	0.152
836	0.152
837	0.152
837	0.151
838	0.15
838	0.15
839	0.149
839	0.148
839	0.148
840	0.147
840	0.146
841	0.145
841	0.144
842	0.143
842	0.143
842	0.142
843	0.141
843	0.141
844	0.141
844	0.14
845	0.14
845	0.14
845	0.14
846	0.14
846	0.14
847	0.14
847	0.14
848	0.14
848	0.14
848	0.14
849	0.139
849	0.139
850	0.138
850	0.138
851	0.137
851	0.137
851	0.137
852	0.136
852	0.136
853	0.136
853	0.136
854	0.137
854	0.138
854	0.139
855	0.14
855	0.141
856	0.142
856	0.143
857	0.144
857	0.145
857	0.146
858	0.147
858	0.147
859	0.147
859	0.146
860	0.146
860	0.146
860	0.145
861	0.145
861	0.144
862	0.143
862	0.142
863	0.141
863	0.141
863	0.141
864	0.141
864	0.14
865	0.141
865	0.141
866	0.14
866	0.14
866	0.141
867	0.141
867	0.141
868	0.141
868	0.141
869	0.141
869	0.14
869	0.14
870	0.14
870	0.14
871	0.14
871	0.139
872	0.139
872	0.139
872	0.139
873	0.138
873	0.138
874	0.137
874	0.137
875	0.136
875	0.136
875	0.135
876	0.135
876	0.135
877	0.135
877	0.134
878	0.134
878	0.134
878	0.135
879	0.135
879	0.135
880	0.135
880	0.135
881	0.136
881	0.136
881	0.136
882	0.136
882	0.136
883	0.136
883	0.136
884	0.136
884	0.136
884	0.136
885	0.135
885	0.135
886	0.135
886	0.135
887	0.135
887	0.134
887	0.134
888	0.134
888	0.134
889	0.134
889	0.134
890	0.135
890	0.135
890	0.135
891	0.136
891	0.136
892	0.136
892	0.136
893	0.136
893	0.136
893	0.135
894	0.135
894	0.134
895	0.133
895	0.133
895	0.132
896	0.132
896	0.131
897	0.131
897	0.13
898	0.13
898	0.129
898	0.129
899	0.128
899	0.128
900	0.128
900	0.128
901	0.128
901	0.128
901	0.127
902	0.127
902	0.127
903	0.127
903	0.127
904	0.127
904	0.127
904	0.127
905	0.126
905	0.126
906	0.125
906	0.125
907	0.125
907	0.125
907	0.125
908	0.124
908	0.124
909	0.123
909	0.123
910	0.123
910	0.123
910	0.122
911	0.122
911	0.121
912	0.12
912	0.12
913	0.12
913	0.119
913	0.119
914	0.119
914	0.118
915	0.118
915	0.118
916	0.118
916	0.118
916	0.118
917	0.118
917	0.118
918	0.118
918	0.118
918	0.118
919	0.118
919	0.118
920	0.118
920	0.118
921	0.118
921	0.118
921	0.118
922	0.118
922	0.118
923	0.118
923	0.118
924	0.118
924	0.118
924	0.118
925	0.119
925	0.119
926	0.119
926	0.119
927	0.119
927	0.119
927	0.119
928	0.119
928	0.12
929	0.12
929	0.12
930	0.12
930	0.12
930	0.12
931	0.119
931	0.119
932	0.119
932	0.119
933	0.119
933	0.119
933	0.118
934	0.118
934	0.117
935	0.117
935	0.116
935	0.116
936	0.115
936	0.114
937	0.114
937	0.113
938	0.112
938	0.111
938	0.111
939	0.11
939	0.11
940	0.109
940	0.109
941	0.109
941	0.109
941	0.11
942	0.111
942	0.111
943	0.112
943	0.112
944	0.113
944	0.113
944	0.114
945	0.114
945	0.114
946	0.115
946	0.114
946	0.114
947	0.114
947	0.114
948	0.113
948	0.113
949	0.112
949	0.112
949	0.111
950	0.11
950	0.11
951	0.109
951	0.108
952	0.107
952	0.107
952	0.106
953	0.106
953	0.105
954	0.105
954	0.105
955	0.105
955	0.105
955	0.105
956	0.106
956	0.107
957	0.108
957	0.109
957	0.109
958	0.11
958	0.111
959	0.112
959	0.113
960	0.113
960	0.114
960	0.115
961	0.115
961	0.115
962	0.115
962	0.114
963	0.114
963	0.113
963	0.113
964	0.112
964	0.112
965	0.111
965	0.111
966	0.111
966	0.11
966	0.11
967	0.11
967	0.11
968	0.11
968	0.11
968	0.11
969	0.11
969	0.109
970	0.109
970	0.108
971	0.107
971	0.106
971	0.105
972	0.104
972	0.104
973	0.103
973	0.103
974	0.102
974	0.102
974	0.103
975	0.103
975	0.103
976	0.103
976	0.103
976	0.103
977	0.103
977	0.103
978	0.103
978	0.103
979	0.102
979	0.102
979	0.102
980	0.103
980	0.103
981	0.102
981	0.103
982	0.103
982	0.104
982	0.104
983	0.104
983	0.105
984	0.105
984	0.105
984	0.105
985	0.105
985	0.105
986	0.104
986	0.103
987	0.103
987	0.102
987	0.102
988	0.101
988	0.101
989	0.101
989	0.1
990	0.1
990	0.1
990	0.1
991	0.1
991	0.1
992	0.1
992	0.099
992	0.098
993	0.098
993	0.097
994	0.096
994	0.096
995	0.096
995	0.095
995	0.095
996	0.095
996	0.095
997	0.095
997	0.095
997	0.095
998	0.096
998	0.096
999	0.096
999	0.097
1000	0.098
1000	0.098
1000	0.098
1001	0.099
1001	0.099
1002	0.099
1002	0.1
1003	0.1
1003	0.1
1003	0.099
1004	0.099
1004	0.098
1005	0.098
1005	0.097
1005	0.097
1006	0.097
1006	0.096
1007	0.096
1007	0.096
1008	0.095
1008	0.095
1008	0.094
1009	0.094
1009	0.094
1010	0.093
1010	0.093
1010	0.093
1011	0.092
1011	0.092
1012	0.091
1012	0.091
1013	0.091
1013	0.09
1013	0.09
1014	0.09
1014	0.089
1015	0.089
1015	0.089
1016	0.089
1016	0.089
1016	0.089
1017	0.089
1017	0.089
1018	0.089
1018	0.088
1018	0.088
1019	0.088
1019	0.088
1020	0.088
1020	0.089
1021	0.089
1021	0.09
1021	0.09
1022	0.091
1022	0.091
1023	0.091
1023	0.092
1023	0.092
1024	0.092
1024	0.093
1025	0.093
1025	0.093
1026	0.093
1026	0.092
1026	0.092
1027	0.092
1027	0.092
1028	0.092
1028	0.091
1028	0.091
1029	0.091
1029	0.091
1030	0.091
1030	0.091
1031	0.091
1031	0.091
1031	0.091
1032	0.091
1032	0.091
1033	0.091
1033	0.091
1033	0.091
1034	0.091
1034	0.091
1035	0.091
1035	0.091
1036	0.091
1036	0.09
1036	0.09
1037	0.09
1037	0.09
1038	0.089
1038	0.089
1039	0.089
1039	0.089
1039	0.088
1040	0.088
1040	0.088
1041	0.087
1041	0.087
1041	0.087
1042	0.087
1042	0.086
1043	0.086
1043	0.085
1044	0.085
1044	0.084
1044	0.084
1045	0.084
1045	0.084
1046	0.083
1046	0.083
1046	0.083
1047	0.083
1047	0.083
1048	0.082
1048	0.082
1049	0.082
1049	0.082
1049	0.082
1050	0.082
1050	0.081
1051	0.081
1051	0.081
1051	0.08
1052	0.08
1052	0.08
1053	0.079
1053	0.078
1053	0.078
1054	0.078
1054	0.077
1055	0.077
1055	0.077
1056	0.077
1056	0.077
1056	0.076
1057	0.076
1057	0.076
1058	0.076
1058	0.075
1058	0.075
1059	0.075
1059	0.075
1060	0.074
1060	0.074
1061	0.074
1061	0.074
1061	0.074
1062	0.074
1062	0.074
1063	0.074
1063	0.073
1063	0.073
1064	0.073
1064	0.073
1065	0.073
1065	0.073
1066	0.073
1066	0.073
1066	0.073
1067	0.073
1067	0.073
1068	0.073
1068	0.073
1068	0.072
1069	0.072
1069	0.072
1070	0.071
1070	0.071
1071	0.071
1071	0.071
1071	0.07
1072	0.07
1072	0.07
1073	0.069
1073	0.069
1073	0.069
1074	0.07
1074	0.07
1075	0.07
1075	0.071
1076	0.071
1076	0.072
1076	0.073
1077	0.073
1077	0.073
1078	0.073
1078	0.073
1078	0.073
1079	0.072
1079	0.072
1080	0.071
1080	0.071
1080	0.071
1081	0.07
1081	0.07
1082	0.07
1082	0.07
1083	0.07
1083	0.07
1083	0.07
1084	0.07
1084	0.07
1085	0.07
1085	0.07
1085	0.07
1086	0.07
1086	0.07
1087	0.069
1087	0.069
1088	0.069
1088	0.069
1088	0.069
1089	0.068
1089	0.068
1090	0.067
1090	0.067
1090	0.066
1091	0.066
1091	0.066
1092	0.066
1092	0.066
1092	0.067
1093	0.067
1093	0.067
1094	0.066
1094	0.066
1095	0.066
1095	0.065
1095	0.065
1096	0.064
1096	0.063
1097	0.062
1097	0.061
1097	0.061
1098	0.06
1098	0.059
1099	0.059
1099	0.058
1100	0.057
1100	0.057
1100	0.056
1101	0.056
1101	0.056
1102	0.055
1102	0.055
1102	0.054
1103	0.054
1103	0.055
1104	0.055
1104	0.055
1104	0.054
1105	0.053
1105	0.051
1106	0.051
1106	0.05
1107	0.05
1107	0.05
1107	0.049
1108	0.048
1108	0.046
1109	0.046
1109	0.047
1109	0.048
1110	0.051
1110	0.049
1111	0.051
1111	0.048
