Data from reversibility-20sec_Absorbance__1671__000000000001671.txt Node

Date: Tue Dec 05 21:30:05 CET 2023
User: Marek
Spectrometer: MAYP115816
Trigger mode: 0
Integration Time (sec): 2.000000E-1
Scans to average: 10
Electric dark correction enabled: true
Nonlinearity correction enabled: true
Boxcar width: 5
XAxis mode: Wavelengths
Number of Pixels in Spectrum: 2068
>>>>>Begin Spectral Data<<<<<
199	-0.237
199	-0.209
200	-0.136
200	-0.086
201	-0.057
201	-0.039
202	-0.025
202	-0.017
203	-0.008
203	-0.004
204	0.01
204	0.023
205	0.036
205	0.042
205	0.042
206	0.042
206	0.043
207	0.044
207	0.044
208	0.043
208	0.043
209	0.046
209	0.043
210	0.042
210	0.04
211	0.041
211	0.044
212	0.043
212	0.044
213	0.05
213	0.052
213	0.052
214	0.054
214	0.056
215	0.061
215	0.06
216	0.062
216	0.059
217	0.063
217	0.066
218	0.064
218	0.068
219	0.072
219	0.072
220	0.073
220	0.072
221	0.074
221	0.076
221	0.083
222	0.088
222	0.09
223	0.096
223	0.096
224	0.101
224	0.111
225	0.121
225	0.132
226	0.14
226	0.152
227	0.16
227	0.17
228	0.185
228	0.199
229	0.216
229	0.242
229	0.263
230	0.288
230	0.318
231	0.352
231	0.392
232	0.43
232	0.475
233	0.517
233	0.568
234	0.621
234	0.671
235	0.725
235	0.778
236	0.83
236	0.884
236	0.935
237	0.988
237	1.038
238	1.09
238	1.139
239	1.189
239	1.234
240	1.277
240	1.32
241	1.359
241	1.395
242	1.432
242	1.468
243	1.503
243	1.534
243	1.561
244	1.587
244	1.613
245	1.634
245	1.658
246	1.682
246	1.703
247	1.719
247	1.738
248	1.756
248	1.77
249	1.782
249	1.794
250	1.805
250	1.819
250	1.826
251	1.836
251	1.842
252	1.854
252	1.858
253	1.862
253	1.864
254	1.87
254	1.876
255	1.88
255	1.881
256	1.885
256	1.884
257	1.886
257	1.886
258	1.888
258	1.891
258	1.893
259	1.895
259	1.895
260	1.896
260	1.9
261	1.899
261	1.906
262	1.909
262	1.911
263	1.916
263	1.919
264	1.921
264	1.922
265	1.925
265	1.928
265	1.93
266	1.935
266	1.937
267	1.936
267	1.94
268	1.94
268	1.942
269	1.947
269	1.949
270	1.947
270	1.945
271	1.944
271	1.942
272	1.941
272	1.94
272	1.938
273	1.931
273	1.925
274	1.919
274	1.914
275	1.911
275	1.907
276	1.901
276	1.895
277	1.888
277	1.88
278	1.871
278	1.861
278	1.848
279	1.833
279	1.814
280	1.791
280	1.762
281	1.728
281	1.69
282	1.649
282	1.608
283	1.566
283	1.526
284	1.486
284	1.448
285	1.412
285	1.378
285	1.348
286	1.322
286	1.298
287	1.278
287	1.259
288	1.244
288	1.23
289	1.218
289	1.208
290	1.199
290	1.191
291	1.184
291	1.178
292	1.172
292	1.166
292	1.162
293	1.157
293	1.153
294	1.15
294	1.146
295	1.143
295	1.139
296	1.136
296	1.132
297	1.129
297	1.126
298	1.123
298	1.119
298	1.116
299	1.113
299	1.11
300	1.107
300	1.104
301	1.101
301	1.099
302	1.096
302	1.093
303	1.091
303	1.088
304	1.085
304	1.082
305	1.08
305	1.077
305	1.074
306	1.071
306	1.068
307	1.066
307	1.062
308	1.059
308	1.057
309	1.053
309	1.05
310	1.047
310	1.044
311	1.041
311	1.037
311	1.033
312	1.029
312	1.025
313	1.021
313	1.017
314	1.013
314	1.008
315	1.004
315	0.999
316	0.994
316	0.99
317	0.985
317	0.98
318	0.975
318	0.969
318	0.964
319	0.958
319	0.953
320	0.947
320	0.941
321	0.935
321	0.929
322	0.923
322	0.916
323	0.91
323	0.903
324	0.897
324	0.89
324	0.883
325	0.876
325	0.869
326	0.862
326	0.855
327	0.848
327	0.841
328	0.834
328	0.827
329	0.82
329	0.813
330	0.806
330	0.798
330	0.791
331	0.784
331	0.777
332	0.77
332	0.762
333	0.755
333	0.748
334	0.741
334	0.734
335	0.727
335	0.72
336	0.713
336	0.706
336	0.7
337	0.693
337	0.687
338	0.68
338	0.674
339	0.668
339	0.662
340	0.656
340	0.65
341	0.645
341	0.639
342	0.633
342	0.628
342	0.622
343	0.617
343	0.611
344	0.606
344	0.601
345	0.597
345	0.592
346	0.587
346	0.583
347	0.578
347	0.574
348	0.57
348	0.566
348	0.562
349	0.558
349	0.554
350	0.55
350	0.546
351	0.543
351	0.539
352	0.536
352	0.533
353	0.529
353	0.526
354	0.523
354	0.52
354	0.517
355	0.514
355	0.511
356	0.508
356	0.506
357	0.503
357	0.5
358	0.497
358	0.494
359	0.491
359	0.489
360	0.486
360	0.484
360	0.481
361	0.479
361	0.477
362	0.475
362	0.473
363	0.471
363	0.469
364	0.466
364	0.464
365	0.462
365	0.46
366	0.458
366	0.456
366	0.454
367	0.452
367	0.45
368	0.448
368	0.447
369	0.445
369	0.443
370	0.442
370	0.44
371	0.438
371	0.436
372	0.434
372	0.433
372	0.431
373	0.43
373	0.429
374	0.427
374	0.426
375	0.425
375	0.424
376	0.423
376	0.421
377	0.42
377	0.419
378	0.418
378	0.417
378	0.416
379	0.415
379	0.414
380	0.413
380	0.411
381	0.41
381	0.409
382	0.408
382	0.407
383	0.406
383	0.405
383	0.404
384	0.403
384	0.403
385	0.402
385	0.401
386	0.4
386	0.399
387	0.399
387	0.398
388	0.397
388	0.396
389	0.396
389	0.395
389	0.395
390	0.394
390	0.393
391	0.393
391	0.392
392	0.392
392	0.391
393	0.39
393	0.39
394	0.389
394	0.388
394	0.387
395	0.387
395	0.386
396	0.385
396	0.385
397	0.384
397	0.383
398	0.383
398	0.382
399	0.381
399	0.381
400	0.38
400	0.379
400	0.379
401	0.379
401	0.378
402	0.377
402	0.377
403	0.377
403	0.376
404	0.375
404	0.375
405	0.374
405	0.374
405	0.373
406	0.373
406	0.372
407	0.372
407	0.371
408	0.371
408	0.37
409	0.37
409	0.369
410	0.369
410	0.369
411	0.368
411	0.368
411	0.367
412	0.367
412	0.366
413	0.366
413	0.366
414	0.365
414	0.365
415	0.364
415	0.364
416	0.363
416	0.363
416	0.362
417	0.362
417	0.361
418	0.361
418	0.36
419	0.36
419	0.359
420	0.359
420	0.358
421	0.358
421	0.358
421	0.357
422	0.357
422	0.357
423	0.356
423	0.356
424	0.355
424	0.355
425	0.355
425	0.354
426	0.354
426	0.354
427	0.353
427	0.353
427	0.353
428	0.353
428	0.352
429	0.352
429	0.352
430	0.352
430	0.351
431	0.351
431	0.351
432	0.351
432	0.35
432	0.35
433	0.349
433	0.349
434	0.349
434	0.349
435	0.349
435	0.349
436	0.348
436	0.348
437	0.348
437	0.347
437	0.347
438	0.347
438	0.347
439	0.347
439	0.347
440	0.347
440	0.347
441	0.347
441	0.346
442	0.346
442	0.346
442	0.346
443	0.345
443	0.345
444	0.345
444	0.345
445	0.345
445	0.345
446	0.345
446	0.344
447	0.344
447	0.344
447	0.344
448	0.344
448	0.344
449	0.344
449	0.344
450	0.344
450	0.344
451	0.344
451	0.344
452	0.344
452	0.345
452	0.344
453	0.344
453	0.344
454	0.344
454	0.344
455	0.344
455	0.344
456	0.344
456	0.343
457	0.343
457	0.343
458	0.343
458	0.343
458	0.343
459	0.343
459	0.344
460	0.343
460	0.344
461	0.344
461	0.344
462	0.344
462	0.344
463	0.345
463	0.345
463	0.345
464	0.345
464	0.345
465	0.345
465	0.345
466	0.346
466	0.346
467	0.346
467	0.346
467	0.346
468	0.346
468	0.346
469	0.346
469	0.347
470	0.347
470	0.347
471	0.348
471	0.348
472	0.349
472	0.349
472	0.35
473	0.351
473	0.351
474	0.352
474	0.352
475	0.353
475	0.353
476	0.354
476	0.355
477	0.355
477	0.356
477	0.356
478	0.357
478	0.358
479	0.359
479	0.36
480	0.36
480	0.361
481	0.362
481	0.362
482	0.363
482	0.364
482	0.365
483	0.366
483	0.368
484	0.369
484	0.369
485	0.37
485	0.371
486	0.372
486	0.373
487	0.374
487	0.374
487	0.375
488	0.376
488	0.377
489	0.378
489	0.38
490	0.382
490	0.383
491	0.385
491	0.386
492	0.388
492	0.389
492	0.391
493	0.392
493	0.393
494	0.395
494	0.397
495	0.398
495	0.399
496	0.401
496	0.403
496	0.404
497	0.406
497	0.407
498	0.409
498	0.41
499	0.411
499	0.413
500	0.415
500	0.417
501	0.419
501	0.42
501	0.421
502	0.423
502	0.424
503	0.426
503	0.428
504	0.429
504	0.43
505	0.432
505	0.433
506	0.434
506	0.436
506	0.437
507	0.439
507	0.441
508	0.442
508	0.443
509	0.445
509	0.446
510	0.448
510	0.449
511	0.45
511	0.451
511	0.453
512	0.454
512	0.455
513	0.456
513	0.457
514	0.458
514	0.459
515	0.46
515	0.461
515	0.462
516	0.463
516	0.464
517	0.464
517	0.465
518	0.465
518	0.465
519	0.465
519	0.465
520	0.465
520	0.465
520	0.465
521	0.465
521	0.465
522	0.464
522	0.464
523	0.464
523	0.464
524	0.464
524	0.464
524	0.464
525	0.463
525	0.462
526	0.462
526	0.461
527	0.461
527	0.46
528	0.459
528	0.458
529	0.457
529	0.455
529	0.454
530	0.453
530	0.451
531	0.45
531	0.448
532	0.447
532	0.445
533	0.443
533	0.442
533	0.44
534	0.438
534	0.437
535	0.435
535	0.434
536	0.432
536	0.43
537	0.428
537	0.425
538	0.423
538	0.421
538	0.419
539	0.416
539	0.415
540	0.412
540	0.41
541	0.407
541	0.405
542	0.402
542	0.399
542	0.397
543	0.394
543	0.392
544	0.389
544	0.387
545	0.385
545	0.382
546	0.38
546	0.377
547	0.374
547	0.372
547	0.369
548	0.367
548	0.364
549	0.361
549	0.359
550	0.356
550	0.353
551	0.35
551	0.347
551	0.345
552	0.342
552	0.34
553	0.337
553	0.335
554	0.332
554	0.33
555	0.327
555	0.324
556	0.322
556	0.319
556	0.316
557	0.314
557	0.312
558	0.309
558	0.307
559	0.304
559	0.302
560	0.299
560	0.297
560	0.295
561	0.293
561	0.29
562	0.288
562	0.285
563	0.283
563	0.28
564	0.278
564	0.276
564	0.274
565	0.272
565	0.27
566	0.267
566	0.266
567	0.264
567	0.262
568	0.26
568	0.258
568	0.257
569	0.256
569	0.254
570	0.251
570	0.249
571	0.247
571	0.246
572	0.244
572	0.242
573	0.24
573	0.238
573	0.235
574	0.233
574	0.231
575	0.23
575	0.229
576	0.227
576	0.225
577	0.223
577	0.221
577	0.22
578	0.218
578	0.217
579	0.216
579	0.216
580	0.214
580	0.211
581	0.21
581	0.208
581	0.207
582	0.207
582	0.206
583	0.205
583	0.204
584	0.202
584	0.2
585	0.198
585	0.197
585	0.196
586	0.195
586	0.193
587	0.192
587	0.19
588	0.189
588	0.188
589	0.187
589	0.186
590	0.185
590	0.184
590	0.184
591	0.184
591	0.182
592	0.181
592	0.18
593	0.179
593	0.178
594	0.176
594	0.175
594	0.174
595	0.173
595	0.171
596	0.17
596	0.169
597	0.169
597	0.168
598	0.167
598	0.166
598	0.165
599	0.164
599	0.163
600	0.162
600	0.161
601	0.161
601	0.16
602	0.159
602	0.158
602	0.157
603	0.156
603	0.156
604	0.155
604	0.155
605	0.154
605	0.154
606	0.153
606	0.152
606	0.151
607	0.151
607	0.15
608	0.15
608	0.148
609	0.147
609	0.147
610	0.146
610	0.145
610	0.145
611	0.144
611	0.144
612	0.143
612	0.143
613	0.143
613	0.142
614	0.141
614	0.141
614	0.14
615	0.139
615	0.139
616	0.138
616	0.137
617	0.137
617	0.136
618	0.135
618	0.135
618	0.134
619	0.134
619	0.134
620	0.134
620	0.133
621	0.133
621	0.132
622	0.132
622	0.131
622	0.13
623	0.129
623	0.129
624	0.128
624	0.127
625	0.127
625	0.126
626	0.126
626	0.125
626	0.125
627	0.124
627	0.124
628	0.124
628	0.123
629	0.123
629	0.122
630	0.122
630	0.121
630	0.121
631	0.121
631	0.12
632	0.12
632	0.119
633	0.119
633	0.119
634	0.119
634	0.119
634	0.118
635	0.118
635	0.117
636	0.117
636	0.117
637	0.116
637	0.116
638	0.115
638	0.115
638	0.114
639	0.113
639	0.113
640	0.113
640	0.112
641	0.112
641	0.112
642	0.111
642	0.111
642	0.112
643	0.111
643	0.111
644	0.111
644	0.111
645	0.111
645	0.111
646	0.111
646	0.11
646	0.11
647	0.109
647	0.109
648	0.108
648	0.107
649	0.106
649	0.106
650	0.106
650	0.105
650	0.105
651	0.105
651	0.105
652	0.104
652	0.104
653	0.105
653	0.106
653	0.113
654	0.091
654	0.074
655	0.072
655	0.072
656	0.072
656	0.072
657	0.072
657	0.072
657	0.072
658	0.07
658	0.061
659	0.076
659	0.096
660	0.101
660	0.102
661	0.101
661	0.1
661	0.1
662	0.099
662	0.099
663	0.098
663	0.098
664	0.097
664	0.096
665	0.096
665	0.095
665	0.095
666	0.095
666	0.094
667	0.094
667	0.094
668	0.095
668	0.094
669	0.095
669	0.095
669	0.095
670	0.095
670	0.095
671	0.094
671	0.094
672	0.093
672	0.092
672	0.092
673	0.091
673	0.091
674	0.091
674	0.09
675	0.09
675	0.09
676	0.09
676	0.09
676	0.09
677	0.09
677	0.09
678	0.09
678	0.089
679	0.089
679	0.089
680	0.089
680	0.088
680	0.088
681	0.088
681	0.088
682	0.088
682	0.089
683	0.089
683	0.09
684	0.09
684	0.09
684	0.09
685	0.09
685	0.09
686	0.09
686	0.089
687	0.089
687	0.088
687	0.087
688	0.087
688	0.086
689	0.086
689	0.086
690	0.086
690	0.085
691	0.085
691	0.085
691	0.085
692	0.085
692	0.085
693	0.085
693	0.086
694	0.085
694	0.085
695	0.086
695	0.087
695	0.086
696	0.086
696	0.085
697	0.085
697	0.085
698	0.084
698	0.084
698	0.084
699	0.084
699	0.084
700	0.083
700	0.084
701	0.084
701	0.084
702	0.084
702	0.084
702	0.084
703	0.084
703	0.084
704	0.083
704	0.083
705	0.083
705	0.082
705	0.081
706	0.081
706	0.081
707	0.08
707	0.08
708	0.08
708	0.08
709	0.08
709	0.08
709	0.079
710	0.078
710	0.078
711	0.078
711	0.078
712	0.078
712	0.077
713	0.077
713	0.077
713	0.077
714	0.077
714	0.077
715	0.077
715	0.077
716	0.077
716	0.076
716	0.076
717	0.075
717	0.075
718	0.074
718	0.074
719	0.074
719	0.074
720	0.075
720	0.075
720	0.076
721	0.076
721	0.077
722	0.077
722	0.077
723	0.077
723	0.077
723	0.077
724	0.077
724	0.076
725	0.075
725	0.074
726	0.073
726	0.072
727	0.071
727	0.071
727	0.071
728	0.07
728	0.069
729	0.07
729	0.069
730	0.07
730	0.07
730	0.07
731	0.071
731	0.071
732	0.071
732	0.072
733	0.071
733	0.071
734	0.071
734	0.071
734	0.071
735	0.072
735	0.071
736	0.071
736	0.071
737	0.07
737	0.071
737	0.071
738	0.07
738	0.069
739	0.069
739	0.068
740	0.068
740	0.067
741	0.067
741	0.067
741	0.066
742	0.065
742	0.065
743	0.066
743	0.066
744	0.067
744	0.067
744	0.068
745	0.068
745	0.068
746	0.069
746	0.069
747	0.07
747	0.07
748	0.07
748	0.07
748	0.07
749	0.07
749	0.07
750	0.07
750	0.069
751	0.069
751	0.068
751	0.068
752	0.067
752	0.066
753	0.065
753	0.065
754	0.065
754	0.064
754	0.064
755	0.064
755	0.064
756	0.064
756	0.063
757	0.062
757	0.062
758	0.061
758	0.061
758	0.061
759	0.06
759	0.06
760	0.059
760	0.059
761	0.059
761	0.06
761	0.061
762	0.062
762	0.062
763	0.063
763	0.063
764	0.063
764	0.063
764	0.063
765	0.062
765	0.061
766	0.061
766	0.061
767	0.06
767	0.059
768	0.058
768	0.058
768	0.058
769	0.058
769	0.058
770	0.058
770	0.058
771	0.058
771	0.058
771	0.058
772	0.058
772	0.059
773	0.059
773	0.059
774	0.059
774	0.059
775	0.059
775	0.059
775	0.059
776	0.059
776	0.059
777	0.059
777	0.059
778	0.059
778	0.058
778	0.058
779	0.058
779	0.057
780	0.057
780	0.056
781	0.056
781	0.056
781	0.055
782	0.055
782	0.056
783	0.056
783	0.056
784	0.056
784	0.057
784	0.057
785	0.057
785	0.057
786	0.058
786	0.058
787	0.058
787	0.058
788	0.057
788	0.057
788	0.057
789	0.057
789	0.057
790	0.057
790	0.057
791	0.056
791	0.056
791	0.056
792	0.056
792	0.056
793	0.056
793	0.055
794	0.055
794	0.054
794	0.054
795	0.054
795	0.054
796	0.054
796	0.054
797	0.054
797	0.054
797	0.053
798	0.053
798	0.053
799	0.052
799	0.052
800	0.051
800	0.051
801	0.05
801	0.05
801	0.05
802	0.05
802	0.051
803	0.051
803	0.052
804	0.053
804	0.054
804	0.054
805	0.054
805	0.054
806	0.054
806	0.054
807	0.054
807	0.053
807	0.053
808	0.053
808	0.052
809	0.052
809	0.052
810	0.052
810	0.052
810	0.052
811	0.052
811	0.053
812	0.054
812	0.054
813	0.054
813	0.054
813	0.054
814	0.054
814	0.055
815	0.055
815	0.056
816	0.056
816	0.055
817	0.055
817	0.055
817	0.055
818	0.055
818	0.055
819	0.055
819	0.054
820	0.053
820	0.053
820	0.052
821	0.052
821	0.052
822	0.052
822	0.052
823	0.052
823	0.051
823	0.052
824	0.052
824	0.053
825	0.053
825	0.054
826	0.053
826	0.053
826	0.052
827	0.052
827	0.052
828	0.051
828	0.051
829	0.05
829	0.05
829	0.05
830	0.049
830	0.049
831	0.05
831	0.05
832	0.05
832	0.051
832	0.051
833	0.051
833	0.052
834	0.052
834	0.052
835	0.052
835	0.052
835	0.052
836	0.053
836	0.053
837	0.053
837	0.054
838	0.053
838	0.053
839	0.052
839	0.051
839	0.05
840	0.049
840	0.048
841	0.047
841	0.046
842	0.046
842	0.045
842	0.045
843	0.045
843	0.045
844	0.045
844	0.045
845	0.045
845	0.045
845	0.045
846	0.045
846	0.045
847	0.046
847	0.046
848	0.046
848	0.047
848	0.047
849	0.048
849	0.048
850	0.048
850	0.048
851	0.048
851	0.048
851	0.048
852	0.047
852	0.046
853	0.045
853	0.045
854	0.044
854	0.044
854	0.044
855	0.044
855	0.044
856	0.044
856	0.044
857	0.045
857	0.045
857	0.046
858	0.046
858	0.046
859	0.046
859	0.045
860	0.045
860	0.044
860	0.044
861	0.043
861	0.043
862	0.042
862	0.041
863	0.041
863	0.041
863	0.041
864	0.041
864	0.041
865	0.041
865	0.041
866	0.041
866	0.04
866	0.04
867	0.04
867	0.04
868	0.04
868	0.04
869	0.04
869	0.04
869	0.04
870	0.04
870	0.041
871	0.042
871	0.043
872	0.044
872	0.045
872	0.045
873	0.046
873	0.046
874	0.046
874	0.046
875	0.046
875	0.046
875	0.046
876	0.046
876	0.046
877	0.045
877	0.045
878	0.045
878	0.046
878	0.046
879	0.047
879	0.047
880	0.047
880	0.047
881	0.047
881	0.046
881	0.046
882	0.045
882	0.044
883	0.043
883	0.043
884	0.042
884	0.041
884	0.041
885	0.04
885	0.04
886	0.04
886	0.04
887	0.039
887	0.039
887	0.039
888	0.039
888	0.038
889	0.038
889	0.038
890	0.039
890	0.039
890	0.039
891	0.04
891	0.041
892	0.041
892	0.042
893	0.043
893	0.044
893	0.045
894	0.046
894	0.046
895	0.046
895	0.046
895	0.046
896	0.046
896	0.046
897	0.045
897	0.044
898	0.043
898	0.043
898	0.042
899	0.042
899	0.041
900	0.041
900	0.041
901	0.041
901	0.041
901	0.041
902	0.041
902	0.041
903	0.041
903	0.041
904	0.041
904	0.041
904	0.041
905	0.041
905	0.041
906	0.041
906	0.042
907	0.042
907	0.043
907	0.043
908	0.043
908	0.044
909	0.044
909	0.044
910	0.045
910	0.045
910	0.045
911	0.045
911	0.045
912	0.045
912	0.045
913	0.045
913	0.045
913	0.045
914	0.044
914	0.044
915	0.044
915	0.044
916	0.043
916	0.043
916	0.042
917	0.042
917	0.041
918	0.041
918	0.04
918	0.04
919	0.039
919	0.039
920	0.039
920	0.039
921	0.039
921	0.04
921	0.04
922	0.04
922	0.041
923	0.042
923	0.042
924	0.042
924	0.043
924	0.043
925	0.043
925	0.043
926	0.043
926	0.043
927	0.043
927	0.043
927	0.042
928	0.042
928	0.042
929	0.042
929	0.042
930	0.041
930	0.041
930	0.041
931	0.04
931	0.04
932	0.04
932	0.039
933	0.039
933	0.038
933	0.038
934	0.037
934	0.037
935	0.036
935	0.036
935	0.036
936	0.036
936	0.036
937	0.036
937	0.037
938	0.037
938	0.037
938	0.038
939	0.038
939	0.038
940	0.039
940	0.039
941	0.04
941	0.04
941	0.041
942	0.041
942	0.041
943	0.042
943	0.042
944	0.042
944	0.043
944	0.043
945	0.043
945	0.044
946	0.044
946	0.044
946	0.045
947	0.045
947	0.045
948	0.046
948	0.046
949	0.046
949	0.046
949	0.047
950	0.046
950	0.047
951	0.047
951	0.046
952	0.046
952	0.046
952	0.046
953	0.045
953	0.045
954	0.044
954	0.044
955	0.043
955	0.043
955	0.043
956	0.043
956	0.043
957	0.043
957	0.043
957	0.043
958	0.044
958	0.044
959	0.044
959	0.045
960	0.045
960	0.046
960	0.046
961	0.046
961	0.046
962	0.046
962	0.045
963	0.045
963	0.045
963	0.045
964	0.044
964	0.044
965	0.044
965	0.044
966	0.044
966	0.044
966	0.044
967	0.044
967	0.044
968	0.044
968	0.044
968	0.044
969	0.044
969	0.044
970	0.044
970	0.043
971	0.043
971	0.043
971	0.043
972	0.043
972	0.043
973	0.043
973	0.043
974	0.043
974	0.043
974	0.043
975	0.043
975	0.043
976	0.043
976	0.044
976	0.044
977	0.043
977	0.043
978	0.043
978	0.043
979	0.044
979	0.044
979	0.044
980	0.044
980	0.043
981	0.043
981	0.043
982	0.043
982	0.042
982	0.042
983	0.041
983	0.04
984	0.039
984	0.038
984	0.037
985	0.036
985	0.035
986	0.034
986	0.034
987	0.033
987	0.032
987	0.032
988	0.031
988	0.031
989	0.031
989	0.031
990	0.031
990	0.031
990	0.031
991	0.031
991	0.031
992	0.032
992	0.031
992	0.031
993	0.032
993	0.032
994	0.032
994	0.032
995	0.032
995	0.033
995	0.033
996	0.033
996	0.034
997	0.035
997	0.035
997	0.036
998	0.037
998	0.037
999	0.038
999	0.039
1000	0.04
1000	0.041
1000	0.042
1001	0.043
1001	0.044
1002	0.044
1002	0.044
1003	0.045
1003	0.044
1003	0.044
1004	0.044
1004	0.043
1005	0.042
1005	0.042
1005	0.041
1006	0.041
1006	0.04
1007	0.04
1007	0.039
1008	0.039
1008	0.039
1008	0.039
1009	0.039
1009	0.039
1010	0.038
1010	0.038
1010	0.038
1011	0.038
1011	0.037
1012	0.037
1012	0.036
1013	0.036
1013	0.036
1013	0.035
1014	0.035
1014	0.035
1015	0.035
1015	0.035
1016	0.034
1016	0.034
1016	0.034
1017	0.034
1017	0.034
1018	0.034
1018	0.033
1018	0.033
1019	0.033
1019	0.033
1020	0.033
1020	0.033
1021	0.033
1021	0.034
1021	0.034
1022	0.034
1022	0.034
1023	0.034
1023	0.034
1023	0.034
1024	0.034
1024	0.034
1025	0.034
1025	0.034
1026	0.033
1026	0.033
1026	0.032
1027	0.032
1027	0.031
1028	0.031
1028	0.03
1028	0.03
1029	0.03
1029	0.029
1030	0.029
1030	0.029
1031	0.03
1031	0.03
1031	0.03
1032	0.03
1032	0.031
1033	0.032
1033	0.032
1033	0.032
1034	0.032
1034	0.033
1035	0.033
1035	0.033
1036	0.033
1036	0.033
1036	0.033
1037	0.033
1037	0.033
1038	0.033
1038	0.033
1039	0.033
1039	0.033
1039	0.034
1040	0.034
1040	0.034
1041	0.034
1041	0.034
1041	0.034
1042	0.034
1042	0.034
1043	0.033
1043	0.033
1044	0.033
1044	0.033
1044	0.033
1045	0.034
1045	0.034
1046	0.034
1046	0.035
1046	0.035
1047	0.035
1047	0.036
1048	0.036
1048	0.036
1049	0.037
1049	0.037
1049	0.037
1050	0.036
1050	0.035
1051	0.035
1051	0.034
1051	0.034
1052	0.033
1052	0.032
1053	0.031
1053	0.03
1053	0.029
1054	0.029
1054	0.028
1055	0.028
1055	0.027
1056	0.027
1056	0.027
1056	0.026
1057	0.026
1057	0.026
1058	0.026
1058	0.025
1058	0.024
1059	0.024
1059	0.024
1060	0.023
1060	0.023
1061	0.023
1061	0.023
1061	0.023
1062	0.023
1062	0.023
1063	0.024
1063	0.023
1063	0.023
1064	0.023
1064	0.023
1065	0.023
1065	0.023
1066	0.023
1066	0.023
1066	0.023
1067	0.022
1067	0.022
1068	0.022
1068	0.022
1068	0.022
1069	0.022
1069	0.021
1070	0.021
1070	0.02
1071	0.02
1071	0.019
1071	0.019
1072	0.018
1072	0.018
1073	0.017
1073	0.017
1073	0.017
1074	0.017
1074	0.017
1075	0.017
1075	0.017
1076	0.018
1076	0.018
1076	0.018
1077	0.018
1077	0.019
1078	0.019
1078	0.019
1078	0.019
1079	0.019
1079	0.019
1080	0.019
1080	0.019
1080	0.02
1081	0.02
1081	0.021
1082	0.022
1082	0.022
1083	0.022
1083	0.022
1083	0.022
1084	0.023
1084	0.023
1085	0.023
1085	0.023
1085	0.023
1086	0.023
1086	0.022
1087	0.021
1087	0.021
1088	0.021
1088	0.021
1088	0.021
1089	0.02
1089	0.019
1090	0.018
1090	0.018
1090	0.017
1091	0.017
1091	0.017
1092	0.017
1092	0.017
1092	0.016
1093	0.016
1093	0.016
1094	0.017
1094	0.017
1095	0.017
1095	0.016
1095	0.015
1096	0.015
1096	0.014
1097	0.013
1097	0.013
1097	0.013
1098	0.012
1098	0.01
1099	0.009
1099	0.008
1100	0.007
1100	0.006
1100	0.005
1101	0.004
1101	0.003
1102	0.003
1102	0.001
1102	-0
1103	-0.001
1103	-0.001
1104	-0.001
1104	-0.001
1104	-0.003
1105	-0.003
1105	-0.005
1106	-0.007
1106	-0.008
1107	-0.009
1107	-0.01
1107	-0.011
1108	-0.013
1108	-0.015
1109	-0.017
1109	-0.017
1109	-0.017
1110	-0.016
1110	-0.017
1111	-0.018
1111	-0.017
