Data from reversibility-20sec_Absorbance__7416__000000000007416.txt Node

Date: Thu Dec 07 05:25:07 CET 2023
User: Marek
Spectrometer: MAYP115816
Trigger mode: 0
Integration Time (sec): 2.000000E-1
Scans to average: 10
Electric dark correction enabled: true
Nonlinearity correction enabled: true
Boxcar width: 5
XAxis mode: Wavelengths
Number of Pixels in Spectrum: 2068
>>>>>Begin Spectral Data<<<<<
199	-0.141
199	-0.117
200	-0.057
200	-0.009
201	0.018
201	0.033
202	0.046
202	0.055
203	0.063
203	0.064
204	0.077
204	0.088
205	0.1
205	0.104
205	0.103
206	0.104
206	0.105
207	0.109
207	0.108
208	0.106
208	0.107
209	0.11
209	0.111
210	0.111
210	0.114
211	0.115
211	0.116
212	0.114
212	0.112
213	0.114
213	0.118
213	0.119
214	0.123
214	0.124
215	0.124
215	0.123
216	0.125
216	0.123
217	0.13
217	0.13
218	0.129
218	0.131
219	0.135
219	0.133
220	0.136
220	0.138
221	0.138
221	0.14
221	0.147
222	0.151
222	0.158
223	0.165
223	0.173
224	0.176
224	0.186
225	0.194
225	0.205
226	0.218
226	0.231
227	0.24
227	0.251
228	0.267
228	0.287
229	0.302
229	0.329
229	0.349
230	0.375
230	0.406
231	0.435
231	0.473
232	0.513
232	0.555
233	0.596
233	0.641
234	0.692
234	0.745
235	0.8
235	0.852
236	0.902
236	0.956
236	1.006
237	1.057
237	1.104
238	1.151
238	1.196
239	1.24
239	1.277
240	1.316
240	1.35
241	1.388
241	1.421
242	1.451
242	1.482
243	1.511
243	1.537
243	1.562
244	1.582
244	1.605
245	1.624
245	1.645
246	1.66
246	1.676
247	1.691
247	1.705
248	1.719
248	1.732
249	1.743
249	1.753
250	1.759
250	1.767
250	1.774
251	1.78
251	1.783
252	1.789
252	1.79
253	1.791
253	1.791
254	1.79
254	1.791
255	1.792
255	1.792
256	1.79
256	1.789
257	1.789
257	1.787
258	1.788
258	1.788
258	1.787
259	1.789
259	1.79
260	1.788
260	1.789
261	1.79
261	1.792
262	1.796
262	1.795
263	1.796
263	1.796
264	1.797
264	1.796
265	1.795
265	1.796
265	1.795
266	1.795
266	1.796
267	1.792
267	1.794
268	1.794
268	1.793
269	1.793
269	1.792
270	1.791
270	1.79
271	1.788
271	1.786
272	1.783
272	1.782
272	1.78
273	1.775
273	1.771
274	1.766
274	1.762
275	1.757
275	1.752
276	1.745
276	1.739
277	1.732
277	1.722
278	1.711
278	1.699
278	1.688
279	1.675
279	1.658
280	1.638
280	1.614
281	1.586
281	1.554
282	1.52
282	1.484
283	1.448
283	1.412
284	1.376
284	1.339
285	1.305
285	1.272
285	1.243
286	1.217
286	1.194
287	1.173
287	1.155
288	1.139
288	1.125
289	1.114
289	1.104
290	1.095
290	1.087
291	1.08
291	1.073
292	1.067
292	1.062
292	1.057
293	1.052
293	1.048
294	1.044
294	1.04
295	1.036
295	1.032
296	1.029
296	1.025
297	1.022
297	1.019
298	1.015
298	1.012
298	1.008
299	1.004
299	1.001
300	0.997
300	0.994
301	0.991
301	0.989
302	0.985
302	0.982
303	0.979
303	0.977
304	0.974
304	0.971
305	0.969
305	0.966
305	0.963
306	0.96
306	0.957
307	0.954
307	0.951
308	0.948
308	0.945
309	0.942
309	0.939
310	0.935
310	0.932
311	0.929
311	0.925
311	0.921
312	0.918
312	0.914
313	0.911
313	0.906
314	0.903
314	0.898
315	0.894
315	0.889
316	0.885
316	0.88
317	0.875
317	0.87
318	0.865
318	0.86
318	0.855
319	0.849
319	0.844
320	0.838
320	0.832
321	0.826
321	0.82
322	0.813
322	0.807
323	0.8
323	0.794
324	0.787
324	0.78
324	0.773
325	0.766
325	0.76
326	0.753
326	0.746
327	0.739
327	0.732
328	0.725
328	0.718
329	0.711
329	0.703
330	0.696
330	0.689
330	0.682
331	0.675
331	0.668
332	0.661
332	0.654
333	0.647
333	0.64
334	0.633
334	0.626
335	0.619
335	0.613
336	0.606
336	0.599
336	0.593
337	0.586
337	0.58
338	0.573
338	0.567
339	0.561
339	0.555
340	0.549
340	0.543
341	0.537
341	0.532
342	0.526
342	0.521
342	0.515
343	0.51
343	0.505
344	0.5
344	0.495
345	0.49
345	0.485
346	0.481
346	0.476
347	0.472
347	0.468
348	0.463
348	0.459
348	0.455
349	0.451
349	0.447
350	0.444
350	0.44
351	0.436
351	0.433
352	0.43
352	0.427
353	0.424
353	0.421
354	0.418
354	0.415
354	0.411
355	0.409
355	0.405
356	0.402
356	0.399
357	0.397
357	0.394
358	0.391
358	0.389
359	0.386
359	0.384
360	0.382
360	0.379
360	0.378
361	0.376
361	0.374
362	0.372
362	0.37
363	0.368
363	0.366
364	0.364
364	0.362
365	0.36
365	0.358
366	0.356
366	0.354
366	0.353
367	0.351
367	0.349
368	0.347
368	0.345
369	0.344
369	0.342
370	0.341
370	0.339
371	0.338
371	0.336
372	0.335
372	0.334
372	0.332
373	0.332
373	0.331
374	0.329
374	0.328
375	0.327
375	0.326
376	0.325
376	0.324
377	0.323
377	0.321
378	0.32
378	0.319
378	0.318
379	0.317
379	0.316
380	0.316
380	0.315
381	0.314
381	0.313
382	0.312
382	0.312
383	0.311
383	0.311
383	0.31
384	0.309
384	0.309
385	0.308
385	0.307
386	0.307
386	0.306
387	0.306
387	0.305
388	0.305
388	0.304
389	0.304
389	0.303
389	0.303
390	0.302
390	0.302
391	0.301
391	0.301
392	0.3
392	0.3
393	0.299
393	0.299
394	0.299
394	0.298
394	0.298
395	0.297
395	0.297
396	0.296
396	0.296
397	0.295
397	0.295
398	0.294
398	0.294
399	0.293
399	0.293
400	0.292
400	0.292
400	0.292
401	0.291
401	0.291
402	0.29
402	0.29
403	0.29
403	0.289
404	0.289
404	0.288
405	0.288
405	0.288
405	0.287
406	0.287
406	0.287
407	0.286
407	0.286
408	0.285
408	0.285
409	0.285
409	0.284
410	0.284
410	0.284
411	0.284
411	0.283
411	0.283
412	0.283
412	0.282
413	0.282
413	0.282
414	0.281
414	0.281
415	0.281
415	0.28
416	0.28
416	0.279
416	0.279
417	0.279
417	0.278
418	0.278
418	0.278
419	0.277
419	0.277
420	0.276
420	0.276
421	0.275
421	0.275
421	0.274
422	0.274
422	0.274
423	0.273
423	0.273
424	0.273
424	0.272
425	0.272
425	0.272
426	0.272
426	0.272
427	0.271
427	0.271
427	0.27
428	0.27
428	0.269
429	0.269
429	0.269
430	0.268
430	0.268
431	0.268
431	0.267
432	0.267
432	0.267
432	0.267
433	0.267
433	0.267
434	0.267
434	0.267
435	0.267
435	0.267
436	0.267
436	0.267
437	0.266
437	0.266
437	0.266
438	0.266
438	0.265
439	0.265
439	0.265
440	0.265
440	0.264
441	0.264
441	0.264
442	0.264
442	0.264
442	0.263
443	0.263
443	0.263
444	0.263
444	0.263
445	0.263
445	0.263
446	0.262
446	0.262
447	0.262
447	0.262
447	0.262
448	0.262
448	0.262
449	0.262
449	0.262
450	0.262
450	0.262
451	0.262
451	0.262
452	0.262
452	0.262
452	0.262
453	0.262
453	0.262
454	0.261
454	0.261
455	0.261
455	0.261
456	0.261
456	0.261
457	0.261
457	0.261
458	0.261
458	0.26
458	0.26
459	0.261
459	0.261
460	0.261
460	0.261
461	0.261
461	0.261
462	0.261
462	0.261
463	0.261
463	0.261
463	0.261
464	0.261
464	0.261
465	0.261
465	0.261
466	0.261
466	0.261
467	0.261
467	0.261
467	0.261
468	0.262
468	0.262
469	0.262
469	0.263
470	0.263
470	0.263
471	0.264
471	0.264
472	0.264
472	0.264
472	0.265
473	0.265
473	0.266
474	0.266
474	0.266
475	0.266
475	0.266
476	0.267
476	0.267
477	0.268
477	0.268
477	0.269
478	0.269
478	0.27
479	0.27
479	0.271
480	0.271
480	0.272
481	0.272
481	0.273
482	0.273
482	0.274
482	0.274
483	0.275
483	0.275
484	0.276
484	0.276
485	0.277
485	0.277
486	0.278
486	0.278
487	0.279
487	0.279
487	0.28
488	0.281
488	0.281
489	0.282
489	0.284
490	0.285
490	0.286
491	0.287
491	0.289
492	0.289
492	0.291
492	0.292
493	0.293
493	0.294
494	0.295
494	0.296
495	0.297
495	0.298
496	0.299
496	0.3
496	0.301
497	0.302
497	0.303
498	0.304
498	0.305
499	0.306
499	0.307
500	0.309
500	0.31
501	0.311
501	0.312
501	0.313
502	0.314
502	0.315
503	0.316
503	0.317
504	0.319
504	0.32
505	0.321
505	0.322
506	0.323
506	0.324
506	0.325
507	0.326
507	0.327
508	0.328
508	0.329
509	0.329
509	0.33
510	0.331
510	0.332
511	0.333
511	0.334
511	0.335
512	0.336
512	0.337
513	0.338
513	0.339
514	0.34
514	0.34
515	0.341
515	0.341
515	0.342
516	0.342
516	0.343
517	0.343
517	0.344
518	0.344
518	0.344
519	0.345
519	0.345
520	0.345
520	0.345
520	0.346
521	0.346
521	0.346
522	0.345
522	0.345
523	0.346
523	0.345
524	0.345
524	0.345
524	0.345
525	0.345
525	0.344
526	0.344
526	0.343
527	0.343
527	0.342
528	0.342
528	0.341
529	0.341
529	0.34
529	0.339
530	0.338
530	0.337
531	0.337
531	0.335
532	0.334
532	0.333
533	0.332
533	0.33
533	0.329
534	0.328
534	0.327
535	0.326
535	0.324
536	0.323
536	0.322
537	0.32
537	0.319
538	0.317
538	0.316
538	0.314
539	0.313
539	0.312
540	0.31
540	0.309
541	0.307
541	0.305
542	0.304
542	0.302
542	0.3
543	0.298
543	0.297
544	0.295
544	0.293
545	0.291
545	0.289
546	0.288
546	0.286
547	0.284
547	0.282
547	0.28
548	0.278
548	0.276
549	0.275
549	0.273
550	0.271
550	0.269
551	0.267
551	0.265
551	0.264
552	0.262
552	0.26
553	0.259
553	0.257
554	0.255
554	0.253
555	0.251
555	0.249
556	0.247
556	0.246
556	0.244
557	0.243
557	0.242
558	0.24
558	0.239
559	0.238
559	0.236
560	0.235
560	0.233
560	0.232
561	0.231
561	0.229
562	0.227
562	0.225
563	0.223
563	0.221
564	0.219
564	0.218
564	0.216
565	0.215
565	0.213
566	0.211
566	0.21
567	0.208
567	0.207
568	0.206
568	0.204
568	0.203
569	0.201
569	0.2
570	0.198
570	0.196
571	0.195
571	0.193
572	0.192
572	0.19
573	0.189
573	0.188
573	0.187
574	0.186
574	0.185
575	0.184
575	0.183
576	0.182
576	0.181
577	0.18
577	0.179
577	0.178
578	0.177
578	0.176
579	0.175
579	0.175
580	0.173
580	0.172
581	0.17
581	0.169
581	0.169
582	0.168
582	0.167
583	0.166
583	0.165
584	0.164
584	0.161
585	0.16
585	0.16
585	0.159
586	0.159
586	0.158
587	0.157
587	0.156
588	0.155
588	0.155
589	0.154
589	0.154
590	0.153
590	0.153
590	0.152
591	0.152
591	0.151
592	0.15
592	0.148
593	0.148
593	0.147
594	0.146
594	0.145
594	0.144
595	0.143
595	0.142
596	0.141
596	0.141
597	0.141
597	0.141
598	0.14
598	0.14
598	0.139
599	0.138
599	0.138
600	0.137
600	0.136
601	0.136
601	0.135
602	0.134
602	0.133
602	0.133
603	0.132
603	0.132
604	0.132
604	0.132
605	0.132
605	0.131
606	0.13
606	0.129
606	0.129
607	0.128
607	0.128
608	0.127
608	0.126
609	0.125
609	0.125
610	0.124
610	0.123
610	0.123
611	0.123
611	0.123
612	0.122
612	0.122
613	0.122
613	0.122
614	0.122
614	0.121
614	0.121
615	0.121
615	0.121
616	0.121
616	0.121
617	0.12
617	0.12
618	0.119
618	0.119
618	0.119
619	0.118
619	0.118
620	0.118
620	0.117
621	0.117
621	0.116
622	0.116
622	0.115
622	0.114
623	0.113
623	0.113
624	0.113
624	0.113
625	0.112
625	0.112
626	0.112
626	0.111
626	0.111
627	0.111
627	0.111
628	0.111
628	0.111
629	0.111
629	0.11
630	0.11
630	0.109
630	0.109
631	0.108
631	0.108
632	0.107
632	0.107
633	0.106
633	0.106
634	0.106
634	0.106
634	0.106
635	0.106
635	0.106
636	0.106
636	0.106
637	0.105
637	0.105
638	0.105
638	0.104
638	0.104
639	0.103
639	0.103
640	0.102
640	0.102
641	0.102
641	0.101
642	0.101
642	0.101
642	0.101
643	0.101
643	0.101
644	0.101
644	0.101
645	0.101
645	0.101
646	0.101
646	0.101
646	0.101
647	0.101
647	0.1
648	0.099
648	0.099
649	0.098
649	0.098
650	0.098
650	0.097
650	0.097
651	0.097
651	0.097
652	0.097
652	0.097
653	0.098
653	0.099
653	0.104
654	0.084
654	0.069
655	0.066
655	0.066
656	0.067
656	0.067
657	0.067
657	0.067
657	0.067
658	0.066
658	0.059
659	0.074
659	0.092
660	0.098
660	0.098
661	0.097
661	0.096
661	0.096
662	0.095
662	0.095
663	0.094
663	0.094
664	0.093
664	0.093
665	0.092
665	0.092
665	0.092
666	0.092
666	0.092
667	0.093
667	0.093
668	0.093
668	0.093
669	0.094
669	0.094
669	0.094
670	0.095
670	0.095
671	0.094
671	0.094
672	0.093
672	0.093
672	0.092
673	0.092
673	0.092
674	0.091
674	0.091
675	0.09
675	0.09
676	0.09
676	0.091
676	0.091
677	0.091
677	0.091
678	0.091
678	0.09
679	0.09
679	0.09
680	0.09
680	0.09
680	0.09
681	0.09
681	0.09
682	0.09
682	0.091
683	0.091
683	0.091
684	0.091
684	0.091
684	0.091
685	0.091
685	0.091
686	0.091
686	0.09
687	0.09
687	0.09
687	0.09
688	0.09
688	0.09
689	0.09
689	0.091
690	0.09
690	0.09
691	0.09
691	0.09
691	0.09
692	0.09
692	0.09
693	0.09
693	0.09
694	0.09
694	0.09
695	0.091
695	0.092
695	0.092
696	0.091
696	0.091
697	0.091
697	0.091
698	0.091
698	0.091
698	0.091
699	0.091
699	0.09
700	0.09
700	0.09
701	0.09
701	0.089
702	0.088
702	0.088
702	0.088
703	0.087
703	0.086
704	0.086
704	0.085
705	0.085
705	0.085
705	0.084
706	0.084
706	0.084
707	0.084
707	0.084
708	0.085
708	0.085
709	0.085
709	0.085
709	0.084
710	0.084
710	0.085
711	0.085
711	0.086
712	0.086
712	0.085
713	0.085
713	0.085
713	0.085
714	0.085
714	0.085
715	0.084
715	0.084
716	0.083
716	0.082
716	0.082
717	0.081
717	0.081
718	0.081
718	0.081
719	0.082
719	0.082
720	0.082
720	0.083
720	0.084
721	0.084
721	0.085
722	0.086
722	0.086
723	0.086
723	0.086
723	0.086
724	0.086
724	0.085
725	0.084
725	0.084
726	0.083
726	0.082
727	0.082
727	0.081
727	0.081
728	0.081
728	0.081
729	0.081
729	0.081
730	0.081
730	0.081
730	0.081
731	0.082
731	0.082
732	0.082
732	0.082
733	0.082
733	0.082
734	0.082
734	0.082
734	0.082
735	0.082
735	0.082
736	0.081
736	0.081
737	0.081
737	0.081
737	0.081
738	0.08
738	0.08
739	0.079
739	0.079
740	0.079
740	0.079
741	0.08
741	0.08
741	0.08
742	0.08
742	0.081
743	0.082
743	0.082
744	0.082
744	0.082
744	0.082
745	0.082
745	0.081
746	0.081
746	0.081
747	0.08
747	0.08
748	0.08
748	0.08
748	0.08
749	0.08
749	0.08
750	0.081
750	0.081
751	0.081
751	0.081
751	0.082
752	0.081
752	0.081
753	0.081
753	0.08
754	0.08
754	0.079
754	0.078
755	0.078
755	0.077
756	0.076
756	0.075
757	0.074
757	0.074
758	0.074
758	0.074
758	0.074
759	0.074
759	0.073
760	0.073
760	0.073
761	0.073
761	0.074
761	0.074
762	0.075
762	0.075
763	0.075
763	0.074
764	0.074
764	0.074
764	0.074
765	0.074
765	0.073
766	0.073
766	0.073
767	0.072
767	0.071
768	0.07
768	0.07
768	0.071
769	0.071
769	0.071
770	0.071
770	0.071
771	0.071
771	0.072
771	0.072
772	0.072
772	0.073
773	0.073
773	0.073
774	0.073
774	0.074
775	0.074
775	0.074
775	0.075
776	0.075
776	0.076
777	0.076
777	0.077
778	0.077
778	0.077
778	0.076
779	0.076
779	0.075
780	0.074
780	0.073
781	0.072
781	0.071
781	0.07
782	0.069
782	0.069
783	0.069
783	0.069
784	0.069
784	0.069
784	0.069
785	0.07
785	0.07
786	0.07
786	0.07
787	0.07
787	0.07
788	0.07
788	0.069
788	0.069
789	0.068
789	0.068
790	0.068
790	0.068
791	0.067
791	0.067
791	0.066
792	0.067
792	0.066
793	0.065
793	0.065
794	0.064
794	0.064
794	0.063
795	0.063
795	0.063
796	0.063
796	0.063
797	0.063
797	0.063
797	0.063
798	0.063
798	0.064
799	0.063
799	0.063
800	0.063
800	0.063
801	0.064
801	0.064
801	0.064
802	0.065
802	0.065
803	0.066
803	0.066
804	0.067
804	0.068
804	0.067
805	0.067
805	0.067
806	0.066
806	0.066
807	0.065
807	0.065
807	0.065
808	0.064
808	0.064
809	0.064
809	0.064
810	0.064
810	0.064
810	0.064
811	0.064
811	0.064
812	0.065
812	0.065
813	0.065
813	0.065
813	0.065
814	0.066
814	0.066
815	0.066
815	0.066
816	0.066
816	0.065
817	0.065
817	0.065
817	0.064
818	0.064
818	0.064
819	0.063
819	0.063
820	0.062
820	0.061
820	0.061
821	0.061
821	0.061
822	0.061
822	0.06
823	0.06
823	0.06
823	0.061
824	0.062
824	0.063
825	0.064
825	0.065
826	0.066
826	0.066
826	0.066
827	0.067
827	0.068
828	0.068
828	0.068
829	0.068
829	0.069
829	0.069
830	0.069
830	0.069
831	0.07
831	0.07
832	0.069
832	0.069
832	0.069
833	0.069
833	0.068
834	0.067
834	0.067
835	0.066
835	0.065
835	0.064
836	0.064
836	0.063
837	0.063
837	0.062
838	0.061
838	0.061
839	0.06
839	0.059
839	0.058
840	0.057
840	0.056
841	0.056
841	0.055
842	0.054
842	0.053
842	0.053
843	0.052
843	0.052
844	0.051
844	0.051
845	0.051
845	0.05
845	0.05
846	0.05
846	0.051
847	0.051
847	0.051
848	0.051
848	0.052
848	0.052
849	0.052
849	0.052
850	0.052
850	0.052
851	0.052
851	0.051
851	0.051
852	0.051
852	0.051
853	0.051
853	0.051
854	0.051
854	0.052
854	0.053
855	0.054
855	0.055
856	0.056
856	0.057
857	0.058
857	0.059
857	0.059
858	0.06
858	0.059
859	0.059
859	0.059
860	0.058
860	0.058
860	0.057
861	0.057
861	0.056
862	0.055
862	0.055
863	0.054
863	0.054
863	0.055
864	0.055
864	0.055
865	0.055
865	0.056
866	0.056
866	0.056
866	0.056
867	0.057
867	0.057
868	0.057
868	0.057
869	0.057
869	0.057
869	0.057
870	0.056
870	0.056
871	0.055
871	0.055
872	0.055
872	0.054
872	0.054
873	0.053
873	0.053
874	0.052
874	0.052
875	0.052
875	0.052
875	0.052
876	0.052
876	0.052
877	0.052
877	0.052
878	0.052
878	0.052
878	0.052
879	0.053
879	0.053
880	0.053
880	0.053
881	0.053
881	0.053
881	0.053
882	0.053
882	0.053
883	0.053
883	0.053
884	0.053
884	0.053
884	0.052
885	0.052
885	0.052
886	0.052
886	0.052
887	0.052
887	0.052
887	0.052
888	0.052
888	0.051
889	0.052
889	0.052
890	0.052
890	0.053
890	0.053
891	0.053
891	0.054
892	0.053
892	0.053
893	0.053
893	0.053
893	0.052
894	0.051
894	0.051
895	0.05
895	0.05
895	0.05
896	0.05
896	0.05
897	0.05
897	0.05
898	0.05
898	0.051
898	0.051
899	0.051
899	0.051
900	0.051
900	0.051
901	0.05
901	0.05
901	0.05
902	0.05
902	0.049
903	0.049
903	0.049
904	0.049
904	0.049
904	0.049
905	0.049
905	0.049
906	0.049
906	0.049
907	0.049
907	0.05
907	0.05
908	0.05
908	0.05
909	0.049
909	0.049
910	0.049
910	0.049
910	0.048
911	0.048
911	0.047
912	0.047
912	0.046
913	0.046
913	0.046
913	0.045
914	0.045
914	0.045
915	0.044
915	0.044
916	0.044
916	0.044
916	0.043
917	0.043
917	0.042
918	0.042
918	0.041
918	0.041
919	0.041
919	0.04
920	0.04
920	0.04
921	0.039
921	0.039
921	0.039
922	0.039
922	0.04
923	0.04
923	0.041
924	0.041
924	0.042
924	0.042
925	0.043
925	0.043
926	0.044
926	0.045
927	0.045
927	0.046
927	0.046
928	0.046
928	0.046
929	0.047
929	0.047
930	0.048
930	0.048
930	0.048
931	0.048
931	0.048
932	0.048
932	0.048
933	0.048
933	0.048
933	0.048
934	0.047
934	0.047
935	0.046
935	0.046
935	0.045
936	0.044
936	0.043
937	0.043
937	0.042
938	0.041
938	0.04
938	0.039
939	0.039
939	0.038
940	0.038
940	0.038
941	0.038
941	0.038
941	0.039
942	0.039
942	0.04
943	0.04
943	0.041
944	0.041
944	0.042
944	0.043
945	0.043
945	0.044
946	0.044
946	0.044
946	0.044
947	0.045
947	0.045
948	0.045
948	0.044
949	0.044
949	0.044
949	0.043
950	0.043
950	0.042
951	0.042
951	0.041
952	0.04
952	0.04
952	0.04
953	0.039
953	0.039
954	0.039
954	0.039
955	0.039
955	0.04
955	0.04
956	0.041
956	0.042
957	0.042
957	0.043
957	0.044
958	0.044
958	0.045
959	0.045
959	0.046
960	0.046
960	0.047
960	0.047
961	0.047
961	0.046
962	0.046
962	0.046
963	0.045
963	0.045
963	0.044
964	0.044
964	0.044
965	0.043
965	0.043
966	0.043
966	0.043
966	0.044
967	0.044
967	0.045
968	0.045
968	0.045
968	0.045
969	0.045
969	0.044
970	0.044
970	0.043
971	0.042
971	0.041
971	0.04
972	0.039
972	0.039
973	0.038
973	0.038
974	0.038
974	0.038
974	0.039
975	0.039
975	0.04
976	0.041
976	0.041
976	0.042
977	0.042
977	0.043
978	0.043
978	0.043
979	0.044
979	0.044
979	0.044
980	0.044
980	0.044
981	0.044
981	0.044
982	0.044
982	0.044
982	0.044
983	0.043
983	0.043
984	0.043
984	0.042
984	0.042
985	0.041
985	0.041
986	0.041
986	0.041
987	0.04
987	0.04
987	0.04
988	0.039
988	0.039
989	0.039
989	0.039
990	0.038
990	0.038
990	0.038
991	0.038
991	0.037
992	0.037
992	0.036
992	0.035
993	0.035
993	0.034
994	0.033
994	0.032
995	0.031
995	0.031
995	0.031
996	0.03
996	0.03
997	0.031
997	0.031
997	0.031
998	0.032
998	0.032
999	0.032
999	0.033
1000	0.033
1000	0.034
1000	0.034
1001	0.034
1001	0.034
1002	0.034
1002	0.034
1003	0.035
1003	0.034
1003	0.034
1004	0.034
1004	0.033
1005	0.033
1005	0.032
1005	0.032
1006	0.031
1006	0.031
1007	0.03
1007	0.03
1008	0.03
1008	0.03
1008	0.03
1009	0.03
1009	0.03
1010	0.029
1010	0.029
1010	0.029
1011	0.029
1011	0.029
1012	0.029
1012	0.028
1013	0.028
1013	0.028
1013	0.028
1014	0.028
1014	0.028
1015	0.028
1015	0.029
1016	0.029
1016	0.029
1016	0.029
1017	0.03
1017	0.03
1018	0.03
1018	0.03
1018	0.03
1019	0.03
1019	0.03
1020	0.031
1020	0.031
1021	0.031
1021	0.032
1021	0.032
1022	0.033
1022	0.033
1023	0.033
1023	0.033
1023	0.034
1024	0.034
1024	0.034
1025	0.034
1025	0.034
1026	0.034
1026	0.034
1026	0.033
1027	0.034
1027	0.034
1028	0.034
1028	0.034
1028	0.034
1029	0.034
1029	0.034
1030	0.034
1030	0.034
1031	0.035
1031	0.035
1031	0.035
1032	0.035
1032	0.035
1033	0.035
1033	0.036
1033	0.036
1034	0.036
1034	0.036
1035	0.036
1035	0.035
1036	0.035
1036	0.036
1036	0.036
1037	0.036
1037	0.035
1038	0.035
1038	0.035
1039	0.035
1039	0.035
1039	0.035
1040	0.035
1040	0.035
1041	0.035
1041	0.035
1041	0.035
1042	0.035
1042	0.035
1043	0.035
1043	0.035
1044	0.034
1044	0.034
1044	0.034
1045	0.033
1045	0.033
1046	0.033
1046	0.033
1046	0.033
1047	0.033
1047	0.032
1048	0.033
1048	0.033
1049	0.033
1049	0.033
1049	0.033
1050	0.033
1050	0.033
1051	0.032
1051	0.032
1051	0.032
1052	0.031
1052	0.03
1053	0.03
1053	0.029
1053	0.028
1054	0.027
1054	0.026
1055	0.026
1055	0.026
1056	0.025
1056	0.025
1056	0.024
1057	0.024
1057	0.024
1058	0.023
1058	0.022
1058	0.022
1059	0.022
1059	0.022
1060	0.021
1060	0.021
1061	0.021
1061	0.021
1061	0.021
1062	0.021
1062	0.021
1063	0.021
1063	0.022
1063	0.022
1064	0.022
1064	0.022
1065	0.022
1065	0.022
1066	0.022
1066	0.022
1066	0.022
1067	0.022
1067	0.023
1068	0.023
1068	0.023
1068	0.023
1069	0.023
1069	0.023
1070	0.023
1070	0.022
1071	0.022
1071	0.022
1071	0.022
1072	0.022
1072	0.022
1073	0.022
1073	0.022
1073	0.022
1074	0.022
1074	0.023
1075	0.023
1075	0.023
1076	0.024
1076	0.025
1076	0.025
1077	0.025
1077	0.025
1078	0.025
1078	0.025
1078	0.025
1079	0.024
1079	0.024
1080	0.024
1080	0.023
1080	0.023
1081	0.023
1081	0.023
1082	0.023
1082	0.024
1083	0.024
1083	0.024
1083	0.024
1084	0.025
1084	0.025
1085	0.026
1085	0.026
1085	0.026
1086	0.026
1086	0.026
1087	0.025
1087	0.025
1088	0.025
1088	0.024
1088	0.025
1089	0.023
1089	0.022
1090	0.022
1090	0.021
1090	0.02
1091	0.02
1091	0.019
1092	0.019
1092	0.019
1092	0.019
1093	0.018
1093	0.019
1094	0.018
1094	0.018
1095	0.018
1095	0.017
1095	0.017
1096	0.017
1096	0.016
1097	0.016
1097	0.015
1097	0.014
1098	0.014
1098	0.014
1099	0.013
1099	0.012
1100	0.012
1100	0.01
1100	0.01
1101	0.009
1101	0.008
1102	0.008
1102	0.007
1102	0.006
1103	0.006
1103	0.006
1104	0.006
1104	0.005
1104	0.005
1105	0.005
1105	0.003
1106	0.002
1106	0.002
1107	0.001
1107	0.001
1107	0.001
1108	-0
1108	-0.001
1109	-0.001
1109	-0.002
1109	-0.002
1110	0
1110	-0.001
1111	-0.002
1111	-0.003
