Data from reversibility-20sec_Absorbance__5491__000000000005491.txt Node

Date: Wed Dec 06 18:43:26 CET 2023
User: Marek
Spectrometer: MAYP115816
Trigger mode: 0
Integration Time (sec): 2.000000E-1
Scans to average: 10
Electric dark correction enabled: true
Nonlinearity correction enabled: true
Boxcar width: 5
XAxis mode: Wavelengths
Number of Pixels in Spectrum: 2068
>>>>>Begin Spectral Data<<<<<
199	-0.181
199	-0.148
200	-0.079
200	-0.024
201	0.009
201	0.027
202	0.038
202	0.05
203	0.061
203	0.066
204	0.081
204	0.094
205	0.106
205	0.114
205	0.112
206	0.11
206	0.109
207	0.113
207	0.111
208	0.107
208	0.105
209	0.106
209	0.105
210	0.105
210	0.105
211	0.104
211	0.107
212	0.104
212	0.105
213	0.108
213	0.111
213	0.111
214	0.115
214	0.115
215	0.118
215	0.116
216	0.119
216	0.117
217	0.122
217	0.123
218	0.122
218	0.125
219	0.131
219	0.13
220	0.133
220	0.133
221	0.134
221	0.137
221	0.142
222	0.146
222	0.151
223	0.156
223	0.16
224	0.164
224	0.171
225	0.179
225	0.189
226	0.198
226	0.209
227	0.219
227	0.228
228	0.242
228	0.256
229	0.27
229	0.293
229	0.317
230	0.343
230	0.374
231	0.408
231	0.445
232	0.48
232	0.526
233	0.571
233	0.62
234	0.671
234	0.725
235	0.778
235	0.826
236	0.877
236	0.925
236	0.977
237	1.029
237	1.076
238	1.123
238	1.168
239	1.214
239	1.252
240	1.291
240	1.33
241	1.362
241	1.397
242	1.429
242	1.461
243	1.491
243	1.515
243	1.541
244	1.564
244	1.589
245	1.606
245	1.627
246	1.649
246	1.666
247	1.68
247	1.695
248	1.71
248	1.726
249	1.733
249	1.74
250	1.747
250	1.756
250	1.76
251	1.763
251	1.764
252	1.766
252	1.765
253	1.764
253	1.76
254	1.761
254	1.762
255	1.759
255	1.759
256	1.758
256	1.758
257	1.758
257	1.757
258	1.756
258	1.756
258	1.757
259	1.757
259	1.756
260	1.758
260	1.76
261	1.761
261	1.763
262	1.766
262	1.768
263	1.772
263	1.775
264	1.775
264	1.777
265	1.777
265	1.778
265	1.779
266	1.779
266	1.778
267	1.777
267	1.777
268	1.777
268	1.776
269	1.778
269	1.777
270	1.777
270	1.776
271	1.773
271	1.773
272	1.77
272	1.766
272	1.764
273	1.758
273	1.75
274	1.744
274	1.737
275	1.729
275	1.723
276	1.716
276	1.708
277	1.7
277	1.689
278	1.677
278	1.665
278	1.65
279	1.634
279	1.611
280	1.585
280	1.55
281	1.51
281	1.467
282	1.423
282	1.379
283	1.334
283	1.292
284	1.251
284	1.212
285	1.175
285	1.142
285	1.113
286	1.088
286	1.065
287	1.046
287	1.029
288	1.015
288	1.004
289	0.994
289	0.985
290	0.978
290	0.972
291	0.966
291	0.962
292	0.957
292	0.953
292	0.95
293	0.946
293	0.943
294	0.94
294	0.937
295	0.935
295	0.932
296	0.929
296	0.926
297	0.923
297	0.92
298	0.918
298	0.916
298	0.913
299	0.911
299	0.908
300	0.905
300	0.903
301	0.901
301	0.898
302	0.896
302	0.894
303	0.892
303	0.89
304	0.888
304	0.885
305	0.883
305	0.881
305	0.879
306	0.877
306	0.875
307	0.873
307	0.87
308	0.868
308	0.865
309	0.863
309	0.86
310	0.857
310	0.855
311	0.852
311	0.849
311	0.846
312	0.842
312	0.839
313	0.835
313	0.832
314	0.828
314	0.824
315	0.82
315	0.816
316	0.812
316	0.807
317	0.803
317	0.798
318	0.794
318	0.789
318	0.783
319	0.778
319	0.773
320	0.768
320	0.762
321	0.757
321	0.751
322	0.745
322	0.739
323	0.732
323	0.726
324	0.72
324	0.714
324	0.707
325	0.701
325	0.694
326	0.687
326	0.68
327	0.673
327	0.667
328	0.66
328	0.653
329	0.646
329	0.638
330	0.631
330	0.624
330	0.617
331	0.61
331	0.604
332	0.597
332	0.59
333	0.583
333	0.576
334	0.569
334	0.563
335	0.556
335	0.549
336	0.542
336	0.536
336	0.529
337	0.523
337	0.517
338	0.511
338	0.505
339	0.499
339	0.493
340	0.487
340	0.482
341	0.476
341	0.471
342	0.465
342	0.46
342	0.455
343	0.45
343	0.445
344	0.44
344	0.435
345	0.43
345	0.426
346	0.421
346	0.417
347	0.413
347	0.408
348	0.404
348	0.4
348	0.397
349	0.393
349	0.389
350	0.386
350	0.382
351	0.379
351	0.376
352	0.373
352	0.37
353	0.367
353	0.364
354	0.361
354	0.359
354	0.356
355	0.353
355	0.35
356	0.347
356	0.345
357	0.341
357	0.339
358	0.336
358	0.333
359	0.331
359	0.329
360	0.327
360	0.325
360	0.323
361	0.322
361	0.32
362	0.319
362	0.317
363	0.316
363	0.314
364	0.312
364	0.31
365	0.309
365	0.307
366	0.306
366	0.304
366	0.302
367	0.3
367	0.299
368	0.297
368	0.296
369	0.294
369	0.293
370	0.292
370	0.29
371	0.289
371	0.288
372	0.287
372	0.285
372	0.284
373	0.283
373	0.282
374	0.282
374	0.281
375	0.28
375	0.279
376	0.278
376	0.277
377	0.277
377	0.276
378	0.275
378	0.275
378	0.274
379	0.273
379	0.272
380	0.272
380	0.271
381	0.271
381	0.27
382	0.269
382	0.269
383	0.268
383	0.268
383	0.267
384	0.267
384	0.266
385	0.266
385	0.265
386	0.265
386	0.265
387	0.264
387	0.264
388	0.263
388	0.263
389	0.263
389	0.262
389	0.262
390	0.262
390	0.262
391	0.261
391	0.261
392	0.26
392	0.26
393	0.26
393	0.26
394	0.259
394	0.259
394	0.259
395	0.258
395	0.258
396	0.258
396	0.257
397	0.257
397	0.257
398	0.257
398	0.256
399	0.256
399	0.256
400	0.256
400	0.256
400	0.255
401	0.255
401	0.255
402	0.255
402	0.254
403	0.254
403	0.254
404	0.254
404	0.253
405	0.253
405	0.253
405	0.253
406	0.253
406	0.252
407	0.252
407	0.252
408	0.251
408	0.251
409	0.251
409	0.25
410	0.25
410	0.25
411	0.25
411	0.249
411	0.249
412	0.249
412	0.249
413	0.248
413	0.248
414	0.248
414	0.248
415	0.247
415	0.247
416	0.247
416	0.247
416	0.246
417	0.246
417	0.246
418	0.246
418	0.245
419	0.245
419	0.244
420	0.244
420	0.243
421	0.243
421	0.243
421	0.242
422	0.242
422	0.242
423	0.241
423	0.241
424	0.241
424	0.24
425	0.24
425	0.24
426	0.24
426	0.239
427	0.239
427	0.239
427	0.238
428	0.238
428	0.237
429	0.237
429	0.237
430	0.237
430	0.236
431	0.236
431	0.236
432	0.236
432	0.236
432	0.235
433	0.235
433	0.235
434	0.235
434	0.235
435	0.235
435	0.235
436	0.234
436	0.234
437	0.234
437	0.234
437	0.233
438	0.233
438	0.233
439	0.233
439	0.233
440	0.233
440	0.232
441	0.232
441	0.232
442	0.232
442	0.231
442	0.231
443	0.231
443	0.231
444	0.23
444	0.23
445	0.23
445	0.23
446	0.23
446	0.229
447	0.229
447	0.229
447	0.229
448	0.228
448	0.228
449	0.228
449	0.228
450	0.227
450	0.227
451	0.227
451	0.227
452	0.227
452	0.227
452	0.227
453	0.226
453	0.226
454	0.226
454	0.226
455	0.226
455	0.225
456	0.225
456	0.225
457	0.224
457	0.224
458	0.224
458	0.224
458	0.223
459	0.223
459	0.223
460	0.223
460	0.222
461	0.222
461	0.222
462	0.222
462	0.222
463	0.221
463	0.221
463	0.221
464	0.22
464	0.22
465	0.22
465	0.219
466	0.219
466	0.219
467	0.219
467	0.219
467	0.218
468	0.218
468	0.218
469	0.218
469	0.218
470	0.219
470	0.219
471	0.219
471	0.219
472	0.219
472	0.219
472	0.219
473	0.219
473	0.219
474	0.219
474	0.219
475	0.218
475	0.218
476	0.218
476	0.218
477	0.218
477	0.218
477	0.218
478	0.218
478	0.218
479	0.218
479	0.218
480	0.218
480	0.217
481	0.217
481	0.217
482	0.217
482	0.217
482	0.217
483	0.218
483	0.218
484	0.218
484	0.218
485	0.218
485	0.218
486	0.218
486	0.218
487	0.218
487	0.218
487	0.218
488	0.218
488	0.218
489	0.218
489	0.219
490	0.219
490	0.22
491	0.22
491	0.22
492	0.22
492	0.221
492	0.221
493	0.221
493	0.222
494	0.222
494	0.222
495	0.222
495	0.223
496	0.223
496	0.223
496	0.224
497	0.224
497	0.224
498	0.225
498	0.225
499	0.225
499	0.226
500	0.226
500	0.227
501	0.227
501	0.227
501	0.228
502	0.228
502	0.228
503	0.229
503	0.229
504	0.23
504	0.23
505	0.23
505	0.23
506	0.231
506	0.231
506	0.231
507	0.232
507	0.232
508	0.232
508	0.233
509	0.233
509	0.233
510	0.234
510	0.234
511	0.235
511	0.235
511	0.236
512	0.237
512	0.237
513	0.237
513	0.238
514	0.238
514	0.239
515	0.239
515	0.239
515	0.24
516	0.24
516	0.241
517	0.241
517	0.241
518	0.242
518	0.242
519	0.242
519	0.242
520	0.242
520	0.242
520	0.243
521	0.243
521	0.243
522	0.243
522	0.243
523	0.243
523	0.243
524	0.244
524	0.244
524	0.244
525	0.245
525	0.244
526	0.245
526	0.245
527	0.245
527	0.245
528	0.245
528	0.246
529	0.246
529	0.246
529	0.246
530	0.246
530	0.246
531	0.246
531	0.246
532	0.246
532	0.246
533	0.246
533	0.246
533	0.246
534	0.245
534	0.245
535	0.245
535	0.246
536	0.246
536	0.246
537	0.246
537	0.246
538	0.246
538	0.246
538	0.246
539	0.246
539	0.246
540	0.246
540	0.245
541	0.245
541	0.244
542	0.244
542	0.244
542	0.244
543	0.244
543	0.243
544	0.243
544	0.243
545	0.243
545	0.243
546	0.243
546	0.243
547	0.243
547	0.243
547	0.242
548	0.242
548	0.242
549	0.242
549	0.241
550	0.241
550	0.241
551	0.241
551	0.24
551	0.24
552	0.24
552	0.24
553	0.239
553	0.239
554	0.238
554	0.238
555	0.237
555	0.236
556	0.236
556	0.236
556	0.236
557	0.236
557	0.236
558	0.236
558	0.236
559	0.236
559	0.236
560	0.236
560	0.236
560	0.236
561	0.236
561	0.235
562	0.234
562	0.234
563	0.233
563	0.232
564	0.232
564	0.231
564	0.231
565	0.231
565	0.231
566	0.231
566	0.231
567	0.231
567	0.231
568	0.231
568	0.231
568	0.231
569	0.23
569	0.23
570	0.229
570	0.229
571	0.228
571	0.228
572	0.227
572	0.227
573	0.226
573	0.226
573	0.225
574	0.225
574	0.225
575	0.225
575	0.225
576	0.225
576	0.224
577	0.224
577	0.223
577	0.223
578	0.223
578	0.222
579	0.223
579	0.223
580	0.222
580	0.221
581	0.22
581	0.22
581	0.22
582	0.221
582	0.221
583	0.221
583	0.221
584	0.22
584	0.219
585	0.219
585	0.219
585	0.218
586	0.218
586	0.218
587	0.217
587	0.216
588	0.216
588	0.215
589	0.215
589	0.215
590	0.215
590	0.215
590	0.216
591	0.216
591	0.216
592	0.215
592	0.215
593	0.215
593	0.214
594	0.214
594	0.213
594	0.213
595	0.213
595	0.212
596	0.212
596	0.212
597	0.212
597	0.213
598	0.212
598	0.212
598	0.212
599	0.212
599	0.211
600	0.211
600	0.21
601	0.21
601	0.21
602	0.21
602	0.209
602	0.209
603	0.209
603	0.209
604	0.209
604	0.209
605	0.21
605	0.21
606	0.209
606	0.208
606	0.208
607	0.208
607	0.208
608	0.207
608	0.207
609	0.206
609	0.206
610	0.206
610	0.205
610	0.205
611	0.205
611	0.205
612	0.205
612	0.206
613	0.206
613	0.206
614	0.205
614	0.205
614	0.205
615	0.205
615	0.205
616	0.205
616	0.205
617	0.205
617	0.204
618	0.204
618	0.204
618	0.204
619	0.205
619	0.205
620	0.205
620	0.205
621	0.205
621	0.204
622	0.204
622	0.204
622	0.203
623	0.203
623	0.202
624	0.202
624	0.201
625	0.201
625	0.201
626	0.2
626	0.2
626	0.2
627	0.2
627	0.2
628	0.199
628	0.199
629	0.198
629	0.198
630	0.197
630	0.197
630	0.197
631	0.197
631	0.196
632	0.196
632	0.196
633	0.196
633	0.197
634	0.197
634	0.198
634	0.198
635	0.198
635	0.198
636	0.198
636	0.198
637	0.197
637	0.197
638	0.197
638	0.197
638	0.196
639	0.196
639	0.196
640	0.196
640	0.195
641	0.195
641	0.195
642	0.195
642	0.195
642	0.195
643	0.195
643	0.195
644	0.195
644	0.195
645	0.195
645	0.195
646	0.195
646	0.195
646	0.195
647	0.195
647	0.195
648	0.194
648	0.194
649	0.194
649	0.194
650	0.194
650	0.194
650	0.194
651	0.193
651	0.193
652	0.193
652	0.193
653	0.193
653	0.195
653	0.202
654	0.158
654	0.126
655	0.127
655	0.128
656	0.128
656	0.128
657	0.129
657	0.129
657	0.129
658	0.128
658	0.117
659	0.148
659	0.191
660	0.195
660	0.195
661	0.195
661	0.194
661	0.194
662	0.194
662	0.194
663	0.193
663	0.193
664	0.193
664	0.193
665	0.193
665	0.192
665	0.193
666	0.193
666	0.193
667	0.193
667	0.193
668	0.194
668	0.194
669	0.195
669	0.195
669	0.196
670	0.196
670	0.196
671	0.197
671	0.196
672	0.196
672	0.196
672	0.196
673	0.196
673	0.196
674	0.195
674	0.195
675	0.194
675	0.194
676	0.194
676	0.194
676	0.193
677	0.193
677	0.193
678	0.193
678	0.192
679	0.192
679	0.192
680	0.192
680	0.192
680	0.192
681	0.192
681	0.193
682	0.194
682	0.194
683	0.195
683	0.196
684	0.196
684	0.196
684	0.196
685	0.196
685	0.197
686	0.197
686	0.196
687	0.196
687	0.196
687	0.196
688	0.196
688	0.196
689	0.196
689	0.196
690	0.196
690	0.196
691	0.195
691	0.196
691	0.196
692	0.195
692	0.195
693	0.195
693	0.196
694	0.195
694	0.195
695	0.196
695	0.197
695	0.197
696	0.196
696	0.196
697	0.196
697	0.196
698	0.196
698	0.195
698	0.195
699	0.195
699	0.194
700	0.194
700	0.194
701	0.195
701	0.195
702	0.195
702	0.196
702	0.196
703	0.197
703	0.197
704	0.197
704	0.197
705	0.198
705	0.198
705	0.198
706	0.198
706	0.199
707	0.199
707	0.199
708	0.199
708	0.199
709	0.2
709	0.2
709	0.199
710	0.199
710	0.2
711	0.2
711	0.2
712	0.2
712	0.199
713	0.199
713	0.199
713	0.199
714	0.198
714	0.198
715	0.198
715	0.198
716	0.197
716	0.197
716	0.197
717	0.196
717	0.196
718	0.196
718	0.196
719	0.196
719	0.196
720	0.197
720	0.198
720	0.198
721	0.199
721	0.199
722	0.2
722	0.201
723	0.201
723	0.202
723	0.202
724	0.202
724	0.202
725	0.202
725	0.201
726	0.201
726	0.2
727	0.2
727	0.199
727	0.199
728	0.199
728	0.198
729	0.199
729	0.198
730	0.198
730	0.198
730	0.198
731	0.199
731	0.199
732	0.2
732	0.2
733	0.2
733	0.2
734	0.201
734	0.201
734	0.202
735	0.203
735	0.203
736	0.203
736	0.203
737	0.203
737	0.203
737	0.204
738	0.203
738	0.202
739	0.202
739	0.202
740	0.201
740	0.201
741	0.201
741	0.201
741	0.201
742	0.201
742	0.202
743	0.203
743	0.203
744	0.204
744	0.205
744	0.205
745	0.206
745	0.206
746	0.206
746	0.206
747	0.207
747	0.207
748	0.207
748	0.207
748	0.206
749	0.206
749	0.206
750	0.205
750	0.205
751	0.205
751	0.204
751	0.204
752	0.203
752	0.203
753	0.202
753	0.202
754	0.202
754	0.201
754	0.202
755	0.202
755	0.202
756	0.202
756	0.201
757	0.201
757	0.201
758	0.202
758	0.202
758	0.202
759	0.203
759	0.203
760	0.203
760	0.203
761	0.204
761	0.205
761	0.205
762	0.206
762	0.206
763	0.206
763	0.206
764	0.205
764	0.205
764	0.205
765	0.205
765	0.205
766	0.205
766	0.205
767	0.204
767	0.203
768	0.203
768	0.203
768	0.203
769	0.203
769	0.204
770	0.204
770	0.205
771	0.205
771	0.206
771	0.206
772	0.207
772	0.208
773	0.208
773	0.208
774	0.208
774	0.209
775	0.209
775	0.209
775	0.209
776	0.209
776	0.21
777	0.21
777	0.21
778	0.21
778	0.21
778	0.21
779	0.21
779	0.21
780	0.21
780	0.209
781	0.209
781	0.209
781	0.209
782	0.209
782	0.21
783	0.21
783	0.211
784	0.211
784	0.212
784	0.212
785	0.213
785	0.213
786	0.214
786	0.214
787	0.214
787	0.214
788	0.213
788	0.212
788	0.211
789	0.21
789	0.21
790	0.209
790	0.208
791	0.208
791	0.207
791	0.207
792	0.208
792	0.208
793	0.208
793	0.208
794	0.208
794	0.208
794	0.208
795	0.209
795	0.209
796	0.21
796	0.21
797	0.21
797	0.211
797	0.211
798	0.211
798	0.212
799	0.212
799	0.212
800	0.212
800	0.211
801	0.211
801	0.212
801	0.212
802	0.212
802	0.212
803	0.212
803	0.212
804	0.212
804	0.213
804	0.213
805	0.213
805	0.212
806	0.212
806	0.212
807	0.212
807	0.211
807	0.211
808	0.212
808	0.212
809	0.212
809	0.212
810	0.212
810	0.213
810	0.213
811	0.213
811	0.214
812	0.215
812	0.216
813	0.216
813	0.217
813	0.218
814	0.219
814	0.219
815	0.22
815	0.221
816	0.221
816	0.221
817	0.22
817	0.22
817	0.22
818	0.22
818	0.22
819	0.22
819	0.219
820	0.218
820	0.218
820	0.218
821	0.218
821	0.218
822	0.218
822	0.218
823	0.218
823	0.218
823	0.218
824	0.219
824	0.22
825	0.22
825	0.221
826	0.221
826	0.221
826	0.221
827	0.222
827	0.222
828	0.222
828	0.222
829	0.222
829	0.222
829	0.222
830	0.222
830	0.223
831	0.224
831	0.224
832	0.223
832	0.224
832	0.223
833	0.223
833	0.223
834	0.223
834	0.223
835	0.222
835	0.222
835	0.222
836	0.222
836	0.222
837	0.222
837	0.222
838	0.222
838	0.222
839	0.222
839	0.221
839	0.22
840	0.219
840	0.218
841	0.217
841	0.216
842	0.215
842	0.214
842	0.214
843	0.213
843	0.212
844	0.212
844	0.212
845	0.211
845	0.211
845	0.211
846	0.211
846	0.211
847	0.211
847	0.212
848	0.213
848	0.213
848	0.214
849	0.215
849	0.216
850	0.217
850	0.217
851	0.218
851	0.219
851	0.219
852	0.218
852	0.218
853	0.218
853	0.217
854	0.218
854	0.218
854	0.218
855	0.219
855	0.219
856	0.219
856	0.22
857	0.221
857	0.221
857	0.222
858	0.222
858	0.221
859	0.221
859	0.22
860	0.219
860	0.218
860	0.217
861	0.217
861	0.216
862	0.215
862	0.215
863	0.214
863	0.214
863	0.214
864	0.214
864	0.215
865	0.215
865	0.216
866	0.216
866	0.216
866	0.216
867	0.217
867	0.217
868	0.218
868	0.219
869	0.219
869	0.219
869	0.219
870	0.219
870	0.219
871	0.22
871	0.22
872	0.22
872	0.22
872	0.22
873	0.219
873	0.219
874	0.218
874	0.218
875	0.217
875	0.216
875	0.216
876	0.215
876	0.215
877	0.215
877	0.214
878	0.214
878	0.214
878	0.215
879	0.215
879	0.215
880	0.215
880	0.215
881	0.215
881	0.215
881	0.215
882	0.215
882	0.215
883	0.215
883	0.215
884	0.215
884	0.215
884	0.215
885	0.214
885	0.214
886	0.213
886	0.213
887	0.212
887	0.212
887	0.211
888	0.21
888	0.209
889	0.209
889	0.209
890	0.208
890	0.208
890	0.208
891	0.208
891	0.208
892	0.208
892	0.208
893	0.208
893	0.208
893	0.208
894	0.208
894	0.208
895	0.208
895	0.208
895	0.208
896	0.208
896	0.209
897	0.209
897	0.209
898	0.209
898	0.209
898	0.209
899	0.208
899	0.208
900	0.208
900	0.207
901	0.206
901	0.206
901	0.205
902	0.204
902	0.203
903	0.203
903	0.202
904	0.201
904	0.2
904	0.2
905	0.199
905	0.199
906	0.199
906	0.199
907	0.199
907	0.199
907	0.199
908	0.199
908	0.199
909	0.198
909	0.198
910	0.198
910	0.198
910	0.197
911	0.197
911	0.197
912	0.196
912	0.197
913	0.197
913	0.197
913	0.197
914	0.197
914	0.197
915	0.197
915	0.198
916	0.198
916	0.198
916	0.198
917	0.197
917	0.197
918	0.197
918	0.197
918	0.196
919	0.196
919	0.196
920	0.195
920	0.195
921	0.195
921	0.195
921	0.195
922	0.194
922	0.194
923	0.194
923	0.194
924	0.195
924	0.195
924	0.195
925	0.195
925	0.196
926	0.196
926	0.196
927	0.197
927	0.197
927	0.197
928	0.196
928	0.196
929	0.195
929	0.195
930	0.194
930	0.193
930	0.192
931	0.191
931	0.19
932	0.189
932	0.189
933	0.188
933	0.188
933	0.187
934	0.187
934	0.187
935	0.187
935	0.187
935	0.187
936	0.186
936	0.187
937	0.186
937	0.186
938	0.186
938	0.186
938	0.185
939	0.185
939	0.184
940	0.184
940	0.183
941	0.183
941	0.182
941	0.182
942	0.182
942	0.181
943	0.181
943	0.181
944	0.181
944	0.181
944	0.181
945	0.181
945	0.181
946	0.181
946	0.181
946	0.181
947	0.182
947	0.181
948	0.181
948	0.181
949	0.181
949	0.18
949	0.18
950	0.179
950	0.179
951	0.178
951	0.177
952	0.177
952	0.176
952	0.176
953	0.176
953	0.175
954	0.175
954	0.175
955	0.175
955	0.175
955	0.175
956	0.175
956	0.175
957	0.175
957	0.174
957	0.174
958	0.174
958	0.173
959	0.172
959	0.172
960	0.171
960	0.171
960	0.17
961	0.17
961	0.169
962	0.169
962	0.169
963	0.169
963	0.169
963	0.169
964	0.17
964	0.17
965	0.17
965	0.17
966	0.17
966	0.17
966	0.17
967	0.17
967	0.17
968	0.17
968	0.169
968	0.169
969	0.168
969	0.167
970	0.166
970	0.166
971	0.165
971	0.164
971	0.163
972	0.163
972	0.162
973	0.161
973	0.161
974	0.161
974	0.16
974	0.16
975	0.16
975	0.16
976	0.161
976	0.161
976	0.161
977	0.161
977	0.161
978	0.161
978	0.16
979	0.16
979	0.16
979	0.16
980	0.159
980	0.159
981	0.158
981	0.158
982	0.157
982	0.157
982	0.157
983	0.156
983	0.156
984	0.156
984	0.155
984	0.155
985	0.155
985	0.155
986	0.155
986	0.154
987	0.154
987	0.154
987	0.154
988	0.153
988	0.153
989	0.152
989	0.152
990	0.151
990	0.15
990	0.15
991	0.149
991	0.149
992	0.148
992	0.147
992	0.146
993	0.146
993	0.145
994	0.144
994	0.144
995	0.143
995	0.142
995	0.142
996	0.143
996	0.143
997	0.143
997	0.144
997	0.144
998	0.144
998	0.145
999	0.146
999	0.146
1000	0.147
1000	0.147
1000	0.147
1001	0.148
1001	0.147
1002	0.147
1002	0.147
1003	0.146
1003	0.146
1003	0.145
1004	0.144
1004	0.143
1005	0.143
1005	0.142
1005	0.141
1006	0.141
1006	0.14
1007	0.14
1007	0.14
1008	0.14
1008	0.14
1008	0.14
1009	0.141
1009	0.141
1010	0.141
1010	0.142
1010	0.142
1011	0.142
1011	0.141
1012	0.141
1012	0.141
1013	0.141
1013	0.141
1013	0.14
1014	0.14
1014	0.14
1015	0.14
1015	0.14
1016	0.139
1016	0.139
1016	0.139
1017	0.138
1017	0.138
1018	0.137
1018	0.137
1018	0.136
1019	0.136
1019	0.135
1020	0.135
1020	0.134
1021	0.134
1021	0.134
1021	0.134
1022	0.134
1022	0.135
1023	0.135
1023	0.135
1023	0.135
1024	0.135
1024	0.135
1025	0.135
1025	0.135
1026	0.135
1026	0.135
1026	0.135
1027	0.134
1027	0.134
1028	0.134
1028	0.134
1028	0.134
1029	0.134
1029	0.134
1030	0.134
1030	0.134
1031	0.134
1031	0.134
1031	0.134
1032	0.134
1032	0.134
1033	0.135
1033	0.135
1033	0.134
1034	0.134
1034	0.134
1035	0.134
1035	0.133
1036	0.133
1036	0.133
1036	0.133
1037	0.133
1037	0.132
1038	0.132
1038	0.132
1039	0.132
1039	0.132
1039	0.132
1040	0.132
1040	0.132
1041	0.132
1041	0.131
1041	0.131
1042	0.131
1042	0.131
1043	0.131
1043	0.131
1044	0.131
1044	0.131
1044	0.131
1045	0.131
1045	0.13
1046	0.13
1046	0.13
1046	0.13
1047	0.13
1047	0.13
1048	0.131
1048	0.131
1049	0.131
1049	0.13
1049	0.13
1050	0.13
1050	0.129
1051	0.129
1051	0.128
1051	0.127
1052	0.127
1052	0.126
1053	0.125
1053	0.124
1053	0.123
1054	0.122
1054	0.121
1055	0.121
1055	0.12
1056	0.119
1056	0.119
1056	0.118
1057	0.117
1057	0.117
1058	0.116
1058	0.115
1058	0.114
1059	0.114
1059	0.113
1060	0.112
1060	0.111
1061	0.111
1061	0.111
1061	0.11
1062	0.11
1062	0.11
1063	0.11
1063	0.109
1063	0.109
1064	0.109
1064	0.109
1065	0.108
1065	0.108
1066	0.108
1066	0.108
1066	0.107
1067	0.107
1067	0.106
1068	0.106
1068	0.106
1068	0.105
1069	0.105
1069	0.104
1070	0.104
1070	0.103
1071	0.102
1071	0.102
1071	0.101
1072	0.1
1072	0.099
1073	0.098
1073	0.097
1073	0.097
1074	0.097
1074	0.097
1075	0.097
1075	0.097
1076	0.097
1076	0.098
1076	0.098
1077	0.098
1077	0.098
1078	0.098
1078	0.098
1078	0.097
1079	0.097
1079	0.096
1080	0.096
1080	0.095
1080	0.095
1081	0.095
1081	0.095
1082	0.095
1082	0.095
1083	0.095
1083	0.095
1083	0.095
1084	0.095
1084	0.096
1085	0.096
1085	0.095
1085	0.095
1086	0.095
1086	0.094
1087	0.094
1087	0.093
1088	0.093
1088	0.093
1088	0.092
1089	0.091
1089	0.09
1090	0.089
1090	0.089
1090	0.087
1091	0.087
1091	0.086
1092	0.086
1092	0.086
1092	0.085
1093	0.085
1093	0.086
1094	0.086
1094	0.086
1095	0.085
1095	0.085
1095	0.085
1096	0.084
1096	0.084
1097	0.083
1097	0.082
1097	0.081
1098	0.08
1098	0.078
1099	0.077
1099	0.075
1100	0.074
1100	0.073
1100	0.071
1101	0.069
1101	0.069
1102	0.067
1102	0.065
1102	0.063
1103	0.063
1103	0.062
1104	0.062
1104	0.061
1104	0.06
1105	0.059
1105	0.058
1106	0.055
1106	0.055
1107	0.054
1107	0.054
1107	0.052
1108	0.051
1108	0.05
1109	0.048
1109	0.048
1109	0.047
1110	0.047
1110	0.047
1111	0.043
1111	0.041
