Data from reversibility-20sec_Absorbance__7523__000000000007523.txt Node

Date: Thu Dec 07 06:00:46 CET 2023
User: Marek
Spectrometer: MAYP115816
Trigger mode: 0
Integration Time (sec): 2.000000E-1
Scans to average: 10
Electric dark correction enabled: true
Nonlinearity correction enabled: true
Boxcar width: 5
XAxis mode: Wavelengths
Number of Pixels in Spectrum: 2068
>>>>>Begin Spectral Data<<<<<
199	-0.061
199	-0.041
200	0.014
200	0.056
201	0.08
201	0.096
202	0.099
202	0.109
203	0.117
203	0.122
204	0.138
204	0.147
205	0.157
205	0.162
205	0.161
206	0.16
206	0.16
207	0.162
207	0.16
208	0.159
208	0.159
209	0.156
209	0.155
210	0.154
210	0.156
211	0.159
211	0.161
212	0.158
212	0.161
213	0.162
213	0.162
213	0.161
214	0.166
214	0.168
215	0.172
215	0.173
216	0.175
216	0.173
217	0.179
217	0.182
218	0.183
218	0.187
219	0.192
219	0.193
220	0.194
220	0.192
221	0.192
221	0.196
221	0.204
222	0.209
222	0.21
223	0.22
223	0.225
224	0.227
224	0.235
225	0.243
225	0.252
226	0.263
226	0.272
227	0.281
227	0.288
228	0.305
228	0.317
229	0.33
229	0.356
229	0.376
230	0.4
230	0.43
231	0.46
231	0.497
232	0.533
232	0.578
233	0.621
233	0.668
234	0.721
234	0.774
235	0.828
235	0.885
236	0.934
236	0.988
236	1.036
237	1.089
237	1.139
238	1.185
238	1.234
239	1.281
239	1.318
240	1.355
240	1.39
241	1.426
241	1.455
242	1.489
242	1.521
243	1.548
243	1.573
243	1.595
244	1.615
244	1.639
245	1.658
245	1.681
246	1.7
246	1.72
247	1.733
247	1.745
248	1.758
248	1.77
249	1.781
249	1.787
250	1.792
250	1.798
250	1.799
251	1.801
251	1.802
252	1.806
252	1.804
253	1.806
253	1.804
254	1.802
254	1.802
255	1.8
255	1.799
256	1.799
256	1.799
257	1.798
257	1.794
258	1.795
258	1.795
258	1.795
259	1.794
259	1.793
260	1.792
260	1.795
261	1.795
261	1.798
262	1.801
262	1.804
263	1.806
263	1.808
264	1.808
264	1.811
265	1.814
265	1.814
265	1.813
266	1.813
266	1.812
267	1.808
267	1.809
268	1.809
268	1.808
269	1.81
269	1.808
270	1.807
270	1.807
271	1.805
271	1.805
272	1.802
272	1.8
272	1.795
273	1.789
273	1.782
274	1.775
274	1.769
275	1.761
275	1.755
276	1.746
276	1.739
277	1.731
277	1.72
278	1.709
278	1.697
278	1.682
279	1.665
279	1.643
280	1.616
280	1.583
281	1.545
281	1.502
282	1.458
282	1.413
283	1.367
283	1.324
284	1.282
284	1.242
285	1.205
285	1.171
285	1.141
286	1.114
286	1.091
287	1.07
287	1.053
288	1.038
288	1.026
289	1.015
289	1.006
290	0.998
290	0.991
291	0.985
291	0.98
292	0.976
292	0.971
292	0.967
293	0.963
293	0.96
294	0.956
294	0.953
295	0.95
295	0.947
296	0.943
296	0.94
297	0.937
297	0.934
298	0.931
298	0.928
298	0.925
299	0.922
299	0.92
300	0.917
300	0.914
301	0.912
301	0.909
302	0.907
302	0.904
303	0.902
303	0.899
304	0.897
304	0.895
305	0.893
305	0.891
305	0.888
306	0.886
306	0.883
307	0.881
307	0.878
308	0.876
308	0.873
309	0.871
309	0.868
310	0.865
310	0.862
311	0.859
311	0.856
311	0.853
312	0.849
312	0.846
313	0.842
313	0.838
314	0.835
314	0.831
315	0.827
315	0.822
316	0.818
316	0.813
317	0.809
317	0.804
318	0.799
318	0.794
318	0.789
319	0.784
319	0.778
320	0.772
320	0.766
321	0.76
321	0.754
322	0.747
322	0.741
323	0.734
323	0.728
324	0.721
324	0.715
324	0.708
325	0.701
325	0.694
326	0.687
326	0.681
327	0.674
327	0.667
328	0.659
328	0.652
329	0.645
329	0.638
330	0.63
330	0.623
330	0.616
331	0.609
331	0.601
332	0.594
332	0.587
333	0.58
333	0.573
334	0.566
334	0.559
335	0.552
335	0.545
336	0.539
336	0.532
336	0.525
337	0.519
337	0.513
338	0.506
338	0.5
339	0.494
339	0.488
340	0.482
340	0.476
341	0.47
341	0.465
342	0.459
342	0.454
342	0.448
343	0.443
343	0.438
344	0.433
344	0.428
345	0.423
345	0.418
346	0.413
346	0.409
347	0.404
347	0.4
348	0.396
348	0.392
348	0.388
349	0.384
349	0.38
350	0.377
350	0.373
351	0.37
351	0.367
352	0.364
352	0.361
353	0.358
353	0.355
354	0.352
354	0.349
354	0.346
355	0.343
355	0.34
356	0.337
356	0.335
357	0.332
357	0.329
358	0.327
358	0.324
359	0.322
359	0.32
360	0.318
360	0.316
360	0.314
361	0.312
361	0.31
362	0.308
362	0.306
363	0.304
363	0.303
364	0.301
364	0.299
365	0.297
365	0.295
366	0.293
366	0.292
366	0.29
367	0.288
367	0.287
368	0.285
368	0.284
369	0.282
369	0.281
370	0.279
370	0.278
371	0.277
371	0.276
372	0.274
372	0.273
372	0.273
373	0.272
373	0.271
374	0.27
374	0.269
375	0.268
375	0.267
376	0.266
376	0.265
377	0.264
377	0.263
378	0.263
378	0.262
378	0.261
379	0.26
379	0.26
380	0.259
380	0.258
381	0.257
381	0.257
382	0.256
382	0.256
383	0.256
383	0.255
383	0.255
384	0.254
384	0.254
385	0.254
385	0.253
386	0.253
386	0.253
387	0.252
387	0.252
388	0.251
388	0.251
389	0.251
389	0.25
389	0.25
390	0.25
390	0.249
391	0.249
391	0.249
392	0.248
392	0.248
393	0.248
393	0.247
394	0.247
394	0.246
394	0.246
395	0.246
395	0.245
396	0.245
396	0.245
397	0.244
397	0.244
398	0.244
398	0.244
399	0.243
399	0.243
400	0.243
400	0.243
400	0.243
401	0.242
401	0.242
402	0.242
402	0.242
403	0.242
403	0.241
404	0.241
404	0.241
405	0.241
405	0.241
405	0.24
406	0.24
406	0.24
407	0.239
407	0.239
408	0.239
408	0.239
409	0.238
409	0.238
410	0.238
410	0.237
411	0.237
411	0.237
411	0.237
412	0.236
412	0.236
413	0.235
413	0.235
414	0.235
414	0.235
415	0.234
415	0.234
416	0.234
416	0.234
416	0.233
417	0.233
417	0.233
418	0.233
418	0.232
419	0.232
419	0.231
420	0.231
420	0.23
421	0.23
421	0.23
421	0.229
422	0.229
422	0.228
423	0.228
423	0.228
424	0.227
424	0.227
425	0.227
425	0.227
426	0.227
426	0.226
427	0.226
427	0.226
427	0.225
428	0.225
428	0.225
429	0.224
429	0.224
430	0.223
430	0.223
431	0.223
431	0.223
432	0.223
432	0.223
432	0.222
433	0.222
433	0.222
434	0.222
434	0.222
435	0.222
435	0.221
436	0.221
436	0.221
437	0.221
437	0.22
437	0.22
438	0.22
438	0.22
439	0.219
439	0.219
440	0.218
440	0.218
441	0.218
441	0.217
442	0.217
442	0.217
442	0.217
443	0.216
443	0.216
444	0.216
444	0.216
445	0.216
445	0.216
446	0.216
446	0.215
447	0.215
447	0.215
447	0.215
448	0.215
448	0.215
449	0.214
449	0.214
450	0.214
450	0.214
451	0.213
451	0.213
452	0.213
452	0.213
452	0.213
453	0.213
453	0.213
454	0.213
454	0.212
455	0.212
455	0.212
456	0.212
456	0.211
457	0.211
457	0.211
458	0.211
458	0.21
458	0.21
459	0.21
459	0.21
460	0.209
460	0.209
461	0.209
461	0.209
462	0.209
462	0.208
463	0.208
463	0.208
463	0.208
464	0.207
464	0.207
465	0.206
465	0.206
466	0.206
466	0.206
467	0.206
467	0.206
467	0.206
468	0.206
468	0.206
469	0.206
469	0.206
470	0.206
470	0.206
471	0.206
471	0.205
472	0.205
472	0.205
472	0.205
473	0.205
473	0.205
474	0.205
474	0.205
475	0.205
475	0.204
476	0.204
476	0.205
477	0.204
477	0.204
477	0.204
478	0.204
478	0.204
479	0.204
479	0.204
480	0.204
480	0.204
481	0.204
481	0.204
482	0.204
482	0.204
482	0.204
483	0.204
483	0.204
484	0.204
484	0.204
485	0.204
485	0.204
486	0.204
486	0.204
487	0.204
487	0.204
487	0.204
488	0.204
488	0.204
489	0.204
489	0.205
490	0.205
490	0.205
491	0.206
491	0.206
492	0.206
492	0.207
492	0.207
493	0.207
493	0.208
494	0.208
494	0.208
495	0.208
495	0.209
496	0.209
496	0.209
496	0.21
497	0.21
497	0.21
498	0.21
498	0.21
499	0.211
499	0.211
500	0.212
500	0.212
501	0.213
501	0.213
501	0.213
502	0.213
502	0.213
503	0.214
503	0.214
504	0.215
504	0.215
505	0.215
505	0.216
506	0.216
506	0.216
506	0.217
507	0.217
507	0.218
508	0.218
508	0.218
509	0.218
509	0.219
510	0.219
510	0.22
511	0.22
511	0.221
511	0.221
512	0.221
512	0.222
513	0.222
513	0.222
514	0.223
514	0.223
515	0.223
515	0.223
515	0.224
516	0.224
516	0.224
517	0.225
517	0.225
518	0.225
518	0.225
519	0.225
519	0.226
520	0.226
520	0.226
520	0.226
521	0.226
521	0.226
522	0.227
522	0.227
523	0.227
523	0.228
524	0.228
524	0.228
524	0.228
525	0.229
525	0.228
526	0.229
526	0.229
527	0.229
527	0.229
528	0.229
528	0.229
529	0.229
529	0.229
529	0.228
530	0.228
530	0.228
531	0.228
531	0.228
532	0.228
532	0.228
533	0.227
533	0.227
533	0.227
534	0.227
534	0.227
535	0.227
535	0.227
536	0.227
536	0.227
537	0.227
537	0.227
538	0.227
538	0.227
538	0.227
539	0.227
539	0.227
540	0.227
540	0.227
541	0.226
541	0.226
542	0.226
542	0.226
542	0.226
543	0.226
543	0.226
544	0.225
544	0.226
545	0.225
545	0.225
546	0.225
546	0.224
547	0.223
547	0.223
547	0.223
548	0.222
548	0.222
549	0.222
549	0.222
550	0.221
550	0.221
551	0.221
551	0.22
551	0.221
552	0.221
552	0.22
553	0.22
553	0.22
554	0.219
554	0.219
555	0.218
555	0.218
556	0.217
556	0.217
556	0.217
557	0.217
557	0.217
558	0.217
558	0.217
559	0.218
559	0.218
560	0.218
560	0.217
560	0.217
561	0.217
561	0.216
562	0.216
562	0.215
563	0.214
563	0.213
564	0.213
564	0.212
564	0.212
565	0.212
565	0.212
566	0.211
566	0.211
567	0.211
567	0.211
568	0.211
568	0.211
568	0.21
569	0.21
569	0.21
570	0.209
570	0.208
571	0.207
571	0.207
572	0.206
572	0.206
573	0.206
573	0.205
573	0.205
574	0.204
574	0.204
575	0.204
575	0.204
576	0.204
576	0.203
577	0.203
577	0.202
577	0.202
578	0.201
578	0.201
579	0.201
579	0.201
580	0.201
580	0.2
581	0.199
581	0.199
581	0.2
582	0.2
582	0.2
583	0.2
583	0.199
584	0.198
584	0.197
585	0.197
585	0.197
585	0.197
586	0.197
586	0.197
587	0.196
587	0.195
588	0.195
588	0.195
589	0.195
589	0.195
590	0.195
590	0.195
590	0.195
591	0.195
591	0.194
592	0.194
592	0.193
593	0.193
593	0.192
594	0.192
594	0.191
594	0.191
595	0.19
595	0.19
596	0.189
596	0.19
597	0.19
597	0.191
598	0.191
598	0.191
598	0.191
599	0.191
599	0.19
600	0.19
600	0.19
601	0.189
601	0.189
602	0.189
602	0.188
602	0.188
603	0.188
603	0.188
604	0.188
604	0.188
605	0.188
605	0.188
606	0.187
606	0.186
606	0.186
607	0.186
607	0.185
608	0.185
608	0.184
609	0.184
609	0.184
610	0.183
610	0.183
610	0.183
611	0.183
611	0.183
612	0.183
612	0.184
613	0.184
613	0.184
614	0.184
614	0.183
614	0.183
615	0.184
615	0.183
616	0.184
616	0.183
617	0.183
617	0.183
618	0.183
618	0.183
618	0.183
619	0.184
619	0.184
620	0.183
620	0.183
621	0.182
621	0.182
622	0.182
622	0.181
622	0.181
623	0.18
623	0.18
624	0.18
624	0.179
625	0.179
625	0.179
626	0.179
626	0.179
626	0.179
627	0.179
627	0.179
628	0.179
628	0.179
629	0.179
629	0.179
630	0.179
630	0.179
630	0.179
631	0.179
631	0.179
632	0.178
632	0.178
633	0.178
633	0.178
634	0.178
634	0.178
634	0.178
635	0.177
635	0.176
636	0.176
636	0.176
637	0.176
637	0.176
638	0.176
638	0.176
638	0.175
639	0.175
639	0.175
640	0.175
640	0.175
641	0.174
641	0.174
642	0.174
642	0.174
642	0.174
643	0.174
643	0.174
644	0.174
644	0.174
645	0.175
645	0.175
646	0.176
646	0.176
646	0.176
647	0.176
647	0.176
648	0.176
648	0.175
649	0.175
649	0.175
650	0.175
650	0.174
650	0.174
651	0.174
651	0.174
652	0.174
652	0.174
653	0.175
653	0.177
653	0.182
654	0.143
654	0.115
655	0.115
655	0.115
656	0.116
656	0.116
657	0.116
657	0.117
657	0.117
658	0.115
658	0.106
659	0.133
659	0.171
660	0.175
660	0.175
661	0.175
661	0.174
661	0.174
662	0.173
662	0.173
663	0.172
663	0.172
664	0.172
664	0.172
665	0.172
665	0.172
665	0.172
666	0.173
666	0.173
667	0.173
667	0.173
668	0.174
668	0.174
669	0.174
669	0.174
669	0.175
670	0.175
670	0.175
671	0.174
671	0.174
672	0.174
672	0.173
672	0.173
673	0.172
673	0.172
674	0.172
674	0.171
675	0.171
675	0.171
676	0.171
676	0.171
676	0.172
677	0.172
677	0.172
678	0.172
678	0.172
679	0.172
679	0.172
680	0.172
680	0.172
680	0.172
681	0.172
681	0.172
682	0.172
682	0.172
683	0.172
683	0.172
684	0.172
684	0.172
684	0.172
685	0.172
685	0.172
686	0.172
686	0.172
687	0.172
687	0.172
687	0.173
688	0.173
688	0.173
689	0.174
689	0.175
690	0.175
690	0.174
691	0.174
691	0.174
691	0.174
692	0.174
692	0.174
693	0.175
693	0.175
694	0.175
694	0.175
695	0.176
695	0.177
695	0.177
696	0.177
696	0.177
697	0.178
697	0.177
698	0.177
698	0.177
698	0.177
699	0.177
699	0.177
700	0.176
700	0.176
701	0.175
701	0.175
702	0.174
702	0.173
702	0.173
703	0.172
703	0.172
704	0.171
704	0.171
705	0.171
705	0.17
705	0.17
706	0.17
706	0.17
707	0.17
707	0.171
708	0.171
708	0.172
709	0.172
709	0.172
709	0.172
710	0.172
710	0.173
711	0.174
711	0.174
712	0.175
712	0.175
713	0.176
713	0.176
713	0.176
714	0.176
714	0.176
715	0.176
715	0.175
716	0.175
716	0.174
716	0.174
717	0.173
717	0.172
718	0.172
718	0.172
719	0.172
719	0.172
720	0.173
720	0.173
720	0.174
721	0.175
721	0.176
722	0.177
722	0.177
723	0.178
723	0.178
723	0.178
724	0.178
724	0.177
725	0.176
725	0.176
726	0.175
726	0.174
727	0.173
727	0.173
727	0.173
728	0.173
728	0.172
729	0.173
729	0.173
730	0.173
730	0.174
730	0.174
731	0.175
731	0.175
732	0.176
732	0.176
733	0.177
733	0.177
734	0.177
734	0.178
734	0.178
735	0.178
735	0.178
736	0.178
736	0.178
737	0.178
737	0.178
737	0.178
738	0.177
738	0.176
739	0.176
739	0.176
740	0.176
740	0.176
741	0.177
741	0.177
741	0.177
742	0.178
742	0.178
743	0.179
743	0.18
744	0.181
744	0.181
744	0.182
745	0.182
745	0.182
746	0.182
746	0.181
747	0.181
747	0.181
748	0.181
748	0.181
748	0.181
749	0.181
749	0.181
750	0.181
750	0.182
751	0.182
751	0.182
751	0.183
752	0.183
752	0.183
753	0.182
753	0.182
754	0.182
754	0.182
754	0.181
755	0.181
755	0.181
756	0.18
756	0.179
757	0.179
757	0.179
758	0.179
758	0.179
758	0.179
759	0.179
759	0.179
760	0.179
760	0.178
761	0.179
761	0.179
761	0.18
762	0.18
762	0.18
763	0.181
763	0.18
764	0.18
764	0.181
764	0.181
765	0.18
765	0.18
766	0.18
766	0.18
767	0.18
767	0.179
768	0.178
768	0.178
768	0.179
769	0.179
769	0.179
770	0.179
770	0.18
771	0.18
771	0.18
771	0.181
772	0.181
772	0.181
773	0.182
773	0.182
774	0.182
774	0.182
775	0.183
775	0.183
775	0.183
776	0.183
776	0.184
777	0.184
777	0.185
778	0.185
778	0.185
778	0.185
779	0.186
779	0.185
780	0.184
780	0.184
781	0.183
781	0.182
781	0.182
782	0.182
782	0.182
783	0.182
783	0.182
784	0.182
784	0.182
784	0.183
785	0.183
785	0.184
786	0.184
786	0.184
787	0.185
787	0.184
788	0.184
788	0.184
788	0.184
789	0.183
789	0.184
790	0.184
790	0.184
791	0.184
791	0.184
791	0.184
792	0.185
792	0.185
793	0.185
793	0.185
794	0.185
794	0.185
794	0.185
795	0.185
795	0.185
796	0.185
796	0.185
797	0.185
797	0.185
797	0.185
798	0.185
798	0.185
799	0.185
799	0.185
800	0.185
800	0.184
801	0.184
801	0.185
801	0.185
802	0.186
802	0.186
803	0.187
803	0.187
804	0.188
804	0.189
804	0.189
805	0.189
805	0.189
806	0.189
806	0.188
807	0.188
807	0.188
807	0.188
808	0.187
808	0.187
809	0.187
809	0.187
810	0.187
810	0.187
810	0.188
811	0.188
811	0.189
812	0.189
812	0.19
813	0.19
813	0.191
813	0.192
814	0.192
814	0.193
815	0.193
815	0.193
816	0.193
816	0.192
817	0.192
817	0.191
817	0.191
818	0.19
818	0.19
819	0.189
819	0.189
820	0.188
820	0.187
820	0.187
821	0.187
821	0.188
822	0.188
822	0.188
823	0.189
823	0.189
823	0.19
824	0.191
824	0.192
825	0.193
825	0.195
826	0.195
826	0.196
826	0.196
827	0.197
827	0.198
828	0.198
828	0.198
829	0.198
829	0.199
829	0.199
830	0.199
830	0.199
831	0.2
831	0.199
832	0.199
832	0.199
832	0.199
833	0.199
833	0.199
834	0.198
834	0.198
835	0.197
835	0.197
835	0.196
836	0.196
836	0.196
837	0.195
837	0.195
838	0.194
838	0.193
839	0.193
839	0.192
839	0.191
840	0.19
840	0.189
841	0.188
841	0.188
842	0.187
842	0.186
842	0.186
843	0.185
843	0.185
844	0.184
844	0.184
845	0.184
845	0.184
845	0.184
846	0.185
846	0.185
847	0.185
847	0.186
848	0.186
848	0.186
848	0.186
849	0.185
849	0.185
850	0.185
850	0.184
851	0.184
851	0.184
851	0.183
852	0.183
852	0.182
853	0.182
853	0.183
854	0.183
854	0.184
854	0.185
855	0.186
855	0.187
856	0.188
856	0.189
857	0.19
857	0.191
857	0.192
858	0.193
858	0.193
859	0.193
859	0.193
860	0.193
860	0.193
860	0.193
861	0.192
861	0.192
862	0.191
862	0.19
863	0.189
863	0.188
863	0.188
864	0.187
864	0.187
865	0.187
865	0.187
866	0.187
866	0.187
866	0.187
867	0.187
867	0.187
868	0.187
868	0.187
869	0.187
869	0.187
869	0.187
870	0.187
870	0.187
871	0.187
871	0.187
872	0.187
872	0.186
872	0.186
873	0.186
873	0.186
874	0.185
874	0.185
875	0.184
875	0.184
875	0.184
876	0.183
876	0.183
877	0.183
877	0.183
878	0.182
878	0.182
878	0.183
879	0.183
879	0.183
880	0.183
880	0.183
881	0.183
881	0.184
881	0.184
882	0.184
882	0.184
883	0.184
883	0.185
884	0.185
884	0.185
884	0.185
885	0.185
885	0.185
886	0.185
886	0.185
887	0.184
887	0.184
887	0.184
888	0.183
888	0.183
889	0.183
889	0.183
890	0.183
890	0.183
890	0.183
891	0.184
891	0.184
892	0.184
892	0.184
893	0.184
893	0.184
893	0.183
894	0.183
894	0.182
895	0.181
895	0.181
895	0.18
896	0.18
896	0.179
897	0.179
897	0.178
898	0.177
898	0.177
898	0.177
899	0.176
899	0.176
900	0.176
900	0.175
901	0.175
901	0.175
901	0.175
902	0.175
902	0.175
903	0.175
903	0.175
904	0.175
904	0.175
904	0.175
905	0.175
905	0.174
906	0.174
906	0.174
907	0.174
907	0.174
907	0.174
908	0.173
908	0.173
909	0.172
909	0.172
910	0.172
910	0.171
910	0.171
911	0.17
911	0.169
912	0.169
912	0.168
913	0.168
913	0.167
913	0.167
914	0.166
914	0.166
915	0.166
915	0.166
916	0.166
916	0.166
916	0.166
917	0.166
917	0.166
918	0.166
918	0.166
918	0.165
919	0.165
919	0.165
920	0.164
920	0.164
921	0.164
921	0.164
921	0.164
922	0.164
922	0.164
923	0.164
923	0.164
924	0.165
924	0.165
924	0.165
925	0.165
925	0.165
926	0.166
926	0.166
927	0.166
927	0.166
927	0.166
928	0.167
928	0.167
929	0.167
929	0.167
930	0.167
930	0.167
930	0.167
931	0.166
931	0.166
932	0.165
932	0.165
933	0.164
933	0.164
933	0.163
934	0.163
934	0.162
935	0.161
935	0.161
935	0.16
936	0.16
936	0.159
937	0.159
937	0.158
938	0.158
938	0.157
938	0.156
939	0.156
939	0.155
940	0.155
940	0.155
941	0.155
941	0.155
941	0.155
942	0.156
942	0.156
943	0.157
943	0.157
944	0.157
944	0.157
944	0.158
945	0.158
945	0.158
946	0.158
946	0.157
946	0.157
947	0.157
947	0.156
948	0.156
948	0.156
949	0.155
949	0.155
949	0.154
950	0.154
950	0.154
951	0.153
951	0.152
952	0.151
952	0.151
952	0.15
953	0.149
953	0.148
954	0.148
954	0.148
955	0.148
955	0.148
955	0.148
956	0.149
956	0.149
957	0.15
957	0.151
957	0.152
958	0.153
958	0.154
959	0.154
959	0.155
960	0.155
960	0.156
960	0.156
961	0.155
961	0.155
962	0.155
962	0.154
963	0.154
963	0.153
963	0.153
964	0.152
964	0.152
965	0.151
965	0.151
966	0.151
966	0.15
966	0.15
967	0.15
967	0.15
968	0.15
968	0.15
968	0.149
969	0.149
969	0.148
970	0.148
970	0.147
971	0.146
971	0.145
971	0.144
972	0.144
972	0.143
973	0.142
973	0.142
974	0.142
974	0.142
974	0.142
975	0.142
975	0.143
976	0.143
976	0.143
976	0.143
977	0.144
977	0.144
978	0.143
978	0.143
979	0.143
979	0.143
979	0.143
980	0.143
980	0.143
981	0.143
981	0.143
982	0.143
982	0.143
982	0.143
983	0.143
983	0.143
984	0.143
984	0.143
984	0.143
985	0.143
985	0.142
986	0.142
986	0.141
987	0.14
987	0.14
987	0.139
988	0.139
988	0.138
989	0.138
989	0.137
990	0.137
990	0.137
990	0.137
991	0.136
991	0.136
992	0.136
992	0.135
992	0.134
993	0.134
993	0.133
994	0.132
994	0.132
995	0.131
995	0.131
995	0.13
996	0.13
996	0.13
997	0.131
997	0.131
997	0.131
998	0.132
998	0.132
999	0.133
999	0.134
1000	0.134
1000	0.135
1000	0.135
1001	0.136
1001	0.136
1002	0.136
1002	0.136
1003	0.136
1003	0.136
1003	0.135
1004	0.135
1004	0.134
1005	0.133
1005	0.133
1005	0.132
1006	0.132
1006	0.132
1007	0.132
1007	0.131
1008	0.131
1008	0.131
1008	0.131
1009	0.131
1009	0.13
1010	0.13
1010	0.13
1010	0.129
1011	0.129
1011	0.128
1012	0.127
1012	0.127
1013	0.126
1013	0.126
1013	0.125
1014	0.125
1014	0.124
1015	0.124
1015	0.124
1016	0.124
1016	0.123
1016	0.123
1017	0.123
1017	0.123
1018	0.123
1018	0.123
1018	0.123
1019	0.123
1019	0.123
1020	0.123
1020	0.123
1021	0.124
1021	0.124
1021	0.125
1022	0.125
1022	0.125
1023	0.125
1023	0.126
1023	0.126
1024	0.126
1024	0.126
1025	0.126
1025	0.126
1026	0.126
1026	0.126
1026	0.125
1027	0.126
1027	0.126
1028	0.126
1028	0.126
1028	0.126
1029	0.126
1029	0.126
1030	0.125
1030	0.125
1031	0.125
1031	0.125
1031	0.125
1032	0.125
1032	0.125
1033	0.125
1033	0.125
1033	0.125
1034	0.125
1034	0.125
1035	0.125
1035	0.124
1036	0.124
1036	0.124
1036	0.124
1037	0.124
1037	0.124
1038	0.123
1038	0.123
1039	0.123
1039	0.123
1039	0.122
1040	0.122
1040	0.121
1041	0.121
1041	0.121
1041	0.12
1042	0.12
1042	0.12
1043	0.12
1043	0.12
1044	0.119
1044	0.119
1044	0.119
1045	0.119
1045	0.118
1046	0.118
1046	0.117
1046	0.117
1047	0.116
1047	0.116
1048	0.115
1048	0.115
1049	0.114
1049	0.114
1049	0.114
1050	0.114
1050	0.113
1051	0.113
1051	0.113
1051	0.112
1052	0.112
1052	0.111
1053	0.111
1053	0.11
1053	0.11
1054	0.109
1054	0.109
1055	0.109
1055	0.108
1056	0.107
1056	0.107
1056	0.106
1057	0.105
1057	0.105
1058	0.104
1058	0.103
1058	0.103
1059	0.102
1059	0.102
1060	0.101
1060	0.101
1061	0.101
1061	0.101
1061	0.101
1062	0.101
1062	0.101
1063	0.101
1063	0.101
1063	0.1
1064	0.1
1064	0.1
1065	0.1
1065	0.1
1066	0.1
1066	0.099
1066	0.099
1067	0.099
1067	0.099
1068	0.099
1068	0.099
1068	0.099
1069	0.099
1069	0.099
1070	0.098
1070	0.099
1071	0.098
1071	0.098
1071	0.097
1072	0.097
1072	0.097
1073	0.096
1073	0.096
1073	0.095
1074	0.096
1074	0.096
1075	0.096
1075	0.096
1076	0.097
1076	0.098
1076	0.098
1077	0.098
1077	0.099
1078	0.099
1078	0.099
1078	0.099
1079	0.098
1079	0.098
1080	0.098
1080	0.098
1080	0.097
1081	0.097
1081	0.097
1082	0.097
1082	0.097
1083	0.097
1083	0.096
1083	0.096
1084	0.096
1084	0.096
1085	0.096
1085	0.097
1085	0.097
1086	0.097
1086	0.097
1087	0.097
1087	0.097
1088	0.096
1088	0.096
1088	0.096
1089	0.096
1089	0.095
1090	0.094
1090	0.094
1090	0.092
1091	0.092
1091	0.092
1092	0.092
1092	0.092
1092	0.092
1093	0.091
1093	0.092
1094	0.092
1094	0.092
1095	0.091
1095	0.091
1095	0.091
1096	0.09
1096	0.089
1097	0.088
1097	0.087
1097	0.087
1098	0.086
1098	0.085
1099	0.085
1099	0.083
1100	0.082
1100	0.082
1100	0.081
1101	0.08
1101	0.079
1102	0.079
1102	0.078
1102	0.077
1103	0.076
1103	0.075
1104	0.075
1104	0.075
1104	0.074
1105	0.073
1105	0.071
1106	0.07
1106	0.07
1107	0.069
1107	0.069
1107	0.069
1108	0.069
1108	0.068
1109	0.067
1109	0.067
1109	0.067
1110	0.07
1110	0.069
1111	0.068
1111	0.072
