Data from reversibility-20sec_Absorbance__2311__000000000002311.txt Node

Date: Wed Dec 06 01:03:26 CET 2023
User: Marek
Spectrometer: MAYP115816
Trigger mode: 0
Integration Time (sec): 2.000000E-1
Scans to average: 10
Electric dark correction enabled: true
Nonlinearity correction enabled: true
Boxcar width: 5
XAxis mode: Wavelengths
Number of Pixels in Spectrum: 2068
>>>>>Begin Spectral Data<<<<<
199	-0.162
199	-0.133
200	-0.058
200	-0.007
201	0.023
201	0.04
202	0.053
202	0.061
203	0.07
203	0.074
204	0.088
204	0.104
205	0.116
205	0.121
205	0.122
206	0.122
206	0.121
207	0.125
207	0.125
208	0.123
208	0.123
209	0.123
209	0.119
210	0.119
210	0.118
211	0.118
211	0.121
212	0.12
212	0.12
213	0.122
213	0.126
213	0.125
214	0.128
214	0.132
215	0.134
215	0.133
216	0.133
216	0.13
217	0.132
217	0.134
218	0.135
218	0.136
219	0.142
219	0.143
220	0.145
220	0.144
221	0.145
221	0.147
221	0.152
222	0.16
222	0.161
223	0.165
223	0.171
224	0.173
224	0.181
225	0.188
225	0.2
226	0.211
226	0.221
227	0.231
227	0.239
228	0.257
228	0.272
229	0.288
229	0.314
229	0.335
230	0.36
230	0.388
231	0.418
231	0.458
232	0.498
232	0.543
233	0.588
233	0.634
234	0.684
234	0.736
235	0.789
235	0.844
236	0.898
236	0.954
236	1.008
237	1.059
237	1.11
238	1.158
238	1.208
239	1.26
239	1.305
240	1.348
240	1.384
241	1.423
241	1.463
242	1.494
242	1.533
243	1.565
243	1.596
243	1.623
244	1.647
244	1.672
245	1.695
245	1.723
246	1.745
246	1.764
247	1.781
247	1.798
248	1.814
248	1.827
249	1.84
249	1.85
250	1.861
250	1.87
250	1.877
251	1.883
251	1.885
252	1.893
252	1.895
253	1.899
253	1.9
254	1.9
254	1.902
255	1.898
255	1.901
256	1.901
256	1.9
257	1.902
257	1.901
258	1.901
258	1.899
258	1.902
259	1.903
259	1.904
260	1.906
260	1.908
261	1.91
261	1.915
262	1.92
262	1.925
263	1.931
263	1.937
264	1.939
264	1.943
265	1.946
265	1.948
265	1.951
266	1.954
266	1.957
267	1.956
267	1.956
268	1.957
268	1.96
269	1.964
269	1.964
270	1.965
270	1.966
271	1.965
271	1.965
272	1.961
272	1.959
272	1.954
273	1.947
273	1.938
274	1.928
274	1.92
275	1.911
275	1.904
276	1.897
276	1.889
277	1.88
277	1.87
278	1.856
278	1.842
278	1.826
279	1.807
279	1.78
280	1.748
280	1.709
281	1.663
281	1.613
282	1.563
282	1.513
283	1.465
283	1.419
284	1.374
284	1.332
285	1.293
285	1.258
285	1.227
286	1.201
286	1.178
287	1.158
287	1.141
288	1.126
288	1.114
289	1.103
289	1.094
290	1.087
290	1.08
291	1.075
291	1.07
292	1.065
292	1.061
292	1.058
293	1.054
293	1.051
294	1.047
294	1.045
295	1.042
295	1.039
296	1.036
296	1.033
297	1.03
297	1.027
298	1.024
298	1.022
298	1.019
299	1.017
299	1.014
300	1.011
300	1.009
301	1.007
301	1.005
302	1.002
302	1
303	0.998
303	0.996
304	0.994
304	0.992
305	0.99
305	0.988
305	0.985
306	0.983
306	0.98
307	0.979
307	0.976
308	0.973
308	0.971
309	0.968
309	0.966
310	0.963
310	0.96
311	0.957
311	0.954
311	0.951
312	0.947
312	0.944
313	0.94
313	0.936
314	0.932
314	0.928
315	0.924
315	0.92
316	0.916
316	0.911
317	0.906
317	0.901
318	0.896
318	0.891
318	0.886
319	0.88
319	0.875
320	0.869
320	0.863
321	0.857
321	0.851
322	0.845
322	0.839
323	0.832
323	0.826
324	0.819
324	0.812
324	0.805
325	0.798
325	0.791
326	0.784
326	0.777
327	0.77
327	0.763
328	0.756
328	0.749
329	0.742
329	0.735
330	0.728
330	0.721
330	0.714
331	0.707
331	0.7
332	0.693
332	0.685
333	0.678
333	0.672
334	0.664
334	0.657
335	0.65
335	0.643
336	0.636
336	0.63
336	0.623
337	0.617
337	0.611
338	0.604
338	0.598
339	0.592
339	0.586
340	0.58
340	0.574
341	0.569
341	0.563
342	0.557
342	0.552
342	0.547
343	0.541
343	0.536
344	0.531
344	0.526
345	0.521
345	0.517
346	0.512
346	0.508
347	0.503
347	0.499
348	0.495
348	0.491
348	0.487
349	0.483
349	0.48
350	0.476
350	0.472
351	0.469
351	0.465
352	0.462
352	0.459
353	0.456
353	0.453
354	0.45
354	0.447
354	0.444
355	0.441
355	0.438
356	0.436
356	0.433
357	0.429
357	0.427
358	0.424
358	0.421
359	0.419
359	0.416
360	0.414
360	0.412
360	0.41
361	0.408
361	0.406
362	0.405
362	0.403
363	0.401
363	0.399
364	0.397
364	0.395
365	0.393
365	0.391
366	0.39
366	0.388
366	0.386
367	0.384
367	0.383
368	0.381
368	0.38
369	0.378
369	0.377
370	0.375
370	0.374
371	0.373
371	0.371
372	0.37
372	0.369
372	0.367
373	0.366
373	0.365
374	0.364
374	0.363
375	0.362
375	0.361
376	0.36
376	0.359
377	0.358
377	0.357
378	0.356
378	0.355
378	0.354
379	0.353
379	0.352
380	0.352
380	0.351
381	0.35
381	0.349
382	0.348
382	0.348
383	0.347
383	0.346
383	0.345
384	0.345
384	0.344
385	0.343
385	0.343
386	0.342
386	0.342
387	0.341
387	0.34
388	0.34
388	0.339
389	0.339
389	0.338
389	0.338
390	0.337
390	0.337
391	0.336
391	0.336
392	0.336
392	0.335
393	0.335
393	0.334
394	0.334
394	0.333
394	0.333
395	0.332
395	0.332
396	0.332
396	0.331
397	0.33
397	0.33
398	0.33
398	0.329
399	0.329
399	0.328
400	0.328
400	0.327
400	0.327
401	0.327
401	0.326
402	0.326
402	0.325
403	0.325
403	0.325
404	0.325
404	0.324
405	0.324
405	0.324
405	0.323
406	0.323
406	0.323
407	0.322
407	0.322
408	0.321
408	0.321
409	0.321
409	0.32
410	0.32
410	0.32
411	0.319
411	0.319
411	0.319
412	0.318
412	0.318
413	0.318
413	0.317
414	0.317
414	0.317
415	0.316
415	0.316
416	0.316
416	0.315
416	0.315
417	0.314
417	0.314
418	0.314
418	0.313
419	0.313
419	0.312
420	0.312
420	0.311
421	0.311
421	0.311
421	0.31
422	0.31
422	0.31
423	0.309
423	0.309
424	0.308
424	0.308
425	0.308
425	0.307
426	0.307
426	0.307
427	0.306
427	0.306
427	0.306
428	0.306
428	0.305
429	0.305
429	0.305
430	0.304
430	0.304
431	0.304
431	0.304
432	0.304
432	0.304
432	0.303
433	0.303
433	0.303
434	0.303
434	0.302
435	0.302
435	0.302
436	0.302
436	0.302
437	0.301
437	0.301
437	0.301
438	0.301
438	0.3
439	0.3
439	0.3
440	0.3
440	0.3
441	0.299
441	0.299
442	0.299
442	0.298
442	0.298
443	0.298
443	0.298
444	0.298
444	0.297
445	0.297
445	0.297
446	0.297
446	0.296
447	0.296
447	0.295
447	0.295
448	0.295
448	0.295
449	0.295
449	0.295
450	0.294
450	0.294
451	0.294
451	0.294
452	0.294
452	0.294
452	0.294
453	0.293
453	0.293
454	0.293
454	0.293
455	0.292
455	0.292
456	0.292
456	0.292
457	0.291
457	0.291
458	0.291
458	0.291
458	0.291
459	0.291
459	0.29
460	0.29
460	0.29
461	0.29
461	0.29
462	0.289
462	0.289
463	0.289
463	0.289
463	0.289
464	0.288
464	0.288
465	0.288
465	0.288
466	0.288
466	0.288
467	0.288
467	0.288
467	0.288
468	0.288
468	0.288
469	0.289
469	0.289
470	0.289
470	0.289
471	0.289
471	0.289
472	0.289
472	0.289
472	0.289
473	0.29
473	0.289
474	0.289
474	0.289
475	0.289
475	0.289
476	0.289
476	0.289
477	0.289
477	0.289
477	0.289
478	0.289
478	0.289
479	0.289
479	0.289
480	0.29
480	0.29
481	0.29
481	0.29
482	0.29
482	0.291
482	0.291
483	0.291
483	0.292
484	0.292
484	0.292
485	0.292
485	0.292
486	0.292
486	0.293
487	0.293
487	0.293
487	0.294
488	0.294
488	0.294
489	0.295
489	0.296
490	0.297
490	0.297
491	0.298
491	0.299
492	0.299
492	0.3
492	0.301
493	0.302
493	0.302
494	0.303
494	0.304
495	0.304
495	0.305
496	0.306
496	0.307
496	0.307
497	0.308
497	0.308
498	0.309
498	0.309
499	0.31
499	0.31
500	0.311
500	0.312
501	0.313
501	0.314
501	0.314
502	0.315
502	0.316
503	0.316
503	0.317
504	0.318
504	0.318
505	0.319
505	0.319
506	0.32
506	0.32
506	0.321
507	0.322
507	0.322
508	0.323
508	0.323
509	0.324
509	0.325
510	0.326
510	0.326
511	0.327
511	0.328
511	0.329
512	0.33
512	0.33
513	0.331
513	0.332
514	0.332
514	0.333
515	0.333
515	0.334
515	0.334
516	0.334
516	0.335
517	0.336
517	0.336
518	0.337
518	0.337
519	0.337
519	0.337
520	0.337
520	0.338
520	0.338
521	0.338
521	0.338
522	0.338
522	0.339
523	0.339
523	0.339
524	0.339
524	0.339
524	0.339
525	0.34
525	0.339
526	0.339
526	0.34
527	0.34
527	0.339
528	0.339
528	0.339
529	0.339
529	0.338
529	0.338
530	0.337
530	0.337
531	0.337
531	0.336
532	0.335
532	0.335
533	0.335
533	0.334
533	0.334
534	0.333
534	0.333
535	0.333
535	0.333
536	0.332
536	0.332
537	0.332
537	0.331
538	0.331
538	0.33
538	0.329
539	0.329
539	0.328
540	0.327
540	0.327
541	0.326
541	0.325
542	0.324
542	0.323
542	0.323
543	0.322
543	0.321
544	0.321
544	0.32
545	0.32
545	0.319
546	0.318
546	0.317
547	0.316
547	0.316
547	0.315
548	0.314
548	0.313
549	0.313
549	0.312
550	0.311
550	0.31
551	0.309
551	0.308
551	0.307
552	0.307
552	0.306
553	0.305
553	0.304
554	0.303
554	0.302
555	0.301
555	0.3
556	0.299
556	0.298
556	0.298
557	0.297
557	0.297
558	0.296
558	0.295
559	0.295
559	0.294
560	0.294
560	0.293
560	0.293
561	0.292
561	0.292
562	0.291
562	0.289
563	0.288
563	0.287
564	0.286
564	0.285
564	0.285
565	0.285
565	0.284
566	0.283
566	0.282
567	0.282
567	0.281
568	0.281
568	0.28
568	0.28
569	0.279
569	0.279
570	0.277
570	0.276
571	0.276
571	0.275
572	0.274
572	0.273
573	0.273
573	0.272
573	0.271
574	0.27
574	0.27
575	0.269
575	0.269
576	0.269
576	0.268
577	0.267
577	0.266
577	0.266
578	0.265
578	0.264
579	0.264
579	0.264
580	0.263
580	0.262
581	0.261
581	0.261
581	0.261
582	0.261
582	0.26
583	0.26
583	0.26
584	0.259
584	0.257
585	0.257
585	0.256
585	0.256
586	0.255
586	0.254
587	0.253
587	0.252
588	0.251
588	0.251
589	0.25
589	0.25
590	0.249
590	0.249
590	0.25
591	0.249
591	0.248
592	0.248
592	0.247
593	0.247
593	0.246
594	0.246
594	0.245
594	0.245
595	0.244
595	0.244
596	0.243
596	0.244
597	0.244
597	0.244
598	0.244
598	0.243
598	0.243
599	0.243
599	0.242
600	0.242
600	0.241
601	0.241
601	0.24
602	0.239
602	0.239
602	0.238
603	0.238
603	0.238
604	0.237
604	0.237
605	0.237
605	0.237
606	0.236
606	0.235
606	0.235
607	0.235
607	0.234
608	0.234
608	0.233
609	0.232
609	0.232
610	0.231
610	0.231
610	0.231
611	0.231
611	0.231
612	0.231
612	0.231
613	0.231
613	0.231
614	0.231
614	0.23
614	0.23
615	0.23
615	0.23
616	0.23
616	0.23
617	0.229
617	0.229
618	0.229
618	0.229
618	0.229
619	0.23
619	0.23
620	0.23
620	0.229
621	0.229
621	0.228
622	0.227
622	0.226
622	0.226
623	0.225
623	0.225
624	0.224
624	0.223
625	0.223
625	0.223
626	0.222
626	0.222
626	0.222
627	0.222
627	0.222
628	0.222
628	0.221
629	0.221
629	0.221
630	0.221
630	0.22
630	0.22
631	0.221
631	0.22
632	0.22
632	0.22
633	0.22
633	0.219
634	0.219
634	0.219
634	0.219
635	0.219
635	0.218
636	0.218
636	0.218
637	0.218
637	0.217
638	0.217
638	0.217
638	0.217
639	0.216
639	0.216
640	0.216
640	0.216
641	0.216
641	0.216
642	0.215
642	0.216
642	0.216
643	0.216
643	0.216
644	0.216
644	0.216
645	0.216
645	0.216
646	0.216
646	0.216
646	0.216
647	0.215
647	0.215
648	0.214
648	0.214
649	0.213
649	0.213
650	0.212
650	0.212
650	0.212
651	0.212
651	0.212
652	0.212
652	0.212
653	0.213
653	0.215
653	0.221
654	0.173
654	0.137
655	0.139
655	0.139
656	0.139
656	0.14
657	0.14
657	0.14
657	0.14
658	0.139
658	0.128
659	0.162
659	0.21
660	0.214
660	0.214
661	0.214
661	0.213
661	0.213
662	0.212
662	0.212
663	0.211
663	0.211
664	0.21
664	0.21
665	0.21
665	0.21
665	0.21
666	0.21
666	0.211
667	0.211
667	0.211
668	0.212
668	0.212
669	0.212
669	0.212
669	0.213
670	0.213
670	0.213
671	0.213
671	0.213
672	0.212
672	0.212
672	0.212
673	0.211
673	0.211
674	0.211
674	0.211
675	0.21
675	0.21
676	0.21
676	0.21
676	0.21
677	0.21
677	0.21
678	0.211
678	0.21
679	0.21
679	0.211
680	0.211
680	0.211
680	0.211
681	0.211
681	0.211
682	0.212
682	0.211
683	0.212
683	0.212
684	0.212
684	0.211
684	0.211
685	0.211
685	0.211
686	0.211
686	0.211
687	0.211
687	0.211
687	0.211
688	0.211
688	0.211
689	0.212
689	0.213
690	0.213
690	0.213
691	0.213
691	0.213
691	0.213
692	0.214
692	0.214
693	0.215
693	0.215
694	0.215
694	0.215
695	0.216
695	0.217
695	0.217
696	0.216
696	0.216
697	0.216
697	0.216
698	0.215
698	0.215
698	0.215
699	0.215
699	0.214
700	0.214
700	0.215
701	0.215
701	0.215
702	0.216
702	0.216
702	0.217
703	0.217
703	0.217
704	0.216
704	0.216
705	0.216
705	0.216
705	0.215
706	0.215
706	0.215
707	0.215
707	0.214
708	0.214
708	0.214
709	0.214
709	0.214
709	0.213
710	0.213
710	0.213
711	0.214
711	0.214
712	0.214
712	0.214
713	0.215
713	0.215
713	0.215
714	0.215
714	0.216
715	0.216
715	0.215
716	0.215
716	0.215
716	0.214
717	0.214
717	0.213
718	0.213
718	0.212
719	0.212
719	0.212
720	0.213
720	0.213
720	0.213
721	0.213
721	0.214
722	0.214
722	0.214
723	0.215
723	0.215
723	0.215
724	0.215
724	0.215
725	0.214
725	0.213
726	0.213
726	0.212
727	0.211
727	0.211
727	0.211
728	0.21
728	0.21
729	0.211
729	0.211
730	0.211
730	0.212
730	0.212
731	0.213
731	0.214
732	0.214
732	0.215
733	0.215
733	0.215
734	0.215
734	0.214
734	0.214
735	0.214
735	0.213
736	0.212
736	0.212
737	0.211
737	0.211
737	0.211
738	0.211
738	0.21
739	0.21
739	0.21
740	0.21
740	0.21
741	0.21
741	0.211
741	0.211
742	0.211
742	0.211
743	0.212
743	0.212
744	0.213
744	0.213
744	0.213
745	0.213
745	0.213
746	0.213
746	0.213
747	0.213
747	0.214
748	0.214
748	0.215
748	0.215
749	0.216
749	0.216
750	0.216
750	0.217
751	0.217
751	0.217
751	0.217
752	0.216
752	0.216
753	0.215
753	0.215
754	0.215
754	0.214
754	0.215
755	0.215
755	0.214
756	0.214
756	0.213
757	0.212
757	0.212
758	0.212
758	0.212
758	0.212
759	0.212
759	0.212
760	0.212
760	0.212
761	0.213
761	0.214
761	0.214
762	0.215
762	0.215
763	0.215
763	0.215
764	0.215
764	0.216
764	0.216
765	0.215
765	0.215
766	0.215
766	0.215
767	0.214
767	0.213
768	0.213
768	0.212
768	0.212
769	0.212
769	0.212
770	0.212
770	0.212
771	0.212
771	0.212
771	0.212
772	0.213
772	0.213
773	0.214
773	0.214
774	0.214
774	0.215
775	0.215
775	0.215
775	0.215
776	0.216
776	0.216
777	0.216
777	0.216
778	0.216
778	0.216
778	0.216
779	0.216
779	0.215
780	0.215
780	0.214
781	0.214
781	0.214
781	0.213
782	0.213
782	0.213
783	0.213
783	0.214
784	0.214
784	0.214
784	0.215
785	0.215
785	0.215
786	0.215
786	0.215
787	0.216
787	0.215
788	0.215
788	0.215
788	0.214
789	0.214
789	0.214
790	0.214
790	0.214
791	0.214
791	0.214
791	0.215
792	0.216
792	0.217
793	0.217
793	0.218
794	0.218
794	0.218
794	0.218
795	0.218
795	0.218
796	0.219
796	0.219
797	0.218
797	0.218
797	0.218
798	0.218
798	0.218
799	0.218
799	0.218
800	0.217
800	0.217
801	0.217
801	0.217
801	0.216
802	0.216
802	0.216
803	0.216
803	0.216
804	0.217
804	0.217
804	0.217
805	0.217
805	0.217
806	0.217
806	0.217
807	0.217
807	0.217
807	0.217
808	0.217
808	0.217
809	0.217
809	0.217
810	0.217
810	0.217
810	0.217
811	0.217
811	0.217
812	0.218
812	0.218
813	0.218
813	0.218
813	0.218
814	0.218
814	0.218
815	0.218
815	0.218
816	0.218
816	0.217
817	0.216
817	0.216
817	0.215
818	0.215
818	0.215
819	0.214
819	0.214
820	0.213
820	0.213
820	0.213
821	0.213
821	0.213
822	0.213
822	0.213
823	0.213
823	0.213
823	0.213
824	0.214
824	0.215
825	0.216
825	0.216
826	0.216
826	0.216
826	0.216
827	0.217
827	0.217
828	0.217
828	0.217
829	0.217
829	0.217
829	0.216
830	0.216
830	0.216
831	0.217
831	0.217
832	0.216
832	0.216
832	0.216
833	0.216
833	0.216
834	0.215
834	0.215
835	0.215
835	0.215
835	0.215
836	0.215
836	0.216
837	0.216
837	0.216
838	0.216
838	0.216
839	0.215
839	0.215
839	0.214
840	0.213
840	0.211
841	0.21
841	0.209
842	0.208
842	0.207
842	0.206
843	0.206
843	0.205
844	0.205
844	0.205
845	0.205
845	0.205
845	0.205
846	0.205
846	0.205
847	0.205
847	0.205
848	0.206
848	0.206
848	0.206
849	0.207
849	0.207
850	0.207
850	0.207
851	0.208
851	0.207
851	0.207
852	0.206
852	0.206
853	0.205
853	0.204
854	0.204
854	0.204
854	0.204
855	0.204
855	0.204
856	0.204
856	0.205
857	0.205
857	0.205
857	0.206
858	0.205
858	0.205
859	0.204
859	0.203
860	0.202
860	0.201
860	0.2
861	0.199
861	0.198
862	0.197
862	0.196
863	0.195
863	0.194
863	0.194
864	0.194
864	0.194
865	0.194
865	0.194
866	0.194
866	0.194
866	0.194
867	0.194
867	0.193
868	0.193
868	0.193
869	0.192
869	0.192
869	0.191
870	0.19
870	0.189
871	0.189
871	0.188
872	0.188
872	0.188
872	0.188
873	0.188
873	0.187
874	0.187
874	0.187
875	0.187
875	0.186
875	0.186
876	0.186
876	0.186
877	0.186
877	0.186
878	0.187
878	0.188
878	0.189
879	0.19
879	0.191
880	0.192
880	0.193
881	0.193
881	0.193
881	0.193
882	0.192
882	0.191
883	0.19
883	0.189
884	0.188
884	0.187
884	0.185
885	0.184
885	0.183
886	0.183
886	0.182
887	0.182
887	0.181
887	0.18
888	0.18
888	0.179
889	0.178
889	0.177
890	0.177
890	0.177
890	0.176
891	0.176
891	0.175
892	0.175
892	0.175
893	0.175
893	0.175
893	0.175
894	0.175
894	0.174
895	0.174
895	0.174
895	0.173
896	0.173
896	0.173
897	0.172
897	0.172
898	0.171
898	0.171
898	0.171
899	0.171
899	0.171
900	0.171
900	0.171
901	0.171
901	0.171
901	0.172
902	0.172
902	0.171
903	0.171
903	0.171
904	0.171
904	0.17
904	0.17
905	0.169
905	0.169
906	0.168
906	0.169
907	0.169
907	0.169
907	0.169
908	0.17
908	0.17
909	0.17
909	0.17
910	0.17
910	0.17
910	0.169
911	0.168
911	0.168
912	0.167
912	0.166
913	0.165
913	0.164
913	0.164
914	0.163
914	0.162
915	0.162
915	0.161
916	0.16
916	0.159
916	0.159
917	0.157
917	0.157
918	0.156
918	0.154
918	0.154
919	0.153
919	0.152
920	0.151
920	0.15
921	0.15
921	0.149
921	0.149
922	0.148
922	0.148
923	0.148
923	0.148
924	0.148
924	0.148
924	0.148
925	0.148
925	0.149
926	0.149
926	0.15
927	0.15
927	0.15
927	0.15
928	0.15
928	0.151
929	0.151
929	0.151
930	0.151
930	0.151
930	0.151
931	0.151
931	0.151
932	0.151
932	0.151
933	0.152
933	0.152
933	0.152
934	0.151
934	0.151
935	0.151
935	0.151
935	0.151
936	0.15
936	0.15
937	0.149
937	0.149
938	0.148
938	0.147
938	0.147
939	0.146
939	0.146
940	0.145
940	0.145
941	0.145
941	0.145
941	0.145
942	0.144
942	0.144
943	0.144
943	0.143
944	0.143
944	0.142
944	0.142
945	0.141
945	0.141
946	0.14
946	0.14
946	0.14
947	0.139
947	0.139
948	0.138
948	0.138
949	0.137
949	0.136
949	0.135
950	0.134
950	0.133
951	0.132
951	0.131
952	0.13
952	0.129
952	0.129
953	0.128
953	0.127
954	0.127
954	0.126
955	0.126
955	0.126
955	0.126
956	0.126
956	0.126
957	0.127
957	0.127
957	0.128
958	0.128
958	0.129
959	0.129
959	0.129
960	0.13
960	0.13
960	0.13
961	0.13
961	0.13
962	0.13
962	0.13
963	0.13
963	0.13
963	0.13
964	0.13
964	0.13
965	0.13
965	0.13
966	0.13
966	0.13
966	0.131
967	0.131
967	0.131
968	0.131
968	0.131
968	0.131
969	0.131
969	0.131
970	0.13
970	0.13
971	0.13
971	0.13
971	0.129
972	0.129
972	0.129
973	0.128
973	0.128
974	0.128
974	0.128
974	0.128
975	0.128
975	0.128
976	0.128
976	0.129
976	0.129
977	0.129
977	0.129
978	0.129
978	0.129
979	0.129
979	0.128
979	0.128
980	0.127
980	0.126
981	0.126
981	0.125
982	0.124
982	0.123
982	0.123
983	0.122
983	0.121
984	0.12
984	0.118
984	0.117
985	0.117
985	0.116
986	0.115
986	0.114
987	0.113
987	0.112
987	0.112
988	0.111
988	0.111
989	0.111
989	0.11
990	0.11
990	0.11
990	0.109
991	0.109
991	0.109
992	0.108
992	0.108
992	0.107
993	0.106
993	0.106
994	0.105
994	0.104
995	0.104
995	0.104
995	0.103
996	0.103
996	0.103
997	0.104
997	0.104
997	0.105
998	0.105
998	0.106
999	0.107
999	0.108
1000	0.108
1000	0.109
1000	0.11
1001	0.11
1001	0.111
1002	0.111
1002	0.111
1003	0.111
1003	0.111
1003	0.11
1004	0.11
1004	0.109
1005	0.108
1005	0.108
1005	0.107
1006	0.107
1006	0.106
1007	0.106
1007	0.105
1008	0.105
1008	0.105
1008	0.105
1009	0.105
1009	0.105
1010	0.105
1010	0.105
1010	0.105
1011	0.105
1011	0.105
1012	0.105
1012	0.105
1013	0.105
1013	0.105
1013	0.105
1014	0.105
1014	0.105
1015	0.104
1015	0.104
1016	0.104
1016	0.103
1016	0.102
1017	0.102
1017	0.101
1018	0.101
1018	0.1
1018	0.1
1019	0.099
1019	0.099
1020	0.099
1020	0.099
1021	0.099
1021	0.099
1021	0.099
1022	0.099
1022	0.099
1023	0.099
1023	0.099
1023	0.099
1024	0.099
1024	0.099
1025	0.099
1025	0.099
1026	0.099
1026	0.099
1026	0.099
1027	0.099
1027	0.099
1028	0.099
1028	0.099
1028	0.099
1029	0.1
1029	0.1
1030	0.1
1030	0.101
1031	0.101
1031	0.101
1031	0.101
1032	0.101
1032	0.101
1033	0.101
1033	0.101
1033	0.101
1034	0.101
1034	0.1
1035	0.1
1035	0.099
1036	0.099
1036	0.099
1036	0.099
1037	0.098
1037	0.098
1038	0.098
1038	0.098
1039	0.098
1039	0.098
1039	0.099
1040	0.099
1040	0.099
1041	0.099
1041	0.1
1041	0.1
1042	0.1
1042	0.1
1043	0.1
1043	0.1
1044	0.1
1044	0.1
1044	0.1
1045	0.1
1045	0.099
1046	0.1
1046	0.1
1046	0.1
1047	0.1
1047	0.101
1048	0.101
1048	0.102
1049	0.102
1049	0.102
1049	0.102
1050	0.102
1050	0.101
1051	0.101
1051	0.101
1051	0.1
1052	0.099
1052	0.098
1053	0.097
1053	0.096
1053	0.095
1054	0.094
1054	0.094
1055	0.093
1055	0.092
1056	0.091
1056	0.09
1056	0.089
1057	0.088
1057	0.087
1058	0.087
1058	0.086
1058	0.085
1059	0.084
1059	0.083
1060	0.082
1060	0.082
1061	0.081
1061	0.081
1061	0.081
1062	0.08
1062	0.08
1063	0.08
1063	0.08
1063	0.08
1064	0.08
1064	0.08
1065	0.08
1065	0.08
1066	0.081
1066	0.081
1066	0.08
1067	0.08
1067	0.08
1068	0.08
1068	0.079
1068	0.079
1069	0.079
1069	0.078
1070	0.077
1070	0.077
1071	0.076
1071	0.075
1071	0.074
1072	0.074
1072	0.073
1073	0.072
1073	0.072
1073	0.071
1074	0.072
1074	0.072
1075	0.072
1075	0.072
1076	0.073
1076	0.074
1076	0.075
1077	0.075
1077	0.076
1078	0.076
1078	0.076
1078	0.077
1079	0.076
1079	0.076
1080	0.076
1080	0.076
1080	0.075
1081	0.075
1081	0.075
1082	0.075
1082	0.075
1083	0.075
1083	0.074
1083	0.074
1084	0.073
1084	0.073
1085	0.073
1085	0.072
1085	0.072
1086	0.072
1086	0.07
1087	0.07
1087	0.069
1088	0.069
1088	0.069
1088	0.069
1089	0.069
1089	0.068
1090	0.067
1090	0.067
1090	0.066
1091	0.066
1091	0.066
1092	0.066
1092	0.066
1092	0.065
1093	0.064
1093	0.064
1094	0.064
1094	0.064
1095	0.063
1095	0.063
1095	0.063
1096	0.063
1096	0.062
1097	0.061
1097	0.061
1097	0.061
1098	0.061
1098	0.06
1099	0.06
1099	0.059
1100	0.058
1100	0.056
1100	0.055
1101	0.054
1101	0.054
1102	0.053
1102	0.051
1102	0.05
1103	0.049
1103	0.049
1104	0.048
1104	0.048
1104	0.048
1105	0.048
1105	0.046
1106	0.044
1106	0.042
1107	0.042
1107	0.042
1107	0.041
1108	0.04
1108	0.04
1109	0.037
1109	0.035
1109	0.035
1110	0.037
1110	0.035
1111	0.037
1111	0.032
