Data from reversibility-20sec_Absorbance__1560__000000000001560.txt Node

Date: Tue Dec 05 20:53:05 CET 2023
User: Marek
Spectrometer: MAYP115816
Trigger mode: 0
Integration Time (sec): 2.000000E-1
Scans to average: 10
Electric dark correction enabled: true
Nonlinearity correction enabled: true
Boxcar width: 5
XAxis mode: Wavelengths
Number of Pixels in Spectrum: 2068
>>>>>Begin Spectral Data<<<<<
199	-0.16
199	-0.143
200	-0.077
200	-0.025
201	0.002
201	0.021
202	0.034
202	0.038
203	0.046
203	0.048
204	0.059
204	0.073
205	0.087
205	0.093
205	0.09
206	0.09
206	0.089
207	0.092
207	0.094
208	0.093
208	0.093
209	0.097
209	0.094
210	0.095
210	0.095
211	0.098
211	0.101
212	0.099
212	0.101
213	0.105
213	0.105
213	0.107
214	0.108
214	0.11
215	0.112
215	0.111
216	0.112
216	0.111
217	0.114
217	0.114
218	0.111
218	0.116
219	0.119
219	0.121
220	0.124
220	0.121
221	0.121
221	0.127
221	0.131
222	0.135
222	0.14
223	0.147
223	0.149
224	0.151
224	0.159
225	0.166
225	0.176
226	0.185
226	0.193
227	0.204
227	0.213
228	0.227
228	0.241
229	0.257
229	0.281
229	0.304
230	0.331
230	0.359
231	0.393
231	0.431
232	0.47
232	0.514
233	0.558
233	0.606
234	0.656
234	0.712
235	0.765
235	0.815
236	0.871
236	0.924
236	0.978
237	1.03
237	1.08
238	1.128
238	1.178
239	1.231
239	1.277
240	1.319
240	1.359
241	1.398
241	1.436
242	1.469
242	1.506
243	1.542
243	1.572
243	1.602
244	1.626
244	1.65
245	1.672
245	1.698
246	1.721
246	1.742
247	1.761
247	1.779
248	1.796
248	1.814
249	1.826
249	1.835
250	1.846
250	1.858
250	1.866
251	1.871
251	1.875
252	1.881
252	1.883
253	1.887
253	1.884
254	1.884
254	1.889
255	1.888
255	1.888
256	1.891
256	1.89
257	1.893
257	1.893
258	1.894
258	1.895
258	1.898
259	1.9
259	1.901
260	1.901
260	1.905
261	1.905
261	1.913
262	1.918
262	1.923
263	1.93
263	1.935
264	1.937
264	1.941
265	1.945
265	1.947
265	1.949
266	1.953
266	1.953
267	1.951
267	1.953
268	1.953
268	1.955
269	1.961
269	1.962
270	1.96
270	1.961
271	1.96
271	1.96
272	1.959
272	1.957
272	1.951
273	1.943
273	1.933
274	1.923
274	1.915
275	1.908
275	1.901
276	1.893
276	1.884
277	1.875
277	1.865
278	1.854
278	1.842
278	1.827
279	1.808
279	1.782
280	1.75
280	1.712
281	1.666
281	1.618
282	1.567
282	1.517
283	1.469
283	1.423
284	1.378
284	1.336
285	1.297
285	1.262
285	1.231
286	1.204
286	1.181
287	1.16
287	1.143
288	1.129
288	1.117
289	1.107
289	1.098
290	1.091
290	1.084
291	1.078
291	1.073
292	1.068
292	1.064
292	1.061
293	1.057
293	1.054
294	1.051
294	1.048
295	1.045
295	1.043
296	1.04
296	1.038
297	1.035
297	1.033
298	1.03
298	1.028
298	1.025
299	1.023
299	1.02
300	1.018
300	1.015
301	1.013
301	1.011
302	1.008
302	1.006
303	1.004
303	1.002
304	1
304	0.998
305	0.996
305	0.994
305	0.991
306	0.989
306	0.986
307	0.985
307	0.982
308	0.979
308	0.977
309	0.974
309	0.971
310	0.969
310	0.966
311	0.963
311	0.96
311	0.957
312	0.953
312	0.95
313	0.946
313	0.942
314	0.938
314	0.934
315	0.93
315	0.926
316	0.922
316	0.917
317	0.912
317	0.908
318	0.903
318	0.898
318	0.893
319	0.887
319	0.882
320	0.876
320	0.87
321	0.864
321	0.858
322	0.852
322	0.846
323	0.839
323	0.833
324	0.826
324	0.819
324	0.812
325	0.805
325	0.799
326	0.791
326	0.784
327	0.777
327	0.77
328	0.763
328	0.756
329	0.749
329	0.742
330	0.734
330	0.727
330	0.72
331	0.713
331	0.706
332	0.699
332	0.692
333	0.685
333	0.678
334	0.67
334	0.664
335	0.657
335	0.65
336	0.643
336	0.636
336	0.63
337	0.623
337	0.617
338	0.61
338	0.604
339	0.598
339	0.592
340	0.586
340	0.58
341	0.574
341	0.569
342	0.563
342	0.557
342	0.552
343	0.547
343	0.542
344	0.537
344	0.532
345	0.527
345	0.522
346	0.517
346	0.513
347	0.509
347	0.504
348	0.5
348	0.496
348	0.492
349	0.488
349	0.484
350	0.481
350	0.477
351	0.473
351	0.47
352	0.467
352	0.464
353	0.461
353	0.458
354	0.455
354	0.452
354	0.449
355	0.446
355	0.443
356	0.44
356	0.438
357	0.434
357	0.431
358	0.429
358	0.426
359	0.423
359	0.421
360	0.419
360	0.417
360	0.414
361	0.412
361	0.41
362	0.409
362	0.407
363	0.405
363	0.404
364	0.401
364	0.399
365	0.398
365	0.396
366	0.394
366	0.392
366	0.39
367	0.389
367	0.387
368	0.385
368	0.383
369	0.382
369	0.38
370	0.379
370	0.377
371	0.376
371	0.374
372	0.373
372	0.372
372	0.371
373	0.37
373	0.369
374	0.367
374	0.366
375	0.365
375	0.364
376	0.363
376	0.362
377	0.362
377	0.36
378	0.359
378	0.358
378	0.358
379	0.357
379	0.356
380	0.355
380	0.354
381	0.353
381	0.352
382	0.351
382	0.351
383	0.35
383	0.349
383	0.348
384	0.348
384	0.347
385	0.346
385	0.346
386	0.345
386	0.344
387	0.344
387	0.343
388	0.342
388	0.341
389	0.341
389	0.341
389	0.34
390	0.34
390	0.339
391	0.339
391	0.338
392	0.338
392	0.337
393	0.337
393	0.337
394	0.336
394	0.335
394	0.335
395	0.334
395	0.334
396	0.333
396	0.333
397	0.332
397	0.332
398	0.331
398	0.331
399	0.33
399	0.33
400	0.329
400	0.329
400	0.329
401	0.328
401	0.328
402	0.328
402	0.327
403	0.327
403	0.327
404	0.327
404	0.326
405	0.326
405	0.326
405	0.325
406	0.325
406	0.324
407	0.324
407	0.323
408	0.323
408	0.323
409	0.322
409	0.322
410	0.321
410	0.321
411	0.321
411	0.32
411	0.32
412	0.32
412	0.319
413	0.319
413	0.319
414	0.318
414	0.318
415	0.317
415	0.317
416	0.317
416	0.316
416	0.316
417	0.315
417	0.315
418	0.315
418	0.315
419	0.314
419	0.314
420	0.313
420	0.313
421	0.312
421	0.312
421	0.311
422	0.311
422	0.311
423	0.311
423	0.31
424	0.309
424	0.309
425	0.309
425	0.308
426	0.308
426	0.308
427	0.308
427	0.307
427	0.307
428	0.307
428	0.306
429	0.306
429	0.306
430	0.305
430	0.305
431	0.305
431	0.305
432	0.305
432	0.304
432	0.304
433	0.304
433	0.303
434	0.303
434	0.303
435	0.303
435	0.303
436	0.302
436	0.302
437	0.302
437	0.302
437	0.301
438	0.301
438	0.301
439	0.301
439	0.3
440	0.3
440	0.3
441	0.3
441	0.299
442	0.299
442	0.299
442	0.299
443	0.299
443	0.299
444	0.298
444	0.298
445	0.298
445	0.298
446	0.298
446	0.297
447	0.297
447	0.297
447	0.296
448	0.296
448	0.296
449	0.296
449	0.296
450	0.296
450	0.296
451	0.295
451	0.295
452	0.295
452	0.295
452	0.295
453	0.294
453	0.294
454	0.294
454	0.294
455	0.294
455	0.293
456	0.293
456	0.293
457	0.293
457	0.292
458	0.292
458	0.292
458	0.292
459	0.292
459	0.291
460	0.291
460	0.291
461	0.291
461	0.291
462	0.29
462	0.29
463	0.29
463	0.29
463	0.29
464	0.289
464	0.289
465	0.289
465	0.289
466	0.288
466	0.288
467	0.288
467	0.288
467	0.288
468	0.288
468	0.288
469	0.288
469	0.288
470	0.288
470	0.288
471	0.288
471	0.288
472	0.288
472	0.288
472	0.288
473	0.288
473	0.288
474	0.288
474	0.288
475	0.288
475	0.288
476	0.288
476	0.289
477	0.289
477	0.289
477	0.289
478	0.289
478	0.289
479	0.29
479	0.29
480	0.29
480	0.29
481	0.29
481	0.291
482	0.291
482	0.291
482	0.291
483	0.291
483	0.292
484	0.292
484	0.292
485	0.292
485	0.292
486	0.292
486	0.292
487	0.293
487	0.293
487	0.293
488	0.294
488	0.294
489	0.295
489	0.296
490	0.297
490	0.297
491	0.298
491	0.299
492	0.299
492	0.3
492	0.301
493	0.301
493	0.302
494	0.302
494	0.303
495	0.303
495	0.304
496	0.305
496	0.306
496	0.307
497	0.307
497	0.308
498	0.308
498	0.309
499	0.309
499	0.31
500	0.311
500	0.312
501	0.312
501	0.313
501	0.313
502	0.314
502	0.314
503	0.315
503	0.316
504	0.316
504	0.317
505	0.318
505	0.318
506	0.319
506	0.319
506	0.32
507	0.321
507	0.321
508	0.322
508	0.322
509	0.323
509	0.324
510	0.324
510	0.325
511	0.326
511	0.326
511	0.327
512	0.328
512	0.329
513	0.329
513	0.33
514	0.33
514	0.331
515	0.332
515	0.332
515	0.332
516	0.333
516	0.333
517	0.334
517	0.334
518	0.334
518	0.335
519	0.335
519	0.335
520	0.335
520	0.336
520	0.336
521	0.336
521	0.336
522	0.336
522	0.337
523	0.337
523	0.337
524	0.337
524	0.338
524	0.338
525	0.338
525	0.338
526	0.338
526	0.338
527	0.338
527	0.337
528	0.337
528	0.337
529	0.337
529	0.336
529	0.336
530	0.335
530	0.335
531	0.335
531	0.334
532	0.334
532	0.333
533	0.333
533	0.333
533	0.332
534	0.332
534	0.332
535	0.331
535	0.331
536	0.331
536	0.33
537	0.33
537	0.33
538	0.329
538	0.328
538	0.328
539	0.327
539	0.327
540	0.326
540	0.325
541	0.324
541	0.324
542	0.323
542	0.322
542	0.322
543	0.321
543	0.321
544	0.32
544	0.319
545	0.319
545	0.319
546	0.318
546	0.317
547	0.316
547	0.315
547	0.315
548	0.314
548	0.313
549	0.312
549	0.311
550	0.31
550	0.309
551	0.308
551	0.308
551	0.307
552	0.306
552	0.305
553	0.304
553	0.304
554	0.303
554	0.302
555	0.301
555	0.3
556	0.3
556	0.298
556	0.298
557	0.297
557	0.297
558	0.296
558	0.296
559	0.295
559	0.295
560	0.294
560	0.293
560	0.293
561	0.293
561	0.292
562	0.291
562	0.29
563	0.289
563	0.287
564	0.286
564	0.286
564	0.285
565	0.285
565	0.284
566	0.283
566	0.283
567	0.282
567	0.282
568	0.282
568	0.281
568	0.281
569	0.28
569	0.28
570	0.279
570	0.278
571	0.277
571	0.277
572	0.276
572	0.275
573	0.274
573	0.274
573	0.273
574	0.272
574	0.271
575	0.271
575	0.271
576	0.27
576	0.269
577	0.268
577	0.267
577	0.267
578	0.266
578	0.266
579	0.266
579	0.266
580	0.265
580	0.264
581	0.263
581	0.263
581	0.263
582	0.263
582	0.262
583	0.262
583	0.262
584	0.261
584	0.259
585	0.259
585	0.259
585	0.258
586	0.258
586	0.257
587	0.256
587	0.255
588	0.254
588	0.253
589	0.252
589	0.252
590	0.252
590	0.252
590	0.252
591	0.252
591	0.252
592	0.251
592	0.251
593	0.25
593	0.25
594	0.249
594	0.248
594	0.248
595	0.247
595	0.247
596	0.246
596	0.246
597	0.247
597	0.247
598	0.246
598	0.246
598	0.246
599	0.245
599	0.245
600	0.244
600	0.243
601	0.243
601	0.242
602	0.241
602	0.241
602	0.24
603	0.24
603	0.24
604	0.24
604	0.24
605	0.24
605	0.24
606	0.24
606	0.239
606	0.238
607	0.238
607	0.238
608	0.237
608	0.236
609	0.235
609	0.235
610	0.234
610	0.234
610	0.234
611	0.234
611	0.234
612	0.233
612	0.234
613	0.234
613	0.233
614	0.233
614	0.233
614	0.233
615	0.233
615	0.232
616	0.232
616	0.232
617	0.232
617	0.231
618	0.231
618	0.231
618	0.23
619	0.23
619	0.23
620	0.23
620	0.23
621	0.23
621	0.229
622	0.229
622	0.228
622	0.228
623	0.227
623	0.227
624	0.227
624	0.226
625	0.225
625	0.225
626	0.225
626	0.225
626	0.225
627	0.224
627	0.224
628	0.224
628	0.223
629	0.223
629	0.223
630	0.222
630	0.222
630	0.222
631	0.222
631	0.221
632	0.221
632	0.221
633	0.221
633	0.221
634	0.222
634	0.222
634	0.222
635	0.222
635	0.222
636	0.221
636	0.221
637	0.221
637	0.221
638	0.22
638	0.22
638	0.219
639	0.219
639	0.218
640	0.218
640	0.218
641	0.218
641	0.218
642	0.217
642	0.217
642	0.218
643	0.217
643	0.217
644	0.217
644	0.217
645	0.217
645	0.217
646	0.217
646	0.217
646	0.217
647	0.217
647	0.216
648	0.216
648	0.216
649	0.216
649	0.216
650	0.216
650	0.216
650	0.216
651	0.216
651	0.216
652	0.215
652	0.215
653	0.216
653	0.217
653	0.224
654	0.175
654	0.139
655	0.14
655	0.141
656	0.141
656	0.141
657	0.142
657	0.142
657	0.142
658	0.14
658	0.128
659	0.163
659	0.211
660	0.215
660	0.215
661	0.214
661	0.214
661	0.214
662	0.213
662	0.213
663	0.213
663	0.212
664	0.212
664	0.212
665	0.212
665	0.212
665	0.212
666	0.212
666	0.212
667	0.212
667	0.212
668	0.212
668	0.212
669	0.212
669	0.213
669	0.213
670	0.213
670	0.213
671	0.213
671	0.213
672	0.212
672	0.212
672	0.212
673	0.212
673	0.212
674	0.212
674	0.211
675	0.211
675	0.211
676	0.212
676	0.212
676	0.212
677	0.212
677	0.212
678	0.212
678	0.211
679	0.211
679	0.211
680	0.211
680	0.211
680	0.211
681	0.211
681	0.211
682	0.212
682	0.212
683	0.213
683	0.214
684	0.215
684	0.215
684	0.215
685	0.215
685	0.216
686	0.216
686	0.215
687	0.215
687	0.215
687	0.215
688	0.214
688	0.214
689	0.214
689	0.215
690	0.215
690	0.214
691	0.214
691	0.215
691	0.215
692	0.215
692	0.215
693	0.216
693	0.216
694	0.216
694	0.216
695	0.217
695	0.218
695	0.218
696	0.218
696	0.218
697	0.217
697	0.217
698	0.217
698	0.216
698	0.216
699	0.216
699	0.216
700	0.215
700	0.216
701	0.216
701	0.216
702	0.216
702	0.216
702	0.216
703	0.216
703	0.216
704	0.216
704	0.216
705	0.216
705	0.215
705	0.215
706	0.215
706	0.215
707	0.215
707	0.215
708	0.215
708	0.215
709	0.215
709	0.215
709	0.215
710	0.214
710	0.215
711	0.215
711	0.215
712	0.215
712	0.215
713	0.215
713	0.216
713	0.216
714	0.216
714	0.216
715	0.216
715	0.216
716	0.216
716	0.216
716	0.215
717	0.215
717	0.215
718	0.214
718	0.214
719	0.215
719	0.215
720	0.216
720	0.217
720	0.217
721	0.218
721	0.218
722	0.219
722	0.22
723	0.22
723	0.22
723	0.221
724	0.22
724	0.22
725	0.219
725	0.219
726	0.218
726	0.217
727	0.217
727	0.216
727	0.216
728	0.215
728	0.215
729	0.215
729	0.215
730	0.215
730	0.215
730	0.216
731	0.216
731	0.216
732	0.216
732	0.215
733	0.215
733	0.215
734	0.215
734	0.215
734	0.215
735	0.215
735	0.215
736	0.215
736	0.215
737	0.216
737	0.216
737	0.217
738	0.216
738	0.216
739	0.215
739	0.215
740	0.215
740	0.214
741	0.214
741	0.214
741	0.213
742	0.213
742	0.213
743	0.214
743	0.214
744	0.215
744	0.215
744	0.216
745	0.216
745	0.217
746	0.217
746	0.218
747	0.218
747	0.219
748	0.219
748	0.219
748	0.219
749	0.219
749	0.219
750	0.219
750	0.218
751	0.218
751	0.218
751	0.217
752	0.217
752	0.216
753	0.216
753	0.216
754	0.216
754	0.216
754	0.216
755	0.216
755	0.216
756	0.216
756	0.215
757	0.214
757	0.214
758	0.213
758	0.213
758	0.213
759	0.213
759	0.213
760	0.212
760	0.212
761	0.213
761	0.214
761	0.215
762	0.216
762	0.216
763	0.217
763	0.217
764	0.217
764	0.217
764	0.217
765	0.216
765	0.216
766	0.216
766	0.215
767	0.215
767	0.214
768	0.213
768	0.212
768	0.212
769	0.212
769	0.212
770	0.212
770	0.213
771	0.213
771	0.213
771	0.214
772	0.214
772	0.215
773	0.216
773	0.216
774	0.216
774	0.217
775	0.217
775	0.217
775	0.218
776	0.218
776	0.218
777	0.218
777	0.218
778	0.217
778	0.217
778	0.217
779	0.217
779	0.217
780	0.216
780	0.216
781	0.215
781	0.215
781	0.215
782	0.215
782	0.215
783	0.215
783	0.216
784	0.216
784	0.216
784	0.216
785	0.217
785	0.217
786	0.217
786	0.218
787	0.218
787	0.218
788	0.218
788	0.218
788	0.218
789	0.218
789	0.218
790	0.218
790	0.218
791	0.218
791	0.218
791	0.218
792	0.218
792	0.218
793	0.218
793	0.218
794	0.217
794	0.217
794	0.216
795	0.216
795	0.216
796	0.216
796	0.216
797	0.216
797	0.216
797	0.216
798	0.216
798	0.216
799	0.216
799	0.217
800	0.217
800	0.216
801	0.217
801	0.217
801	0.217
802	0.218
802	0.218
803	0.218
803	0.219
804	0.219
804	0.22
804	0.22
805	0.22
805	0.22
806	0.219
806	0.219
807	0.219
807	0.218
807	0.218
808	0.218
808	0.217
809	0.217
809	0.217
810	0.217
810	0.217
810	0.217
811	0.217
811	0.218
812	0.219
812	0.219
813	0.219
813	0.219
813	0.22
814	0.22
814	0.221
815	0.221
815	0.221
816	0.222
816	0.221
817	0.221
817	0.221
817	0.22
818	0.22
818	0.22
819	0.219
819	0.218
820	0.217
820	0.217
820	0.216
821	0.216
821	0.215
822	0.215
822	0.215
823	0.215
823	0.215
823	0.215
824	0.216
824	0.217
825	0.217
825	0.218
826	0.218
826	0.218
826	0.218
827	0.218
827	0.218
828	0.218
828	0.217
829	0.217
829	0.217
829	0.216
830	0.216
830	0.216
831	0.217
831	0.217
832	0.217
832	0.217
832	0.217
833	0.217
833	0.217
834	0.217
834	0.217
835	0.217
835	0.217
835	0.217
836	0.217
836	0.218
837	0.218
837	0.218
838	0.217
838	0.217
839	0.216
839	0.216
839	0.214
840	0.213
840	0.212
841	0.211
841	0.21
842	0.209
842	0.208
842	0.208
843	0.208
843	0.207
844	0.207
844	0.207
845	0.207
845	0.207
845	0.207
846	0.206
846	0.206
847	0.206
847	0.206
848	0.206
848	0.206
848	0.206
849	0.207
849	0.207
850	0.207
850	0.207
851	0.206
851	0.206
851	0.206
852	0.205
852	0.204
853	0.203
853	0.202
854	0.202
854	0.202
854	0.201
855	0.201
855	0.201
856	0.201
856	0.201
857	0.202
857	0.202
857	0.202
858	0.202
858	0.201
859	0.2
859	0.199
860	0.198
860	0.197
860	0.196
861	0.196
861	0.195
862	0.194
862	0.194
863	0.193
863	0.193
863	0.193
864	0.193
864	0.193
865	0.193
865	0.193
866	0.193
866	0.192
866	0.192
867	0.191
867	0.191
868	0.191
868	0.191
869	0.191
869	0.191
869	0.191
870	0.191
870	0.192
871	0.192
871	0.192
872	0.193
872	0.193
872	0.192
873	0.192
873	0.192
874	0.191
874	0.191
875	0.191
875	0.19
875	0.19
876	0.19
876	0.19
877	0.19
877	0.19
878	0.19
878	0.191
878	0.192
879	0.192
879	0.192
880	0.192
880	0.192
881	0.191
881	0.191
881	0.19
882	0.189
882	0.188
883	0.186
883	0.185
884	0.184
884	0.183
884	0.182
885	0.181
885	0.18
886	0.18
886	0.179
887	0.178
887	0.178
887	0.177
888	0.177
888	0.176
889	0.176
889	0.175
890	0.175
890	0.175
890	0.175
891	0.175
891	0.176
892	0.176
892	0.177
893	0.177
893	0.177
893	0.177
894	0.177
894	0.177
895	0.177
895	0.177
895	0.177
896	0.177
896	0.177
897	0.177
897	0.176
898	0.176
898	0.176
898	0.176
899	0.176
899	0.175
900	0.175
900	0.174
901	0.174
901	0.174
901	0.173
902	0.173
902	0.172
903	0.172
903	0.171
904	0.171
904	0.17
904	0.169
905	0.168
905	0.168
906	0.168
906	0.168
907	0.168
907	0.168
907	0.169
908	0.169
908	0.169
909	0.17
909	0.17
910	0.17
910	0.17
910	0.169
911	0.169
911	0.168
912	0.167
912	0.166
913	0.165
913	0.164
913	0.164
914	0.163
914	0.162
915	0.162
915	0.161
916	0.161
916	0.16
916	0.159
917	0.158
917	0.158
918	0.157
918	0.156
918	0.155
919	0.154
919	0.153
920	0.153
920	0.153
921	0.153
921	0.153
921	0.153
922	0.153
922	0.153
923	0.154
923	0.154
924	0.154
924	0.154
924	0.154
925	0.154
925	0.154
926	0.153
926	0.153
927	0.153
927	0.152
927	0.151
928	0.151
928	0.15
929	0.15
929	0.15
930	0.149
930	0.149
930	0.148
931	0.148
931	0.148
932	0.148
932	0.148
933	0.148
933	0.147
933	0.147
934	0.147
934	0.146
935	0.146
935	0.145
935	0.145
936	0.144
936	0.144
937	0.143
937	0.142
938	0.142
938	0.142
938	0.141
939	0.141
939	0.141
940	0.141
940	0.141
941	0.141
941	0.141
941	0.142
942	0.142
942	0.142
943	0.142
943	0.142
944	0.142
944	0.142
944	0.142
945	0.142
945	0.142
946	0.142
946	0.141
946	0.141
947	0.141
947	0.141
948	0.141
948	0.141
949	0.141
949	0.14
949	0.14
950	0.139
950	0.139
951	0.138
951	0.137
952	0.136
952	0.135
952	0.135
953	0.134
953	0.134
954	0.133
954	0.133
955	0.132
955	0.132
955	0.132
956	0.132
956	0.133
957	0.133
957	0.133
957	0.133
958	0.133
958	0.133
959	0.133
959	0.133
960	0.133
960	0.133
960	0.132
961	0.132
961	0.132
962	0.131
962	0.131
963	0.131
963	0.13
963	0.13
964	0.13
964	0.13
965	0.13
965	0.129
966	0.129
966	0.129
966	0.129
967	0.129
967	0.129
968	0.129
968	0.129
968	0.129
969	0.128
969	0.128
970	0.128
970	0.128
971	0.128
971	0.128
971	0.128
972	0.128
972	0.128
973	0.128
973	0.128
974	0.127
974	0.128
974	0.127
975	0.127
975	0.127
976	0.127
976	0.127
976	0.127
977	0.127
977	0.127
978	0.127
978	0.127
979	0.127
979	0.126
979	0.126
980	0.126
980	0.126
981	0.125
981	0.124
982	0.124
982	0.123
982	0.123
983	0.122
983	0.121
984	0.12
984	0.119
984	0.118
985	0.117
985	0.117
986	0.116
986	0.115
987	0.114
987	0.113
987	0.112
988	0.111
988	0.11
989	0.109
989	0.109
990	0.108
990	0.108
990	0.108
991	0.107
991	0.107
992	0.107
992	0.107
992	0.106
993	0.106
993	0.106
994	0.106
994	0.105
995	0.105
995	0.105
995	0.105
996	0.105
996	0.105
997	0.105
997	0.105
997	0.105
998	0.106
998	0.106
999	0.107
999	0.107
1000	0.108
1000	0.109
1000	0.11
1001	0.11
1001	0.11
1002	0.111
1002	0.111
1003	0.111
1003	0.111
1003	0.111
1004	0.11
1004	0.11
1005	0.109
1005	0.109
1005	0.108
1006	0.108
1006	0.108
1007	0.107
1007	0.107
1008	0.107
1008	0.107
1008	0.107
1009	0.107
1009	0.107
1010	0.107
1010	0.107
1010	0.107
1011	0.107
1011	0.107
1012	0.106
1012	0.106
1013	0.106
1013	0.105
1013	0.105
1014	0.104
1014	0.103
1015	0.103
1015	0.103
1016	0.102
1016	0.102
1016	0.101
1017	0.101
1017	0.1
1018	0.1
1018	0.099
1018	0.099
1019	0.099
1019	0.098
1020	0.098
1020	0.097
1021	0.097
1021	0.097
1021	0.097
1022	0.096
1022	0.096
1023	0.096
1023	0.096
1023	0.096
1024	0.095
1024	0.095
1025	0.095
1025	0.095
1026	0.095
1026	0.094
1026	0.094
1027	0.094
1027	0.094
1028	0.094
1028	0.094
1028	0.093
1029	0.093
1029	0.093
1030	0.093
1030	0.093
1031	0.093
1031	0.093
1031	0.092
1032	0.092
1032	0.092
1033	0.092
1033	0.092
1033	0.092
1034	0.092
1034	0.091
1035	0.091
1035	0.091
1036	0.09
1036	0.09
1036	0.09
1037	0.09
1037	0.09
1038	0.09
1038	0.09
1039	0.09
1039	0.09
1039	0.09
1040	0.09
1040	0.09
1041	0.09
1041	0.089
1041	0.089
1042	0.089
1042	0.088
1043	0.088
1043	0.087
1044	0.087
1044	0.087
1044	0.087
1045	0.088
1045	0.088
1046	0.088
1046	0.089
1046	0.089
1047	0.09
1047	0.09
1048	0.091
1048	0.092
1049	0.092
1049	0.092
1049	0.093
1050	0.092
1050	0.092
1051	0.091
1051	0.091
1051	0.09
1052	0.089
1052	0.089
1053	0.087
1053	0.086
1053	0.085
1054	0.084
1054	0.084
1055	0.083
1055	0.083
1056	0.082
1056	0.082
1056	0.082
1057	0.081
1057	0.081
1058	0.08
1058	0.079
1058	0.079
1059	0.078
1059	0.077
1060	0.077
1060	0.076
1061	0.076
1061	0.075
1061	0.075
1062	0.075
1062	0.075
1063	0.075
1063	0.075
1063	0.075
1064	0.075
1064	0.075
1065	0.075
1065	0.075
1066	0.075
1066	0.075
1066	0.075
1067	0.074
1067	0.075
1068	0.074
1068	0.074
1068	0.073
1069	0.073
1069	0.072
1070	0.072
1070	0.071
1071	0.07
1071	0.07
1071	0.069
1072	0.068
1072	0.068
1073	0.067
1073	0.067
1073	0.067
1074	0.067
1074	0.067
1075	0.067
1075	0.067
1076	0.068
1076	0.068
1076	0.069
1077	0.069
1077	0.069
1078	0.069
1078	0.069
1078	0.068
1079	0.068
1079	0.068
1080	0.068
1080	0.068
1080	0.067
1081	0.067
1081	0.067
1082	0.067
1082	0.068
1083	0.067
1083	0.067
1083	0.066
1084	0.066
1084	0.066
1085	0.065
1085	0.065
1085	0.065
1086	0.065
1086	0.064
1087	0.064
1087	0.063
1088	0.063
1088	0.063
1088	0.063
1089	0.063
1089	0.062
1090	0.061
1090	0.06
1090	0.06
1091	0.059
1091	0.059
1092	0.059
1092	0.059
1092	0.059
1093	0.058
1093	0.058
1094	0.059
1094	0.058
1095	0.058
1095	0.058
1095	0.058
1096	0.058
1096	0.057
1097	0.057
1097	0.056
1097	0.055
1098	0.055
1098	0.053
1099	0.052
1099	0.051
1100	0.049
1100	0.048
1100	0.047
1101	0.045
1101	0.044
1102	0.043
1102	0.042
1102	0.04
1103	0.04
1103	0.039
1104	0.04
1104	0.04
1104	0.04
1105	0.04
1105	0.039
1106	0.038
1106	0.037
1107	0.035
1107	0.034
1107	0.033
1108	0.032
1108	0.031
1109	0.028
1109	0.028
1109	0.025
1110	0.024
1110	0.021
1111	0.02
1111	0.02
