Data from reversibility-20sec_Absorbance__3099__000000000003099.txt Node

Date: Wed Dec 06 05:26:05 CET 2023
User: Marek
Spectrometer: MAYP115816
Trigger mode: 0
Integration Time (sec): 2.000000E-1
Scans to average: 10
Electric dark correction enabled: true
Nonlinearity correction enabled: true
Boxcar width: 5
XAxis mode: Wavelengths
Number of Pixels in Spectrum: 2068
>>>>>Begin Spectral Data<<<<<
199	-0.146
199	-0.127
200	-0.055
200	-0.001
201	0.026
201	0.038
202	0.051
202	0.058
203	0.065
203	0.069
204	0.08
204	0.09
205	0.102
205	0.104
205	0.101
206	0.099
206	0.1
207	0.102
207	0.102
208	0.1
208	0.1
209	0.104
209	0.103
210	0.105
210	0.105
211	0.107
211	0.111
212	0.109
212	0.113
213	0.116
213	0.118
213	0.116
214	0.119
214	0.123
215	0.123
215	0.126
216	0.129
216	0.124
217	0.129
217	0.127
218	0.125
218	0.13
219	0.138
219	0.141
220	0.144
220	0.145
221	0.144
221	0.146
221	0.153
222	0.158
222	0.163
223	0.172
223	0.175
224	0.181
224	0.188
225	0.195
225	0.209
226	0.218
226	0.226
227	0.238
227	0.249
228	0.262
228	0.274
229	0.29
229	0.311
229	0.332
230	0.357
230	0.383
231	0.417
231	0.457
232	0.495
232	0.54
233	0.587
233	0.636
234	0.69
234	0.743
235	0.797
235	0.853
236	0.909
236	0.96
236	1.014
237	1.069
237	1.117
238	1.168
238	1.218
239	1.266
239	1.312
240	1.353
240	1.392
241	1.426
241	1.464
242	1.497
242	1.529
243	1.561
243	1.588
243	1.614
244	1.638
244	1.659
245	1.683
245	1.708
246	1.731
246	1.752
247	1.766
247	1.783
248	1.801
248	1.813
249	1.825
249	1.834
250	1.846
250	1.854
250	1.858
251	1.865
251	1.869
252	1.877
252	1.882
253	1.885
253	1.887
254	1.887
254	1.889
255	1.889
255	1.891
256	1.892
256	1.891
257	1.89
257	1.888
258	1.887
258	1.887
258	1.889
259	1.893
259	1.894
260	1.893
260	1.896
261	1.896
261	1.901
262	1.905
262	1.909
263	1.913
263	1.915
264	1.916
264	1.917
265	1.918
265	1.921
265	1.922
266	1.925
266	1.926
267	1.925
267	1.926
268	1.925
268	1.927
269	1.929
269	1.929
270	1.93
270	1.929
271	1.925
271	1.924
272	1.92
272	1.919
272	1.915
273	1.91
273	1.905
274	1.898
274	1.893
275	1.886
275	1.88
276	1.874
276	1.865
277	1.858
277	1.848
278	1.837
278	1.825
278	1.81
279	1.794
279	1.772
280	1.747
280	1.717
281	1.682
281	1.643
282	1.601
282	1.558
283	1.516
283	1.475
284	1.435
284	1.396
285	1.36
285	1.326
285	1.296
286	1.269
286	1.246
287	1.225
287	1.207
288	1.191
288	1.178
289	1.167
289	1.156
290	1.148
290	1.14
291	1.134
291	1.128
292	1.122
292	1.117
292	1.113
293	1.109
293	1.104
294	1.1
294	1.096
295	1.093
295	1.09
296	1.085
296	1.082
297	1.079
297	1.076
298	1.073
298	1.069
298	1.066
299	1.064
299	1.061
300	1.057
300	1.054
301	1.052
301	1.049
302	1.045
302	1.043
303	1.04
303	1.037
304	1.034
304	1.031
305	1.029
305	1.026
305	1.024
306	1.021
306	1.018
307	1.016
307	1.013
308	1.01
308	1.008
309	1.005
309	1.002
310	0.998
310	0.995
311	0.992
311	0.988
311	0.984
312	0.98
312	0.976
313	0.973
313	0.968
314	0.964
314	0.96
315	0.956
315	0.951
316	0.947
316	0.942
317	0.938
317	0.932
318	0.928
318	0.922
318	0.917
319	0.911
319	0.906
320	0.9
320	0.894
321	0.888
321	0.881
322	0.875
322	0.869
323	0.862
323	0.856
324	0.849
324	0.843
324	0.836
325	0.829
325	0.822
326	0.815
326	0.808
327	0.801
327	0.795
328	0.788
328	0.781
329	0.773
329	0.766
330	0.759
330	0.752
330	0.745
331	0.738
331	0.731
332	0.724
332	0.717
333	0.71
333	0.703
334	0.696
334	0.689
335	0.682
335	0.675
336	0.669
336	0.662
336	0.655
337	0.649
337	0.643
338	0.636
338	0.63
339	0.624
339	0.618
340	0.612
340	0.606
341	0.601
341	0.595
342	0.589
342	0.584
342	0.578
343	0.573
343	0.568
344	0.563
344	0.558
345	0.553
345	0.549
346	0.544
346	0.54
347	0.535
347	0.531
348	0.527
348	0.523
348	0.519
349	0.515
349	0.511
350	0.508
350	0.504
351	0.501
351	0.498
352	0.494
352	0.491
353	0.488
353	0.485
354	0.482
354	0.479
354	0.476
355	0.473
355	0.47
356	0.467
356	0.464
357	0.461
357	0.458
358	0.455
358	0.452
359	0.45
359	0.447
360	0.445
360	0.443
360	0.441
361	0.439
361	0.437
362	0.435
362	0.433
363	0.431
363	0.429
364	0.427
364	0.426
365	0.424
365	0.422
366	0.42
366	0.418
366	0.416
367	0.414
367	0.413
368	0.411
368	0.409
369	0.407
369	0.405
370	0.404
370	0.402
371	0.401
371	0.399
372	0.398
372	0.397
372	0.395
373	0.394
373	0.393
374	0.392
374	0.391
375	0.389
375	0.388
376	0.387
376	0.386
377	0.384
377	0.383
378	0.382
378	0.38
378	0.38
379	0.379
379	0.378
380	0.377
380	0.376
381	0.375
381	0.374
382	0.373
382	0.373
383	0.372
383	0.371
383	0.37
384	0.369
384	0.369
385	0.368
385	0.368
386	0.367
386	0.366
387	0.366
387	0.365
388	0.364
388	0.363
389	0.363
389	0.362
389	0.361
390	0.361
390	0.36
391	0.359
391	0.359
392	0.358
392	0.358
393	0.357
393	0.357
394	0.356
394	0.356
394	0.355
395	0.355
395	0.355
396	0.354
396	0.353
397	0.353
397	0.352
398	0.352
398	0.351
399	0.351
399	0.35
400	0.35
400	0.349
400	0.349
401	0.348
401	0.348
402	0.347
402	0.347
403	0.346
403	0.346
404	0.345
404	0.345
405	0.344
405	0.344
405	0.343
406	0.343
406	0.342
407	0.342
407	0.341
408	0.341
408	0.341
409	0.34
409	0.34
410	0.34
410	0.339
411	0.339
411	0.338
411	0.338
412	0.338
412	0.337
413	0.337
413	0.336
414	0.336
414	0.336
415	0.335
415	0.335
416	0.334
416	0.334
416	0.333
417	0.333
417	0.333
418	0.332
418	0.332
419	0.332
419	0.331
420	0.331
420	0.33
421	0.33
421	0.329
421	0.329
422	0.329
422	0.328
423	0.328
423	0.327
424	0.327
424	0.327
425	0.327
425	0.326
426	0.326
426	0.326
427	0.325
427	0.325
427	0.325
428	0.325
428	0.324
429	0.324
429	0.324
430	0.323
430	0.323
431	0.323
431	0.323
432	0.322
432	0.322
432	0.322
433	0.322
433	0.321
434	0.321
434	0.321
435	0.321
435	0.321
436	0.321
436	0.321
437	0.321
437	0.32
437	0.32
438	0.32
438	0.32
439	0.32
439	0.32
440	0.32
440	0.319
441	0.319
441	0.319
442	0.319
442	0.319
442	0.318
443	0.318
443	0.318
444	0.318
444	0.318
445	0.317
445	0.317
446	0.317
446	0.317
447	0.317
447	0.317
447	0.317
448	0.317
448	0.317
449	0.317
449	0.317
450	0.317
450	0.316
451	0.316
451	0.316
452	0.316
452	0.316
452	0.317
453	0.317
453	0.317
454	0.317
454	0.316
455	0.316
455	0.316
456	0.316
456	0.316
457	0.316
457	0.316
458	0.316
458	0.316
458	0.316
459	0.316
459	0.316
460	0.317
460	0.317
461	0.317
461	0.317
462	0.317
462	0.318
463	0.318
463	0.318
463	0.318
464	0.318
464	0.318
465	0.317
465	0.318
466	0.318
466	0.318
467	0.318
467	0.318
467	0.319
468	0.319
468	0.319
469	0.32
469	0.32
470	0.321
470	0.321
471	0.322
471	0.322
472	0.322
472	0.323
472	0.323
473	0.323
473	0.324
474	0.324
474	0.324
475	0.325
475	0.325
476	0.326
476	0.327
477	0.327
477	0.328
477	0.328
478	0.329
478	0.329
479	0.33
479	0.331
480	0.331
480	0.332
481	0.333
481	0.334
482	0.334
482	0.335
482	0.336
483	0.337
483	0.338
484	0.339
484	0.34
485	0.341
485	0.341
486	0.342
486	0.343
487	0.344
487	0.344
487	0.345
488	0.346
488	0.347
489	0.348
489	0.35
490	0.351
490	0.353
491	0.354
491	0.356
492	0.357
492	0.359
492	0.36
493	0.361
493	0.363
494	0.364
494	0.366
495	0.367
495	0.368
496	0.37
496	0.371
496	0.373
497	0.374
497	0.375
498	0.377
498	0.378
499	0.38
499	0.381
500	0.383
500	0.385
501	0.386
501	0.387
501	0.389
502	0.39
502	0.391
503	0.393
503	0.394
504	0.395
504	0.397
505	0.398
505	0.4
506	0.401
506	0.402
506	0.404
507	0.405
507	0.407
508	0.408
508	0.409
509	0.41
509	0.412
510	0.413
510	0.414
511	0.416
511	0.417
511	0.418
512	0.42
512	0.421
513	0.422
513	0.422
514	0.423
514	0.424
515	0.425
515	0.426
515	0.426
516	0.427
516	0.428
517	0.428
517	0.429
518	0.429
518	0.43
519	0.43
519	0.431
520	0.431
520	0.431
520	0.432
521	0.432
521	0.432
522	0.432
522	0.432
523	0.432
523	0.431
524	0.431
524	0.431
524	0.431
525	0.43
525	0.429
526	0.429
526	0.428
527	0.427
527	0.426
528	0.425
528	0.425
529	0.424
529	0.423
529	0.421
530	0.42
530	0.419
531	0.418
531	0.417
532	0.415
532	0.414
533	0.412
533	0.411
533	0.409
534	0.408
534	0.406
535	0.404
535	0.403
536	0.401
536	0.399
537	0.397
537	0.395
538	0.393
538	0.391
538	0.389
539	0.387
539	0.385
540	0.383
540	0.381
541	0.379
541	0.377
542	0.375
542	0.373
542	0.371
543	0.369
543	0.367
544	0.365
544	0.362
545	0.36
545	0.358
546	0.355
546	0.353
547	0.35
547	0.348
547	0.346
548	0.343
548	0.341
549	0.338
549	0.336
550	0.334
550	0.332
551	0.329
551	0.326
551	0.324
552	0.322
552	0.32
553	0.317
553	0.315
554	0.313
554	0.31
555	0.308
555	0.305
556	0.303
556	0.301
556	0.299
557	0.297
557	0.295
558	0.293
558	0.291
559	0.289
559	0.287
560	0.285
560	0.283
560	0.281
561	0.279
561	0.277
562	0.274
562	0.272
563	0.27
563	0.267
564	0.265
564	0.263
564	0.261
565	0.259
565	0.257
566	0.255
566	0.253
567	0.252
567	0.25
568	0.249
568	0.247
568	0.245
569	0.243
569	0.241
570	0.239
570	0.237
571	0.236
571	0.234
572	0.233
572	0.231
573	0.229
573	0.228
573	0.226
574	0.225
574	0.224
575	0.223
575	0.221
576	0.22
576	0.218
577	0.217
577	0.215
577	0.214
578	0.212
578	0.211
579	0.21
579	0.21
580	0.208
580	0.206
581	0.204
581	0.203
581	0.202
582	0.202
582	0.201
583	0.2
583	0.198
584	0.197
584	0.194
585	0.193
585	0.192
585	0.191
586	0.19
586	0.189
587	0.187
587	0.186
588	0.185
588	0.184
589	0.183
589	0.183
590	0.182
590	0.181
590	0.181
591	0.18
591	0.179
592	0.177
592	0.176
593	0.175
593	0.174
594	0.173
594	0.171
594	0.17
595	0.169
595	0.168
596	0.167
596	0.166
597	0.167
597	0.166
598	0.166
598	0.165
598	0.165
599	0.165
599	0.164
600	0.163
600	0.163
601	0.162
601	0.162
602	0.16
602	0.159
602	0.159
603	0.158
603	0.158
604	0.157
604	0.156
605	0.156
605	0.155
606	0.154
606	0.153
606	0.152
607	0.152
607	0.151
608	0.15
608	0.149
609	0.148
609	0.148
610	0.147
610	0.146
610	0.146
611	0.145
611	0.145
612	0.145
612	0.145
613	0.144
613	0.144
614	0.144
614	0.143
614	0.143
615	0.142
615	0.142
616	0.141
616	0.141
617	0.141
617	0.14
618	0.14
618	0.139
618	0.139
619	0.139
619	0.139
620	0.139
620	0.138
621	0.137
621	0.137
622	0.136
622	0.136
622	0.135
623	0.134
623	0.134
624	0.133
624	0.132
625	0.131
625	0.131
626	0.131
626	0.13
626	0.13
627	0.13
627	0.129
628	0.129
628	0.129
629	0.128
629	0.128
630	0.128
630	0.127
630	0.127
631	0.127
631	0.126
632	0.126
632	0.126
633	0.125
633	0.125
634	0.125
634	0.126
634	0.126
635	0.125
635	0.125
636	0.125
636	0.124
637	0.124
637	0.123
638	0.123
638	0.122
638	0.121
639	0.121
639	0.12
640	0.12
640	0.119
641	0.119
641	0.119
642	0.118
642	0.118
642	0.118
643	0.118
643	0.118
644	0.118
644	0.118
645	0.118
645	0.118
646	0.118
646	0.118
646	0.118
647	0.118
647	0.117
648	0.117
648	0.117
649	0.116
649	0.116
650	0.116
650	0.116
650	0.116
651	0.116
651	0.115
652	0.115
652	0.115
653	0.115
653	0.116
653	0.122
654	0.098
654	0.079
655	0.077
655	0.077
656	0.077
656	0.078
657	0.078
657	0.078
657	0.078
658	0.077
658	0.069
659	0.086
659	0.108
660	0.113
660	0.113
661	0.113
661	0.112
661	0.111
662	0.111
662	0.11
663	0.109
663	0.109
664	0.108
664	0.108
665	0.107
665	0.107
665	0.107
666	0.107
666	0.107
667	0.107
667	0.107
668	0.107
668	0.108
669	0.108
669	0.108
669	0.109
670	0.109
670	0.109
671	0.108
671	0.108
672	0.108
672	0.107
672	0.107
673	0.107
673	0.106
674	0.106
674	0.105
675	0.105
675	0.105
676	0.105
676	0.105
676	0.106
677	0.106
677	0.106
678	0.105
678	0.105
679	0.104
679	0.104
680	0.104
680	0.104
680	0.103
681	0.103
681	0.103
682	0.103
682	0.103
683	0.103
683	0.104
684	0.104
684	0.103
684	0.103
685	0.103
685	0.103
686	0.103
686	0.103
687	0.103
687	0.102
687	0.102
688	0.102
688	0.103
689	0.103
689	0.104
690	0.103
690	0.103
691	0.103
691	0.103
691	0.103
692	0.102
692	0.102
693	0.102
693	0.102
694	0.101
694	0.101
695	0.101
695	0.102
695	0.102
696	0.102
696	0.101
697	0.101
697	0.101
698	0.101
698	0.101
698	0.101
699	0.101
699	0.101
700	0.1
700	0.1
701	0.1
701	0.099
702	0.099
702	0.098
702	0.098
703	0.097
703	0.097
704	0.096
704	0.096
705	0.096
705	0.095
705	0.095
706	0.095
706	0.096
707	0.096
707	0.096
708	0.096
708	0.096
709	0.096
709	0.095
709	0.094
710	0.094
710	0.094
711	0.094
711	0.093
712	0.093
712	0.093
713	0.092
713	0.092
713	0.092
714	0.092
714	0.092
715	0.092
715	0.091
716	0.091
716	0.091
716	0.09
717	0.09
717	0.089
718	0.089
718	0.089
719	0.089
719	0.089
720	0.089
720	0.089
720	0.09
721	0.09
721	0.09
722	0.091
722	0.091
723	0.091
723	0.091
723	0.09
724	0.09
724	0.089
725	0.088
725	0.087
726	0.087
726	0.086
727	0.085
727	0.085
727	0.085
728	0.085
728	0.085
729	0.085
729	0.085
730	0.086
730	0.086
730	0.087
731	0.087
731	0.088
732	0.088
732	0.088
733	0.088
733	0.088
734	0.088
734	0.087
734	0.087
735	0.087
735	0.086
736	0.085
736	0.085
737	0.084
737	0.084
737	0.084
738	0.083
738	0.082
739	0.082
739	0.081
740	0.081
740	0.081
741	0.081
741	0.081
741	0.081
742	0.081
742	0.081
743	0.082
743	0.082
744	0.082
744	0.082
744	0.082
745	0.082
745	0.082
746	0.082
746	0.082
747	0.082
747	0.082
748	0.082
748	0.082
748	0.082
749	0.082
749	0.082
750	0.082
750	0.082
751	0.082
751	0.082
751	0.082
752	0.081
752	0.081
753	0.08
753	0.08
754	0.079
754	0.079
754	0.078
755	0.078
755	0.078
756	0.077
756	0.076
757	0.075
757	0.075
758	0.075
758	0.075
758	0.075
759	0.075
759	0.075
760	0.075
760	0.074
761	0.074
761	0.075
761	0.075
762	0.075
762	0.075
763	0.075
763	0.075
764	0.075
764	0.075
764	0.074
765	0.074
765	0.074
766	0.074
766	0.074
767	0.073
767	0.072
768	0.072
768	0.072
768	0.072
769	0.072
769	0.072
770	0.072
770	0.072
771	0.072
771	0.072
771	0.072
772	0.072
772	0.072
773	0.072
773	0.072
774	0.072
774	0.072
775	0.072
775	0.072
775	0.072
776	0.072
776	0.072
777	0.072
777	0.072
778	0.072
778	0.071
778	0.071
779	0.07
779	0.07
780	0.069
780	0.068
781	0.068
781	0.068
781	0.068
782	0.068
782	0.068
783	0.068
783	0.069
784	0.069
784	0.069
784	0.069
785	0.069
785	0.069
786	0.069
786	0.069
787	0.069
787	0.069
788	0.068
788	0.068
788	0.067
789	0.067
789	0.066
790	0.066
790	0.066
791	0.065
791	0.064
791	0.064
792	0.064
792	0.064
793	0.063
793	0.063
794	0.062
794	0.062
794	0.062
795	0.062
795	0.062
796	0.063
796	0.063
797	0.063
797	0.063
797	0.064
798	0.064
798	0.065
799	0.065
799	0.065
800	0.065
800	0.064
801	0.064
801	0.063
801	0.063
802	0.063
802	0.063
803	0.063
803	0.062
804	0.062
804	0.063
804	0.063
805	0.063
805	0.063
806	0.063
806	0.063
807	0.063
807	0.063
807	0.063
808	0.063
808	0.063
809	0.063
809	0.063
810	0.063
810	0.064
810	0.064
811	0.064
811	0.064
812	0.065
812	0.065
813	0.065
813	0.065
813	0.065
814	0.066
814	0.066
815	0.066
815	0.065
816	0.065
816	0.064
817	0.064
817	0.063
817	0.063
818	0.062
818	0.062
819	0.061
819	0.061
820	0.06
820	0.06
820	0.06
821	0.06
821	0.06
822	0.06
822	0.06
823	0.06
823	0.06
823	0.061
824	0.062
824	0.063
825	0.064
825	0.065
826	0.066
826	0.066
826	0.066
827	0.066
827	0.066
828	0.066
828	0.065
829	0.065
829	0.065
829	0.065
830	0.065
830	0.065
831	0.066
831	0.066
832	0.066
832	0.066
832	0.066
833	0.066
833	0.066
834	0.065
834	0.064
835	0.064
835	0.063
835	0.062
836	0.061
836	0.061
837	0.061
837	0.06
838	0.06
838	0.059
839	0.059
839	0.059
839	0.058
840	0.057
840	0.057
841	0.056
841	0.055
842	0.055
842	0.054
842	0.054
843	0.054
843	0.054
844	0.055
844	0.055
845	0.055
845	0.056
845	0.057
846	0.057
846	0.057
847	0.058
847	0.058
848	0.058
848	0.057
848	0.057
849	0.056
849	0.056
850	0.056
850	0.055
851	0.055
851	0.054
851	0.054
852	0.053
852	0.053
853	0.053
853	0.053
854	0.053
854	0.054
854	0.055
855	0.055
855	0.056
856	0.057
856	0.058
857	0.059
857	0.06
857	0.06
858	0.06
858	0.06
859	0.059
859	0.059
860	0.058
860	0.057
860	0.056
861	0.055
861	0.054
862	0.053
862	0.052
863	0.052
863	0.052
863	0.051
864	0.051
864	0.051
865	0.051
865	0.051
866	0.051
866	0.051
866	0.051
867	0.052
867	0.052
868	0.052
868	0.052
869	0.051
869	0.051
869	0.05
870	0.049
870	0.049
871	0.049
871	0.048
872	0.048
872	0.048
872	0.048
873	0.048
873	0.047
874	0.047
874	0.047
875	0.047
875	0.047
875	0.047
876	0.048
876	0.048
877	0.048
877	0.048
878	0.048
878	0.049
878	0.049
879	0.05
879	0.05
880	0.051
880	0.051
881	0.051
881	0.051
881	0.052
882	0.052
882	0.052
883	0.052
883	0.052
884	0.052
884	0.052
884	0.052
885	0.052
885	0.052
886	0.052
886	0.051
887	0.051
887	0.05
887	0.049
888	0.049
888	0.048
889	0.048
889	0.048
890	0.047
890	0.047
890	0.047
891	0.047
891	0.047
892	0.047
892	0.047
893	0.047
893	0.048
893	0.048
894	0.048
894	0.047
895	0.047
895	0.047
895	0.047
896	0.047
896	0.047
897	0.047
897	0.046
898	0.046
898	0.046
898	0.045
899	0.045
899	0.045
900	0.045
900	0.045
901	0.045
901	0.045
901	0.045
902	0.045
902	0.045
903	0.045
903	0.045
904	0.044
904	0.045
904	0.044
905	0.045
905	0.045
906	0.045
906	0.046
907	0.047
907	0.047
907	0.048
908	0.049
908	0.049
909	0.05
909	0.051
910	0.051
910	0.051
910	0.051
911	0.051
911	0.051
912	0.051
912	0.052
913	0.051
913	0.051
913	0.051
914	0.051
914	0.05
915	0.05
915	0.05
916	0.05
916	0.049
916	0.049
917	0.049
917	0.048
918	0.048
918	0.048
918	0.048
919	0.047
919	0.047
920	0.047
920	0.047
921	0.046
921	0.046
921	0.046
922	0.046
922	0.046
923	0.046
923	0.046
924	0.047
924	0.047
924	0.047
925	0.047
925	0.047
926	0.047
926	0.047
927	0.047
927	0.047
927	0.047
928	0.047
928	0.047
929	0.047
929	0.047
930	0.047
930	0.048
930	0.048
931	0.048
931	0.049
932	0.049
932	0.049
933	0.05
933	0.05
933	0.05
934	0.05
934	0.049
935	0.049
935	0.049
935	0.049
936	0.049
936	0.048
937	0.048
937	0.048
938	0.047
938	0.047
938	0.046
939	0.046
939	0.045
940	0.045
940	0.044
941	0.044
941	0.044
941	0.044
942	0.043
942	0.043
943	0.043
943	0.044
944	0.044
944	0.044
944	0.045
945	0.045
945	0.046
946	0.046
946	0.047
946	0.047
947	0.048
947	0.048
948	0.049
948	0.049
949	0.049
949	0.049
949	0.049
950	0.049
950	0.049
951	0.049
951	0.048
952	0.048
952	0.047
952	0.047
953	0.046
953	0.045
954	0.045
954	0.044
955	0.043
955	0.042
955	0.042
956	0.042
956	0.042
957	0.042
957	0.042
957	0.042
958	0.042
958	0.043
959	0.043
959	0.043
960	0.043
960	0.044
960	0.044
961	0.044
961	0.043
962	0.043
962	0.043
963	0.043
963	0.042
963	0.042
964	0.042
964	0.043
965	0.043
965	0.043
966	0.044
966	0.045
966	0.045
967	0.046
967	0.047
968	0.047
968	0.048
968	0.048
969	0.048
969	0.048
970	0.048
970	0.048
971	0.047
971	0.047
971	0.047
972	0.046
972	0.046
973	0.046
973	0.045
974	0.045
974	0.046
974	0.046
975	0.046
975	0.046
976	0.046
976	0.047
976	0.047
977	0.047
977	0.047
978	0.047
978	0.047
979	0.047
979	0.047
979	0.048
980	0.048
980	0.048
981	0.047
981	0.047
982	0.047
982	0.047
982	0.048
983	0.048
983	0.047
984	0.047
984	0.047
984	0.047
985	0.047
985	0.047
986	0.047
986	0.046
987	0.046
987	0.046
987	0.046
988	0.045
988	0.045
989	0.044
989	0.044
990	0.044
990	0.043
990	0.043
991	0.042
991	0.042
992	0.041
992	0.04
992	0.04
993	0.039
993	0.038
994	0.038
994	0.038
995	0.037
995	0.037
995	0.038
996	0.038
996	0.038
997	0.039
997	0.04
997	0.041
998	0.041
998	0.042
999	0.043
999	0.044
1000	0.045
1000	0.045
1000	0.046
1001	0.046
1001	0.046
1002	0.045
1002	0.045
1003	0.044
1003	0.044
1003	0.042
1004	0.042
1004	0.04
1005	0.039
1005	0.038
1005	0.037
1006	0.037
1006	0.036
1007	0.036
1007	0.035
1008	0.035
1008	0.035
1008	0.036
1009	0.036
1009	0.036
1010	0.037
1010	0.037
1010	0.037
1011	0.038
1011	0.038
1012	0.038
1012	0.038
1013	0.038
1013	0.038
1013	0.038
1014	0.037
1014	0.037
1015	0.037
1015	0.037
1016	0.037
1016	0.037
1016	0.036
1017	0.036
1017	0.035
1018	0.035
1018	0.035
1018	0.035
1019	0.034
1019	0.034
1020	0.034
1020	0.033
1021	0.034
1021	0.034
1021	0.034
1022	0.034
1022	0.034
1023	0.034
1023	0.034
1023	0.035
1024	0.035
1024	0.035
1025	0.035
1025	0.035
1026	0.035
1026	0.035
1026	0.035
1027	0.035
1027	0.035
1028	0.035
1028	0.035
1028	0.035
1029	0.035
1029	0.036
1030	0.036
1030	0.036
1031	0.037
1031	0.037
1031	0.037
1032	0.037
1032	0.038
1033	0.038
1033	0.038
1033	0.038
1034	0.038
1034	0.038
1035	0.038
1035	0.037
1036	0.037
1036	0.037
1036	0.037
1037	0.036
1037	0.036
1038	0.035
1038	0.035
1039	0.035
1039	0.035
1039	0.035
1040	0.035
1040	0.035
1041	0.036
1041	0.036
1041	0.036
1042	0.037
1042	0.037
1043	0.038
1043	0.038
1044	0.038
1044	0.039
1044	0.039
1045	0.04
1045	0.04
1046	0.04
1046	0.04
1046	0.041
1047	0.041
1047	0.041
1048	0.042
1048	0.043
1049	0.043
1049	0.043
1049	0.043
1050	0.044
1050	0.044
1051	0.044
1051	0.044
1051	0.044
1052	0.044
1052	0.043
1053	0.042
1053	0.042
1053	0.041
1054	0.041
1054	0.04
1055	0.04
1055	0.039
1056	0.038
1056	0.038
1056	0.037
1057	0.036
1057	0.036
1058	0.035
1058	0.034
1058	0.034
1059	0.033
1059	0.033
1060	0.032
1060	0.032
1061	0.032
1061	0.031
1061	0.032
1062	0.032
1062	0.032
1063	0.032
1063	0.031
1063	0.031
1064	0.031
1064	0.031
1065	0.031
1065	0.031
1066	0.031
1066	0.031
1066	0.031
1067	0.03
1067	0.031
1068	0.03
1068	0.03
1068	0.03
1069	0.03
1069	0.03
1070	0.029
1070	0.029
1071	0.029
1071	0.029
1071	0.028
1072	0.027
1072	0.027
1073	0.026
1073	0.026
1073	0.026
1074	0.026
1074	0.026
1075	0.026
1075	0.026
1076	0.027
1076	0.027
1076	0.028
1077	0.028
1077	0.028
1078	0.028
1078	0.029
1078	0.029
1079	0.029
1079	0.029
1080	0.028
1080	0.028
1080	0.028
1081	0.028
1081	0.028
1082	0.028
1082	0.028
1083	0.028
1083	0.028
1083	0.028
1084	0.028
1084	0.028
1085	0.028
1085	0.028
1085	0.028
1086	0.029
1086	0.028
1087	0.028
1087	0.028
1088	0.028
1088	0.028
1088	0.028
1089	0.027
1089	0.027
1090	0.026
1090	0.025
1090	0.024
1091	0.024
1091	0.024
1092	0.024
1092	0.024
1092	0.024
1093	0.024
1093	0.024
1094	0.024
1094	0.024
1095	0.025
1095	0.025
1095	0.025
1096	0.024
1096	0.023
1097	0.023
1097	0.022
1097	0.022
1098	0.022
1098	0.021
1099	0.021
1099	0.02
1100	0.019
1100	0.018
1100	0.018
1101	0.017
1101	0.017
1102	0.017
1102	0.015
1102	0.014
1103	0.015
1103	0.014
1104	0.015
1104	0.014
1104	0.014
1105	0.013
1105	0.012
1106	0.01
1106	0.008
1107	0.009
1107	0.008
1107	0.007
1108	0.006
1108	0.005
1109	0.003
1109	0.002
1109	0.003
1110	0.005
1110	0.004
1111	0.006
1111	0.004
