Data from reversibility-20sec_Absorbance__3501__000000000003501.txt Node

Date: Wed Dec 06 07:40:07 CET 2023
User: Marek
Spectrometer: MAYP115816
Trigger mode: 0
Integration Time (sec): 2.000000E-1
Scans to average: 10
Electric dark correction enabled: true
Nonlinearity correction enabled: true
Boxcar width: 5
XAxis mode: Wavelengths
Number of Pixels in Spectrum: 2068
>>>>>Begin Spectral Data<<<<<
199	-0.156
199	-0.126
200	-0.064
200	-0.013
201	0.02
201	0.038
202	0.049
202	0.057
203	0.065
203	0.068
204	0.082
204	0.095
205	0.11
205	0.118
205	0.116
206	0.115
206	0.114
207	0.114
207	0.115
208	0.113
208	0.113
209	0.117
209	0.113
210	0.11
210	0.11
211	0.11
211	0.111
212	0.11
212	0.114
213	0.116
213	0.117
213	0.117
214	0.119
214	0.122
215	0.122
215	0.123
216	0.129
216	0.131
217	0.133
217	0.133
218	0.132
218	0.138
219	0.143
219	0.145
220	0.147
220	0.15
221	0.148
221	0.15
221	0.154
222	0.16
222	0.165
223	0.171
223	0.175
224	0.18
224	0.185
225	0.195
225	0.203
226	0.214
226	0.223
227	0.232
227	0.243
228	0.257
228	0.273
229	0.29
229	0.315
229	0.339
230	0.366
230	0.394
231	0.428
231	0.466
232	0.507
232	0.549
233	0.593
233	0.643
234	0.693
234	0.745
235	0.798
235	0.851
236	0.908
236	0.96
236	1.01
237	1.056
237	1.104
238	1.152
238	1.198
239	1.247
239	1.289
240	1.329
240	1.364
241	1.399
241	1.434
242	1.467
242	1.504
243	1.534
243	1.56
243	1.585
244	1.604
244	1.627
245	1.642
245	1.665
246	1.684
246	1.701
247	1.716
247	1.728
248	1.742
248	1.753
249	1.763
249	1.772
250	1.779
250	1.79
250	1.796
251	1.8
251	1.803
252	1.808
252	1.812
253	1.813
253	1.814
254	1.814
254	1.816
255	1.814
255	1.812
256	1.81
256	1.811
257	1.811
257	1.808
258	1.807
258	1.807
258	1.806
259	1.806
259	1.805
260	1.804
260	1.805
261	1.805
261	1.805
262	1.806
262	1.807
263	1.809
263	1.809
264	1.81
264	1.808
265	1.807
265	1.808
265	1.808
266	1.808
266	1.808
267	1.805
267	1.805
268	1.804
268	1.805
269	1.805
269	1.805
270	1.804
270	1.802
271	1.8
271	1.799
272	1.797
272	1.797
272	1.794
273	1.789
273	1.784
274	1.78
274	1.775
275	1.769
275	1.763
276	1.756
276	1.75
277	1.743
277	1.732
278	1.721
278	1.71
278	1.696
279	1.682
279	1.665
280	1.646
280	1.621
281	1.592
281	1.559
282	1.523
282	1.488
283	1.453
283	1.418
284	1.383
284	1.348
285	1.314
285	1.283
285	1.256
286	1.231
286	1.209
287	1.19
287	1.173
288	1.159
288	1.146
289	1.135
289	1.125
290	1.117
290	1.11
291	1.103
291	1.097
292	1.092
292	1.087
292	1.082
293	1.078
293	1.074
294	1.07
294	1.066
295	1.063
295	1.06
296	1.056
296	1.053
297	1.049
297	1.046
298	1.043
298	1.039
298	1.036
299	1.033
299	1.03
300	1.027
300	1.024
301	1.022
301	1.019
302	1.016
302	1.013
303	1.011
303	1.008
304	1.006
304	1.003
305	1.001
305	0.997
305	0.995
306	0.992
306	0.99
307	0.987
307	0.985
308	0.982
308	0.979
309	0.975
309	0.973
310	0.97
310	0.967
311	0.964
311	0.96
311	0.957
312	0.953
312	0.949
313	0.946
313	0.942
314	0.938
314	0.934
315	0.929
315	0.925
316	0.921
316	0.916
317	0.911
317	0.906
318	0.902
318	0.896
318	0.891
319	0.886
319	0.88
320	0.875
320	0.869
321	0.863
321	0.857
322	0.851
322	0.845
323	0.838
323	0.831
324	0.825
324	0.819
324	0.812
325	0.806
325	0.799
326	0.792
326	0.786
327	0.779
327	0.773
328	0.766
328	0.76
329	0.753
329	0.746
330	0.739
330	0.732
330	0.725
331	0.718
331	0.711
332	0.705
332	0.698
333	0.691
333	0.684
334	0.677
334	0.67
335	0.664
335	0.657
336	0.651
336	0.644
336	0.638
337	0.631
337	0.625
338	0.619
338	0.613
339	0.608
339	0.602
340	0.596
340	0.591
341	0.585
341	0.58
342	0.574
342	0.569
342	0.564
343	0.559
343	0.554
344	0.548
344	0.544
345	0.539
345	0.534
346	0.53
346	0.525
347	0.521
347	0.517
348	0.513
348	0.509
348	0.505
349	0.501
349	0.498
350	0.494
350	0.491
351	0.488
351	0.485
352	0.481
352	0.478
353	0.475
353	0.472
354	0.469
354	0.466
354	0.463
355	0.46
355	0.457
356	0.453
356	0.45
357	0.447
357	0.444
358	0.441
358	0.439
359	0.436
359	0.434
360	0.432
360	0.43
360	0.428
361	0.426
361	0.424
362	0.423
362	0.421
363	0.419
363	0.417
364	0.415
364	0.413
365	0.411
365	0.409
366	0.408
366	0.406
366	0.404
367	0.402
367	0.4
368	0.398
368	0.397
369	0.395
369	0.394
370	0.392
370	0.391
371	0.389
371	0.388
372	0.386
372	0.385
372	0.383
373	0.382
373	0.381
374	0.38
374	0.378
375	0.377
375	0.376
376	0.375
376	0.374
377	0.373
377	0.371
378	0.37
378	0.369
378	0.368
379	0.367
379	0.366
380	0.365
380	0.364
381	0.364
381	0.363
382	0.362
382	0.361
383	0.361
383	0.36
383	0.359
384	0.358
384	0.357
385	0.357
385	0.356
386	0.355
386	0.355
387	0.354
387	0.353
388	0.352
388	0.352
389	0.351
389	0.351
389	0.35
390	0.349
390	0.349
391	0.348
391	0.347
392	0.347
392	0.347
393	0.346
393	0.346
394	0.345
394	0.344
394	0.344
395	0.343
395	0.343
396	0.342
396	0.342
397	0.341
397	0.341
398	0.34
398	0.34
399	0.339
399	0.339
400	0.338
400	0.338
400	0.337
401	0.337
401	0.336
402	0.336
402	0.335
403	0.335
403	0.334
404	0.334
404	0.333
405	0.333
405	0.332
405	0.332
406	0.332
406	0.331
407	0.331
407	0.33
408	0.33
408	0.33
409	0.329
409	0.329
410	0.328
410	0.328
411	0.328
411	0.327
411	0.327
412	0.327
412	0.326
413	0.326
413	0.326
414	0.326
414	0.325
415	0.325
415	0.325
416	0.324
416	0.324
416	0.323
417	0.323
417	0.322
418	0.322
418	0.322
419	0.321
419	0.321
420	0.32
420	0.32
421	0.319
421	0.319
421	0.319
422	0.318
422	0.318
423	0.317
423	0.317
424	0.317
424	0.316
425	0.316
425	0.316
426	0.315
426	0.315
427	0.315
427	0.315
427	0.314
428	0.314
428	0.314
429	0.313
429	0.313
430	0.313
430	0.312
431	0.312
431	0.312
432	0.312
432	0.312
432	0.312
433	0.311
433	0.311
434	0.311
434	0.311
435	0.311
435	0.311
436	0.311
436	0.311
437	0.311
437	0.311
437	0.31
438	0.31
438	0.31
439	0.31
439	0.309
440	0.309
440	0.309
441	0.308
441	0.308
442	0.308
442	0.308
442	0.308
443	0.308
443	0.307
444	0.307
444	0.307
445	0.307
445	0.307
446	0.307
446	0.307
447	0.307
447	0.306
447	0.306
448	0.307
448	0.307
449	0.307
449	0.307
450	0.307
450	0.307
451	0.307
451	0.307
452	0.307
452	0.307
452	0.307
453	0.307
453	0.307
454	0.307
454	0.307
455	0.306
455	0.306
456	0.306
456	0.306
457	0.306
457	0.306
458	0.306
458	0.306
458	0.307
459	0.307
459	0.307
460	0.307
460	0.308
461	0.308
461	0.308
462	0.308
462	0.308
463	0.308
463	0.308
463	0.308
464	0.308
464	0.308
465	0.308
465	0.308
466	0.308
466	0.308
467	0.308
467	0.309
467	0.309
468	0.309
468	0.309
469	0.31
469	0.311
470	0.312
470	0.312
471	0.312
471	0.313
472	0.313
472	0.314
472	0.314
473	0.315
473	0.315
474	0.316
474	0.316
475	0.316
475	0.316
476	0.317
476	0.317
477	0.318
477	0.318
477	0.319
478	0.319
478	0.32
479	0.321
479	0.321
480	0.322
480	0.323
481	0.324
481	0.324
482	0.325
482	0.326
482	0.326
483	0.328
483	0.329
484	0.33
484	0.33
485	0.331
485	0.332
486	0.333
486	0.334
487	0.335
487	0.336
487	0.337
488	0.338
488	0.339
489	0.34
489	0.342
490	0.343
490	0.344
491	0.346
491	0.347
492	0.349
492	0.35
492	0.352
493	0.353
493	0.355
494	0.356
494	0.358
495	0.359
495	0.36
496	0.361
496	0.363
496	0.364
497	0.366
497	0.367
498	0.369
498	0.37
499	0.371
499	0.373
500	0.375
500	0.377
501	0.378
501	0.38
501	0.381
502	0.382
502	0.384
503	0.385
503	0.386
504	0.388
504	0.389
505	0.391
505	0.392
506	0.393
506	0.395
506	0.396
507	0.398
507	0.399
508	0.401
508	0.402
509	0.403
509	0.405
510	0.406
510	0.407
511	0.408
511	0.41
511	0.411
512	0.412
512	0.413
513	0.413
513	0.414
514	0.415
514	0.416
515	0.417
515	0.417
515	0.418
516	0.419
516	0.419
517	0.42
517	0.421
518	0.421
518	0.422
519	0.422
519	0.422
520	0.423
520	0.423
520	0.423
521	0.423
521	0.424
522	0.423
522	0.424
523	0.424
523	0.424
524	0.423
524	0.423
524	0.423
525	0.422
525	0.422
526	0.421
526	0.42
527	0.419
527	0.418
528	0.417
528	0.416
529	0.415
529	0.414
529	0.413
530	0.412
530	0.411
531	0.409
531	0.408
532	0.407
532	0.405
533	0.403
533	0.402
533	0.4
534	0.399
534	0.397
535	0.395
535	0.393
536	0.391
536	0.389
537	0.387
537	0.385
538	0.383
538	0.381
538	0.379
539	0.377
539	0.375
540	0.373
540	0.372
541	0.37
541	0.368
542	0.365
542	0.363
542	0.361
543	0.359
543	0.356
544	0.354
544	0.351
545	0.349
545	0.347
546	0.344
546	0.342
547	0.339
547	0.337
547	0.334
548	0.332
548	0.329
549	0.327
549	0.325
550	0.323
550	0.32
551	0.317
551	0.315
551	0.312
552	0.31
552	0.308
553	0.306
553	0.303
554	0.301
554	0.299
555	0.296
555	0.293
556	0.291
556	0.289
556	0.287
557	0.285
557	0.283
558	0.28
558	0.278
559	0.276
559	0.274
560	0.272
560	0.27
560	0.268
561	0.266
561	0.264
562	0.261
562	0.259
563	0.256
563	0.254
564	0.252
564	0.25
564	0.248
565	0.246
565	0.244
566	0.241
566	0.239
567	0.238
567	0.236
568	0.234
568	0.232
568	0.23
569	0.228
569	0.227
570	0.225
570	0.223
571	0.221
571	0.219
572	0.217
572	0.216
573	0.214
573	0.213
573	0.211
574	0.209
574	0.208
575	0.207
575	0.205
576	0.204
576	0.202
577	0.2
577	0.199
577	0.197
578	0.196
578	0.194
579	0.194
579	0.193
580	0.191
580	0.189
581	0.188
581	0.187
581	0.186
582	0.185
582	0.184
583	0.183
583	0.182
584	0.181
584	0.179
585	0.177
585	0.176
585	0.175
586	0.174
586	0.173
587	0.171
587	0.17
588	0.169
588	0.168
589	0.167
589	0.166
590	0.165
590	0.165
590	0.164
591	0.163
591	0.161
592	0.16
592	0.159
593	0.158
593	0.157
594	0.156
594	0.154
594	0.153
595	0.152
595	0.151
596	0.15
596	0.15
597	0.15
597	0.149
598	0.149
598	0.148
598	0.148
599	0.148
599	0.147
600	0.146
600	0.145
601	0.145
601	0.144
602	0.143
602	0.141
602	0.14
603	0.14
603	0.139
604	0.138
604	0.138
605	0.137
605	0.137
606	0.136
606	0.135
606	0.134
607	0.134
607	0.133
608	0.132
608	0.131
609	0.13
609	0.129
610	0.128
610	0.127
610	0.127
611	0.126
611	0.126
612	0.126
612	0.126
613	0.126
613	0.125
614	0.125
614	0.124
614	0.123
615	0.123
615	0.123
616	0.122
616	0.122
617	0.121
617	0.121
618	0.12
618	0.12
618	0.12
619	0.12
619	0.12
620	0.119
620	0.119
621	0.118
621	0.118
622	0.117
622	0.116
622	0.116
623	0.115
623	0.114
624	0.114
624	0.113
625	0.112
625	0.112
626	0.111
626	0.111
626	0.111
627	0.11
627	0.11
628	0.11
628	0.109
629	0.109
629	0.108
630	0.108
630	0.107
630	0.107
631	0.107
631	0.106
632	0.106
632	0.105
633	0.105
633	0.105
634	0.105
634	0.105
634	0.105
635	0.104
635	0.104
636	0.104
636	0.103
637	0.103
637	0.103
638	0.102
638	0.102
638	0.101
639	0.1
639	0.099
640	0.099
640	0.099
641	0.098
641	0.098
642	0.097
642	0.097
642	0.097
643	0.097
643	0.097
644	0.097
644	0.097
645	0.097
645	0.097
646	0.097
646	0.097
646	0.097
647	0.097
647	0.097
648	0.096
648	0.096
649	0.095
649	0.095
650	0.095
650	0.095
650	0.095
651	0.094
651	0.094
652	0.094
652	0.094
653	0.094
653	0.095
653	0.101
654	0.081
654	0.066
655	0.064
655	0.064
656	0.064
656	0.064
657	0.064
657	0.064
657	0.064
658	0.063
658	0.056
659	0.069
659	0.087
660	0.091
660	0.091
661	0.09
661	0.09
661	0.089
662	0.088
662	0.088
663	0.087
663	0.087
664	0.086
664	0.086
665	0.086
665	0.085
665	0.085
666	0.085
666	0.085
667	0.085
667	0.085
668	0.085
668	0.085
669	0.085
669	0.085
669	0.086
670	0.086
670	0.086
671	0.085
671	0.085
672	0.085
672	0.084
672	0.083
673	0.083
673	0.083
674	0.082
674	0.081
675	0.081
675	0.081
676	0.081
676	0.081
676	0.081
677	0.081
677	0.081
678	0.081
678	0.081
679	0.081
679	0.081
680	0.081
680	0.08
680	0.08
681	0.08
681	0.08
682	0.08
682	0.08
683	0.08
683	0.08
684	0.08
684	0.08
684	0.08
685	0.08
685	0.08
686	0.079
686	0.079
687	0.079
687	0.079
687	0.079
688	0.079
688	0.079
689	0.079
689	0.08
690	0.08
690	0.079
691	0.08
691	0.08
691	0.08
692	0.08
692	0.08
693	0.08
693	0.08
694	0.08
694	0.079
695	0.08
695	0.08
695	0.08
696	0.08
696	0.08
697	0.08
697	0.08
698	0.079
698	0.079
698	0.079
699	0.079
699	0.079
700	0.078
700	0.078
701	0.078
701	0.077
702	0.076
702	0.076
702	0.075
703	0.074
703	0.074
704	0.073
704	0.073
705	0.073
705	0.072
705	0.072
706	0.072
706	0.072
707	0.072
707	0.072
708	0.072
708	0.073
709	0.073
709	0.072
709	0.071
710	0.071
710	0.071
711	0.071
711	0.071
712	0.07
712	0.07
713	0.07
713	0.07
713	0.07
714	0.07
714	0.07
715	0.07
715	0.069
716	0.069
716	0.069
716	0.068
717	0.067
717	0.067
718	0.066
718	0.065
719	0.065
719	0.065
720	0.065
720	0.065
720	0.066
721	0.066
721	0.066
722	0.067
722	0.067
723	0.068
723	0.068
723	0.067
724	0.067
724	0.066
725	0.065
725	0.064
726	0.064
726	0.063
727	0.062
727	0.062
727	0.062
728	0.061
728	0.061
729	0.062
729	0.062
730	0.063
730	0.063
730	0.064
731	0.064
731	0.064
732	0.065
732	0.065
733	0.064
733	0.064
734	0.064
734	0.064
734	0.064
735	0.064
735	0.064
736	0.063
736	0.063
737	0.063
737	0.063
737	0.062
738	0.062
738	0.061
739	0.061
739	0.06
740	0.06
740	0.06
741	0.06
741	0.06
741	0.06
742	0.06
742	0.06
743	0.061
743	0.061
744	0.061
744	0.061
744	0.061
745	0.061
745	0.061
746	0.061
746	0.061
747	0.061
747	0.061
748	0.061
748	0.061
748	0.061
749	0.061
749	0.061
750	0.061
750	0.061
751	0.061
751	0.061
751	0.061
752	0.061
752	0.06
753	0.06
753	0.059
754	0.059
754	0.058
754	0.058
755	0.057
755	0.057
756	0.056
756	0.055
757	0.054
757	0.054
758	0.054
758	0.054
758	0.054
759	0.054
759	0.054
760	0.054
760	0.054
761	0.054
761	0.055
761	0.055
762	0.055
762	0.054
763	0.054
763	0.054
764	0.054
764	0.054
764	0.054
765	0.053
765	0.053
766	0.052
766	0.052
767	0.052
767	0.051
768	0.051
768	0.051
768	0.051
769	0.051
769	0.051
770	0.052
770	0.052
771	0.052
771	0.052
771	0.052
772	0.053
772	0.053
773	0.053
773	0.054
774	0.054
774	0.054
775	0.055
775	0.055
775	0.055
776	0.056
776	0.056
777	0.056
777	0.056
778	0.056
778	0.055
778	0.055
779	0.055
779	0.054
780	0.053
780	0.052
781	0.052
781	0.051
781	0.051
782	0.05
782	0.05
783	0.05
783	0.051
784	0.05
784	0.051
784	0.051
785	0.051
785	0.051
786	0.052
786	0.052
787	0.052
787	0.052
788	0.052
788	0.051
788	0.051
789	0.051
789	0.05
790	0.05
790	0.05
791	0.049
791	0.049
791	0.048
792	0.049
792	0.049
793	0.049
793	0.049
794	0.048
794	0.048
794	0.048
795	0.048
795	0.048
796	0.048
796	0.049
797	0.048
797	0.048
797	0.049
798	0.049
798	0.049
799	0.049
799	0.049
800	0.049
800	0.048
801	0.048
801	0.047
801	0.047
802	0.047
802	0.046
803	0.046
803	0.046
804	0.046
804	0.046
804	0.046
805	0.046
805	0.045
806	0.045
806	0.045
807	0.045
807	0.046
807	0.046
808	0.046
808	0.046
809	0.046
809	0.047
810	0.047
810	0.048
810	0.048
811	0.048
811	0.048
812	0.049
812	0.048
813	0.049
813	0.049
813	0.049
814	0.049
814	0.049
815	0.049
815	0.049
816	0.049
816	0.048
817	0.048
817	0.047
817	0.047
818	0.047
818	0.046
819	0.046
819	0.045
820	0.045
820	0.044
820	0.044
821	0.044
821	0.045
822	0.045
822	0.045
823	0.046
823	0.046
823	0.047
824	0.048
824	0.049
825	0.05
825	0.051
826	0.052
826	0.052
826	0.052
827	0.052
827	0.052
828	0.052
828	0.052
829	0.052
829	0.052
829	0.052
830	0.052
830	0.052
831	0.053
831	0.053
832	0.053
832	0.053
832	0.053
833	0.053
833	0.053
834	0.053
834	0.052
835	0.052
835	0.051
835	0.051
836	0.05
836	0.05
837	0.049
837	0.049
838	0.048
838	0.048
839	0.047
839	0.046
839	0.045
840	0.045
840	0.044
841	0.043
841	0.042
842	0.041
842	0.041
842	0.04
843	0.04
843	0.04
844	0.04
844	0.04
845	0.04
845	0.04
845	0.041
846	0.041
846	0.041
847	0.042
847	0.042
848	0.042
848	0.042
848	0.042
849	0.041
849	0.041
850	0.041
850	0.041
851	0.04
851	0.04
851	0.04
852	0.039
852	0.039
853	0.039
853	0.039
854	0.039
854	0.04
854	0.041
855	0.042
855	0.042
856	0.043
856	0.044
857	0.045
857	0.046
857	0.046
858	0.046
858	0.046
859	0.045
859	0.045
860	0.044
860	0.043
860	0.042
861	0.041
861	0.04
862	0.039
862	0.038
863	0.038
863	0.037
863	0.037
864	0.037
864	0.037
865	0.038
865	0.038
866	0.038
866	0.038
866	0.038
867	0.038
867	0.039
868	0.039
868	0.039
869	0.039
869	0.038
869	0.038
870	0.037
870	0.037
871	0.037
871	0.037
872	0.038
872	0.038
872	0.038
873	0.038
873	0.038
874	0.037
874	0.037
875	0.038
875	0.038
875	0.038
876	0.038
876	0.038
877	0.038
877	0.038
878	0.038
878	0.039
878	0.04
879	0.04
879	0.04
880	0.041
880	0.041
881	0.041
881	0.041
881	0.041
882	0.041
882	0.041
883	0.04
883	0.04
884	0.04
884	0.039
884	0.039
885	0.039
885	0.038
886	0.038
886	0.037
887	0.037
887	0.037
887	0.036
888	0.036
888	0.035
889	0.035
889	0.035
890	0.035
890	0.035
890	0.035
891	0.035
891	0.035
892	0.035
892	0.034
893	0.034
893	0.034
893	0.033
894	0.033
894	0.033
895	0.032
895	0.032
895	0.032
896	0.032
896	0.033
897	0.033
897	0.033
898	0.033
898	0.033
898	0.033
899	0.034
899	0.034
900	0.035
900	0.035
901	0.035
901	0.036
901	0.037
902	0.037
902	0.037
903	0.038
903	0.038
904	0.038
904	0.038
904	0.038
905	0.038
905	0.038
906	0.038
906	0.038
907	0.039
907	0.039
907	0.04
908	0.04
908	0.041
909	0.041
909	0.042
910	0.042
910	0.042
910	0.042
911	0.042
911	0.042
912	0.041
912	0.041
913	0.041
913	0.041
913	0.04
914	0.04
914	0.04
915	0.04
915	0.04
916	0.039
916	0.039
916	0.039
917	0.039
917	0.039
918	0.038
918	0.038
918	0.038
919	0.038
919	0.037
920	0.037
920	0.037
921	0.036
921	0.036
921	0.036
922	0.035
922	0.035
923	0.035
923	0.035
924	0.036
924	0.036
924	0.036
925	0.036
925	0.036
926	0.037
926	0.037
927	0.037
927	0.037
927	0.037
928	0.037
928	0.038
929	0.038
929	0.038
930	0.038
930	0.038
930	0.038
931	0.038
931	0.038
932	0.038
932	0.037
933	0.037
933	0.037
933	0.037
934	0.037
934	0.037
935	0.038
935	0.038
935	0.038
936	0.038
936	0.038
937	0.038
937	0.038
938	0.037
938	0.037
938	0.037
939	0.036
939	0.035
940	0.035
940	0.034
941	0.034
941	0.034
941	0.034
942	0.034
942	0.034
943	0.034
943	0.034
944	0.034
944	0.034
944	0.034
945	0.035
945	0.035
946	0.035
946	0.035
946	0.035
947	0.036
947	0.037
948	0.037
948	0.038
949	0.038
949	0.038
949	0.039
950	0.039
950	0.039
951	0.039
951	0.039
952	0.038
952	0.037
952	0.037
953	0.036
953	0.036
954	0.035
954	0.035
955	0.035
955	0.034
955	0.034
956	0.034
956	0.034
957	0.035
957	0.035
957	0.035
958	0.035
958	0.036
959	0.036
959	0.037
960	0.037
960	0.037
960	0.038
961	0.038
961	0.039
962	0.039
962	0.04
963	0.04
963	0.04
963	0.04
964	0.041
964	0.041
965	0.041
965	0.042
966	0.042
966	0.043
966	0.043
967	0.043
967	0.044
968	0.044
968	0.044
968	0.044
969	0.044
969	0.043
970	0.043
970	0.042
971	0.041
971	0.04
971	0.039
972	0.038
972	0.037
973	0.036
973	0.035
974	0.035
974	0.035
974	0.035
975	0.034
975	0.034
976	0.035
976	0.034
976	0.034
977	0.034
977	0.034
978	0.033
978	0.033
979	0.033
979	0.032
979	0.032
980	0.032
980	0.031
981	0.031
981	0.031
982	0.031
982	0.031
982	0.032
983	0.032
983	0.032
984	0.033
984	0.033
984	0.033
985	0.033
985	0.034
986	0.034
986	0.034
987	0.034
987	0.034
987	0.034
988	0.034
988	0.033
989	0.033
989	0.033
990	0.033
990	0.033
990	0.033
991	0.033
991	0.033
992	0.033
992	0.033
992	0.032
993	0.032
993	0.032
994	0.032
994	0.032
995	0.032
995	0.031
995	0.031
996	0.031
996	0.031
997	0.031
997	0.032
997	0.032
998	0.032
998	0.032
999	0.033
999	0.033
1000	0.034
1000	0.034
1000	0.034
1001	0.034
1001	0.034
1002	0.033
1002	0.033
1003	0.032
1003	0.031
1003	0.031
1004	0.03
1004	0.029
1005	0.028
1005	0.028
1005	0.027
1006	0.027
1006	0.027
1007	0.026
1007	0.026
1008	0.026
1008	0.026
1008	0.026
1009	0.027
1009	0.027
1010	0.027
1010	0.028
1010	0.029
1011	0.029
1011	0.029
1012	0.03
1012	0.03
1013	0.03
1013	0.03
1013	0.03
1014	0.03
1014	0.03
1015	0.029
1015	0.029
1016	0.029
1016	0.029
1016	0.029
1017	0.028
1017	0.028
1018	0.028
1018	0.028
1018	0.028
1019	0.028
1019	0.028
1020	0.028
1020	0.028
1021	0.029
1021	0.029
1021	0.03
1022	0.03
1022	0.03
1023	0.031
1023	0.031
1023	0.031
1024	0.031
1024	0.032
1025	0.032
1025	0.032
1026	0.032
1026	0.031
1026	0.031
1027	0.031
1027	0.031
1028	0.031
1028	0.031
1028	0.031
1029	0.031
1029	0.031
1030	0.031
1030	0.031
1031	0.032
1031	0.032
1031	0.032
1032	0.032
1032	0.032
1033	0.032
1033	0.032
1033	0.032
1034	0.032
1034	0.031
1035	0.031
1035	0.031
1036	0.031
1036	0.031
1036	0.031
1037	0.031
1037	0.03
1038	0.03
1038	0.03
1039	0.03
1039	0.03
1039	0.029
1040	0.029
1040	0.029
1041	0.029
1041	0.029
1041	0.029
1042	0.029
1042	0.029
1043	0.029
1043	0.029
1044	0.029
1044	0.029
1044	0.029
1045	0.03
1045	0.03
1046	0.031
1046	0.031
1046	0.031
1047	0.032
1047	0.033
1048	0.033
1048	0.034
1049	0.035
1049	0.035
1049	0.036
1050	0.036
1050	0.036
1051	0.036
1051	0.036
1051	0.036
1052	0.035
1052	0.035
1053	0.034
1053	0.034
1053	0.033
1054	0.033
1054	0.032
1055	0.032
1055	0.031
1056	0.031
1056	0.03
1056	0.03
1057	0.029
1057	0.029
1058	0.029
1058	0.028
1058	0.027
1059	0.027
1059	0.026
1060	0.026
1060	0.026
1061	0.026
1061	0.026
1061	0.026
1062	0.026
1062	0.026
1063	0.026
1063	0.026
1063	0.026
1064	0.026
1064	0.026
1065	0.026
1065	0.026
1066	0.026
1066	0.026
1066	0.025
1067	0.025
1067	0.025
1068	0.025
1068	0.025
1068	0.025
1069	0.025
1069	0.025
1070	0.025
1070	0.024
1071	0.024
1071	0.024
1071	0.023
1072	0.022
1072	0.022
1073	0.021
1073	0.02
1073	0.02
1074	0.02
1074	0.02
1075	0.02
1075	0.02
1076	0.02
1076	0.02
1076	0.02
1077	0.021
1077	0.021
1078	0.021
1078	0.021
1078	0.02
1079	0.02
1079	0.02
1080	0.02
1080	0.02
1080	0.02
1081	0.02
1081	0.021
1082	0.021
1082	0.021
1083	0.021
1083	0.021
1083	0.022
1084	0.022
1084	0.022
1085	0.022
1085	0.023
1085	0.023
1086	0.023
1086	0.023
1087	0.023
1087	0.022
1088	0.022
1088	0.022
1088	0.022
1089	0.021
1089	0.02
1090	0.02
1090	0.019
1090	0.018
1091	0.018
1091	0.018
1092	0.019
1092	0.019
1092	0.019
1093	0.019
1093	0.019
1094	0.02
1094	0.02
1095	0.02
1095	0.02
1095	0.02
1096	0.019
1096	0.019
1097	0.018
1097	0.018
1097	0.018
1098	0.017
1098	0.015
1099	0.015
1099	0.014
1100	0.014
1100	0.013
1100	0.012
1101	0.011
1101	0.011
1102	0.011
1102	0.01
1102	0.009
1103	0.009
1103	0.009
1104	0.009
1104	0.01
1104	0.009
1105	0.009
1105	0.007
1106	0.005
1106	0.004
1107	0.005
1107	0.005
1107	0.004
1108	0.002
1108	0.001
1109	0
1109	-0.001
1109	-0
1110	0.002
1110	0.001
1111	0.002
1111	-0.001
