Data from reversibility-20sec_Absorbance__6854__000000000006854.txt Node

Date: Thu Dec 07 02:17:45 CET 2023
User: Marek
Spectrometer: MAYP115816
Trigger mode: 0
Integration Time (sec): 2.000000E-1
Scans to average: 10
Electric dark correction enabled: true
Nonlinearity correction enabled: true
Boxcar width: 5
XAxis mode: Wavelengths
Number of Pixels in Spectrum: 2068
>>>>>Begin Spectral Data<<<<<
199	-0.101
199	-0.086
200	-0.02
200	0.033
201	0.056
201	0.073
202	0.085
202	0.089
203	0.1
203	0.103
204	0.117
204	0.127
205	0.14
205	0.147
205	0.144
206	0.146
206	0.145
207	0.145
207	0.148
208	0.146
208	0.146
209	0.148
209	0.146
210	0.147
210	0.146
211	0.15
211	0.151
212	0.149
212	0.155
213	0.155
213	0.154
213	0.156
214	0.159
214	0.16
215	0.16
215	0.16
216	0.158
216	0.156
217	0.161
217	0.16
218	0.162
218	0.164
219	0.166
219	0.166
220	0.171
220	0.171
221	0.172
221	0.177
221	0.18
222	0.184
222	0.189
223	0.193
223	0.198
224	0.206
224	0.212
225	0.221
225	0.235
226	0.244
226	0.254
227	0.264
227	0.275
228	0.292
228	0.307
229	0.323
229	0.345
229	0.367
230	0.391
230	0.419
231	0.45
231	0.486
232	0.526
232	0.568
233	0.611
233	0.655
234	0.706
234	0.757
235	0.812
235	0.865
236	0.915
236	0.967
236	1.019
237	1.07
237	1.119
238	1.167
238	1.216
239	1.262
239	1.303
240	1.341
240	1.376
241	1.411
241	1.443
242	1.474
242	1.507
243	1.535
243	1.561
243	1.585
244	1.607
244	1.629
245	1.65
245	1.673
246	1.691
246	1.71
247	1.722
247	1.736
248	1.749
248	1.759
249	1.769
249	1.776
250	1.78
250	1.785
250	1.788
251	1.79
251	1.791
252	1.795
252	1.794
253	1.795
253	1.791
254	1.789
254	1.789
255	1.787
255	1.786
256	1.783
256	1.783
257	1.782
257	1.78
258	1.781
258	1.78
258	1.78
259	1.78
259	1.781
260	1.781
260	1.784
261	1.784
261	1.786
262	1.79
262	1.791
263	1.793
263	1.795
264	1.797
264	1.798
265	1.8
265	1.801
265	1.801
266	1.803
266	1.803
267	1.802
267	1.803
268	1.803
268	1.802
269	1.805
269	1.804
270	1.801
270	1.8
271	1.798
271	1.797
272	1.794
272	1.791
272	1.786
273	1.779
273	1.772
274	1.763
274	1.756
275	1.749
275	1.742
276	1.733
276	1.725
277	1.717
277	1.706
278	1.695
278	1.683
278	1.668
279	1.651
279	1.628
280	1.6
280	1.567
281	1.528
281	1.485
282	1.439
282	1.393
283	1.349
283	1.306
284	1.264
284	1.224
285	1.187
285	1.154
285	1.124
286	1.098
286	1.075
287	1.055
287	1.039
288	1.024
288	1.012
289	1.002
289	0.993
290	0.986
290	0.979
291	0.973
291	0.968
292	0.963
292	0.959
292	0.955
293	0.951
293	0.948
294	0.945
294	0.942
295	0.939
295	0.936
296	0.933
296	0.93
297	0.927
297	0.924
298	0.922
298	0.919
298	0.916
299	0.913
299	0.91
300	0.907
300	0.905
301	0.902
301	0.9
302	0.897
302	0.895
303	0.893
303	0.891
304	0.888
304	0.886
305	0.884
305	0.882
305	0.88
306	0.878
306	0.875
307	0.873
307	0.871
308	0.868
308	0.866
309	0.863
309	0.861
310	0.858
310	0.855
311	0.852
311	0.849
311	0.846
312	0.843
312	0.839
313	0.836
313	0.832
314	0.828
314	0.824
315	0.82
315	0.816
316	0.811
316	0.807
317	0.803
317	0.798
318	0.793
318	0.788
318	0.783
319	0.777
319	0.772
320	0.766
320	0.76
321	0.755
321	0.748
322	0.742
322	0.736
323	0.729
323	0.723
324	0.716
324	0.709
324	0.703
325	0.696
325	0.689
326	0.682
326	0.675
327	0.668
327	0.661
328	0.655
328	0.648
329	0.641
329	0.634
330	0.626
330	0.62
330	0.612
331	0.605
331	0.598
332	0.591
332	0.584
333	0.577
333	0.57
334	0.563
334	0.556
335	0.549
335	0.542
336	0.536
336	0.529
336	0.522
337	0.517
337	0.51
338	0.504
338	0.498
339	0.492
339	0.485
340	0.479
340	0.474
341	0.468
341	0.463
342	0.457
342	0.452
342	0.447
343	0.441
343	0.436
344	0.431
344	0.426
345	0.422
345	0.417
346	0.412
346	0.408
347	0.403
347	0.399
348	0.395
348	0.391
348	0.387
349	0.383
349	0.38
350	0.376
350	0.373
351	0.369
351	0.366
352	0.363
352	0.36
353	0.357
353	0.354
354	0.351
354	0.348
354	0.345
355	0.342
355	0.34
356	0.337
356	0.334
357	0.331
357	0.328
358	0.326
358	0.323
359	0.321
359	0.319
360	0.317
360	0.315
360	0.313
361	0.311
361	0.309
362	0.308
362	0.306
363	0.305
363	0.303
364	0.301
364	0.299
365	0.298
365	0.296
366	0.294
366	0.293
366	0.291
367	0.289
367	0.288
368	0.286
368	0.285
369	0.284
369	0.282
370	0.281
370	0.28
371	0.278
371	0.277
372	0.276
372	0.275
372	0.274
373	0.273
373	0.272
374	0.271
374	0.27
375	0.269
375	0.269
376	0.268
376	0.267
377	0.266
377	0.265
378	0.264
378	0.263
378	0.263
379	0.262
379	0.261
380	0.26
380	0.259
381	0.259
381	0.258
382	0.258
382	0.257
383	0.257
383	0.256
383	0.256
384	0.255
384	0.255
385	0.254
385	0.254
386	0.254
386	0.253
387	0.253
387	0.253
388	0.252
388	0.252
389	0.251
389	0.251
389	0.251
390	0.251
390	0.251
391	0.25
391	0.25
392	0.25
392	0.25
393	0.249
393	0.249
394	0.249
394	0.248
394	0.248
395	0.248
395	0.248
396	0.247
396	0.247
397	0.247
397	0.246
398	0.246
398	0.246
399	0.246
399	0.245
400	0.245
400	0.245
400	0.245
401	0.244
401	0.244
402	0.244
402	0.244
403	0.243
403	0.243
404	0.243
404	0.243
405	0.243
405	0.243
405	0.242
406	0.242
406	0.242
407	0.242
407	0.241
408	0.241
408	0.241
409	0.241
409	0.24
410	0.24
410	0.24
411	0.24
411	0.239
411	0.239
412	0.239
412	0.238
413	0.238
413	0.238
414	0.238
414	0.237
415	0.237
415	0.236
416	0.236
416	0.236
416	0.236
417	0.235
417	0.235
418	0.235
418	0.235
419	0.234
419	0.234
420	0.233
420	0.233
421	0.232
421	0.232
421	0.232
422	0.231
422	0.231
423	0.23
423	0.23
424	0.23
424	0.23
425	0.229
425	0.229
426	0.229
426	0.229
427	0.228
427	0.228
427	0.228
428	0.227
428	0.227
429	0.227
429	0.226
430	0.226
430	0.226
431	0.225
431	0.225
432	0.225
432	0.225
432	0.224
433	0.224
433	0.224
434	0.224
434	0.224
435	0.224
435	0.224
436	0.223
436	0.223
437	0.223
437	0.223
437	0.223
438	0.222
438	0.222
439	0.222
439	0.221
440	0.221
440	0.221
441	0.22
441	0.22
442	0.22
442	0.22
442	0.219
443	0.219
443	0.219
444	0.219
444	0.219
445	0.219
445	0.218
446	0.218
446	0.218
447	0.217
447	0.217
447	0.217
448	0.217
448	0.217
449	0.216
449	0.216
450	0.216
450	0.216
451	0.216
451	0.216
452	0.216
452	0.215
452	0.215
453	0.215
453	0.215
454	0.215
454	0.214
455	0.214
455	0.214
456	0.213
456	0.213
457	0.213
457	0.212
458	0.212
458	0.212
458	0.211
459	0.211
459	0.211
460	0.211
460	0.211
461	0.211
461	0.21
462	0.21
462	0.21
463	0.21
463	0.209
463	0.209
464	0.209
464	0.208
465	0.208
465	0.208
466	0.207
466	0.208
467	0.208
467	0.208
467	0.207
468	0.207
468	0.207
469	0.207
469	0.208
470	0.208
470	0.208
471	0.208
471	0.207
472	0.207
472	0.207
472	0.207
473	0.207
473	0.207
474	0.207
474	0.206
475	0.206
475	0.206
476	0.206
476	0.206
477	0.206
477	0.206
477	0.206
478	0.205
478	0.205
479	0.205
479	0.205
480	0.205
480	0.205
481	0.205
481	0.205
482	0.205
482	0.205
482	0.205
483	0.205
483	0.205
484	0.205
484	0.205
485	0.205
485	0.205
486	0.205
486	0.204
487	0.204
487	0.204
487	0.204
488	0.204
488	0.204
489	0.204
489	0.205
490	0.205
490	0.205
491	0.206
491	0.206
492	0.207
492	0.207
492	0.207
493	0.208
493	0.208
494	0.209
494	0.209
495	0.209
495	0.209
496	0.209
496	0.209
496	0.21
497	0.21
497	0.21
498	0.21
498	0.21
499	0.211
499	0.211
500	0.212
500	0.212
501	0.213
501	0.213
501	0.213
502	0.213
502	0.213
503	0.214
503	0.214
504	0.214
504	0.214
505	0.215
505	0.215
506	0.215
506	0.215
506	0.216
507	0.216
507	0.216
508	0.216
508	0.217
509	0.217
509	0.217
510	0.218
510	0.218
511	0.219
511	0.219
511	0.219
512	0.22
512	0.22
513	0.221
513	0.221
514	0.221
514	0.222
515	0.222
515	0.222
515	0.222
516	0.223
516	0.223
517	0.224
517	0.224
518	0.224
518	0.224
519	0.225
519	0.225
520	0.225
520	0.226
520	0.226
521	0.226
521	0.226
522	0.226
522	0.226
523	0.227
523	0.227
524	0.227
524	0.227
524	0.228
525	0.228
525	0.228
526	0.228
526	0.228
527	0.228
527	0.229
528	0.229
528	0.229
529	0.229
529	0.229
529	0.229
530	0.229
530	0.229
531	0.229
531	0.229
532	0.229
532	0.229
533	0.229
533	0.229
533	0.229
534	0.229
534	0.229
535	0.229
535	0.229
536	0.229
536	0.229
537	0.229
537	0.229
538	0.229
538	0.229
538	0.229
539	0.229
539	0.229
540	0.228
540	0.228
541	0.228
541	0.228
542	0.228
542	0.228
542	0.228
543	0.228
543	0.228
544	0.228
544	0.228
545	0.228
545	0.228
546	0.228
546	0.227
547	0.227
547	0.227
547	0.227
548	0.227
548	0.226
549	0.226
549	0.226
550	0.226
550	0.225
551	0.225
551	0.225
551	0.225
552	0.225
552	0.224
553	0.224
553	0.224
554	0.224
554	0.223
555	0.222
555	0.222
556	0.221
556	0.221
556	0.221
557	0.221
557	0.221
558	0.221
558	0.222
559	0.222
559	0.222
560	0.222
560	0.222
560	0.222
561	0.223
561	0.222
562	0.221
562	0.221
563	0.22
563	0.219
564	0.218
564	0.218
564	0.218
565	0.218
565	0.218
566	0.217
566	0.217
567	0.217
567	0.218
568	0.217
568	0.217
568	0.217
569	0.217
569	0.216
570	0.215
570	0.214
571	0.214
571	0.214
572	0.213
572	0.212
573	0.212
573	0.212
573	0.212
574	0.212
574	0.212
575	0.212
575	0.212
576	0.212
576	0.211
577	0.211
577	0.21
577	0.21
578	0.209
578	0.209
579	0.209
579	0.209
580	0.209
580	0.208
581	0.208
581	0.207
581	0.208
582	0.208
582	0.208
583	0.208
583	0.208
584	0.207
584	0.206
585	0.206
585	0.206
585	0.206
586	0.205
586	0.205
587	0.204
587	0.204
588	0.204
588	0.203
589	0.203
589	0.203
590	0.203
590	0.203
590	0.203
591	0.203
591	0.203
592	0.202
592	0.202
593	0.201
593	0.201
594	0.201
594	0.2
594	0.2
595	0.199
595	0.199
596	0.198
596	0.199
597	0.199
597	0.2
598	0.2
598	0.2
598	0.2
599	0.2
599	0.2
600	0.199
600	0.199
601	0.199
601	0.199
602	0.198
602	0.197
602	0.197
603	0.197
603	0.197
604	0.197
604	0.197
605	0.197
605	0.197
606	0.197
606	0.196
606	0.196
607	0.196
607	0.196
608	0.195
608	0.195
609	0.195
609	0.195
610	0.194
610	0.194
610	0.194
611	0.194
611	0.194
612	0.194
612	0.194
613	0.194
613	0.194
614	0.194
614	0.193
614	0.193
615	0.193
615	0.194
616	0.194
616	0.194
617	0.193
617	0.193
618	0.193
618	0.193
618	0.193
619	0.194
619	0.194
620	0.194
620	0.194
621	0.193
621	0.192
622	0.192
622	0.191
622	0.191
623	0.191
623	0.191
624	0.191
624	0.19
625	0.19
625	0.19
626	0.19
626	0.19
626	0.19
627	0.19
627	0.19
628	0.189
628	0.189
629	0.189
629	0.188
630	0.188
630	0.188
630	0.188
631	0.188
631	0.188
632	0.187
632	0.187
633	0.187
633	0.187
634	0.187
634	0.187
634	0.187
635	0.187
635	0.186
636	0.186
636	0.186
637	0.186
637	0.186
638	0.186
638	0.186
638	0.185
639	0.185
639	0.185
640	0.185
640	0.185
641	0.185
641	0.185
642	0.184
642	0.185
642	0.185
643	0.185
643	0.186
644	0.186
644	0.186
645	0.186
645	0.186
646	0.186
646	0.186
646	0.186
647	0.186
647	0.185
648	0.184
648	0.184
649	0.183
649	0.183
650	0.183
650	0.183
650	0.183
651	0.184
651	0.184
652	0.184
652	0.184
653	0.185
653	0.186
653	0.191
654	0.15
654	0.12
655	0.121
655	0.121
656	0.121
656	0.122
657	0.122
657	0.122
657	0.122
658	0.121
658	0.112
659	0.141
659	0.181
660	0.186
660	0.186
661	0.185
661	0.185
661	0.185
662	0.184
662	0.184
663	0.183
663	0.183
664	0.183
664	0.183
665	0.183
665	0.183
665	0.182
666	0.182
666	0.183
667	0.183
667	0.183
668	0.184
668	0.184
669	0.184
669	0.184
669	0.185
670	0.185
670	0.185
671	0.185
671	0.184
672	0.184
672	0.183
672	0.183
673	0.182
673	0.182
674	0.182
674	0.181
675	0.181
675	0.181
676	0.182
676	0.182
676	0.182
677	0.183
677	0.183
678	0.183
678	0.183
679	0.182
679	0.182
680	0.182
680	0.182
680	0.182
681	0.182
681	0.182
682	0.182
682	0.182
683	0.182
683	0.182
684	0.183
684	0.183
684	0.183
685	0.183
685	0.184
686	0.183
686	0.183
687	0.183
687	0.183
687	0.183
688	0.183
688	0.184
689	0.184
689	0.185
690	0.184
690	0.184
691	0.184
691	0.184
691	0.184
692	0.184
692	0.185
693	0.185
693	0.185
694	0.185
694	0.185
695	0.186
695	0.187
695	0.187
696	0.187
696	0.187
697	0.187
697	0.187
698	0.187
698	0.186
698	0.186
699	0.186
699	0.186
700	0.185
700	0.185
701	0.186
701	0.185
702	0.185
702	0.185
702	0.185
703	0.185
703	0.185
704	0.185
704	0.185
705	0.185
705	0.185
705	0.184
706	0.184
706	0.184
707	0.184
707	0.184
708	0.184
708	0.185
709	0.185
709	0.185
709	0.185
710	0.185
710	0.186
711	0.186
711	0.187
712	0.187
712	0.187
713	0.188
713	0.188
713	0.188
714	0.188
714	0.188
715	0.188
715	0.187
716	0.187
716	0.186
716	0.185
717	0.185
717	0.184
718	0.183
718	0.183
719	0.183
719	0.183
720	0.183
720	0.184
720	0.184
721	0.185
721	0.186
722	0.187
722	0.187
723	0.188
723	0.188
723	0.188
724	0.188
724	0.188
725	0.187
725	0.187
726	0.186
726	0.186
727	0.185
727	0.184
727	0.184
728	0.184
728	0.184
729	0.184
729	0.184
730	0.184
730	0.185
730	0.186
731	0.186
731	0.187
732	0.188
732	0.189
733	0.189
733	0.19
734	0.19
734	0.191
734	0.191
735	0.191
735	0.191
736	0.191
736	0.191
737	0.191
737	0.191
737	0.19
738	0.19
738	0.189
739	0.188
739	0.188
740	0.188
740	0.188
741	0.188
741	0.189
741	0.189
742	0.189
742	0.19
743	0.191
743	0.192
744	0.193
744	0.193
744	0.194
745	0.194
745	0.194
746	0.194
746	0.194
747	0.193
747	0.193
748	0.192
748	0.192
748	0.191
749	0.191
749	0.191
750	0.191
750	0.191
751	0.192
751	0.192
751	0.192
752	0.192
752	0.192
753	0.192
753	0.191
754	0.191
754	0.191
754	0.191
755	0.191
755	0.191
756	0.19
756	0.19
757	0.189
757	0.19
758	0.19
758	0.19
758	0.191
759	0.191
759	0.191
760	0.191
760	0.191
761	0.191
761	0.192
761	0.192
762	0.192
762	0.193
763	0.193
763	0.192
764	0.192
764	0.193
764	0.193
765	0.193
765	0.193
766	0.193
766	0.193
767	0.193
767	0.192
768	0.191
768	0.192
768	0.192
769	0.192
769	0.192
770	0.193
770	0.193
771	0.194
771	0.194
771	0.195
772	0.196
772	0.197
773	0.197
773	0.197
774	0.197
774	0.198
775	0.198
775	0.198
775	0.198
776	0.198
776	0.198
777	0.199
777	0.199
778	0.199
778	0.199
778	0.199
779	0.199
779	0.199
780	0.198
780	0.198
781	0.198
781	0.197
781	0.197
782	0.197
782	0.197
783	0.198
783	0.199
784	0.199
784	0.199
784	0.2
785	0.2
785	0.2
786	0.2
786	0.2
787	0.201
787	0.2
788	0.199
788	0.199
788	0.198
789	0.198
789	0.198
790	0.198
790	0.197
791	0.197
791	0.197
791	0.197
792	0.198
792	0.198
793	0.198
793	0.198
794	0.198
794	0.198
794	0.198
795	0.198
795	0.199
796	0.199
796	0.199
797	0.199
797	0.199
797	0.199
798	0.2
798	0.2
799	0.2
799	0.2
800	0.2
800	0.199
801	0.199
801	0.199
801	0.199
802	0.2
802	0.2
803	0.2
803	0.2
804	0.201
804	0.201
804	0.202
805	0.202
805	0.202
806	0.202
806	0.202
807	0.202
807	0.202
807	0.202
808	0.202
808	0.202
809	0.201
809	0.201
810	0.201
810	0.201
810	0.201
811	0.201
811	0.202
812	0.202
812	0.203
813	0.203
813	0.204
813	0.204
814	0.205
814	0.206
815	0.207
815	0.207
816	0.207
816	0.207
817	0.206
817	0.206
817	0.206
818	0.205
818	0.205
819	0.204
819	0.204
820	0.203
820	0.203
820	0.202
821	0.203
821	0.203
822	0.203
822	0.203
823	0.204
823	0.204
823	0.205
824	0.206
824	0.207
825	0.208
825	0.209
826	0.209
826	0.209
826	0.209
827	0.21
827	0.21
828	0.211
828	0.211
829	0.211
829	0.211
829	0.211
830	0.212
830	0.212
831	0.213
831	0.214
832	0.214
832	0.214
832	0.214
833	0.213
833	0.213
834	0.213
834	0.213
835	0.212
835	0.212
835	0.211
836	0.211
836	0.211
837	0.21
837	0.21
838	0.209
838	0.208
839	0.208
839	0.207
839	0.206
840	0.205
840	0.204
841	0.204
841	0.203
842	0.203
842	0.202
842	0.202
843	0.202
843	0.201
844	0.201
844	0.201
845	0.201
845	0.201
845	0.201
846	0.201
846	0.201
847	0.201
847	0.201
848	0.202
848	0.202
848	0.203
849	0.203
849	0.203
850	0.203
850	0.204
851	0.204
851	0.204
851	0.204
852	0.203
852	0.203
853	0.203
853	0.203
854	0.204
854	0.204
854	0.205
855	0.206
855	0.207
856	0.207
856	0.208
857	0.209
857	0.21
857	0.211
858	0.211
858	0.211
859	0.211
859	0.211
860	0.211
860	0.21
860	0.21
861	0.209
861	0.209
862	0.208
862	0.207
863	0.206
863	0.206
863	0.205
864	0.205
864	0.205
865	0.205
865	0.205
866	0.205
866	0.205
866	0.205
867	0.206
867	0.207
868	0.207
868	0.207
869	0.208
869	0.207
869	0.207
870	0.206
870	0.206
871	0.206
871	0.206
872	0.206
872	0.206
872	0.205
873	0.205
873	0.205
874	0.204
874	0.204
875	0.204
875	0.204
875	0.204
876	0.203
876	0.203
877	0.202
877	0.202
878	0.202
878	0.202
878	0.202
879	0.202
879	0.203
880	0.203
880	0.203
881	0.204
881	0.204
881	0.204
882	0.205
882	0.205
883	0.205
883	0.206
884	0.206
884	0.206
884	0.206
885	0.206
885	0.205
886	0.205
886	0.205
887	0.204
887	0.203
887	0.203
888	0.202
888	0.201
889	0.201
889	0.2
890	0.2
890	0.2
890	0.199
891	0.199
891	0.199
892	0.199
892	0.199
893	0.199
893	0.199
893	0.198
894	0.198
894	0.198
895	0.198
895	0.198
895	0.198
896	0.198
896	0.198
897	0.198
897	0.198
898	0.198
898	0.198
898	0.197
899	0.196
899	0.196
900	0.195
900	0.195
901	0.194
901	0.193
901	0.193
902	0.192
902	0.192
903	0.192
903	0.191
904	0.191
904	0.191
904	0.191
905	0.191
905	0.19
906	0.191
906	0.191
907	0.191
907	0.191
907	0.192
908	0.192
908	0.192
909	0.192
909	0.192
910	0.192
910	0.192
910	0.191
911	0.191
911	0.191
912	0.19
912	0.19
913	0.19
913	0.189
913	0.189
914	0.189
914	0.188
915	0.188
915	0.188
916	0.188
916	0.188
916	0.188
917	0.188
917	0.188
918	0.188
918	0.187
918	0.187
919	0.186
919	0.186
920	0.186
920	0.185
921	0.185
921	0.184
921	0.184
922	0.184
922	0.184
923	0.184
923	0.184
924	0.184
924	0.184
924	0.184
925	0.184
925	0.184
926	0.185
926	0.185
927	0.185
927	0.185
927	0.185
928	0.186
928	0.186
929	0.186
929	0.186
930	0.186
930	0.186
930	0.185
931	0.185
931	0.185
932	0.185
932	0.184
933	0.184
933	0.184
933	0.183
934	0.183
934	0.183
935	0.182
935	0.182
935	0.181
936	0.18
936	0.18
937	0.179
937	0.179
938	0.178
938	0.178
938	0.177
939	0.176
939	0.176
940	0.176
940	0.176
941	0.176
941	0.176
941	0.176
942	0.176
942	0.176
943	0.176
943	0.176
944	0.176
944	0.176
944	0.176
945	0.176
945	0.176
946	0.176
946	0.175
946	0.175
947	0.175
947	0.174
948	0.174
948	0.173
949	0.172
949	0.172
949	0.171
950	0.17
950	0.17
951	0.169
951	0.168
952	0.167
952	0.167
952	0.166
953	0.165
953	0.165
954	0.165
954	0.165
955	0.165
955	0.165
955	0.165
956	0.166
956	0.167
957	0.167
957	0.168
957	0.168
958	0.168
958	0.168
959	0.169
959	0.169
960	0.169
960	0.169
960	0.169
961	0.169
961	0.169
962	0.169
962	0.168
963	0.169
963	0.169
963	0.168
964	0.168
964	0.169
965	0.169
965	0.168
966	0.168
966	0.168
966	0.168
967	0.167
967	0.167
968	0.167
968	0.166
968	0.166
969	0.165
969	0.164
970	0.163
970	0.162
971	0.161
971	0.159
971	0.159
972	0.158
972	0.157
973	0.156
973	0.156
974	0.156
974	0.156
974	0.156
975	0.157
975	0.157
976	0.158
976	0.158
976	0.159
977	0.159
977	0.159
978	0.159
978	0.159
979	0.159
979	0.159
979	0.16
980	0.16
980	0.159
981	0.159
981	0.159
982	0.159
982	0.159
982	0.159
983	0.159
983	0.159
984	0.158
984	0.158
984	0.158
985	0.158
985	0.157
986	0.157
986	0.157
987	0.157
987	0.156
987	0.156
988	0.156
988	0.155
989	0.155
989	0.155
990	0.154
990	0.154
990	0.154
991	0.153
991	0.153
992	0.152
992	0.152
992	0.151
993	0.15
993	0.149
994	0.148
994	0.147
995	0.146
995	0.145
995	0.145
996	0.145
996	0.145
997	0.145
997	0.145
997	0.145
998	0.146
998	0.147
999	0.147
999	0.148
1000	0.149
1000	0.15
1000	0.151
1001	0.151
1001	0.151
1002	0.151
1002	0.151
1003	0.151
1003	0.151
1003	0.15
1004	0.15
1004	0.149
1005	0.148
1005	0.147
1005	0.146
1006	0.145
1006	0.145
1007	0.144
1007	0.143
1008	0.143
1008	0.143
1008	0.142
1009	0.142
1009	0.142
1010	0.142
1010	0.142
1010	0.142
1011	0.141
1011	0.141
1012	0.141
1012	0.14
1013	0.14
1013	0.139
1013	0.138
1014	0.138
1014	0.137
1015	0.137
1015	0.137
1016	0.136
1016	0.136
1016	0.136
1017	0.136
1017	0.135
1018	0.135
1018	0.135
1018	0.135
1019	0.135
1019	0.134
1020	0.134
1020	0.134
1021	0.134
1021	0.135
1021	0.135
1022	0.135
1022	0.135
1023	0.135
1023	0.136
1023	0.136
1024	0.136
1024	0.136
1025	0.136
1025	0.136
1026	0.136
1026	0.136
1026	0.136
1027	0.136
1027	0.137
1028	0.137
1028	0.137
1028	0.137
1029	0.137
1029	0.137
1030	0.137
1030	0.137
1031	0.138
1031	0.138
1031	0.138
1032	0.138
1032	0.137
1033	0.137
1033	0.137
1033	0.137
1034	0.137
1034	0.136
1035	0.136
1035	0.135
1036	0.135
1036	0.135
1036	0.134
1037	0.134
1037	0.134
1038	0.133
1038	0.133
1039	0.132
1039	0.132
1039	0.132
1040	0.131
1040	0.131
1041	0.131
1041	0.13
1041	0.13
1042	0.129
1042	0.129
1043	0.129
1043	0.129
1044	0.128
1044	0.128
1044	0.128
1045	0.128
1045	0.127
1046	0.127
1046	0.127
1046	0.127
1047	0.127
1047	0.127
1048	0.127
1048	0.127
1049	0.127
1049	0.127
1049	0.127
1050	0.127
1050	0.127
1051	0.126
1051	0.126
1051	0.126
1052	0.126
1052	0.125
1053	0.124
1053	0.124
1053	0.123
1054	0.123
1054	0.122
1055	0.122
1055	0.121
1056	0.12
1056	0.119
1056	0.119
1057	0.118
1057	0.117
1058	0.116
1058	0.115
1058	0.114
1059	0.113
1059	0.112
1060	0.112
1060	0.111
1061	0.11
1061	0.11
1061	0.11
1062	0.109
1062	0.109
1063	0.109
1063	0.108
1063	0.108
1064	0.108
1064	0.107
1065	0.107
1065	0.107
1066	0.107
1066	0.107
1066	0.107
1067	0.107
1067	0.106
1068	0.106
1068	0.106
1068	0.106
1069	0.106
1069	0.106
1070	0.106
1070	0.106
1071	0.106
1071	0.106
1071	0.105
1072	0.105
1072	0.105
1073	0.105
1073	0.105
1073	0.105
1074	0.105
1074	0.105
1075	0.105
1075	0.105
1076	0.106
1076	0.106
1076	0.106
1077	0.106
1077	0.106
1078	0.106
1078	0.106
1078	0.106
1079	0.105
1079	0.105
1080	0.104
1080	0.104
1080	0.103
1081	0.102
1081	0.102
1082	0.102
1082	0.102
1083	0.102
1083	0.102
1083	0.102
1084	0.103
1084	0.103
1085	0.104
1085	0.104
1085	0.104
1086	0.104
1086	0.104
1087	0.104
1087	0.104
1088	0.104
1088	0.104
1088	0.104
1089	0.103
1089	0.102
1090	0.102
1090	0.101
1090	0.1
1091	0.1
1091	0.099
1092	0.099
1092	0.099
1092	0.099
1093	0.098
1093	0.099
1094	0.099
1094	0.098
1095	0.097
1095	0.097
1095	0.096
1096	0.095
1096	0.094
1097	0.093
1097	0.092
1097	0.092
1098	0.091
1098	0.09
1099	0.089
1099	0.088
1100	0.087
1100	0.086
1100	0.085
1101	0.084
1101	0.083
1102	0.082
1102	0.081
1102	0.079
1103	0.078
1103	0.078
1104	0.077
1104	0.076
1104	0.076
1105	0.075
1105	0.073
1106	0.072
1106	0.07
1107	0.069
1107	0.069
1107	0.069
1108	0.069
1108	0.067
1109	0.067
1109	0.067
1109	0.066
1110	0.068
1110	0.068
1111	0.07
1111	0.068
