Data from reversibility-20sec_Absorbance__1__000000000000001.txt Node

Date: Tue Dec 05 12:13:25 CET 2023
User: Marek
Spectrometer: MAYP115816
Trigger mode: 0
Integration Time (sec): 2.000000E-1
Scans to average: 10
Electric dark correction enabled: true
Nonlinearity correction enabled: true
Boxcar width: 5
XAxis mode: Wavelengths
Number of Pixels in Spectrum: 2068
>>>>>Begin Spectral Data<<<<<
199	-0.096
199	-0.078
200	-0.009
200	0.029
201	0.05
201	0.068
202	0.077
202	0.085
203	0.091
203	0.093
204	0.103
204	0.115
205	0.127
205	0.128
205	0.127
206	0.128
206	0.128
207	0.132
207	0.133
208	0.131
208	0.13
209	0.134
209	0.13
210	0.132
210	0.133
211	0.133
211	0.138
212	0.139
212	0.14
213	0.143
213	0.148
213	0.15
214	0.153
214	0.157
215	0.158
215	0.162
216	0.167
216	0.165
217	0.165
217	0.168
218	0.169
218	0.172
219	0.177
219	0.178
220	0.184
220	0.185
221	0.185
221	0.187
221	0.194
222	0.202
222	0.208
223	0.213
223	0.218
224	0.225
224	0.235
225	0.242
225	0.25
226	0.261
226	0.274
227	0.284
227	0.295
228	0.31
228	0.324
229	0.34
229	0.363
229	0.385
230	0.408
230	0.442
231	0.475
231	0.512
232	0.549
232	0.592
233	0.636
233	0.684
234	0.733
234	0.784
235	0.835
235	0.891
236	0.942
236	0.992
236	1.04
237	1.09
237	1.133
238	1.176
238	1.221
239	1.265
239	1.305
240	1.343
240	1.374
241	1.407
241	1.439
242	1.471
242	1.503
243	1.533
243	1.557
243	1.581
244	1.601
244	1.622
245	1.64
245	1.663
246	1.68
246	1.695
247	1.705
247	1.715
248	1.726
248	1.739
249	1.747
249	1.754
250	1.761
250	1.765
250	1.767
251	1.768
251	1.77
252	1.772
252	1.772
253	1.772
253	1.769
254	1.767
254	1.766
255	1.762
255	1.763
256	1.761
256	1.761
257	1.759
257	1.756
258	1.756
258	1.755
258	1.754
259	1.752
259	1.752
260	1.75
260	1.75
261	1.75
261	1.749
262	1.75
262	1.752
263	1.754
263	1.753
264	1.754
264	1.753
265	1.752
265	1.752
265	1.751
266	1.749
266	1.747
267	1.745
267	1.744
268	1.742
268	1.743
269	1.743
269	1.742
270	1.742
270	1.74
271	1.737
271	1.735
272	1.732
272	1.729
272	1.725
273	1.72
273	1.713
274	1.708
274	1.702
275	1.695
275	1.687
276	1.681
276	1.674
277	1.666
277	1.657
278	1.646
278	1.634
278	1.622
279	1.608
279	1.59
280	1.571
280	1.547
281	1.519
281	1.486
282	1.452
282	1.417
283	1.382
283	1.346
284	1.311
284	1.277
285	1.244
285	1.213
285	1.186
286	1.161
286	1.139
287	1.119
287	1.102
288	1.088
288	1.075
289	1.065
289	1.055
290	1.048
290	1.04
291	1.034
291	1.029
292	1.023
292	1.02
292	1.016
293	1.012
293	1.008
294	1.005
294	1.001
295	0.998
295	0.995
296	0.993
296	0.989
297	0.987
297	0.984
298	0.981
298	0.978
298	0.976
299	0.974
299	0.971
300	0.969
300	0.966
301	0.964
301	0.962
302	0.959
302	0.957
303	0.955
303	0.953
304	0.95
304	0.948
305	0.946
305	0.944
305	0.941
306	0.939
306	0.936
307	0.934
307	0.931
308	0.929
308	0.926
309	0.923
309	0.92
310	0.917
310	0.914
311	0.911
311	0.908
311	0.905
312	0.901
312	0.898
313	0.895
313	0.891
314	0.887
314	0.883
315	0.879
315	0.875
316	0.871
316	0.866
317	0.862
317	0.857
318	0.852
318	0.847
318	0.842
319	0.837
319	0.831
320	0.826
320	0.821
321	0.815
321	0.809
322	0.803
322	0.797
323	0.791
323	0.785
324	0.779
324	0.773
324	0.767
325	0.76
325	0.754
326	0.747
326	0.741
327	0.734
327	0.728
328	0.721
328	0.714
329	0.707
329	0.701
330	0.694
330	0.687
330	0.68
331	0.673
331	0.667
332	0.66
332	0.653
333	0.646
333	0.64
334	0.633
334	0.626
335	0.62
335	0.613
336	0.607
336	0.601
336	0.595
337	0.589
337	0.582
338	0.576
338	0.57
339	0.565
339	0.559
340	0.553
340	0.548
341	0.542
341	0.537
342	0.532
342	0.527
342	0.522
343	0.517
343	0.512
344	0.507
344	0.502
345	0.498
345	0.493
346	0.489
346	0.485
347	0.481
347	0.477
348	0.473
348	0.469
348	0.465
349	0.461
349	0.458
350	0.454
350	0.451
351	0.448
351	0.444
352	0.441
352	0.438
353	0.435
353	0.432
354	0.429
354	0.426
354	0.423
355	0.42
355	0.417
356	0.414
356	0.411
357	0.408
357	0.405
358	0.402
358	0.4
359	0.397
359	0.395
360	0.393
360	0.391
360	0.389
361	0.387
361	0.385
362	0.384
362	0.382
363	0.38
363	0.378
364	0.376
364	0.374
365	0.373
365	0.371
366	0.369
366	0.367
366	0.365
367	0.364
367	0.362
368	0.36
368	0.358
369	0.357
369	0.355
370	0.354
370	0.352
371	0.351
371	0.349
372	0.348
372	0.346
372	0.345
373	0.344
373	0.342
374	0.341
374	0.34
375	0.339
375	0.337
376	0.336
376	0.335
377	0.334
377	0.333
378	0.331
378	0.33
378	0.33
379	0.328
379	0.327
380	0.326
380	0.325
381	0.324
381	0.323
382	0.322
382	0.322
383	0.321
383	0.32
383	0.319
384	0.318
384	0.317
385	0.317
385	0.316
386	0.315
386	0.315
387	0.314
387	0.313
388	0.312
388	0.312
389	0.311
389	0.311
389	0.31
390	0.309
390	0.308
391	0.308
391	0.307
392	0.307
392	0.306
393	0.305
393	0.305
394	0.304
394	0.304
394	0.303
395	0.303
395	0.302
396	0.301
396	0.3
397	0.3
397	0.299
398	0.299
398	0.298
399	0.297
399	0.297
400	0.296
400	0.296
400	0.295
401	0.295
401	0.295
402	0.294
402	0.294
403	0.293
403	0.292
404	0.292
404	0.292
405	0.291
405	0.291
405	0.29
406	0.29
406	0.29
407	0.289
407	0.289
408	0.288
408	0.288
409	0.288
409	0.287
410	0.287
410	0.286
411	0.286
411	0.285
411	0.285
412	0.285
412	0.284
413	0.284
413	0.284
414	0.283
414	0.283
415	0.283
415	0.282
416	0.282
416	0.282
416	0.281
417	0.281
417	0.281
418	0.28
418	0.28
419	0.28
419	0.279
420	0.279
420	0.279
421	0.278
421	0.278
421	0.278
422	0.277
422	0.277
423	0.277
423	0.277
424	0.277
424	0.276
425	0.276
425	0.276
426	0.276
426	0.275
427	0.275
427	0.275
427	0.275
428	0.274
428	0.274
429	0.274
429	0.274
430	0.274
430	0.274
431	0.274
431	0.274
432	0.274
432	0.273
432	0.273
433	0.273
433	0.273
434	0.273
434	0.273
435	0.272
435	0.272
436	0.272
436	0.272
437	0.272
437	0.272
437	0.272
438	0.271
438	0.271
439	0.272
439	0.271
440	0.271
440	0.271
441	0.271
441	0.271
442	0.271
442	0.27
442	0.27
443	0.27
443	0.27
444	0.27
444	0.27
445	0.27
445	0.27
446	0.27
446	0.27
447	0.27
447	0.27
447	0.27
448	0.27
448	0.27
449	0.27
449	0.27
450	0.27
450	0.27
451	0.27
451	0.27
452	0.27
452	0.271
452	0.271
453	0.271
453	0.271
454	0.271
454	0.271
455	0.271
455	0.271
456	0.271
456	0.271
457	0.272
457	0.272
458	0.272
458	0.272
458	0.272
459	0.272
459	0.272
460	0.272
460	0.272
461	0.273
461	0.273
462	0.273
462	0.273
463	0.273
463	0.273
463	0.274
464	0.274
464	0.274
465	0.274
465	0.275
466	0.275
466	0.275
467	0.275
467	0.276
467	0.276
468	0.277
468	0.277
469	0.278
469	0.278
470	0.279
470	0.279
471	0.28
471	0.28
472	0.281
472	0.281
472	0.282
473	0.282
473	0.283
474	0.284
474	0.284
475	0.285
475	0.286
476	0.286
476	0.287
477	0.288
477	0.289
477	0.289
478	0.29
478	0.291
479	0.291
479	0.292
480	0.293
480	0.294
481	0.295
481	0.296
482	0.296
482	0.297
482	0.298
483	0.299
483	0.3
484	0.301
484	0.303
485	0.304
485	0.305
486	0.306
486	0.307
487	0.308
487	0.309
487	0.31
488	0.312
488	0.313
489	0.314
489	0.316
490	0.317
490	0.319
491	0.32
491	0.322
492	0.323
492	0.325
492	0.326
493	0.328
493	0.329
494	0.331
494	0.333
495	0.334
495	0.336
496	0.338
496	0.34
496	0.341
497	0.343
497	0.344
498	0.346
498	0.348
499	0.349
499	0.351
500	0.353
500	0.355
501	0.356
501	0.358
501	0.359
502	0.361
502	0.363
503	0.365
503	0.366
504	0.368
504	0.369
505	0.371
505	0.372
506	0.374
506	0.375
506	0.377
507	0.379
507	0.38
508	0.382
508	0.383
509	0.384
509	0.386
510	0.387
510	0.389
511	0.39
511	0.392
511	0.393
512	0.394
512	0.396
513	0.397
513	0.398
514	0.399
514	0.4
515	0.401
515	0.402
515	0.403
516	0.404
516	0.404
517	0.405
517	0.406
518	0.407
518	0.407
519	0.407
519	0.408
520	0.408
520	0.408
520	0.409
521	0.409
521	0.409
522	0.409
522	0.408
523	0.408
523	0.408
524	0.408
524	0.407
524	0.407
525	0.407
525	0.406
526	0.405
526	0.404
527	0.403
527	0.402
528	0.401
528	0.4
529	0.399
529	0.398
529	0.396
530	0.395
530	0.394
531	0.393
531	0.391
532	0.39
532	0.388
533	0.387
533	0.385
533	0.384
534	0.382
534	0.381
535	0.379
535	0.377
536	0.375
536	0.373
537	0.371
537	0.368
538	0.366
538	0.364
538	0.361
539	0.359
539	0.357
540	0.354
540	0.352
541	0.349
541	0.347
542	0.344
542	0.341
542	0.338
543	0.336
543	0.333
544	0.331
544	0.328
545	0.325
545	0.323
546	0.32
546	0.317
547	0.314
547	0.312
547	0.31
548	0.307
548	0.305
549	0.302
549	0.3
550	0.297
550	0.294
551	0.291
551	0.288
551	0.285
552	0.282
552	0.279
553	0.277
553	0.274
554	0.271
554	0.268
555	0.265
555	0.262
556	0.26
556	0.257
556	0.255
557	0.253
557	0.25
558	0.248
558	0.245
559	0.243
559	0.24
560	0.238
560	0.236
560	0.233
561	0.231
561	0.229
562	0.226
562	0.224
563	0.222
563	0.219
564	0.217
564	0.215
564	0.213
565	0.21
565	0.208
566	0.206
566	0.203
567	0.201
567	0.199
568	0.196
568	0.194
568	0.192
569	0.19
569	0.188
570	0.185
570	0.183
571	0.182
571	0.18
572	0.178
572	0.176
573	0.175
573	0.173
573	0.172
574	0.17
574	0.169
575	0.167
575	0.166
576	0.164
576	0.162
577	0.161
577	0.159
577	0.157
578	0.156
578	0.154
579	0.152
579	0.151
580	0.149
580	0.147
581	0.146
581	0.145
581	0.143
582	0.142
582	0.141
583	0.14
583	0.139
584	0.137
584	0.136
585	0.135
585	0.133
585	0.131
586	0.13
586	0.129
587	0.127
587	0.126
588	0.125
588	0.124
589	0.123
589	0.122
590	0.121
590	0.12
590	0.119
591	0.118
591	0.116
592	0.115
592	0.114
593	0.113
593	0.112
594	0.111
594	0.11
594	0.109
595	0.108
595	0.107
596	0.106
596	0.105
597	0.105
597	0.104
598	0.103
598	0.102
598	0.102
599	0.101
599	0.1
600	0.1
600	0.099
601	0.098
601	0.098
602	0.097
602	0.096
602	0.095
603	0.095
603	0.094
604	0.093
604	0.092
605	0.091
605	0.091
606	0.09
606	0.089
606	0.088
607	0.088
607	0.087
608	0.086
608	0.085
609	0.084
609	0.083
610	0.083
610	0.082
610	0.082
611	0.081
611	0.08
612	0.079
612	0.079
613	0.078
613	0.077
614	0.077
614	0.076
614	0.075
615	0.074
615	0.073
616	0.073
616	0.072
617	0.072
617	0.072
618	0.071
618	0.071
618	0.07
619	0.07
619	0.07
620	0.07
620	0.069
621	0.069
621	0.069
622	0.068
622	0.067
622	0.067
623	0.066
623	0.066
624	0.065
624	0.064
625	0.064
625	0.063
626	0.062
626	0.062
626	0.061
627	0.061
627	0.06
628	0.059
628	0.059
629	0.058
629	0.058
630	0.058
630	0.057
630	0.057
631	0.057
631	0.057
632	0.057
632	0.056
633	0.056
633	0.056
634	0.056
634	0.056
634	0.056
635	0.055
635	0.055
636	0.055
636	0.054
637	0.054
637	0.053
638	0.053
638	0.052
638	0.052
639	0.051
639	0.051
640	0.05
640	0.05
641	0.05
641	0.049
642	0.049
642	0.048
642	0.048
643	0.048
643	0.048
644	0.048
644	0.047
645	0.047
645	0.047
646	0.047
646	0.047
646	0.046
647	0.046
647	0.046
648	0.046
648	0.045
649	0.045
649	0.045
650	0.045
650	0.044
650	0.044
651	0.044
651	0.044
652	0.044
652	0.043
653	0.043
653	0.043
653	0.045
654	0.037
654	0.03
655	0.029
655	0.029
656	0.029
656	0.029
657	0.03
657	0.03
657	0.03
658	0.03
658	0.027
659	0.033
659	0.041
660	0.043
660	0.043
661	0.042
661	0.042
661	0.041
662	0.041
662	0.04
663	0.039
663	0.039
664	0.038
664	0.038
665	0.037
665	0.037
665	0.036
666	0.036
666	0.035
667	0.034
667	0.034
668	0.034
668	0.034
669	0.034
669	0.034
669	0.033
670	0.033
670	0.033
671	0.033
671	0.033
672	0.032
672	0.032
672	0.032
673	0.032
673	0.032
674	0.032
674	0.032
675	0.032
675	0.032
676	0.032
676	0.032
676	0.032
677	0.032
677	0.031
678	0.031
678	0.03
679	0.029
679	0.029
680	0.029
680	0.028
680	0.028
681	0.028
681	0.029
682	0.029
682	0.03
683	0.03
683	0.031
684	0.031
684	0.031
684	0.032
685	0.032
685	0.032
686	0.032
686	0.031
687	0.031
687	0.031
687	0.031
688	0.03
688	0.03
689	0.03
689	0.03
690	0.03
690	0.029
691	0.029
691	0.029
691	0.03
692	0.03
692	0.029
693	0.029
693	0.029
694	0.029
694	0.029
695	0.029
695	0.029
695	0.029
696	0.029
696	0.028
697	0.028
697	0.028
698	0.028
698	0.028
698	0.028
699	0.028
699	0.028
700	0.028
700	0.028
701	0.028
701	0.027
702	0.027
702	0.026
702	0.026
703	0.025
703	0.025
704	0.024
704	0.023
705	0.023
705	0.022
705	0.022
706	0.022
706	0.022
707	0.022
707	0.022
708	0.023
708	0.023
709	0.024
709	0.024
709	0.024
710	0.024
710	0.024
711	0.025
711	0.025
712	0.025
712	0.025
713	0.025
713	0.025
713	0.025
714	0.024
714	0.024
715	0.024
715	0.024
716	0.023
716	0.023
716	0.022
717	0.022
717	0.021
718	0.02
718	0.02
719	0.019
719	0.019
720	0.019
720	0.019
720	0.019
721	0.019
721	0.019
722	0.02
722	0.02
723	0.02
723	0.02
723	0.02
724	0.02
724	0.02
725	0.019
725	0.019
726	0.018
726	0.018
727	0.018
727	0.017
727	0.017
728	0.017
728	0.018
729	0.018
729	0.018
730	0.018
730	0.018
730	0.019
731	0.019
731	0.019
732	0.019
732	0.02
733	0.02
733	0.02
734	0.02
734	0.02
734	0.02
735	0.02
735	0.02
736	0.02
736	0.02
737	0.019
737	0.019
737	0.019
738	0.019
738	0.018
739	0.017
739	0.017
740	0.017
740	0.016
741	0.016
741	0.016
741	0.016
742	0.016
742	0.016
743	0.017
743	0.017
744	0.018
744	0.018
744	0.019
745	0.019
745	0.019
746	0.019
746	0.019
747	0.019
747	0.019
748	0.018
748	0.018
748	0.017
749	0.017
749	0.017
750	0.016
750	0.016
751	0.016
751	0.016
751	0.016
752	0.015
752	0.015
753	0.015
753	0.015
754	0.015
754	0.015
754	0.015
755	0.015
755	0.015
756	0.015
756	0.014
757	0.014
757	0.014
758	0.014
758	0.014
758	0.014
759	0.014
759	0.014
760	0.015
760	0.015
761	0.015
761	0.015
761	0.015
762	0.015
762	0.015
763	0.015
763	0.014
764	0.014
764	0.013
764	0.013
765	0.012
765	0.012
766	0.012
766	0.011
767	0.011
767	0.011
768	0.011
768	0.011
768	0.011
769	0.011
769	0.011
770	0.011
770	0.011
771	0.011
771	0.011
771	0.011
772	0.011
772	0.011
773	0.011
773	0.011
774	0.011
774	0.011
775	0.011
775	0.011
775	0.011
776	0.011
776	0.012
777	0.012
777	0.012
778	0.013
778	0.013
778	0.013
779	0.013
779	0.013
780	0.013
780	0.013
781	0.013
781	0.012
781	0.012
782	0.012
782	0.011
783	0.011
783	0.011
784	0.011
784	0.011
784	0.011
785	0.01
785	0.01
786	0.01
786	0.01
787	0.011
787	0.01
788	0.01
788	0.01
788	0.01
789	0.009
789	0.009
790	0.009
790	0.008
791	0.008
791	0.007
791	0.007
792	0.006
792	0.006
793	0.006
793	0.005
794	0.005
794	0.005
794	0.005
795	0.005
795	0.005
796	0.005
796	0.006
797	0.006
797	0.006
797	0.006
798	0.006
798	0.006
799	0.006
799	0.006
800	0.006
800	0.006
801	0.005
801	0.005
801	0.005
802	0.005
802	0.005
803	0.005
803	0.006
804	0.006
804	0.006
804	0.007
805	0.007
805	0.007
806	0.008
806	0.008
807	0.009
807	0.009
807	0.01
808	0.01
808	0.011
809	0.011
809	0.012
810	0.012
810	0.012
810	0.012
811	0.012
811	0.012
812	0.012
812	0.012
813	0.012
813	0.012
813	0.012
814	0.012
814	0.012
815	0.012
815	0.013
816	0.013
816	0.012
817	0.012
817	0.012
817	0.011
818	0.011
818	0.011
819	0.01
819	0.009
820	0.009
820	0.008
820	0.008
821	0.008
821	0.008
822	0.008
822	0.007
823	0.007
823	0.007
823	0.008
824	0.008
824	0.009
825	0.009
825	0.01
826	0.01
826	0.01
826	0.01
827	0.01
827	0.01
828	0.01
828	0.01
829	0.01
829	0.01
829	0.01
830	0.01
830	0.01
831	0.011
831	0.011
832	0.011
832	0.01
832	0.01
833	0.01
833	0.009
834	0.009
834	0.008
835	0.008
835	0.007
835	0.007
836	0.007
836	0.006
837	0.006
837	0.006
838	0.006
838	0.006
839	0.006
839	0.005
839	0.005
840	0.004
840	0.004
841	0.003
841	0.003
842	0.003
842	0.002
842	0.002
843	0.002
843	0.002
844	0.002
844	0.002
845	0.002
845	0.001
845	0.001
846	0
846	0
847	0
847	0
848	0.001
848	0.001
848	0.002
849	0.002
849	0.003
850	0.003
850	0.003
851	0.004
851	0.004
851	0.003
852	0.003
852	0.003
853	0.002
853	0.002
854	0.002
854	0.003
854	0.003
855	0.004
855	0.005
856	0.006
856	0.007
857	0.008
857	0.009
857	0.009
858	0.01
858	0.01
859	0.01
859	0.009
860	0.009
860	0.009
860	0.009
861	0.008
861	0.008
862	0.007
862	0.007
863	0.006
863	0.006
863	0.006
864	0.005
864	0.005
865	0.005
865	0.004
866	0.004
866	0.004
866	0.003
867	0.003
867	0.003
868	0.004
868	0.004
869	0.004
869	0.004
869	0.004
870	0.005
870	0.005
871	0.006
871	0.007
872	0.007
872	0.007
872	0.008
873	0.008
873	0.007
874	0.007
874	0.007
875	0.007
875	0.007
875	0.007
876	0.007
876	0.007
877	0.007
877	0.008
878	0.008
878	0.009
878	0.01
879	0.01
879	0.01
880	0.01
880	0.01
881	0.01
881	0.01
881	0.009
882	0.009
882	0.008
883	0.007
883	0.006
884	0.005
884	0.005
884	0.004
885	0.003
885	0.002
886	0.002
886	0.001
887	0.001
887	0.001
887	0
888	0
888	-0
889	-0
889	-0
890	0
890	0
890	0.001
891	0.001
891	0.001
892	0.001
892	0.001
893	0.001
893	0.001
893	0.001
894	0
894	-0
895	-0.001
895	-0.001
895	-0.001
896	-0.001
896	-0.001
897	-0.002
897	-0.002
898	-0.002
898	-0.002
898	-0.001
899	-0.001
899	-0.001
900	-0
900	-0
901	0
901	0
901	0.001
902	0.001
902	0.001
903	0.001
903	0.001
904	0.001
904	0.001
904	0.001
905	0.001
905	0.001
906	0.001
906	0.002
907	0.002
907	0.003
907	0.004
908	0.004
908	0.005
909	0.005
909	0.005
910	0.006
910	0.006
910	0.006
911	0.006
911	0.006
912	0.006
912	0.005
913	0.005
913	0.005
913	0.004
914	0.004
914	0.003
915	0.003
915	0.002
916	0.002
916	0.002
916	0.001
917	0.001
917	0.001
918	0.001
918	0.001
918	0.001
919	0.002
919	0.002
920	0.002
920	0.002
921	0.003
921	0.003
921	0.003
922	0.003
922	0.004
923	0.004
923	0.004
924	0.005
924	0.005
924	0.006
925	0.006
925	0.006
926	0.006
926	0.006
927	0.006
927	0.006
927	0.006
928	0.006
928	0.006
929	0.006
929	0.006
930	0.006
930	0.006
930	0.005
931	0.005
931	0.004
932	0.004
932	0.004
933	0.003
933	0.003
933	0.002
934	0.002
934	0.001
935	0.001
935	0.001
935	0.001
936	0.001
936	0.001
937	0.001
937	0.001
938	0.002
938	0.002
938	0.003
939	0.003
939	0.003
940	0.003
940	0.004
941	0.004
941	0.004
941	0.005
942	0.005
942	0.005
943	0.005
943	0.005
944	0.005
944	0.005
944	0.006
945	0.006
945	0.007
946	0.007
946	0.007
946	0.007
947	0.007
947	0.007
948	0.007
948	0.007
949	0.007
949	0.006
949	0.006
950	0.006
950	0.006
951	0.005
951	0.005
952	0.005
952	0.004
952	0.004
953	0.004
953	0.003
954	0.003
954	0.003
955	0.003
955	0.002
955	0.002
956	0.003
956	0.003
957	0.003
957	0.003
957	0.004
958	0.004
958	0.004
959	0.004
959	0.004
960	0.004
960	0.004
960	0.003
961	0.003
961	0.002
962	0.002
962	0.002
963	0.002
963	0.002
963	0.002
964	0.002
964	0.002
965	0.002
965	0.002
966	0.003
966	0.003
966	0.004
967	0.004
967	0.005
968	0.005
968	0.006
968	0.006
969	0.006
969	0.006
970	0.006
970	0.006
971	0.006
971	0.006
971	0.005
972	0.005
972	0.004
973	0.004
973	0.003
974	0.003
974	0.003
974	0.003
975	0.003
975	0.003
976	0.003
976	0.003
976	0.003
977	0.003
977	0.003
978	0.003
978	0.003
979	0.002
979	0.002
979	0.002
980	0.002
980	0.001
981	0.001
981	0.001
982	0
982	-0
982	-0
983	-0.001
983	-0.001
984	-0.001
984	-0.001
984	-0.002
985	-0.002
985	-0.002
986	-0.003
986	-0.003
987	-0.003
987	-0.003
987	-0.003
988	-0.003
988	-0.003
989	-0.003
989	-0.003
990	-0.003
990	-0.003
990	-0.002
991	-0.002
991	-0.001
992	-0.001
992	-0
992	-0
993	-0
993	0
994	0
994	0.001
995	0.001
995	0.001
995	0.002
996	0.002
996	0.003
997	0.003
997	0.004
997	0.004
998	0.005
998	0.006
999	0.006
999	0.007
1000	0.007
1000	0.007
1000	0.007
1001	0.007
1001	0.006
1002	0.006
1002	0.005
1003	0.005
1003	0.004
1003	0.003
1004	0.002
1004	0.001
1005	0
1005	-0
1005	-0.001
1006	-0.002
1006	-0.002
1007	-0.002
1007	-0.002
1008	-0.002
1008	-0.002
1008	-0.002
1009	-0.002
1009	-0.002
1010	-0.002
1010	-0.002
1010	-0.002
1011	-0.002
1011	-0.002
1012	-0.002
1012	-0.002
1013	-0.002
1013	-0.002
1013	-0.002
1014	-0.002
1014	-0.002
1015	-0.001
1015	-0.001
1016	-0.001
1016	-0.001
1016	-0.001
1017	-0.001
1017	-0.001
1018	-0.001
1018	-0.002
1018	-0.001
1019	-0.002
1019	-0.002
1020	-0.002
1020	-0.002
1021	-0.002
1021	-0.002
1021	-0.002
1022	-0.002
1022	-0.002
1023	-0.002
1023	-0.003
1023	-0.003
1024	-0.003
1024	-0.003
1025	-0.004
1025	-0.004
1026	-0.004
1026	-0.005
1026	-0.005
1027	-0.006
1027	-0.006
1028	-0.006
1028	-0.007
1028	-0.007
1029	-0.007
1029	-0.007
1030	-0.008
1030	-0.008
1031	-0.008
1031	-0.008
1031	-0.008
1032	-0.008
1032	-0.008
1033	-0.008
1033	-0.008
1033	-0.008
1034	-0.008
1034	-0.008
1035	-0.008
1035	-0.008
1036	-0.008
1036	-0.008
1036	-0.008
1037	-0.008
1037	-0.007
1038	-0.007
1038	-0.007
1039	-0.007
1039	-0.006
1039	-0.006
1040	-0.006
1040	-0.005
1041	-0.005
1041	-0.005
1041	-0.005
1042	-0.005
1042	-0.004
1043	-0.004
1043	-0.003
1044	-0.002
1044	-0.002
1044	-0.001
1045	-0
1045	0.001
1046	0.001
1046	0.002
1046	0.003
1047	0.004
1047	0.004
1048	0.005
1048	0.005
1049	0.006
1049	0.006
1049	0.006
1050	0.006
1050	0.006
1051	0.006
1051	0.006
1051	0.006
1052	0.005
1052	0.005
1053	0.004
1053	0.004
1053	0.003
1054	0.003
1054	0.002
1055	0.002
1055	0.002
1056	0.001
1056	0.001
1056	0
1057	-0
1057	-0
1058	-0.001
1058	-0.001
1058	-0.002
1059	-0.002
1059	-0.002
1060	-0.003
1060	-0.003
1061	-0.004
1061	-0.004
1061	-0.004
1062	-0.004
1062	-0.005
1063	-0.005
1063	-0.005
1063	-0.005
1064	-0.006
1064	-0.006
1065	-0.006
1065	-0.005
1066	-0.005
1066	-0.005
1066	-0.005
1067	-0.005
1067	-0.005
1068	-0.005
1068	-0.005
1068	-0.005
1069	-0.005
1069	-0.005
1070	-0.006
1070	-0.006
1071	-0.006
1071	-0.006
1071	-0.007
1072	-0.006
1072	-0.007
1073	-0.007
1073	-0.007
1073	-0.007
1074	-0.007
1074	-0.007
1075	-0.006
1075	-0.006
1076	-0.006
1076	-0.006
1076	-0.005
1077	-0.005
1077	-0.005
1078	-0.004
1078	-0.004
1078	-0.004
1079	-0.004
1079	-0.004
1080	-0.004
1080	-0.004
1080	-0.004
1081	-0.004
1081	-0.004
1082	-0.004
1082	-0.003
1083	-0.003
1083	-0.003
1083	-0.003
1084	-0.003
1084	-0.003
1085	-0.003
1085	-0.003
1085	-0.003
1086	-0.003
1086	-0.003
1087	-0.003
1087	-0.004
1088	-0.003
1088	-0.003
1088	-0.003
1089	-0.003
1089	-0.003
1090	-0.003
1090	-0.003
1090	-0.004
1091	-0.003
1091	-0.004
1092	-0.003
1092	-0.003
1092	-0.003
1093	-0.003
1093	-0.003
1094	-0.003
1094	-0.003
1095	-0.003
1095	-0.003
1095	-0.003
1096	-0.003
1096	-0.003
1097	-0.003
1097	-0.004
1097	-0.004
1098	-0.004
1098	-0.005
1099	-0.006
1099	-0.006
1100	-0.007
1100	-0.008
1100	-0.008
1101	-0.009
1101	-0.01
1102	-0.01
1102	-0.012
1102	-0.013
1103	-0.013
1103	-0.012
1104	-0.012
1104	-0.012
1104	-0.013
1105	-0.013
1105	-0.013
1106	-0.014
1106	-0.015
1107	-0.014
1107	-0.014
1107	-0.013
1108	-0.014
1108	-0.016
1109	-0.017
1109	-0.018
1109	-0.016
1110	-0.017
1110	-0.016
1111	-0.014
1111	-0.015
