Data from reversibility-20sec_Absorbance__4339__000000000004339.txt Node

Date: Wed Dec 06 12:19:25 CET 2023
User: Marek
Spectrometer: MAYP115816
Trigger mode: 0
Integration Time (sec): 2.000000E-1
Scans to average: 10
Electric dark correction enabled: true
Nonlinearity correction enabled: true
Boxcar width: 5
XAxis mode: Wavelengths
Number of Pixels in Spectrum: 2068
>>>>>Begin Spectral Data<<<<<
199	-0.238
199	-0.199
200	-0.13
200	-0.071
201	-0.039
201	-0.024
202	-0.01
202	0
203	0.009
203	0.012
204	0.027
204	0.042
205	0.055
205	0.061
205	0.06
206	0.058
206	0.059
207	0.059
207	0.058
208	0.057
208	0.058
209	0.06
209	0.059
210	0.059
210	0.057
211	0.057
211	0.058
212	0.057
212	0.06
213	0.062
213	0.06
213	0.061
214	0.065
214	0.065
215	0.067
215	0.068
216	0.069
216	0.068
217	0.074
217	0.074
218	0.072
218	0.079
219	0.083
219	0.081
220	0.083
220	0.082
221	0.085
221	0.089
221	0.095
222	0.098
222	0.101
223	0.108
223	0.111
224	0.114
224	0.125
225	0.135
225	0.145
226	0.151
226	0.163
227	0.173
227	0.183
228	0.198
228	0.216
229	0.233
229	0.258
229	0.279
230	0.303
230	0.333
231	0.369
231	0.404
232	0.438
232	0.483
233	0.528
233	0.576
234	0.626
234	0.677
235	0.73
235	0.781
236	0.83
236	0.881
236	0.936
237	0.99
237	1.037
238	1.084
238	1.13
239	1.177
239	1.219
240	1.259
240	1.298
241	1.337
241	1.372
242	1.403
242	1.438
243	1.468
243	1.493
243	1.519
244	1.542
244	1.565
245	1.585
245	1.607
246	1.627
246	1.645
247	1.658
247	1.672
248	1.687
248	1.703
249	1.715
249	1.723
250	1.73
250	1.738
250	1.743
251	1.746
251	1.75
252	1.756
252	1.757
253	1.761
253	1.759
254	1.76
254	1.761
255	1.759
255	1.76
256	1.762
256	1.763
257	1.765
257	1.764
258	1.765
258	1.765
258	1.764
259	1.763
259	1.763
260	1.764
260	1.765
261	1.765
261	1.768
262	1.77
262	1.772
263	1.775
263	1.775
264	1.776
264	1.778
265	1.78
265	1.781
265	1.782
266	1.78
266	1.78
267	1.777
267	1.778
268	1.777
268	1.779
269	1.781
269	1.781
270	1.78
270	1.779
271	1.777
271	1.778
272	1.776
272	1.775
272	1.771
273	1.766
273	1.761
274	1.754
274	1.749
275	1.744
275	1.738
276	1.731
276	1.724
277	1.717
277	1.708
278	1.698
278	1.686
278	1.674
279	1.66
279	1.643
280	1.621
280	1.596
281	1.566
281	1.531
282	1.494
282	1.457
283	1.42
283	1.383
284	1.347
284	1.311
285	1.278
285	1.247
285	1.22
286	1.195
286	1.173
287	1.154
287	1.137
288	1.123
288	1.111
289	1.1
289	1.091
290	1.083
290	1.076
291	1.07
291	1.064
292	1.059
292	1.055
292	1.051
293	1.047
293	1.043
294	1.04
294	1.036
295	1.033
295	1.03
296	1.026
296	1.023
297	1.02
297	1.017
298	1.014
298	1.011
298	1.008
299	1.005
299	1.003
300	1
300	0.997
301	0.994
301	0.992
302	0.989
302	0.987
303	0.984
303	0.982
304	0.979
304	0.977
305	0.975
305	0.972
305	0.969
306	0.967
306	0.964
307	0.962
307	0.959
308	0.956
308	0.953
309	0.95
309	0.947
310	0.944
310	0.941
311	0.938
311	0.935
311	0.932
312	0.928
312	0.925
313	0.921
313	0.917
314	0.914
314	0.909
315	0.905
315	0.901
316	0.896
316	0.892
317	0.887
317	0.882
318	0.878
318	0.872
318	0.867
319	0.862
319	0.856
320	0.851
320	0.846
321	0.84
321	0.834
322	0.828
322	0.822
323	0.815
323	0.809
324	0.803
324	0.796
324	0.79
325	0.783
325	0.776
326	0.77
326	0.763
327	0.756
327	0.749
328	0.743
328	0.736
329	0.729
329	0.722
330	0.715
330	0.708
330	0.701
331	0.694
331	0.687
332	0.681
332	0.674
333	0.667
333	0.66
334	0.653
334	0.646
335	0.639
335	0.633
336	0.626
336	0.62
336	0.613
337	0.607
337	0.601
338	0.595
338	0.589
339	0.583
339	0.577
340	0.571
340	0.566
341	0.56
341	0.554
342	0.549
342	0.544
342	0.539
343	0.533
343	0.528
344	0.524
344	0.519
345	0.514
345	0.51
346	0.505
346	0.501
347	0.497
347	0.492
348	0.488
348	0.485
348	0.481
349	0.477
349	0.473
350	0.47
350	0.466
351	0.463
351	0.459
352	0.456
352	0.453
353	0.45
353	0.447
354	0.444
354	0.441
354	0.439
355	0.435
355	0.432
356	0.43
356	0.427
357	0.423
357	0.421
358	0.418
358	0.415
359	0.412
359	0.41
360	0.408
360	0.406
360	0.404
361	0.402
361	0.401
362	0.399
362	0.397
363	0.396
363	0.394
364	0.392
364	0.39
365	0.388
365	0.386
366	0.384
366	0.383
366	0.381
367	0.379
367	0.377
368	0.376
368	0.374
369	0.372
369	0.371
370	0.369
370	0.368
371	0.366
371	0.365
372	0.363
372	0.362
372	0.361
373	0.36
373	0.359
374	0.357
374	0.356
375	0.355
375	0.354
376	0.353
376	0.352
377	0.351
377	0.35
378	0.349
378	0.348
378	0.347
379	0.347
379	0.346
380	0.345
380	0.344
381	0.343
381	0.342
382	0.342
382	0.341
383	0.341
383	0.34
383	0.339
384	0.338
384	0.338
385	0.337
385	0.337
386	0.336
386	0.335
387	0.335
387	0.334
388	0.333
388	0.333
389	0.332
389	0.332
389	0.331
390	0.33
390	0.33
391	0.329
391	0.329
392	0.328
392	0.328
393	0.328
393	0.327
394	0.327
394	0.326
394	0.326
395	0.325
395	0.325
396	0.324
396	0.324
397	0.323
397	0.322
398	0.322
398	0.322
399	0.321
399	0.321
400	0.321
400	0.32
400	0.32
401	0.32
401	0.319
402	0.319
402	0.319
403	0.319
403	0.318
404	0.318
404	0.317
405	0.317
405	0.317
405	0.316
406	0.316
406	0.315
407	0.315
407	0.314
408	0.314
408	0.313
409	0.313
409	0.312
410	0.312
410	0.312
411	0.311
411	0.311
411	0.311
412	0.311
412	0.31
413	0.31
413	0.309
414	0.309
414	0.309
415	0.309
415	0.308
416	0.308
416	0.307
416	0.307
417	0.306
417	0.306
418	0.306
418	0.305
419	0.305
419	0.304
420	0.304
420	0.304
421	0.303
421	0.303
421	0.303
422	0.302
422	0.302
423	0.302
423	0.301
424	0.301
424	0.3
425	0.3
425	0.3
426	0.3
426	0.299
427	0.299
427	0.299
427	0.298
428	0.298
428	0.298
429	0.298
429	0.297
430	0.297
430	0.297
431	0.296
431	0.296
432	0.296
432	0.296
432	0.296
433	0.295
433	0.295
434	0.295
434	0.295
435	0.295
435	0.294
436	0.294
436	0.294
437	0.294
437	0.293
437	0.293
438	0.293
438	0.293
439	0.293
439	0.293
440	0.293
440	0.293
441	0.292
441	0.292
442	0.292
442	0.292
442	0.292
443	0.292
443	0.292
444	0.292
444	0.291
445	0.291
445	0.291
446	0.291
446	0.291
447	0.29
447	0.29
447	0.29
448	0.29
448	0.29
449	0.29
449	0.29
450	0.29
450	0.29
451	0.29
451	0.29
452	0.289
452	0.29
452	0.289
453	0.289
453	0.289
454	0.289
454	0.289
455	0.289
455	0.289
456	0.289
456	0.289
457	0.289
457	0.289
458	0.289
458	0.289
458	0.289
459	0.288
459	0.289
460	0.289
460	0.289
461	0.289
461	0.288
462	0.288
462	0.288
463	0.288
463	0.288
463	0.288
464	0.288
464	0.288
465	0.288
465	0.288
466	0.288
466	0.288
467	0.288
467	0.289
467	0.289
468	0.289
468	0.289
469	0.289
469	0.29
470	0.29
470	0.29
471	0.291
471	0.291
472	0.291
472	0.291
472	0.292
473	0.292
473	0.293
474	0.293
474	0.293
475	0.293
475	0.294
476	0.294
476	0.294
477	0.295
477	0.295
477	0.296
478	0.296
478	0.297
479	0.297
479	0.298
480	0.298
480	0.299
481	0.299
481	0.3
482	0.3
482	0.301
482	0.302
483	0.303
483	0.303
484	0.304
484	0.305
485	0.305
485	0.306
486	0.306
486	0.307
487	0.307
487	0.308
487	0.309
488	0.31
488	0.311
489	0.312
489	0.313
490	0.314
490	0.316
491	0.317
491	0.318
492	0.319
492	0.32
492	0.321
493	0.322
493	0.323
494	0.324
494	0.325
495	0.326
495	0.327
496	0.329
496	0.33
496	0.331
497	0.332
497	0.333
498	0.334
498	0.336
499	0.337
499	0.338
500	0.339
500	0.341
501	0.342
501	0.343
501	0.344
502	0.345
502	0.346
503	0.347
503	0.348
504	0.349
504	0.351
505	0.352
505	0.353
506	0.354
506	0.355
506	0.356
507	0.357
507	0.358
508	0.359
508	0.36
509	0.361
509	0.362
510	0.363
510	0.364
511	0.365
511	0.367
511	0.368
512	0.369
512	0.369
513	0.37
513	0.371
514	0.372
514	0.373
515	0.374
515	0.374
515	0.375
516	0.375
516	0.376
517	0.377
517	0.378
518	0.378
518	0.378
519	0.379
519	0.379
520	0.379
520	0.379
520	0.379
521	0.38
521	0.379
522	0.379
522	0.379
523	0.379
523	0.379
524	0.379
524	0.379
524	0.379
525	0.379
525	0.378
526	0.378
526	0.377
527	0.377
527	0.376
528	0.376
528	0.375
529	0.375
529	0.374
529	0.373
530	0.372
530	0.371
531	0.37
531	0.369
532	0.368
532	0.367
533	0.366
533	0.365
533	0.363
534	0.362
534	0.361
535	0.36
535	0.359
536	0.357
536	0.356
537	0.355
537	0.353
538	0.352
538	0.35
538	0.349
539	0.347
539	0.346
540	0.344
540	0.343
541	0.341
541	0.339
542	0.338
542	0.336
542	0.334
543	0.332
543	0.331
544	0.329
544	0.327
545	0.326
545	0.324
546	0.322
546	0.321
547	0.318
547	0.316
547	0.315
548	0.313
548	0.311
549	0.309
549	0.308
550	0.306
550	0.304
551	0.302
551	0.3
551	0.298
552	0.297
552	0.295
553	0.293
553	0.291
554	0.29
554	0.288
555	0.285
555	0.283
556	0.282
556	0.28
556	0.278
557	0.277
557	0.275
558	0.274
558	0.272
559	0.271
559	0.269
560	0.268
560	0.266
560	0.265
561	0.264
561	0.262
562	0.26
562	0.258
563	0.256
563	0.254
564	0.252
564	0.251
564	0.249
565	0.248
565	0.247
566	0.245
566	0.244
567	0.242
567	0.241
568	0.24
568	0.238
568	0.237
569	0.236
569	0.235
570	0.233
570	0.231
571	0.23
571	0.228
572	0.227
572	0.226
573	0.224
573	0.223
573	0.222
574	0.221
574	0.22
575	0.219
575	0.219
576	0.218
576	0.217
577	0.215
577	0.214
577	0.213
578	0.212
578	0.211
579	0.211
579	0.21
580	0.208
580	0.207
581	0.205
581	0.204
581	0.203
582	0.203
582	0.202
583	0.202
583	0.201
584	0.2
584	0.198
585	0.197
585	0.196
585	0.195
586	0.194
586	0.193
587	0.192
587	0.19
588	0.189
588	0.188
589	0.187
589	0.187
590	0.186
590	0.186
590	0.186
591	0.185
591	0.184
592	0.183
592	0.182
593	0.181
593	0.18
594	0.18
594	0.179
594	0.178
595	0.177
595	0.176
596	0.175
596	0.175
597	0.176
597	0.176
598	0.175
598	0.175
598	0.174
599	0.174
599	0.173
600	0.172
600	0.171
601	0.171
601	0.17
602	0.169
602	0.168
602	0.168
603	0.167
603	0.167
604	0.167
604	0.167
605	0.166
605	0.166
606	0.165
606	0.164
606	0.164
607	0.163
607	0.162
608	0.162
608	0.161
609	0.16
609	0.159
610	0.159
610	0.158
610	0.158
611	0.157
611	0.157
612	0.157
612	0.157
613	0.157
613	0.156
614	0.156
614	0.155
614	0.154
615	0.154
615	0.153
616	0.153
616	0.153
617	0.152
617	0.152
618	0.151
618	0.151
618	0.151
619	0.151
619	0.151
620	0.151
620	0.151
621	0.15
621	0.15
622	0.149
622	0.149
622	0.148
623	0.147
623	0.147
624	0.147
624	0.146
625	0.145
625	0.145
626	0.145
626	0.145
626	0.144
627	0.144
627	0.144
628	0.144
628	0.143
629	0.143
629	0.142
630	0.141
630	0.141
630	0.141
631	0.14
631	0.14
632	0.139
632	0.138
633	0.138
633	0.138
634	0.138
634	0.139
634	0.138
635	0.138
635	0.138
636	0.137
636	0.137
637	0.137
637	0.137
638	0.137
638	0.136
638	0.136
639	0.135
639	0.135
640	0.135
640	0.135
641	0.134
641	0.134
642	0.133
642	0.133
642	0.133
643	0.133
643	0.133
644	0.133
644	0.133
645	0.133
645	0.133
646	0.133
646	0.133
646	0.133
647	0.133
647	0.133
648	0.132
648	0.132
649	0.132
649	0.132
650	0.131
650	0.131
650	0.131
651	0.13
651	0.13
652	0.13
652	0.129
653	0.13
653	0.131
653	0.138
654	0.11
654	0.089
655	0.088
655	0.088
656	0.088
656	0.088
657	0.088
657	0.088
657	0.088
658	0.086
658	0.077
659	0.096
659	0.122
660	0.127
660	0.128
661	0.127
661	0.127
661	0.126
662	0.126
662	0.126
663	0.126
663	0.126
664	0.126
664	0.125
665	0.125
665	0.125
665	0.125
666	0.125
666	0.124
667	0.124
667	0.124
668	0.124
668	0.124
669	0.124
669	0.125
669	0.125
670	0.126
670	0.125
671	0.125
671	0.125
672	0.125
672	0.125
672	0.125
673	0.124
673	0.124
674	0.124
674	0.123
675	0.123
675	0.123
676	0.123
676	0.123
676	0.122
677	0.122
677	0.122
678	0.122
678	0.121
679	0.121
679	0.121
680	0.122
680	0.121
680	0.121
681	0.121
681	0.122
682	0.123
682	0.123
683	0.123
683	0.124
684	0.124
684	0.124
684	0.124
685	0.124
685	0.125
686	0.124
686	0.124
687	0.124
687	0.124
687	0.124
688	0.124
688	0.123
689	0.124
689	0.124
690	0.124
690	0.123
691	0.123
691	0.123
691	0.123
692	0.123
692	0.122
693	0.122
693	0.123
694	0.122
694	0.122
695	0.124
695	0.125
695	0.125
696	0.125
696	0.125
697	0.125
697	0.125
698	0.125
698	0.125
698	0.125
699	0.125
699	0.124
700	0.123
700	0.123
701	0.123
701	0.123
702	0.122
702	0.122
702	0.122
703	0.122
703	0.122
704	0.121
704	0.122
705	0.122
705	0.121
705	0.121
706	0.121
706	0.121
707	0.121
707	0.121
708	0.122
708	0.122
709	0.122
709	0.121
709	0.121
710	0.121
710	0.121
711	0.121
711	0.121
712	0.122
712	0.122
713	0.122
713	0.122
713	0.122
714	0.122
714	0.122
715	0.122
715	0.122
716	0.122
716	0.121
716	0.121
717	0.12
717	0.119
718	0.119
718	0.118
719	0.118
719	0.118
720	0.118
720	0.119
720	0.119
721	0.119
721	0.12
722	0.121
722	0.121
723	0.121
723	0.122
723	0.122
724	0.122
724	0.122
725	0.121
725	0.12
726	0.12
726	0.12
727	0.119
727	0.119
727	0.119
728	0.118
728	0.118
729	0.118
729	0.118
730	0.118
730	0.118
730	0.118
731	0.119
731	0.119
732	0.119
732	0.119
733	0.119
733	0.119
734	0.119
734	0.119
734	0.119
735	0.12
735	0.12
736	0.119
736	0.119
737	0.12
737	0.12
737	0.12
738	0.119
738	0.118
739	0.118
739	0.118
740	0.117
740	0.117
741	0.117
741	0.117
741	0.116
742	0.116
742	0.116
743	0.117
743	0.117
744	0.118
744	0.118
744	0.119
745	0.119
745	0.119
746	0.119
746	0.119
747	0.119
747	0.119
748	0.119
748	0.119
748	0.119
749	0.118
749	0.118
750	0.118
750	0.117
751	0.117
751	0.116
751	0.116
752	0.115
752	0.114
753	0.114
753	0.114
754	0.113
754	0.113
754	0.113
755	0.113
755	0.113
756	0.112
756	0.111
757	0.111
757	0.111
758	0.111
758	0.111
758	0.111
759	0.111
759	0.111
760	0.11
760	0.11
761	0.11
761	0.111
761	0.111
762	0.111
762	0.111
763	0.111
763	0.11
764	0.109
764	0.109
764	0.109
765	0.109
765	0.109
766	0.109
766	0.109
767	0.108
767	0.107
768	0.107
768	0.107
768	0.107
769	0.107
769	0.107
770	0.107
770	0.107
771	0.107
771	0.108
771	0.108
772	0.109
772	0.11
773	0.11
773	0.11
774	0.11
774	0.11
775	0.11
775	0.11
775	0.11
776	0.109
776	0.109
777	0.109
777	0.108
778	0.107
778	0.106
778	0.106
779	0.106
779	0.105
780	0.104
780	0.104
781	0.103
781	0.103
781	0.102
782	0.102
782	0.102
783	0.102
783	0.102
784	0.102
784	0.102
784	0.102
785	0.103
785	0.103
786	0.103
786	0.103
787	0.103
787	0.103
788	0.102
788	0.101
788	0.1
789	0.099
789	0.099
790	0.098
790	0.097
791	0.096
791	0.096
791	0.095
792	0.096
792	0.096
793	0.096
793	0.096
794	0.096
794	0.095
794	0.095
795	0.095
795	0.095
796	0.095
796	0.094
797	0.093
797	0.093
797	0.093
798	0.093
798	0.093
799	0.093
799	0.093
800	0.093
800	0.093
801	0.093
801	0.094
801	0.094
802	0.094
802	0.095
803	0.095
803	0.095
804	0.096
804	0.096
804	0.096
805	0.096
805	0.096
806	0.096
806	0.096
807	0.096
807	0.096
807	0.096
808	0.096
808	0.096
809	0.096
809	0.095
810	0.095
810	0.095
810	0.094
811	0.094
811	0.094
812	0.095
812	0.094
813	0.094
813	0.094
813	0.094
814	0.094
814	0.095
815	0.095
815	0.095
816	0.095
816	0.094
817	0.093
817	0.093
817	0.092
818	0.092
818	0.091
819	0.09
819	0.089
820	0.087
820	0.087
820	0.086
821	0.086
821	0.086
822	0.085
822	0.085
823	0.085
823	0.085
823	0.085
824	0.086
824	0.087
825	0.088
825	0.088
826	0.088
826	0.088
826	0.088
827	0.089
827	0.089
828	0.089
828	0.089
829	0.088
829	0.088
829	0.088
830	0.088
830	0.088
831	0.089
831	0.089
832	0.088
832	0.088
832	0.088
833	0.088
833	0.087
834	0.087
834	0.086
835	0.086
835	0.085
835	0.085
836	0.085
836	0.085
837	0.085
837	0.085
838	0.085
838	0.085
839	0.085
839	0.084
839	0.083
840	0.082
840	0.081
841	0.08
841	0.079
842	0.078
842	0.077
842	0.076
843	0.075
843	0.074
844	0.073
844	0.073
845	0.072
845	0.072
845	0.071
846	0.071
846	0.071
847	0.071
847	0.071
848	0.072
848	0.072
848	0.073
849	0.073
849	0.074
850	0.074
850	0.075
851	0.075
851	0.075
851	0.075
852	0.075
852	0.075
853	0.074
853	0.074
854	0.074
854	0.074
854	0.074
855	0.075
855	0.075
856	0.075
856	0.075
857	0.076
857	0.076
857	0.077
858	0.077
858	0.076
859	0.076
859	0.075
860	0.074
860	0.074
860	0.073
861	0.072
861	0.072
862	0.071
862	0.07
863	0.07
863	0.07
863	0.069
864	0.069
864	0.07
865	0.07
865	0.07
866	0.07
866	0.069
866	0.07
867	0.07
867	0.07
868	0.071
868	0.071
869	0.071
869	0.071
869	0.071
870	0.072
870	0.072
871	0.073
871	0.074
872	0.074
872	0.075
872	0.075
873	0.075
873	0.075
874	0.074
874	0.074
875	0.073
875	0.073
875	0.073
876	0.072
876	0.071
877	0.07
877	0.07
878	0.07
878	0.07
878	0.07
879	0.07
879	0.07
880	0.07
880	0.07
881	0.069
881	0.069
881	0.069
882	0.069
882	0.069
883	0.068
883	0.068
884	0.068
884	0.068
884	0.068
885	0.067
885	0.067
886	0.066
886	0.066
887	0.065
887	0.064
887	0.063
888	0.062
888	0.061
889	0.06
889	0.06
890	0.06
890	0.06
890	0.06
891	0.06
891	0.06
892	0.061
892	0.062
893	0.062
893	0.063
893	0.064
894	0.064
894	0.065
895	0.065
895	0.066
895	0.066
896	0.066
896	0.067
897	0.067
897	0.067
898	0.067
898	0.066
898	0.066
899	0.066
899	0.066
900	0.065
900	0.064
901	0.064
901	0.064
901	0.064
902	0.064
902	0.063
903	0.063
903	0.063
904	0.063
904	0.063
904	0.063
905	0.063
905	0.062
906	0.062
906	0.062
907	0.062
907	0.062
907	0.062
908	0.062
908	0.061
909	0.061
909	0.061
910	0.061
910	0.06
910	0.06
911	0.059
911	0.058
912	0.058
912	0.058
913	0.057
913	0.057
913	0.057
914	0.056
914	0.056
915	0.056
915	0.056
916	0.056
916	0.056
916	0.056
917	0.056
917	0.056
918	0.055
918	0.055
918	0.055
919	0.055
919	0.056
920	0.056
920	0.056
921	0.057
921	0.057
921	0.057
922	0.057
922	0.058
923	0.058
923	0.059
924	0.059
924	0.059
924	0.06
925	0.06
925	0.06
926	0.061
926	0.061
927	0.062
927	0.062
927	0.062
928	0.062
928	0.061
929	0.061
929	0.061
930	0.06
930	0.06
930	0.059
931	0.058
931	0.057
932	0.056
932	0.055
933	0.054
933	0.053
933	0.052
934	0.051
934	0.051
935	0.05
935	0.049
935	0.049
936	0.048
936	0.048
937	0.048
937	0.048
938	0.048
938	0.048
938	0.048
939	0.049
939	0.049
940	0.049
940	0.05
941	0.05
941	0.051
941	0.052
942	0.053
942	0.053
943	0.053
943	0.053
944	0.054
944	0.054
944	0.055
945	0.055
945	0.055
946	0.056
946	0.056
946	0.057
947	0.057
947	0.057
948	0.058
948	0.058
949	0.057
949	0.057
949	0.057
950	0.057
950	0.056
951	0.056
951	0.054
952	0.054
952	0.053
952	0.052
953	0.052
953	0.051
954	0.05
954	0.05
955	0.049
955	0.048
955	0.048
956	0.048
956	0.049
957	0.049
957	0.05
957	0.05
958	0.051
958	0.052
959	0.052
959	0.053
960	0.053
960	0.054
960	0.054
961	0.054
961	0.054
962	0.054
962	0.054
963	0.054
963	0.054
963	0.054
964	0.053
964	0.053
965	0.053
965	0.053
966	0.052
966	0.052
966	0.052
967	0.052
967	0.051
968	0.051
968	0.051
968	0.051
969	0.051
969	0.051
970	0.051
970	0.05
971	0.05
971	0.05
971	0.05
972	0.05
972	0.05
973	0.05
973	0.05
974	0.05
974	0.05
974	0.051
975	0.051
975	0.051
976	0.052
976	0.052
976	0.052
977	0.053
977	0.053
978	0.053
978	0.053
979	0.053
979	0.053
979	0.053
980	0.052
980	0.052
981	0.051
981	0.051
982	0.05
982	0.05
982	0.049
983	0.049
983	0.048
984	0.048
984	0.047
984	0.046
985	0.046
985	0.046
986	0.045
986	0.045
987	0.044
987	0.044
987	0.044
988	0.044
988	0.044
989	0.043
989	0.043
990	0.043
990	0.044
990	0.044
991	0.044
991	0.044
992	0.044
992	0.044
992	0.044
993	0.043
993	0.043
994	0.042
994	0.042
995	0.042
995	0.041
995	0.041
996	0.041
996	0.042
997	0.042
997	0.043
997	0.043
998	0.044
998	0.044
999	0.045
999	0.046
1000	0.047
1000	0.048
1000	0.048
1001	0.048
1001	0.048
1002	0.048
1002	0.048
1003	0.048
1003	0.047
1003	0.046
1004	0.046
1004	0.045
1005	0.044
1005	0.043
1005	0.043
1006	0.042
1006	0.042
1007	0.041
1007	0.041
1008	0.04
1008	0.04
1008	0.041
1009	0.041
1009	0.041
1010	0.041
1010	0.041
1010	0.041
1011	0.041
1011	0.041
1012	0.041
1012	0.042
1013	0.042
1013	0.041
1013	0.041
1014	0.041
1014	0.041
1015	0.041
1015	0.041
1016	0.041
1016	0.041
1016	0.041
1017	0.041
1017	0.041
1018	0.041
1018	0.04
1018	0.04
1019	0.04
1019	0.04
1020	0.039
1020	0.039
1021	0.039
1021	0.039
1021	0.039
1022	0.039
1022	0.039
1023	0.039
1023	0.04
1023	0.04
1024	0.041
1024	0.041
1025	0.042
1025	0.042
1026	0.043
1026	0.043
1026	0.043
1027	0.043
1027	0.043
1028	0.044
1028	0.043
1028	0.044
1029	0.044
1029	0.044
1030	0.044
1030	0.045
1031	0.045
1031	0.046
1031	0.046
1032	0.046
1032	0.047
1033	0.047
1033	0.047
1033	0.047
1034	0.048
1034	0.047
1035	0.047
1035	0.047
1036	0.047
1036	0.046
1036	0.046
1037	0.046
1037	0.046
1038	0.045
1038	0.045
1039	0.045
1039	0.045
1039	0.045
1040	0.045
1040	0.044
1041	0.044
1041	0.044
1041	0.044
1042	0.043
1042	0.043
1043	0.043
1043	0.043
1044	0.042
1044	0.042
1044	0.042
1045	0.042
1045	0.042
1046	0.042
1046	0.042
1046	0.042
1047	0.042
1047	0.042
1048	0.042
1048	0.042
1049	0.042
1049	0.042
1049	0.042
1050	0.041
1050	0.04
1051	0.04
1051	0.039
1051	0.038
1052	0.038
1052	0.037
1053	0.036
1053	0.036
1053	0.035
1054	0.035
1054	0.034
1055	0.034
1055	0.034
1056	0.033
1056	0.033
1056	0.033
1057	0.032
1057	0.032
1058	0.031
1058	0.03
1058	0.029
1059	0.029
1059	0.028
1060	0.027
1060	0.027
1061	0.026
1061	0.026
1061	0.026
1062	0.025
1062	0.026
1063	0.026
1063	0.026
1063	0.026
1064	0.026
1064	0.026
1065	0.026
1065	0.026
1066	0.027
1066	0.026
1066	0.026
1067	0.026
1067	0.027
1068	0.026
1068	0.026
1068	0.026
1069	0.026
1069	0.026
1070	0.025
1070	0.025
1071	0.024
1071	0.024
1071	0.023
1072	0.023
1072	0.023
1073	0.022
1073	0.022
1073	0.022
1074	0.022
1074	0.022
1075	0.022
1075	0.023
1076	0.023
1076	0.024
1076	0.023
1077	0.024
1077	0.024
1078	0.024
1078	0.024
1078	0.024
1079	0.024
1079	0.023
1080	0.023
1080	0.023
1080	0.022
1081	0.022
1081	0.022
1082	0.023
1082	0.023
1083	0.023
1083	0.023
1083	0.023
1084	0.024
1084	0.024
1085	0.024
1085	0.025
1085	0.025
1086	0.026
1086	0.025
1087	0.025
1087	0.025
1088	0.026
1088	0.026
1088	0.026
1089	0.026
1089	0.026
1090	0.026
1090	0.025
1090	0.024
1091	0.024
1091	0.024
1092	0.024
1092	0.025
1092	0.024
1093	0.024
1093	0.024
1094	0.024
1094	0.024
1095	0.024
1095	0.024
1095	0.023
1096	0.022
1096	0.021
1097	0.02
1097	0.019
1097	0.018
1098	0.017
1098	0.015
1099	0.015
1099	0.013
1100	0.011
1100	0.01
1100	0.008
1101	0.007
1101	0.006
1102	0.005
1102	0.003
1102	0.002
1103	0.001
1103	0.001
1104	-0.001
1104	-0.001
1104	-0.001
1105	-0.002
1105	-0.004
1106	-0.005
1106	-0.006
1107	-0.006
1107	-0.007
1107	-0.008
1108	-0.01
1108	-0.009
1109	-0.011
1109	-0.012
1109	-0.011
1110	-0.01
1110	-0.012
1111	-0.014
1111	-0.013
