Data from reversibility-20sec_Absorbance__4874__000000000004874.txt Node

Date: Wed Dec 06 15:17:47 CET 2023
User: Marek
Spectrometer: MAYP115816
Trigger mode: 0
Integration Time (sec): 2.000000E-1
Scans to average: 10
Electric dark correction enabled: true
Nonlinearity correction enabled: true
Boxcar width: 5
XAxis mode: Wavelengths
Number of Pixels in Spectrum: 2068
>>>>>Begin Spectral Data<<<<<
199	-0.117
199	-0.085
200	-0.019
200	0.032
201	0.062
201	0.077
202	0.087
202	0.098
203	0.105
203	0.108
204	0.124
204	0.136
205	0.149
205	0.155
205	0.152
206	0.151
206	0.151
207	0.152
207	0.15
208	0.148
208	0.147
209	0.147
209	0.144
210	0.142
210	0.142
211	0.143
211	0.145
212	0.144
212	0.147
213	0.15
213	0.155
213	0.158
214	0.162
214	0.167
215	0.171
215	0.172
216	0.175
216	0.174
217	0.18
217	0.18
218	0.182
218	0.183
219	0.184
219	0.186
220	0.187
220	0.185
221	0.187
221	0.188
221	0.195
222	0.2
222	0.203
223	0.207
223	0.21
224	0.215
224	0.222
225	0.234
225	0.244
226	0.255
226	0.266
227	0.276
227	0.286
228	0.306
228	0.321
229	0.336
229	0.361
229	0.383
230	0.404
230	0.435
231	0.466
231	0.502
232	0.539
232	0.581
233	0.619
233	0.667
234	0.719
234	0.77
235	0.823
235	0.879
236	0.926
236	0.979
236	1.031
237	1.083
237	1.132
238	1.181
238	1.229
239	1.277
239	1.316
240	1.355
240	1.388
241	1.426
241	1.459
242	1.49
242	1.521
243	1.549
243	1.573
243	1.598
244	1.618
244	1.641
245	1.658
245	1.683
246	1.701
246	1.717
247	1.731
247	1.746
248	1.76
248	1.773
249	1.783
249	1.793
250	1.8
250	1.808
250	1.809
251	1.812
251	1.817
252	1.82
252	1.819
253	1.817
253	1.815
254	1.81
254	1.807
255	1.804
255	1.802
256	1.8
256	1.8
257	1.798
257	1.796
258	1.797
258	1.796
258	1.795
259	1.797
259	1.799
260	1.798
260	1.8
261	1.802
261	1.803
262	1.804
262	1.806
263	1.808
263	1.809
264	1.809
264	1.811
265	1.811
265	1.812
265	1.812
266	1.811
266	1.811
267	1.809
267	1.808
268	1.808
268	1.809
269	1.811
269	1.809
270	1.807
270	1.805
271	1.802
271	1.802
272	1.799
272	1.797
272	1.794
273	1.788
273	1.781
274	1.775
274	1.769
275	1.762
275	1.756
276	1.747
276	1.738
277	1.729
277	1.72
278	1.708
278	1.694
278	1.681
279	1.664
279	1.642
280	1.616
280	1.585
281	1.55
281	1.509
282	1.467
282	1.423
283	1.381
283	1.34
284	1.299
284	1.261
285	1.225
285	1.192
285	1.163
286	1.137
286	1.115
287	1.096
287	1.079
288	1.065
288	1.052
289	1.043
289	1.034
290	1.027
290	1.02
291	1.014
291	1.009
292	1.005
292	1
292	0.996
293	0.993
293	0.989
294	0.986
294	0.983
295	0.98
295	0.977
296	0.974
296	0.97
297	0.967
297	0.964
298	0.962
298	0.959
298	0.956
299	0.954
299	0.951
300	0.949
300	0.946
301	0.944
301	0.942
302	0.939
302	0.937
303	0.935
303	0.933
304	0.93
304	0.928
305	0.926
305	0.923
305	0.921
306	0.919
306	0.917
307	0.914
307	0.912
308	0.909
308	0.906
309	0.904
309	0.901
310	0.898
310	0.895
311	0.892
311	0.889
311	0.886
312	0.882
312	0.879
313	0.875
313	0.872
314	0.868
314	0.864
315	0.86
315	0.856
316	0.851
316	0.847
317	0.842
317	0.837
318	0.833
318	0.828
318	0.823
319	0.817
319	0.812
320	0.806
320	0.801
321	0.795
321	0.789
322	0.783
322	0.777
323	0.771
323	0.764
324	0.758
324	0.752
324	0.745
325	0.738
325	0.732
326	0.725
326	0.718
327	0.711
327	0.705
328	0.698
328	0.691
329	0.684
329	0.677
330	0.67
330	0.663
330	0.656
331	0.649
331	0.643
332	0.636
332	0.629
333	0.622
333	0.615
334	0.608
334	0.602
335	0.595
335	0.588
336	0.581
336	0.575
336	0.569
337	0.562
337	0.556
338	0.55
338	0.544
339	0.538
339	0.532
340	0.527
340	0.522
341	0.516
341	0.51
342	0.505
342	0.5
342	0.494
343	0.489
343	0.484
344	0.479
344	0.474
345	0.47
345	0.465
346	0.461
346	0.456
347	0.452
347	0.448
348	0.444
348	0.44
348	0.436
349	0.432
349	0.429
350	0.425
350	0.422
351	0.418
351	0.415
352	0.412
352	0.409
353	0.406
353	0.403
354	0.401
354	0.398
354	0.395
355	0.392
355	0.389
356	0.386
356	0.384
357	0.381
357	0.378
358	0.376
358	0.373
359	0.371
359	0.369
360	0.367
360	0.364
360	0.362
361	0.36
361	0.359
362	0.357
362	0.355
363	0.353
363	0.352
364	0.349
364	0.348
365	0.346
365	0.344
366	0.342
366	0.341
366	0.339
367	0.338
367	0.336
368	0.334
368	0.333
369	0.332
369	0.33
370	0.329
370	0.328
371	0.326
371	0.325
372	0.324
372	0.323
372	0.321
373	0.32
373	0.319
374	0.318
374	0.317
375	0.316
375	0.315
376	0.314
376	0.313
377	0.313
377	0.311
378	0.311
378	0.31
378	0.309
379	0.308
379	0.307
380	0.307
380	0.306
381	0.305
381	0.304
382	0.304
382	0.303
383	0.303
383	0.302
383	0.301
384	0.301
384	0.3
385	0.3
385	0.3
386	0.299
386	0.299
387	0.298
387	0.298
388	0.297
388	0.296
389	0.296
389	0.296
389	0.295
390	0.295
390	0.294
391	0.294
391	0.293
392	0.293
392	0.293
393	0.293
393	0.292
394	0.292
394	0.291
394	0.291
395	0.291
395	0.29
396	0.29
396	0.289
397	0.289
397	0.288
398	0.288
398	0.288
399	0.288
399	0.287
400	0.287
400	0.286
400	0.286
401	0.286
401	0.286
402	0.285
402	0.285
403	0.285
403	0.285
404	0.284
404	0.284
405	0.284
405	0.284
405	0.283
406	0.283
406	0.283
407	0.283
407	0.282
408	0.282
408	0.282
409	0.281
409	0.281
410	0.281
410	0.28
411	0.28
411	0.28
411	0.279
412	0.279
412	0.278
413	0.278
413	0.278
414	0.278
414	0.277
415	0.277
415	0.276
416	0.276
416	0.276
416	0.275
417	0.275
417	0.275
418	0.275
418	0.274
419	0.274
419	0.273
420	0.273
420	0.273
421	0.272
421	0.272
421	0.272
422	0.271
422	0.271
423	0.271
423	0.27
424	0.27
424	0.27
425	0.269
425	0.269
426	0.269
426	0.268
427	0.268
427	0.268
427	0.267
428	0.267
428	0.267
429	0.267
429	0.266
430	0.266
430	0.266
431	0.266
431	0.266
432	0.266
432	0.265
432	0.265
433	0.265
433	0.265
434	0.264
434	0.264
435	0.264
435	0.264
436	0.264
436	0.263
437	0.263
437	0.263
437	0.262
438	0.262
438	0.262
439	0.262
439	0.262
440	0.261
440	0.261
441	0.261
441	0.261
442	0.261
442	0.261
442	0.261
443	0.261
443	0.261
444	0.26
444	0.26
445	0.26
445	0.26
446	0.26
446	0.259
447	0.259
447	0.259
447	0.258
448	0.258
448	0.258
449	0.258
449	0.257
450	0.257
450	0.257
451	0.257
451	0.257
452	0.257
452	0.257
452	0.257
453	0.257
453	0.257
454	0.257
454	0.256
455	0.256
455	0.256
456	0.255
456	0.255
457	0.255
457	0.254
458	0.254
458	0.254
458	0.254
459	0.254
459	0.254
460	0.254
460	0.254
461	0.254
461	0.253
462	0.253
462	0.253
463	0.253
463	0.253
463	0.253
464	0.253
464	0.253
465	0.252
465	0.252
466	0.252
466	0.252
467	0.252
467	0.252
467	0.252
468	0.252
468	0.252
469	0.252
469	0.252
470	0.252
470	0.252
471	0.252
471	0.252
472	0.252
472	0.253
472	0.253
473	0.253
473	0.253
474	0.253
474	0.253
475	0.253
475	0.253
476	0.253
476	0.253
477	0.253
477	0.253
477	0.253
478	0.254
478	0.254
479	0.254
479	0.254
480	0.254
480	0.254
481	0.255
481	0.255
482	0.255
482	0.255
482	0.256
483	0.256
483	0.257
484	0.257
484	0.257
485	0.257
485	0.258
486	0.258
486	0.258
487	0.258
487	0.259
487	0.259
488	0.259
488	0.259
489	0.26
489	0.261
490	0.261
490	0.262
491	0.263
491	0.263
492	0.264
492	0.265
492	0.265
493	0.266
493	0.266
494	0.267
494	0.267
495	0.268
495	0.269
496	0.269
496	0.27
496	0.27
497	0.271
497	0.271
498	0.272
498	0.273
499	0.273
499	0.274
500	0.275
500	0.276
501	0.277
501	0.277
501	0.278
502	0.279
502	0.279
503	0.28
503	0.28
504	0.281
504	0.282
505	0.282
505	0.283
506	0.283
506	0.284
506	0.285
507	0.285
507	0.286
508	0.287
508	0.287
509	0.288
509	0.289
510	0.289
510	0.29
511	0.291
511	0.292
511	0.292
512	0.293
512	0.294
513	0.294
513	0.295
514	0.296
514	0.296
515	0.296
515	0.297
515	0.297
516	0.298
516	0.298
517	0.299
517	0.299
518	0.299
518	0.3
519	0.3
519	0.3
520	0.301
520	0.301
520	0.301
521	0.301
521	0.301
522	0.301
522	0.301
523	0.301
523	0.301
524	0.301
524	0.301
524	0.301
525	0.301
525	0.301
526	0.301
526	0.301
527	0.301
527	0.301
528	0.301
528	0.301
529	0.301
529	0.3
529	0.3
530	0.3
530	0.299
531	0.299
531	0.299
532	0.298
532	0.298
533	0.298
533	0.297
533	0.297
534	0.296
534	0.296
535	0.296
535	0.295
536	0.295
536	0.294
537	0.294
537	0.293
538	0.292
538	0.292
538	0.291
539	0.29
539	0.29
540	0.289
540	0.288
541	0.287
541	0.287
542	0.286
542	0.285
542	0.284
543	0.284
543	0.283
544	0.283
544	0.282
545	0.281
545	0.281
546	0.28
546	0.279
547	0.278
547	0.277
547	0.277
548	0.276
548	0.275
549	0.274
549	0.274
550	0.273
550	0.272
551	0.271
551	0.27
551	0.269
552	0.268
552	0.267
553	0.267
553	0.266
554	0.265
554	0.264
555	0.262
555	0.261
556	0.26
556	0.259
556	0.259
557	0.258
557	0.258
558	0.257
558	0.257
559	0.256
559	0.256
560	0.255
560	0.255
560	0.254
561	0.254
561	0.253
562	0.251
562	0.25
563	0.249
563	0.248
564	0.247
564	0.246
564	0.246
565	0.245
565	0.244
566	0.243
566	0.243
567	0.242
567	0.242
568	0.241
568	0.241
568	0.24
569	0.24
569	0.239
570	0.238
570	0.237
571	0.236
571	0.235
572	0.234
572	0.233
573	0.233
573	0.232
573	0.232
574	0.231
574	0.23
575	0.23
575	0.23
576	0.229
576	0.229
577	0.228
577	0.227
577	0.227
578	0.226
578	0.225
579	0.225
579	0.225
580	0.224
580	0.223
581	0.222
581	0.222
581	0.221
582	0.221
582	0.221
583	0.221
583	0.22
584	0.219
584	0.218
585	0.217
585	0.217
585	0.216
586	0.216
586	0.215
587	0.214
587	0.214
588	0.213
588	0.212
589	0.212
589	0.212
590	0.212
590	0.212
590	0.212
591	0.212
591	0.211
592	0.211
592	0.21
593	0.21
593	0.209
594	0.209
594	0.208
594	0.207
595	0.207
595	0.206
596	0.205
596	0.205
597	0.206
597	0.206
598	0.205
598	0.205
598	0.204
599	0.204
599	0.203
600	0.203
600	0.202
601	0.202
601	0.202
602	0.201
602	0.2
602	0.2
603	0.2
603	0.2
604	0.2
604	0.2
605	0.2
605	0.2
606	0.199
606	0.199
606	0.198
607	0.198
607	0.198
608	0.198
608	0.197
609	0.197
609	0.196
610	0.196
610	0.196
610	0.195
611	0.195
611	0.195
612	0.195
612	0.195
613	0.195
613	0.194
614	0.194
614	0.193
614	0.193
615	0.193
615	0.193
616	0.192
616	0.192
617	0.192
617	0.192
618	0.191
618	0.191
618	0.191
619	0.191
619	0.191
620	0.191
620	0.19
621	0.19
621	0.189
622	0.189
622	0.188
622	0.188
623	0.187
623	0.187
624	0.187
624	0.187
625	0.186
625	0.186
626	0.186
626	0.186
626	0.186
627	0.186
627	0.185
628	0.185
628	0.185
629	0.184
629	0.184
630	0.184
630	0.183
630	0.184
631	0.183
631	0.183
632	0.183
632	0.183
633	0.183
633	0.183
634	0.183
634	0.183
634	0.183
635	0.183
635	0.182
636	0.181
636	0.181
637	0.181
637	0.18
638	0.18
638	0.179
638	0.179
639	0.178
639	0.178
640	0.178
640	0.178
641	0.178
641	0.178
642	0.178
642	0.178
642	0.179
643	0.179
643	0.179
644	0.179
644	0.179
645	0.179
645	0.179
646	0.178
646	0.178
646	0.178
647	0.178
647	0.177
648	0.177
648	0.176
649	0.176
649	0.176
650	0.176
650	0.176
650	0.176
651	0.176
651	0.176
652	0.176
652	0.177
653	0.177
653	0.178
653	0.184
654	0.145
654	0.116
655	0.116
655	0.117
656	0.117
656	0.117
657	0.117
657	0.118
657	0.118
658	0.117
658	0.107
659	0.135
659	0.172
660	0.177
660	0.177
661	0.177
661	0.177
661	0.176
662	0.176
662	0.176
663	0.176
663	0.175
664	0.175
664	0.175
665	0.175
665	0.175
665	0.175
666	0.175
666	0.175
667	0.175
667	0.175
668	0.175
668	0.175
669	0.175
669	0.175
669	0.176
670	0.176
670	0.175
671	0.175
671	0.175
672	0.175
672	0.174
672	0.174
673	0.174
673	0.174
674	0.174
674	0.173
675	0.173
675	0.173
676	0.174
676	0.174
676	0.174
677	0.174
677	0.174
678	0.174
678	0.173
679	0.173
679	0.173
680	0.173
680	0.172
680	0.172
681	0.171
681	0.172
682	0.172
682	0.172
683	0.172
683	0.173
684	0.173
684	0.173
684	0.173
685	0.173
685	0.173
686	0.173
686	0.173
687	0.173
687	0.173
687	0.173
688	0.173
688	0.173
689	0.174
689	0.175
690	0.175
690	0.174
691	0.174
691	0.174
691	0.174
692	0.174
692	0.174
693	0.174
693	0.174
694	0.174
694	0.174
695	0.175
695	0.176
695	0.176
696	0.177
696	0.177
697	0.177
697	0.177
698	0.177
698	0.176
698	0.176
699	0.176
699	0.175
700	0.175
700	0.174
701	0.174
701	0.174
702	0.173
702	0.173
702	0.173
703	0.172
703	0.172
704	0.171
704	0.171
705	0.172
705	0.172
705	0.172
706	0.173
706	0.173
707	0.174
707	0.174
708	0.175
708	0.176
709	0.176
709	0.177
709	0.177
710	0.177
710	0.177
711	0.177
711	0.177
712	0.178
712	0.177
713	0.177
713	0.177
713	0.177
714	0.176
714	0.176
715	0.176
715	0.175
716	0.174
716	0.174
716	0.173
717	0.173
717	0.173
718	0.172
718	0.172
719	0.173
719	0.173
720	0.174
720	0.174
720	0.175
721	0.175
721	0.176
722	0.176
722	0.177
723	0.177
723	0.177
723	0.177
724	0.177
724	0.177
725	0.176
725	0.176
726	0.176
726	0.175
727	0.175
727	0.175
727	0.175
728	0.174
728	0.174
729	0.175
729	0.175
730	0.175
730	0.175
730	0.176
731	0.177
731	0.177
732	0.178
732	0.179
733	0.179
733	0.18
734	0.18
734	0.181
734	0.181
735	0.182
735	0.182
736	0.182
736	0.182
737	0.182
737	0.182
737	0.182
738	0.181
738	0.181
739	0.18
739	0.179
740	0.179
740	0.178
741	0.178
741	0.178
741	0.178
742	0.178
742	0.178
743	0.179
743	0.18
744	0.181
744	0.181
744	0.182
745	0.182
745	0.182
746	0.182
746	0.182
747	0.182
747	0.182
748	0.182
748	0.182
748	0.181
749	0.181
749	0.181
750	0.181
750	0.181
751	0.181
751	0.181
751	0.181
752	0.181
752	0.18
753	0.18
753	0.18
754	0.18
754	0.18
754	0.18
755	0.18
755	0.18
756	0.179
756	0.178
757	0.178
757	0.178
758	0.178
758	0.178
758	0.178
759	0.179
759	0.179
760	0.178
760	0.179
761	0.179
761	0.18
761	0.181
762	0.181
762	0.181
763	0.181
763	0.181
764	0.181
764	0.181
764	0.181
765	0.181
765	0.18
766	0.18
766	0.18
767	0.18
767	0.18
768	0.179
768	0.179
768	0.18
769	0.18
769	0.181
770	0.181
770	0.182
771	0.182
771	0.182
771	0.183
772	0.183
772	0.184
773	0.184
773	0.184
774	0.184
774	0.184
775	0.184
775	0.184
775	0.184
776	0.184
776	0.184
777	0.185
777	0.185
778	0.185
778	0.185
778	0.185
779	0.185
779	0.184
780	0.184
780	0.184
781	0.183
781	0.183
781	0.183
782	0.183
782	0.183
783	0.184
783	0.184
784	0.185
784	0.185
784	0.186
785	0.186
785	0.187
786	0.187
786	0.188
787	0.188
787	0.188
788	0.187
788	0.187
788	0.186
789	0.186
789	0.186
790	0.185
790	0.185
791	0.184
791	0.183
791	0.182
792	0.182
792	0.182
793	0.181
793	0.181
794	0.181
794	0.18
794	0.18
795	0.181
795	0.181
796	0.182
796	0.182
797	0.182
797	0.183
797	0.183
798	0.184
798	0.184
799	0.184
799	0.184
800	0.184
800	0.183
801	0.183
801	0.183
801	0.182
802	0.182
802	0.182
803	0.182
803	0.181
804	0.181
804	0.182
804	0.182
805	0.182
805	0.182
806	0.181
806	0.182
807	0.182
807	0.182
807	0.182
808	0.182
808	0.183
809	0.182
809	0.182
810	0.182
810	0.182
810	0.182
811	0.182
811	0.182
812	0.182
812	0.182
813	0.182
813	0.182
813	0.183
814	0.183
814	0.184
815	0.185
815	0.185
816	0.185
816	0.185
817	0.185
817	0.184
817	0.184
818	0.184
818	0.183
819	0.183
819	0.182
820	0.181
820	0.18
820	0.18
821	0.179
821	0.179
822	0.179
822	0.179
823	0.179
823	0.179
823	0.18
824	0.18
824	0.181
825	0.182
825	0.183
826	0.183
826	0.183
826	0.183
827	0.184
827	0.184
828	0.184
828	0.184
829	0.184
829	0.184
829	0.184
830	0.184
830	0.185
831	0.185
831	0.186
832	0.185
832	0.185
832	0.186
833	0.186
833	0.185
834	0.185
834	0.185
835	0.184
835	0.183
835	0.183
836	0.182
836	0.182
837	0.181
837	0.181
838	0.18
838	0.179
839	0.179
839	0.178
839	0.177
840	0.176
840	0.175
841	0.174
841	0.173
842	0.173
842	0.172
842	0.171
843	0.171
843	0.17
844	0.17
844	0.169
845	0.169
845	0.169
845	0.169
846	0.169
846	0.169
847	0.169
847	0.169
848	0.17
848	0.17
848	0.17
849	0.171
849	0.171
850	0.171
850	0.171
851	0.172
851	0.172
851	0.172
852	0.171
852	0.171
853	0.171
853	0.17
854	0.17
854	0.171
854	0.171
855	0.172
855	0.172
856	0.172
856	0.173
857	0.173
857	0.174
857	0.174
858	0.174
858	0.174
859	0.174
859	0.174
860	0.173
860	0.172
860	0.172
861	0.171
861	0.17
862	0.169
862	0.169
863	0.168
863	0.168
863	0.167
864	0.167
864	0.167
865	0.167
865	0.167
866	0.167
866	0.166
866	0.166
867	0.166
867	0.167
868	0.167
868	0.167
869	0.166
869	0.166
869	0.165
870	0.165
870	0.164
871	0.164
871	0.164
872	0.163
872	0.163
872	0.162
873	0.162
873	0.162
874	0.161
874	0.161
875	0.161
875	0.162
875	0.162
876	0.162
876	0.162
877	0.162
877	0.162
878	0.162
878	0.163
878	0.163
879	0.163
879	0.163
880	0.162
880	0.162
881	0.162
881	0.162
881	0.161
882	0.161
882	0.16
883	0.16
883	0.159
884	0.159
884	0.159
884	0.159
885	0.158
885	0.158
886	0.158
886	0.157
887	0.156
887	0.156
887	0.155
888	0.154
888	0.153
889	0.152
889	0.152
890	0.151
890	0.151
890	0.151
891	0.15
891	0.15
892	0.15
892	0.149
893	0.149
893	0.149
893	0.148
894	0.148
894	0.147
895	0.146
895	0.146
895	0.146
896	0.146
896	0.147
897	0.147
897	0.147
898	0.147
898	0.147
898	0.147
899	0.146
899	0.146
900	0.146
900	0.146
901	0.145
901	0.145
901	0.145
902	0.144
902	0.144
903	0.144
903	0.144
904	0.144
904	0.143
904	0.143
905	0.142
905	0.141
906	0.141
906	0.141
907	0.14
907	0.14
907	0.14
908	0.14
908	0.139
909	0.139
909	0.139
910	0.139
910	0.138
910	0.138
911	0.138
911	0.137
912	0.137
912	0.137
913	0.136
913	0.136
913	0.135
914	0.135
914	0.134
915	0.134
915	0.134
916	0.134
916	0.134
916	0.134
917	0.134
917	0.135
918	0.135
918	0.135
918	0.136
919	0.136
919	0.136
920	0.137
920	0.137
921	0.137
921	0.137
921	0.136
922	0.136
922	0.136
923	0.136
923	0.136
924	0.136
924	0.136
924	0.136
925	0.136
925	0.136
926	0.136
926	0.136
927	0.136
927	0.136
927	0.136
928	0.135
928	0.135
929	0.134
929	0.134
930	0.133
930	0.132
930	0.132
931	0.131
931	0.131
932	0.13
932	0.13
933	0.13
933	0.129
933	0.129
934	0.128
934	0.127
935	0.127
935	0.126
935	0.126
936	0.125
936	0.125
937	0.124
937	0.123
938	0.123
938	0.122
938	0.122
939	0.121
939	0.12
940	0.12
940	0.12
941	0.12
941	0.12
941	0.12
942	0.12
942	0.12
943	0.12
943	0.12
944	0.12
944	0.121
944	0.121
945	0.121
945	0.121
946	0.122
946	0.121
946	0.121
947	0.121
947	0.121
948	0.12
948	0.12
949	0.119
949	0.118
949	0.117
950	0.117
950	0.116
951	0.116
951	0.115
952	0.114
952	0.114
952	0.113
953	0.113
953	0.113
954	0.113
954	0.112
955	0.112
955	0.112
955	0.112
956	0.113
956	0.113
957	0.113
957	0.113
957	0.114
958	0.114
958	0.114
959	0.114
959	0.113
960	0.113
960	0.113
960	0.113
961	0.113
961	0.113
962	0.112
962	0.112
963	0.111
963	0.111
963	0.11
964	0.11
964	0.11
965	0.109
965	0.109
966	0.108
966	0.108
966	0.108
967	0.108
967	0.108
968	0.108
968	0.108
968	0.108
969	0.107
969	0.107
970	0.107
970	0.107
971	0.106
971	0.106
971	0.105
972	0.104
972	0.104
973	0.103
973	0.102
974	0.102
974	0.102
974	0.101
975	0.101
975	0.101
976	0.101
976	0.101
976	0.101
977	0.101
977	0.101
978	0.101
978	0.101
979	0.101
979	0.1
979	0.1
980	0.1
980	0.1
981	0.1
981	0.1
982	0.1
982	0.1
982	0.101
983	0.101
983	0.101
984	0.101
984	0.101
984	0.101
985	0.101
985	0.101
986	0.101
986	0.101
987	0.101
987	0.1
987	0.1
988	0.1
988	0.1
989	0.1
989	0.1
990	0.1
990	0.1
990	0.1
991	0.1
991	0.1
992	0.099
992	0.099
992	0.098
993	0.098
993	0.097
994	0.096
994	0.096
995	0.095
995	0.095
995	0.095
996	0.095
996	0.095
997	0.095
997	0.096
997	0.096
998	0.097
998	0.098
999	0.098
999	0.099
1000	0.1
1000	0.1
1000	0.101
1001	0.101
1001	0.101
1002	0.101
1002	0.101
1003	0.1
1003	0.1
1003	0.099
1004	0.099
1004	0.098
1005	0.098
1005	0.097
1005	0.097
1006	0.096
1006	0.096
1007	0.095
1007	0.095
1008	0.094
1008	0.094
1008	0.094
1009	0.093
1009	0.093
1010	0.092
1010	0.092
1010	0.091
1011	0.091
1011	0.091
1012	0.09
1012	0.09
1013	0.089
1013	0.089
1013	0.089
1014	0.088
1014	0.088
1015	0.087
1015	0.087
1016	0.087
1016	0.087
1016	0.086
1017	0.086
1017	0.085
1018	0.085
1018	0.085
1018	0.084
1019	0.084
1019	0.084
1020	0.083
1020	0.083
1021	0.083
1021	0.083
1021	0.083
1022	0.084
1022	0.084
1023	0.084
1023	0.085
1023	0.085
1024	0.085
1024	0.085
1025	0.086
1025	0.086
1026	0.086
1026	0.086
1026	0.086
1027	0.086
1027	0.086
1028	0.086
1028	0.086
1028	0.086
1029	0.087
1029	0.087
1030	0.087
1030	0.087
1031	0.087
1031	0.087
1031	0.087
1032	0.087
1032	0.087
1033	0.087
1033	0.087
1033	0.087
1034	0.087
1034	0.086
1035	0.086
1035	0.086
1036	0.086
1036	0.086
1036	0.086
1037	0.086
1037	0.086
1038	0.086
1038	0.086
1039	0.086
1039	0.086
1039	0.086
1040	0.086
1040	0.086
1041	0.087
1041	0.086
1041	0.086
1042	0.086
1042	0.086
1043	0.086
1043	0.086
1044	0.085
1044	0.085
1044	0.085
1045	0.085
1045	0.084
1046	0.084
1046	0.084
1046	0.084
1047	0.084
1047	0.084
1048	0.083
1048	0.083
1049	0.083
1049	0.082
1049	0.082
1050	0.081
1050	0.081
1051	0.08
1051	0.079
1051	0.079
1052	0.078
1052	0.078
1053	0.077
1053	0.077
1053	0.076
1054	0.076
1054	0.076
1055	0.076
1055	0.076
1056	0.075
1056	0.074
1056	0.074
1057	0.074
1057	0.073
1058	0.072
1058	0.072
1058	0.071
1059	0.07
1059	0.07
1060	0.069
1060	0.068
1061	0.068
1061	0.067
1061	0.067
1062	0.067
1062	0.067
1063	0.066
1063	0.066
1063	0.066
1064	0.066
1064	0.066
1065	0.066
1065	0.066
1066	0.067
1066	0.067
1066	0.067
1067	0.067
1067	0.067
1068	0.067
1068	0.067
1068	0.067
1069	0.066
1069	0.066
1070	0.066
1070	0.065
1071	0.065
1071	0.064
1071	0.064
1072	0.064
1072	0.064
1073	0.064
1073	0.064
1073	0.063
1074	0.064
1074	0.064
1075	0.064
1075	0.064
1076	0.064
1076	0.065
1076	0.065
1077	0.065
1077	0.065
1078	0.064
1078	0.064
1078	0.064
1079	0.063
1079	0.063
1080	0.062
1080	0.062
1080	0.061
1081	0.061
1081	0.061
1082	0.061
1082	0.061
1083	0.061
1083	0.061
1083	0.061
1084	0.061
1084	0.062
1085	0.062
1085	0.062
1085	0.062
1086	0.063
1086	0.062
1087	0.063
1087	0.063
1088	0.063
1088	0.063
1088	0.063
1089	0.062
1089	0.062
1090	0.061
1090	0.061
1090	0.06
1091	0.06
1091	0.059
1092	0.06
1092	0.059
1092	0.06
1093	0.059
1093	0.059
1094	0.059
1094	0.059
1095	0.059
1095	0.059
1095	0.059
1096	0.058
1096	0.057
1097	0.056
1097	0.055
1097	0.055
1098	0.055
1098	0.053
1099	0.052
1099	0.051
1100	0.05
1100	0.049
1100	0.048
1101	0.048
1101	0.048
1102	0.048
1102	0.047
1102	0.045
1103	0.044
1103	0.044
1104	0.043
1104	0.044
1104	0.044
1105	0.042
1105	0.04
1106	0.039
1106	0.037
1107	0.036
1107	0.036
1107	0.036
1108	0.035
1108	0.034
1109	0.032
1109	0.03
1109	0.031
1110	0.035
1110	0.034
1111	0.033
1111	0.03
