Data from reversibility-20sec_Absorbance__2300__000000000002300.txt Node

Date: Wed Dec 06 00:59:46 CET 2023
User: Marek
Spectrometer: MAYP115816
Trigger mode: 0
Integration Time (sec): 2.000000E-1
Scans to average: 10
Electric dark correction enabled: true
Nonlinearity correction enabled: true
Boxcar width: 5
XAxis mode: Wavelengths
Number of Pixels in Spectrum: 2068
>>>>>Begin Spectral Data<<<<<
199	-0.188
199	-0.155
200	-0.09
200	-0.042
201	-0.015
201	0.003
202	0.019
202	0.026
203	0.035
203	0.04
204	0.056
204	0.07
205	0.083
205	0.088
205	0.09
206	0.094
206	0.094
207	0.096
207	0.095
208	0.094
208	0.092
209	0.092
209	0.091
210	0.091
210	0.093
211	0.092
211	0.091
212	0.088
212	0.089
213	0.092
213	0.094
213	0.095
214	0.099
214	0.102
215	0.101
215	0.102
216	0.103
216	0.103
217	0.107
217	0.11
218	0.111
218	0.112
219	0.117
219	0.116
220	0.119
220	0.121
221	0.124
221	0.129
221	0.136
222	0.142
222	0.144
223	0.148
223	0.152
224	0.157
224	0.167
225	0.173
225	0.181
226	0.191
226	0.201
227	0.211
227	0.222
228	0.237
228	0.252
229	0.27
229	0.295
229	0.316
230	0.343
230	0.375
231	0.405
231	0.443
232	0.478
232	0.522
233	0.566
233	0.618
234	0.668
234	0.719
235	0.773
235	0.826
236	0.88
236	0.933
236	0.985
237	1.041
237	1.091
238	1.141
238	1.188
239	1.238
239	1.283
240	1.327
240	1.369
241	1.407
241	1.446
242	1.482
242	1.52
243	1.553
243	1.584
243	1.612
244	1.637
244	1.662
245	1.682
245	1.706
246	1.727
246	1.749
247	1.766
247	1.782
248	1.8
248	1.815
249	1.83
249	1.84
250	1.852
250	1.864
250	1.87
251	1.877
251	1.881
252	1.889
252	1.892
253	1.895
253	1.896
254	1.898
254	1.904
255	1.904
255	1.907
256	1.91
256	1.911
257	1.913
257	1.913
258	1.913
258	1.914
258	1.916
259	1.918
259	1.917
260	1.919
260	1.922
261	1.924
261	1.93
262	1.933
262	1.936
263	1.942
263	1.945
264	1.947
264	1.95
265	1.955
265	1.956
265	1.957
266	1.959
266	1.96
267	1.96
267	1.961
268	1.962
268	1.964
269	1.968
269	1.967
270	1.967
270	1.969
271	1.966
271	1.965
272	1.963
272	1.961
272	1.959
273	1.952
273	1.945
274	1.94
274	1.935
275	1.928
275	1.922
276	1.916
276	1.91
277	1.903
277	1.895
278	1.884
278	1.873
278	1.859
279	1.841
279	1.818
280	1.79
280	1.756
281	1.717
281	1.674
282	1.629
282	1.585
283	1.541
283	1.497
284	1.456
284	1.416
285	1.379
285	1.345
285	1.315
286	1.288
286	1.265
287	1.245
287	1.227
288	1.212
288	1.199
289	1.188
289	1.178
290	1.17
290	1.163
291	1.156
291	1.15
292	1.145
292	1.14
292	1.135
293	1.131
293	1.127
294	1.124
294	1.12
295	1.117
295	1.113
296	1.11
296	1.107
297	1.104
297	1.101
298	1.098
298	1.095
298	1.092
299	1.089
299	1.086
300	1.083
300	1.081
301	1.078
301	1.075
302	1.072
302	1.07
303	1.067
303	1.065
304	1.062
304	1.06
305	1.057
305	1.054
305	1.052
306	1.049
306	1.046
307	1.044
307	1.041
308	1.038
308	1.035
309	1.032
309	1.029
310	1.026
310	1.023
311	1.019
311	1.016
311	1.013
312	1.009
312	1.005
313	1.001
313	0.997
314	0.993
314	0.989
315	0.984
315	0.98
316	0.976
316	0.971
317	0.966
317	0.961
318	0.956
318	0.951
318	0.945
319	0.939
319	0.934
320	0.928
320	0.922
321	0.915
321	0.909
322	0.902
322	0.896
323	0.889
323	0.882
324	0.876
324	0.869
324	0.862
325	0.855
325	0.848
326	0.841
326	0.834
327	0.827
327	0.82
328	0.813
328	0.806
329	0.799
329	0.791
330	0.784
330	0.777
330	0.769
331	0.762
331	0.755
332	0.748
332	0.741
333	0.733
333	0.727
334	0.719
334	0.713
335	0.706
335	0.699
336	0.692
336	0.686
336	0.679
337	0.672
337	0.666
338	0.659
338	0.653
339	0.647
339	0.64
340	0.634
340	0.629
341	0.623
341	0.617
342	0.611
342	0.606
342	0.601
343	0.595
343	0.59
344	0.585
344	0.58
345	0.576
345	0.571
346	0.566
346	0.562
347	0.557
347	0.553
348	0.549
348	0.545
348	0.541
349	0.536
349	0.532
350	0.529
350	0.525
351	0.521
351	0.518
352	0.515
352	0.512
353	0.508
353	0.505
354	0.502
354	0.499
354	0.496
355	0.493
355	0.49
356	0.488
356	0.484
357	0.481
357	0.478
358	0.475
358	0.472
359	0.47
359	0.467
360	0.465
360	0.463
360	0.461
361	0.458
361	0.456
362	0.455
362	0.453
363	0.451
363	0.45
364	0.447
364	0.445
365	0.443
365	0.441
366	0.439
366	0.438
366	0.436
367	0.434
367	0.432
368	0.43
368	0.428
369	0.426
369	0.425
370	0.423
370	0.422
371	0.42
371	0.418
372	0.417
372	0.416
372	0.414
373	0.413
373	0.412
374	0.41
374	0.409
375	0.408
375	0.407
376	0.406
376	0.405
377	0.403
377	0.402
378	0.401
378	0.4
378	0.399
379	0.398
379	0.397
380	0.396
380	0.395
381	0.395
381	0.394
382	0.393
382	0.392
383	0.391
383	0.39
383	0.389
384	0.389
384	0.388
385	0.387
385	0.386
386	0.385
386	0.385
387	0.384
387	0.383
388	0.382
388	0.382
389	0.381
389	0.38
389	0.38
390	0.379
390	0.379
391	0.378
391	0.378
392	0.377
392	0.377
393	0.376
393	0.375
394	0.375
394	0.374
394	0.374
395	0.373
395	0.373
396	0.372
396	0.371
397	0.37
397	0.37
398	0.369
398	0.369
399	0.368
399	0.367
400	0.367
400	0.366
400	0.366
401	0.366
401	0.365
402	0.364
402	0.364
403	0.364
403	0.363
404	0.363
404	0.362
405	0.362
405	0.361
405	0.361
406	0.36
406	0.36
407	0.359
407	0.359
408	0.358
408	0.358
409	0.357
409	0.357
410	0.357
410	0.356
411	0.356
411	0.356
411	0.356
412	0.355
412	0.355
413	0.354
413	0.354
414	0.353
414	0.353
415	0.353
415	0.352
416	0.352
416	0.351
416	0.351
417	0.35
417	0.35
418	0.349
418	0.349
419	0.348
419	0.348
420	0.347
420	0.347
421	0.346
421	0.346
421	0.345
422	0.345
422	0.345
423	0.344
423	0.344
424	0.344
424	0.343
425	0.343
425	0.343
426	0.342
426	0.342
427	0.342
427	0.341
427	0.341
428	0.341
428	0.34
429	0.34
429	0.34
430	0.34
430	0.34
431	0.339
431	0.339
432	0.339
432	0.339
432	0.338
433	0.338
433	0.338
434	0.337
434	0.337
435	0.337
435	0.337
436	0.337
436	0.337
437	0.336
437	0.336
437	0.336
438	0.336
438	0.336
439	0.336
439	0.336
440	0.336
440	0.335
441	0.335
441	0.335
442	0.335
442	0.334
442	0.334
443	0.334
443	0.334
444	0.333
444	0.333
445	0.333
445	0.333
446	0.332
446	0.332
447	0.331
447	0.331
447	0.331
448	0.331
448	0.331
449	0.331
449	0.331
450	0.331
450	0.331
451	0.331
451	0.331
452	0.331
452	0.331
452	0.331
453	0.331
453	0.331
454	0.331
454	0.33
455	0.33
455	0.33
456	0.33
456	0.33
457	0.33
457	0.33
458	0.33
458	0.33
458	0.33
459	0.33
459	0.33
460	0.33
460	0.33
461	0.33
461	0.33
462	0.33
462	0.33
463	0.33
463	0.33
463	0.33
464	0.33
464	0.33
465	0.33
465	0.33
466	0.331
466	0.331
467	0.331
467	0.331
467	0.331
468	0.332
468	0.332
469	0.332
469	0.333
470	0.333
470	0.334
471	0.334
471	0.334
472	0.335
472	0.335
472	0.336
473	0.336
473	0.336
474	0.336
474	0.337
475	0.337
475	0.337
476	0.338
476	0.338
477	0.339
477	0.339
477	0.339
478	0.34
478	0.34
479	0.341
479	0.341
480	0.342
480	0.343
481	0.343
481	0.344
482	0.344
482	0.345
482	0.346
483	0.347
483	0.348
484	0.349
484	0.349
485	0.35
485	0.351
486	0.352
486	0.352
487	0.353
487	0.354
487	0.355
488	0.356
488	0.357
489	0.358
489	0.36
490	0.361
490	0.362
491	0.364
491	0.365
492	0.366
492	0.368
492	0.369
493	0.37
493	0.372
494	0.373
494	0.374
495	0.375
495	0.377
496	0.378
496	0.379
496	0.38
497	0.381
497	0.382
498	0.384
498	0.385
499	0.386
499	0.388
500	0.389
500	0.391
501	0.393
501	0.394
501	0.395
502	0.397
502	0.399
503	0.4
503	0.401
504	0.403
504	0.404
505	0.405
505	0.407
506	0.408
506	0.409
506	0.411
507	0.411
507	0.413
508	0.414
508	0.415
509	0.417
509	0.418
510	0.419
510	0.42
511	0.421
511	0.423
511	0.424
512	0.425
512	0.426
513	0.427
513	0.428
514	0.429
514	0.43
515	0.431
515	0.432
515	0.432
516	0.433
516	0.433
517	0.434
517	0.435
518	0.435
518	0.435
519	0.435
519	0.435
520	0.436
520	0.436
520	0.436
521	0.436
521	0.436
522	0.436
522	0.436
523	0.436
523	0.436
524	0.436
524	0.436
524	0.435
525	0.435
525	0.434
526	0.434
526	0.434
527	0.433
527	0.433
528	0.432
528	0.431
529	0.43
529	0.429
529	0.428
530	0.427
530	0.426
531	0.425
531	0.423
532	0.422
532	0.42
533	0.419
533	0.417
533	0.416
534	0.414
534	0.413
535	0.412
535	0.41
536	0.409
536	0.407
537	0.406
537	0.404
538	0.402
538	0.4
538	0.399
539	0.397
539	0.395
540	0.393
540	0.391
541	0.389
541	0.387
542	0.385
542	0.383
542	0.381
543	0.379
543	0.377
544	0.375
544	0.373
545	0.371
545	0.369
546	0.366
546	0.364
547	0.361
547	0.359
547	0.357
548	0.355
548	0.353
549	0.351
549	0.349
550	0.347
550	0.345
551	0.342
551	0.34
551	0.338
552	0.336
552	0.334
553	0.332
553	0.33
554	0.328
554	0.326
555	0.323
555	0.321
556	0.319
556	0.317
556	0.315
557	0.313
557	0.311
558	0.309
558	0.307
559	0.305
559	0.303
560	0.301
560	0.299
560	0.297
561	0.296
561	0.294
562	0.292
562	0.29
563	0.288
563	0.286
564	0.284
564	0.282
564	0.28
565	0.279
565	0.277
566	0.275
566	0.273
567	0.272
567	0.271
568	0.269
568	0.268
568	0.266
569	0.265
569	0.263
570	0.261
570	0.259
571	0.258
571	0.256
572	0.255
572	0.253
573	0.252
573	0.25
573	0.248
574	0.247
574	0.246
575	0.244
575	0.244
576	0.242
576	0.241
577	0.239
577	0.238
577	0.236
578	0.235
578	0.234
579	0.233
579	0.233
580	0.231
580	0.229
581	0.228
581	0.226
581	0.226
582	0.225
582	0.225
583	0.224
583	0.223
584	0.222
584	0.22
585	0.219
585	0.218
585	0.216
586	0.215
586	0.214
587	0.212
587	0.211
588	0.21
588	0.208
589	0.207
589	0.207
590	0.206
590	0.205
590	0.205
591	0.204
591	0.203
592	0.202
592	0.201
593	0.2
593	0.199
594	0.198
594	0.197
594	0.196
595	0.196
595	0.195
596	0.194
596	0.193
597	0.194
597	0.193
598	0.193
598	0.192
598	0.191
599	0.191
599	0.19
600	0.189
600	0.188
601	0.188
601	0.187
602	0.186
602	0.185
602	0.184
603	0.183
603	0.183
604	0.182
604	0.182
605	0.181
605	0.181
606	0.18
606	0.179
606	0.178
607	0.178
607	0.177
608	0.177
608	0.175
609	0.175
609	0.174
610	0.173
610	0.173
610	0.172
611	0.172
611	0.172
612	0.172
612	0.172
613	0.172
613	0.171
614	0.171
614	0.17
614	0.169
615	0.169
615	0.168
616	0.168
616	0.168
617	0.167
617	0.167
618	0.166
618	0.166
618	0.166
619	0.166
619	0.166
620	0.166
620	0.166
621	0.165
621	0.164
622	0.163
622	0.163
622	0.162
623	0.161
623	0.16
624	0.16
624	0.159
625	0.158
625	0.158
626	0.157
626	0.157
626	0.157
627	0.157
627	0.156
628	0.156
628	0.156
629	0.155
629	0.155
630	0.154
630	0.154
630	0.154
631	0.154
631	0.154
632	0.153
632	0.153
633	0.152
633	0.152
634	0.152
634	0.152
634	0.152
635	0.151
635	0.151
636	0.15
636	0.15
637	0.15
637	0.149
638	0.149
638	0.148
638	0.148
639	0.147
639	0.147
640	0.146
640	0.146
641	0.146
641	0.145
642	0.145
642	0.145
642	0.145
643	0.145
643	0.145
644	0.145
644	0.145
645	0.145
645	0.145
646	0.145
646	0.145
646	0.145
647	0.144
647	0.144
648	0.143
648	0.142
649	0.142
649	0.141
650	0.141
650	0.141
650	0.14
651	0.14
651	0.14
652	0.14
652	0.14
653	0.141
653	0.143
653	0.149
654	0.118
654	0.095
655	0.095
655	0.095
656	0.095
656	0.095
657	0.095
657	0.095
657	0.095
658	0.094
658	0.085
659	0.106
659	0.135
660	0.14
660	0.14
661	0.139
661	0.139
661	0.139
662	0.138
662	0.137
663	0.137
663	0.136
664	0.136
664	0.135
665	0.135
665	0.135
665	0.135
666	0.135
666	0.135
667	0.135
667	0.135
668	0.135
668	0.135
669	0.135
669	0.135
669	0.136
670	0.136
670	0.136
671	0.136
671	0.136
672	0.135
672	0.135
672	0.134
673	0.134
673	0.134
674	0.134
674	0.133
675	0.133
675	0.133
676	0.132
676	0.132
676	0.132
677	0.132
677	0.132
678	0.132
678	0.132
679	0.131
679	0.131
680	0.132
680	0.131
680	0.131
681	0.131
681	0.131
682	0.132
682	0.131
683	0.131
683	0.132
684	0.132
684	0.131
684	0.131
685	0.131
685	0.131
686	0.131
686	0.131
687	0.131
687	0.131
687	0.131
688	0.13
688	0.13
689	0.13
689	0.131
690	0.131
690	0.13
691	0.13
691	0.13
691	0.131
692	0.131
692	0.131
693	0.132
693	0.132
694	0.132
694	0.132
695	0.132
695	0.133
695	0.133
696	0.133
696	0.133
697	0.132
697	0.132
698	0.131
698	0.131
698	0.131
699	0.131
699	0.13
700	0.129
700	0.13
701	0.13
701	0.13
702	0.13
702	0.13
702	0.13
703	0.13
703	0.13
704	0.129
704	0.129
705	0.129
705	0.128
705	0.127
706	0.127
706	0.127
707	0.126
707	0.126
708	0.126
708	0.126
709	0.125
709	0.125
709	0.124
710	0.124
710	0.125
711	0.125
711	0.125
712	0.125
712	0.125
713	0.125
713	0.126
713	0.126
714	0.126
714	0.126
715	0.126
715	0.126
716	0.125
716	0.125
716	0.124
717	0.124
717	0.123
718	0.123
718	0.122
719	0.122
719	0.123
720	0.123
720	0.123
720	0.123
721	0.124
721	0.124
722	0.125
722	0.125
723	0.125
723	0.125
723	0.125
724	0.125
724	0.125
725	0.124
725	0.123
726	0.122
726	0.121
727	0.12
727	0.12
727	0.119
728	0.119
728	0.118
729	0.119
729	0.119
730	0.119
730	0.119
730	0.119
731	0.12
731	0.12
732	0.12
732	0.121
733	0.12
733	0.12
734	0.12
734	0.119
734	0.119
735	0.119
735	0.118
736	0.117
736	0.117
737	0.116
737	0.116
737	0.116
738	0.115
738	0.114
739	0.114
739	0.114
740	0.113
740	0.113
741	0.114
741	0.113
741	0.113
742	0.113
742	0.113
743	0.113
743	0.113
744	0.114
744	0.114
744	0.114
745	0.114
745	0.113
746	0.113
746	0.113
747	0.114
747	0.114
748	0.115
748	0.115
748	0.115
749	0.115
749	0.116
750	0.116
750	0.116
751	0.116
751	0.115
751	0.115
752	0.115
752	0.114
753	0.114
753	0.113
754	0.113
754	0.112
754	0.112
755	0.112
755	0.112
756	0.111
756	0.11
757	0.109
757	0.109
758	0.108
758	0.108
758	0.108
759	0.108
759	0.107
760	0.107
760	0.107
761	0.107
761	0.107
761	0.108
762	0.108
762	0.108
763	0.108
763	0.107
764	0.107
764	0.107
764	0.106
765	0.106
765	0.105
766	0.105
766	0.104
767	0.103
767	0.102
768	0.101
768	0.101
768	0.1
769	0.099
769	0.099
770	0.099
770	0.099
771	0.098
771	0.098
771	0.099
772	0.099
772	0.099
773	0.1
773	0.1
774	0.1
774	0.101
775	0.101
775	0.101
775	0.101
776	0.101
776	0.101
777	0.101
777	0.101
778	0.1
778	0.1
778	0.099
779	0.099
779	0.098
780	0.097
780	0.097
781	0.096
781	0.096
781	0.095
782	0.095
782	0.094
783	0.094
783	0.094
784	0.094
784	0.094
784	0.094
785	0.094
785	0.094
786	0.094
786	0.093
787	0.093
787	0.093
788	0.092
788	0.092
788	0.092
789	0.091
789	0.091
790	0.091
790	0.091
791	0.091
791	0.091
791	0.091
792	0.092
792	0.092
793	0.092
793	0.092
794	0.092
794	0.092
794	0.092
795	0.092
795	0.092
796	0.092
796	0.092
797	0.091
797	0.091
797	0.091
798	0.091
798	0.091
799	0.091
799	0.09
800	0.089
800	0.089
801	0.088
801	0.088
801	0.088
802	0.087
802	0.087
803	0.087
803	0.087
804	0.087
804	0.087
804	0.087
805	0.087
805	0.087
806	0.087
806	0.087
807	0.087
807	0.086
807	0.086
808	0.086
808	0.086
809	0.086
809	0.086
810	0.086
810	0.086
810	0.086
811	0.086
811	0.086
812	0.087
812	0.086
813	0.086
813	0.086
813	0.085
814	0.085
814	0.085
815	0.085
815	0.085
816	0.084
816	0.084
817	0.083
817	0.083
817	0.083
818	0.082
818	0.082
819	0.082
819	0.081
820	0.08
820	0.08
820	0.079
821	0.079
821	0.079
822	0.079
822	0.079
823	0.079
823	0.079
823	0.08
824	0.081
824	0.081
825	0.082
825	0.083
826	0.083
826	0.082
826	0.082
827	0.082
827	0.082
828	0.081
828	0.081
829	0.081
829	0.08
829	0.08
830	0.08
830	0.08
831	0.081
831	0.081
832	0.081
832	0.081
832	0.081
833	0.081
833	0.081
834	0.081
834	0.081
835	0.081
835	0.08
835	0.081
836	0.081
836	0.081
837	0.081
837	0.082
838	0.082
838	0.081
839	0.081
839	0.08
839	0.08
840	0.079
840	0.077
841	0.076
841	0.075
842	0.074
842	0.072
842	0.071
843	0.07
843	0.07
844	0.069
844	0.069
845	0.068
845	0.068
845	0.068
846	0.068
846	0.068
847	0.069
847	0.069
848	0.07
848	0.071
848	0.072
849	0.072
849	0.073
850	0.073
850	0.074
851	0.074
851	0.074
851	0.073
852	0.072
852	0.071
853	0.071
853	0.07
854	0.07
854	0.07
854	0.07
855	0.07
855	0.07
856	0.071
856	0.071
857	0.072
857	0.072
857	0.073
858	0.073
858	0.072
859	0.072
859	0.071
860	0.07
860	0.069
860	0.069
861	0.068
861	0.067
862	0.066
862	0.065
863	0.065
863	0.064
863	0.064
864	0.064
864	0.064
865	0.064
865	0.064
866	0.064
866	0.065
866	0.065
867	0.065
867	0.065
868	0.065
868	0.065
869	0.065
869	0.064
869	0.064
870	0.063
870	0.063
871	0.063
871	0.063
872	0.063
872	0.063
872	0.063
873	0.064
873	0.064
874	0.064
874	0.064
875	0.064
875	0.063
875	0.063
876	0.063
876	0.063
877	0.063
877	0.064
878	0.064
878	0.065
878	0.066
879	0.067
879	0.068
880	0.069
880	0.07
881	0.07
881	0.07
881	0.07
882	0.069
882	0.068
883	0.067
883	0.066
884	0.065
884	0.064
884	0.064
885	0.063
885	0.063
886	0.062
886	0.062
887	0.062
887	0.062
887	0.061
888	0.061
888	0.06
889	0.059
889	0.059
890	0.058
890	0.058
890	0.058
891	0.057
891	0.057
892	0.057
892	0.057
893	0.058
893	0.058
893	0.058
894	0.058
894	0.058
895	0.058
895	0.058
895	0.059
896	0.059
896	0.059
897	0.058
897	0.058
898	0.058
898	0.058
898	0.058
899	0.058
899	0.058
900	0.058
900	0.059
901	0.059
901	0.059
901	0.059
902	0.06
902	0.059
903	0.059
903	0.059
904	0.059
904	0.059
904	0.059
905	0.059
905	0.059
906	0.059
906	0.059
907	0.059
907	0.06
907	0.061
908	0.061
908	0.062
909	0.062
909	0.062
910	0.062
910	0.062
910	0.062
911	0.062
911	0.061
912	0.061
912	0.06
913	0.06
913	0.059
913	0.059
914	0.058
914	0.058
915	0.057
915	0.057
916	0.056
916	0.056
916	0.055
917	0.054
917	0.054
918	0.053
918	0.053
918	0.052
919	0.052
919	0.051
920	0.051
920	0.051
921	0.05
921	0.05
921	0.05
922	0.049
922	0.049
923	0.049
923	0.05
924	0.05
924	0.05
924	0.05
925	0.05
925	0.051
926	0.051
926	0.051
927	0.051
927	0.051
927	0.052
928	0.052
928	0.052
929	0.052
929	0.053
930	0.053
930	0.053
930	0.053
931	0.054
931	0.054
932	0.055
932	0.056
933	0.056
933	0.057
933	0.057
934	0.057
934	0.057
935	0.058
935	0.058
935	0.058
936	0.058
936	0.058
937	0.058
937	0.058
938	0.058
938	0.057
938	0.057
939	0.057
939	0.056
940	0.056
940	0.056
941	0.056
941	0.056
941	0.056
942	0.056
942	0.056
943	0.056
943	0.056
944	0.056
944	0.056
944	0.056
945	0.056
945	0.056
946	0.056
946	0.056
946	0.056
947	0.056
947	0.056
948	0.055
948	0.055
949	0.054
949	0.054
949	0.053
950	0.052
950	0.052
951	0.051
951	0.05
952	0.049
952	0.048
952	0.047
953	0.047
953	0.047
954	0.046
954	0.046
955	0.046
955	0.046
955	0.046
956	0.047
956	0.048
957	0.049
957	0.049
957	0.05
958	0.051
958	0.052
959	0.053
959	0.053
960	0.054
960	0.055
960	0.055
961	0.055
961	0.055
962	0.055
962	0.055
963	0.055
963	0.055
963	0.055
964	0.056
964	0.056
965	0.056
965	0.056
966	0.056
966	0.057
966	0.057
967	0.057
967	0.057
968	0.058
968	0.058
968	0.058
969	0.057
969	0.057
970	0.057
970	0.057
971	0.057
971	0.057
971	0.056
972	0.056
972	0.056
973	0.056
973	0.056
974	0.056
974	0.056
974	0.056
975	0.057
975	0.057
976	0.057
976	0.057
976	0.057
977	0.057
977	0.057
978	0.057
978	0.057
979	0.056
979	0.056
979	0.056
980	0.055
980	0.054
981	0.053
981	0.053
982	0.052
982	0.051
982	0.051
983	0.05
983	0.05
984	0.049
984	0.048
984	0.048
985	0.047
985	0.046
986	0.046
986	0.045
987	0.045
987	0.045
987	0.045
988	0.045
988	0.045
989	0.045
989	0.045
990	0.045
990	0.045
990	0.045
991	0.045
991	0.046
992	0.046
992	0.045
992	0.045
993	0.045
993	0.045
994	0.044
994	0.044
995	0.044
995	0.044
995	0.045
996	0.045
996	0.045
997	0.045
997	0.045
997	0.046
998	0.046
998	0.047
999	0.047
999	0.048
1000	0.048
1000	0.049
1000	0.049
1001	0.05
1001	0.05
1002	0.05
1002	0.05
1003	0.05
1003	0.05
1003	0.049
1004	0.049
1004	0.049
1005	0.048
1005	0.048
1005	0.047
1006	0.047
1006	0.047
1007	0.046
1007	0.046
1008	0.046
1008	0.046
1008	0.046
1009	0.046
1009	0.046
1010	0.045
1010	0.046
1010	0.046
1011	0.046
1011	0.046
1012	0.046
1012	0.046
1013	0.046
1013	0.046
1013	0.046
1014	0.046
1014	0.046
1015	0.045
1015	0.045
1016	0.045
1016	0.045
1016	0.044
1017	0.044
1017	0.044
1018	0.043
1018	0.043
1018	0.043
1019	0.043
1019	0.043
1020	0.043
1020	0.043
1021	0.043
1021	0.043
1021	0.043
1022	0.043
1022	0.043
1023	0.044
1023	0.044
1023	0.044
1024	0.045
1024	0.045
1025	0.045
1025	0.046
1026	0.045
1026	0.046
1026	0.046
1027	0.046
1027	0.046
1028	0.046
1028	0.046
1028	0.046
1029	0.046
1029	0.046
1030	0.046
1030	0.047
1031	0.047
1031	0.047
1031	0.047
1032	0.047
1032	0.047
1033	0.046
1033	0.046
1033	0.046
1034	0.045
1034	0.045
1035	0.045
1035	0.044
1036	0.044
1036	0.044
1036	0.044
1037	0.044
1037	0.044
1038	0.044
1038	0.044
1039	0.045
1039	0.045
1039	0.046
1040	0.046
1040	0.047
1041	0.047
1041	0.048
1041	0.048
1042	0.048
1042	0.048
1043	0.049
1043	0.049
1044	0.049
1044	0.049
1044	0.049
1045	0.049
1045	0.05
1046	0.05
1046	0.05
1046	0.05
1047	0.051
1047	0.051
1048	0.051
1048	0.052
1049	0.052
1049	0.052
1049	0.052
1050	0.052
1050	0.052
1051	0.051
1051	0.051
1051	0.051
1052	0.05
1052	0.049
1053	0.048
1053	0.047
1053	0.046
1054	0.045
1054	0.045
1055	0.044
1055	0.044
1056	0.043
1056	0.043
1056	0.042
1057	0.041
1057	0.041
1058	0.04
1058	0.039
1058	0.039
1059	0.038
1059	0.038
1060	0.037
1060	0.037
1061	0.036
1061	0.036
1061	0.035
1062	0.035
1062	0.035
1063	0.035
1063	0.035
1063	0.034
1064	0.034
1064	0.034
1065	0.034
1065	0.034
1066	0.034
1066	0.033
1066	0.033
1067	0.033
1067	0.033
1068	0.032
1068	0.032
1068	0.032
1069	0.032
1069	0.032
1070	0.031
1070	0.03
1071	0.029
1071	0.029
1071	0.028
1072	0.028
1072	0.027
1073	0.026
1073	0.026
1073	0.025
1074	0.025
1074	0.026
1075	0.026
1075	0.027
1076	0.027
1076	0.028
1076	0.028
1077	0.029
1077	0.03
1078	0.03
1078	0.031
1078	0.031
1079	0.031
1079	0.031
1080	0.031
1080	0.031
1080	0.031
1081	0.031
1081	0.031
1082	0.032
1082	0.032
1083	0.032
1083	0.032
1083	0.032
1084	0.032
1084	0.032
1085	0.032
1085	0.031
1085	0.031
1086	0.031
1086	0.03
1087	0.029
1087	0.029
1088	0.029
1088	0.028
1088	0.028
1089	0.028
1089	0.028
1090	0.027
1090	0.026
1090	0.026
1091	0.026
1091	0.026
1092	0.027
1092	0.027
1092	0.027
1093	0.027
1093	0.028
1094	0.027
1094	0.028
1095	0.028
1095	0.027
1095	0.028
1096	0.027
1096	0.026
1097	0.026
1097	0.025
1097	0.025
1098	0.024
1098	0.023
1099	0.022
1099	0.021
1100	0.02
1100	0.019
1100	0.018
1101	0.017
1101	0.016
1102	0.016
1102	0.014
1102	0.014
1103	0.013
1103	0.013
1104	0.013
1104	0.013
1104	0.013
1105	0.011
1105	0.011
1106	0.009
1106	0.008
1107	0.007
1107	0.006
1107	0.006
1108	0.005
1108	0.004
1109	0.002
1109	0.001
1109	0.002
1110	0.003
1110	0
1111	0.002
1111	0.003
