Data from 15c-2-5a_Absorbance__80__04356.txt Node

Date: Wed Jan 17 14:33:11 CET 2024
User: Marek
Spectrometer: MAYP115816
Trigger mode: 0
Integration Time (sec): 2.000000E-1
Scans to average: 10
Electric dark correction enabled: true
Nonlinearity correction enabled: true
Boxcar width: 5
XAxis mode: Wavelengths
Number of Pixels in Spectrum: 2068
>>>>>Begin Spectral Data<<<<<
199	-2.244
199	-2.096
200	-1.93
200	-1.801
201	-1.72
201	-1.669
202	-1.591
202	-1.532
203	-1.478
203	-1.431
204	-1.404
204	-1.379
205	-1.354
205	-1.344
205	-1.341
206	-1.339
206	-1.334
207	-1.332
207	-1.327
208	-1.324
208	-1.323
209	-1.319
209	-1.316
210	-1.315
210	-1.315
211	-1.313
211	-1.312
212	-1.312
212	-1.311
213	-1.31
213	-1.309
213	-1.308
214	-1.306
214	-1.306
215	-1.304
215	-1.302
216	-1.302
216	-1.298
217	-1.294
217	-1.292
218	-1.29
218	-1.287
219	-1.284
219	-1.283
220	-1.279
220	-1.275
221	-1.269
221	-1.265
221	-1.261
222	-1.258
222	-1.252
223	-1.246
223	-1.243
224	-1.236
224	-1.229
225	-1.22
225	-1.212
226	-1.203
226	-1.19
227	-1.177
227	-1.162
228	-1.146
228	-1.126
229	-1.104
229	-1.079
229	-1.05
230	-1.019
230	-0.986
231	-0.948
231	-0.909
232	-0.867
232	-0.823
233	-0.775
233	-0.725
234	-0.674
234	-0.623
235	-0.573
235	-0.522
236	-0.472
236	-0.424
236	-0.376
237	-0.33
237	-0.286
238	-0.245
238	-0.205
239	-0.167
239	-0.132
240	-0.098
240	-0.067
241	-0.038
241	-0.011
242	0.014
242	0.037
243	0.058
243	0.078
243	0.096
244	0.113
244	0.128
245	0.142
245	0.155
246	0.168
246	0.179
247	0.19
247	0.2
248	0.209
248	0.217
249	0.225
249	0.232
250	0.239
250	0.246
250	0.252
251	0.257
251	0.262
252	0.267
252	0.271
253	0.276
253	0.279
254	0.283
254	0.287
255	0.289
255	0.293
256	0.295
256	0.297
257	0.3
257	0.302
258	0.303
258	0.305
258	0.306
259	0.308
259	0.309
260	0.31
260	0.311
261	0.311
261	0.312
262	0.313
262	0.313
263	0.314
263	0.314
264	0.314
264	0.315
265	0.315
265	0.315
265	0.315
266	0.315
266	0.314
267	0.314
267	0.314
268	0.313
268	0.312
269	0.312
269	0.311
270	0.31
270	0.309
271	0.308
271	0.307
272	0.306
272	0.305
272	0.305
273	0.303
273	0.302
274	0.302
274	0.301
275	0.3
275	0.299
276	0.298
276	0.297
277	0.296
277	0.294
278	0.293
278	0.291
278	0.289
279	0.287
279	0.285
280	0.284
280	0.283
281	0.282
281	0.281
282	0.28
282	0.28
283	0.279
283	0.279
284	0.279
284	0.279
285	0.278
285	0.278
285	0.277
286	0.276
286	0.276
287	0.275
287	0.274
288	0.274
288	0.273
289	0.272
289	0.271
290	0.27
290	0.27
291	0.269
291	0.268
292	0.268
292	0.267
292	0.266
293	0.265
293	0.265
294	0.264
294	0.263
295	0.263
295	0.262
296	0.262
296	0.261
297	0.26
297	0.26
298	0.259
298	0.259
298	0.258
299	0.258
299	0.257
300	0.257
300	0.256
301	0.256
301	0.255
302	0.254
302	0.254
303	0.253
303	0.253
304	0.252
304	0.252
305	0.251
305	0.25
305	0.249
306	0.249
306	0.248
307	0.247
307	0.247
308	0.246
308	0.245
309	0.245
309	0.244
310	0.243
310	0.243
311	0.242
311	0.241
311	0.24
312	0.24
312	0.239
313	0.238
313	0.237
314	0.237
314	0.236
315	0.235
315	0.234
316	0.233
316	0.232
317	0.231
317	0.231
318	0.23
318	0.229
318	0.228
319	0.227
319	0.226
320	0.225
320	0.224
321	0.224
321	0.223
322	0.222
322	0.221
323	0.22
323	0.219
324	0.218
324	0.217
324	0.217
325	0.216
325	0.215
326	0.214
326	0.213
327	0.213
327	0.212
328	0.211
328	0.21
329	0.209
329	0.209
330	0.208
330	0.207
330	0.206
331	0.205
331	0.204
332	0.203
332	0.203
333	0.202
333	0.201
334	0.2
334	0.199
335	0.199
335	0.198
336	0.197
336	0.196
336	0.196
337	0.195
337	0.194
338	0.193
338	0.193
339	0.192
339	0.191
340	0.191
340	0.19
341	0.189
341	0.188
342	0.188
342	0.187
342	0.186
343	0.186
343	0.185
344	0.184
344	0.183
345	0.183
345	0.182
346	0.181
346	0.18
347	0.18
347	0.179
348	0.178
348	0.177
348	0.177
349	0.176
349	0.175
350	0.174
350	0.173
351	0.172
351	0.172
352	0.17
352	0.169
353	0.168
353	0.167
354	0.166
354	0.165
354	0.164
355	0.163
355	0.162
356	0.161
356	0.16
357	0.159
357	0.159
358	0.159
358	0.159
359	0.16
359	0.16
360	0.161
360	0.162
360	0.162
361	0.163
361	0.163
362	0.164
362	0.164
363	0.164
363	0.164
364	0.163
364	0.162
365	0.162
365	0.161
366	0.161
366	0.161
366	0.16
367	0.16
367	0.16
368	0.159
368	0.159
369	0.158
369	0.158
370	0.157
370	0.157
371	0.157
371	0.156
372	0.156
372	0.155
372	0.155
373	0.155
373	0.155
374	0.154
374	0.154
375	0.154
375	0.154
376	0.154
376	0.154
377	0.155
377	0.155
378	0.155
378	0.156
378	0.156
379	0.156
379	0.156
380	0.156
380	0.156
381	0.156
381	0.156
382	0.156
382	0.155
383	0.155
383	0.154
383	0.154
384	0.153
384	0.153
385	0.153
385	0.153
386	0.153
386	0.153
387	0.153
387	0.153
388	0.153
388	0.152
389	0.152
389	0.152
389	0.152
390	0.153
390	0.153
391	0.153
391	0.154
392	0.154
392	0.154
393	0.154
393	0.154
394	0.154
394	0.154
394	0.153
395	0.153
395	0.153
396	0.153
396	0.153
397	0.153
397	0.153
398	0.153
398	0.153
399	0.153
399	0.153
400	0.153
400	0.152
400	0.152
401	0.151
401	0.149
402	0.148
402	0.148
403	0.147
403	0.147
404	0.147
404	0.147
405	0.147
405	0.146
405	0.146
406	0.146
406	0.146
407	0.146
407	0.145
408	0.145
408	0.144
409	0.143
409	0.143
410	0.143
410	0.143
411	0.143
411	0.143
411	0.143
412	0.142
412	0.142
413	0.142
413	0.142
414	0.141
414	0.141
415	0.141
415	0.14
416	0.14
416	0.139
416	0.139
417	0.138
417	0.138
418	0.138
418	0.139
419	0.14
419	0.141
420	0.141
420	0.142
421	0.143
421	0.144
421	0.144
422	0.144
422	0.145
423	0.145
423	0.144
424	0.144
424	0.143
425	0.142
425	0.141
426	0.14
426	0.14
427	0.139
427	0.139
427	0.14
428	0.14
428	0.141
429	0.142
429	0.142
430	0.142
430	0.142
431	0.142
431	0.142
432	0.141
432	0.14
432	0.139
433	0.138
433	0.137
434	0.136
434	0.135
435	0.136
435	0.136
436	0.136
436	0.136
437	0.137
437	0.137
437	0.137
438	0.137
438	0.137
439	0.137
439	0.136
440	0.136
440	0.135
441	0.135
441	0.135
442	0.135
442	0.136
442	0.136
443	0.136
443	0.137
444	0.137
444	0.138
445	0.138
445	0.138
446	0.139
446	0.139
447	0.138
447	0.138
447	0.138
448	0.138
448	0.138
449	0.138
449	0.137
450	0.137
450	0.137
451	0.136
451	0.135
452	0.135
452	0.134
452	0.134
453	0.133
453	0.133
454	0.132
454	0.131
455	0.131
455	0.131
456	0.13
456	0.13
457	0.13
457	0.13
458	0.13
458	0.13
458	0.13
459	0.13
459	0.13
460	0.129
460	0.128
461	0.127
461	0.127
462	0.127
462	0.126
463	0.127
463	0.127
463	0.128
464	0.128
464	0.128
465	0.128
465	0.128
466	0.129
466	0.129
467	0.129
467	0.128
467	0.127
468	0.126
468	0.124
469	0.122
469	0.12
470	0.12
470	0.119
471	0.119
471	0.118
472	0.118
472	0.118
472	0.118
473	0.12
473	0.121
474	0.122
474	0.123
475	0.124
475	0.125
476	0.125
476	0.125
477	0.125
477	0.125
477	0.126
478	0.125
478	0.125
479	0.125
479	0.125
480	0.126
480	0.127
481	0.128
481	0.128
482	0.129
482	0.13
482	0.132
483	0.134
483	0.137
484	0.141
484	0.144
485	0.145
485	0.147
486	0.148
486	0.149
487	0.149
487	0.149
487	0.149
488	0.148
488	0.146
489	0.144
489	0.142
490	0.141
490	0.139
491	0.138
491	0.138
492	0.138
492	0.138
492	0.138
493	0.138
493	0.139
494	0.141
494	0.143
495	0.145
495	0.146
496	0.147
496	0.148
496	0.15
497	0.15
497	0.152
498	0.152
498	0.153
499	0.153
499	0.153
500	0.153
500	0.154
501	0.155
501	0.157
501	0.158
502	0.159
502	0.161
503	0.162
503	0.163
504	0.164
504	0.164
505	0.165
505	0.165
506	0.165
506	0.165
506	0.165
507	0.165
507	0.165
508	0.165
508	0.166
509	0.166
509	0.167
510	0.168
510	0.168
511	0.168
511	0.168
511	0.168
512	0.167
512	0.167
513	0.166
513	0.165
514	0.164
514	0.163
515	0.163
515	0.162
515	0.161
516	0.16
516	0.159
517	0.16
517	0.16
518	0.161
518	0.16
519	0.16
519	0.159
520	0.157
520	0.155
520	0.153
521	0.15
521	0.147
522	0.144
522	0.141
523	0.138
523	0.137
524	0.136
524	0.136
524	0.136
525	0.138
525	0.14
526	0.143
526	0.145
527	0.149
527	0.152
528	0.155
528	0.158
529	0.16
529	0.161
529	0.162
530	0.163
530	0.164
531	0.164
531	0.165
532	0.165
532	0.165
533	0.165
533	0.165
533	0.165
534	0.165
534	0.164
535	0.163
535	0.163
536	0.163
536	0.162
537	0.163
537	0.162
538	0.161
538	0.16
538	0.159
539	0.158
539	0.158
540	0.157
540	0.156
541	0.154
541	0.153
542	0.151
542	0.149
542	0.148
543	0.147
543	0.146
544	0.144
544	0.143
545	0.143
545	0.143
546	0.143
546	0.143
547	0.142
547	0.14
547	0.137
548	0.135
548	0.134
549	0.132
549	0.13
550	0.128
550	0.126
551	0.123
551	0.121
551	0.12
552	0.119
552	0.118
553	0.118
553	0.118
554	0.117
554	0.116
555	0.114
555	0.111
556	0.108
556	0.106
556	0.103
557	0.1
557	0.098
558	0.096
558	0.094
559	0.092
559	0.092
560	0.091
560	0.091
560	0.091
561	0.091
561	0.092
562	0.092
562	0.091
563	0.089
563	0.087
564	0.085
564	0.082
564	0.08
565	0.078
565	0.078
566	0.076
566	0.076
567	0.076
567	0.077
568	0.079
568	0.081
568	0.084
569	0.087
569	0.091
570	0.093
570	0.093
571	0.094
571	0.096
572	0.097
572	0.097
573	0.097
573	0.097
573	0.096
574	0.095
574	0.094
575	0.094
575	0.095
576	0.096
576	0.096
577	0.094
577	0.093
577	0.093
578	0.092
578	0.092
579	0.093
579	0.095
580	0.094
580	0.091
581	0.087
581	0.085
581	0.084
582	0.083
582	0.083
583	0.084
583	0.084
584	0.081
584	0.076
585	0.074
585	0.074
585	0.074
586	0.074
586	0.074
587	0.072
587	0.069
588	0.066
588	0.063
589	0.061
589	0.06
590	0.059
590	0.059
590	0.06
591	0.061
591	0.061
592	0.061
592	0.06
593	0.06
593	0.06
594	0.06
594	0.059
594	0.057
595	0.057
595	0.055
596	0.053
596	0.053
597	0.056
597	0.058
598	0.06
598	0.061
598	0.063
599	0.064
599	0.064
600	0.063
600	0.061
601	0.06
601	0.059
602	0.057
602	0.055
602	0.054
603	0.053
603	0.054
604	0.055
604	0.056
605	0.058
605	0.061
606	0.062
606	0.061
606	0.061
607	0.06
607	0.06
608	0.059
608	0.057
609	0.055
609	0.055
610	0.054
610	0.052
610	0.051
611	0.053
611	0.054
612	0.056
612	0.058
613	0.06
613	0.062
614	0.061
614	0.06
614	0.059
615	0.058
615	0.057
616	0.056
616	0.054
617	0.053
617	0.05
618	0.047
618	0.045
618	0.044
619	0.043
619	0.044
620	0.046
620	0.047
621	0.047
621	0.048
622	0.048
622	0.049
622	0.049
623	0.049
623	0.05
624	0.051
624	0.05
625	0.049
625	0.05
626	0.049
626	0.049
626	0.05
627	0.05
627	0.05
628	0.05
628	0.05
629	0.05
629	0.05
630	0.049
630	0.047
630	0.047
631	0.048
631	0.048
632	0.047
632	0.047
633	0.048
633	0.048
634	0.05
634	0.052
634	0.055
635	0.057
635	0.058
636	0.059
636	0.061
637	0.061
637	0.062
638	0.063
638	0.064
638	0.065
639	0.065
639	0.065
640	0.065
640	0.066
641	0.067
641	0.068
642	0.069
642	0.071
642	0.072
643	0.073
643	0.074
644	0.076
644	0.077
645	0.079
645	0.081
646	0.083
646	0.087
646	0.09
647	0.094
647	0.098
648	0.1
648	0.103
649	0.105
649	0.108
650	0.111
650	0.114
650	0.117
651	0.119
651	0.121
652	0.123
652	0.124
653	0.127
653	0.136
653	0.16
654	0.131
654	0.11
655	0.112
655	0.114
656	0.115
656	0.116
657	0.118
657	0.119
657	0.12
658	0.116
658	0.098
659	0.122
659	0.154
660	0.158
660	0.159
661	0.161
661	0.163
661	0.165
662	0.169
662	0.173
663	0.176
663	0.18
664	0.183
664	0.186
665	0.189
665	0.191
665	0.194
666	0.196
666	0.198
667	0.199
667	0.201
668	0.203
668	0.205
669	0.207
669	0.21
669	0.214
670	0.219
670	0.223
671	0.225
671	0.227
672	0.23
672	0.231
672	0.233
673	0.234
673	0.235
674	0.235
674	0.235
675	0.234
675	0.233
676	0.235
676	0.237
676	0.238
677	0.239
677	0.242
678	0.244
678	0.245
679	0.246
679	0.248
680	0.25
680	0.252
680	0.252
681	0.252
681	0.253
682	0.255
682	0.256
683	0.258
683	0.261
684	0.264
684	0.265
684	0.265
685	0.266
685	0.268
686	0.27
686	0.27
687	0.27
687	0.27
687	0.27
688	0.269
688	0.268
689	0.268
689	0.27
690	0.27
690	0.269
691	0.269
691	0.269
691	0.269
692	0.268
692	0.267
693	0.266
693	0.266
694	0.265
694	0.262
695	0.261
695	0.264
695	0.265
696	0.264
696	0.263
697	0.262
697	0.26
698	0.259
698	0.257
698	0.255
699	0.255
699	0.252
700	0.249
700	0.247
701	0.247
701	0.246
702	0.245
702	0.244
702	0.243
703	0.242
703	0.241
704	0.24
704	0.239
705	0.239
705	0.239
705	0.239
706	0.238
706	0.238
707	0.237
707	0.236
708	0.234
708	0.233
709	0.232
709	0.23
709	0.226
710	0.222
710	0.219
711	0.216
711	0.214
712	0.212
712	0.211
713	0.209
713	0.207
713	0.206
714	0.203
714	0.201
715	0.199
715	0.197
716	0.194
716	0.193
716	0.19
717	0.188
717	0.186
718	0.184
718	0.181
719	0.179
719	0.178
720	0.176
720	0.174
720	0.172
721	0.169
721	0.166
722	0.163
722	0.16
723	0.158
723	0.157
723	0.155
724	0.152
724	0.15
725	0.147
725	0.145
726	0.143
726	0.141
727	0.138
727	0.137
727	0.135
728	0.132
728	0.13
729	0.13
729	0.129
730	0.128
730	0.126
730	0.125
731	0.124
731	0.122
732	0.122
732	0.12
733	0.118
733	0.116
734	0.114
734	0.111
734	0.109
735	0.108
735	0.107
736	0.104
736	0.102
737	0.101
737	0.1
737	0.099
738	0.096
738	0.093
739	0.09
739	0.088
740	0.085
740	0.083
741	0.081
741	0.078
741	0.074
742	0.068
742	0.063
743	0.061
743	0.058
744	0.055
744	0.053
744	0.051
745	0.048
745	0.045
746	0.042
746	0.041
747	0.04
747	0.039
748	0.039
748	0.038
748	0.037
749	0.036
749	0.035
750	0.035
750	0.034
751	0.035
751	0.035
751	0.036
752	0.036
752	0.035
753	0.035
753	0.035
754	0.036
754	0.036
754	0.037
755	0.037
755	0.039
756	0.038
756	0.036
757	0.034
757	0.034
758	0.033
758	0.031
758	0.03
759	0.03
759	0.027
760	0.024
760	0.02
761	0.017
761	0.016
761	0.015
762	0.013
762	0.013
763	0.013
763	0.01
764	0.007
764	0.004
764	0.002
765	-0.001
765	-0.003
766	-0.005
766	-0.005
767	-0.007
767	-0.01
768	-0.015
768	-0.017
768	-0.019
769	-0.02
769	-0.02
770	-0.021
770	-0.023
771	-0.026
771	-0.029
771	-0.033
772	-0.035
772	-0.038
773	-0.041
773	-0.045
774	-0.049
774	-0.053
775	-0.057
775	-0.061
775	-0.065
776	-0.07
776	-0.075
777	-0.08
777	-0.085
778	-0.09
778	-0.096
778	-0.101
779	-0.105
779	-0.108
780	-0.113
780	-0.119
781	-0.123
781	-0.128
781	-0.132
782	-0.136
782	-0.141
783	-0.145
783	-0.147
784	-0.15
784	-0.152
784	-0.154
785	-0.155
785	-0.156
786	-0.156
786	-0.153
787	-0.148
787	-0.143
788	-0.142
788	-0.143
788	-0.144
789	-0.146
789	-0.145
790	-0.142
790	-0.141
791	-0.142
791	-0.144
791	-0.146
792	-0.141
792	-0.13
793	-0.124
793	-0.12
794	-0.119
794	-0.121
794	-0.125
795	-0.127
795	-0.128
796	-0.128
796	-0.131
797	-0.14
797	-0.151
797	-0.158
798	-0.163
798	-0.166
799	-0.166
799	-0.165
800	-0.165
800	-0.166
801	-0.169
801	-0.17
801	-0.17
802	-0.171
802	-0.173
803	-0.173
803	-0.174
804	-0.173
804	-0.168
804	-0.161
805	-0.157
805	-0.155
806	-0.153
806	-0.152
807	-0.151
807	-0.15
807	-0.15
808	-0.15
808	-0.152
809	-0.156
809	-0.162
810	-0.166
810	-0.169
810	-0.173
811	-0.176
811	-0.176
812	-0.172
812	-0.169
813	-0.169
813	-0.17
813	-0.17
814	-0.171
814	-0.17
815	-0.167
815	-0.163
816	-0.16
816	-0.16
817	-0.164
817	-0.166
817	-0.167
818	-0.166
818	-0.162
819	-0.157
819	-0.154
820	-0.156
820	-0.158
820	-0.16
821	-0.159
821	-0.156
822	-0.153
822	-0.149
823	-0.145
823	-0.143
823	-0.142
824	-0.138
824	-0.13
825	-0.12
825	-0.109
826	-0.099
826	-0.092
826	-0.085
827	-0.078
827	-0.072
828	-0.066
828	-0.062
829	-0.058
829	-0.054
829	-0.052
830	-0.051
830	-0.048
831	-0.044
831	-0.041
832	-0.038
832	-0.034
832	-0.031
833	-0.027
833	-0.023
834	-0.02
834	-0.017
835	-0.014
835	-0.012
835	-0.01
836	-0.009
836	-0.007
837	-0.006
837	-0.006
838	-0.006
838	-0.006
839	-0.006
839	-0.006
839	-0.006
840	-0.006
840	-0.005
841	-0.005
841	-0.004
842	-0.003
842	-0.001
842	0
843	0.001
843	0.002
844	0.003
844	0.005
845	0.006
845	0.007
845	0.008
846	0.008
846	0.009
847	0.009
847	0.01
848	0.011
848	0.012
848	0.013
849	0.014
849	0.015
850	0.016
850	0.016
851	0.017
851	0.018
851	0.019
852	0.019
852	0.02
853	0.02
853	0.021
854	0.022
854	0.022
854	0.022
855	0.023
855	0.023
856	0.023
856	0.024
857	0.024
857	0.024
857	0.024
858	0.025
858	0.025
859	0.025
859	0.026
860	0.026
860	0.027
860	0.027
861	0.028
861	0.028
862	0.028
862	0.029
863	0.029
863	0.029
863	0.029
864	0.029
864	0.029
865	0.03
865	0.03
866	0.03
866	0.03
866	0.03
867	0.031
867	0.032
868	0.033
868	0.034
869	0.035
869	0.036
869	0.036
870	0.037
870	0.038
871	0.038
871	0.038
872	0.038
872	0.037
872	0.037
873	0.036
873	0.035
874	0.034
874	0.033
875	0.033
875	0.032
875	0.032
876	0.032
876	0.033
877	0.033
877	0.035
878	0.036
878	0.037
878	0.039
879	0.04
879	0.041
880	0.041
880	0.042
881	0.042
881	0.042
881	0.042
882	0.042
882	0.042
883	0.041
883	0.041
884	0.041
884	0.041
884	0.042
885	0.043
885	0.043
886	0.045
886	0.046
887	0.046
887	0.047
887	0.047
888	0.047
888	0.047
889	0.047
889	0.047
890	0.046
890	0.045
890	0.044
891	0.042
891	0.041
892	0.039
892	0.037
893	0.036
893	0.034
893	0.033
894	0.033
894	0.032
895	0.031
895	0.031
895	0.03
896	0.031
896	0.031
897	0.032
897	0.032
898	0.033
898	0.034
898	0.035
899	0.036
899	0.037
900	0.039
900	0.04
901	0.042
901	0.044
901	0.045
902	0.046
902	0.047
903	0.048
903	0.049
904	0.05
904	0.05
904	0.051
905	0.051
905	0.051
906	0.051
906	0.051
907	0.051
907	0.051
907	0.051
908	0.051
908	0.051
909	0.051
909	0.051
910	0.051
910	0.052
910	0.052
911	0.053
911	0.053
912	0.054
912	0.055
913	0.055
913	0.055
913	0.054
914	0.054
914	0.053
915	0.052
915	0.051
916	0.05
916	0.049
916	0.048
917	0.047
917	0.045
918	0.045
918	0.044
918	0.044
919	0.044
919	0.044
920	0.044
920	0.045
921	0.045
921	0.045
921	0.046
922	0.046
922	0.046
923	0.047
923	0.047
924	0.046
924	0.046
924	0.046
925	0.045
925	0.045
926	0.045
926	0.045
927	0.045
927	0.045
927	0.045
928	0.045
928	0.045
929	0.045
929	0.045
930	0.045
930	0.045
930	0.045
931	0.044
931	0.043
932	0.043
932	0.042
933	0.042
933	0.042
933	0.042
934	0.042
934	0.043
935	0.043
935	0.043
935	0.044
936	0.044
936	0.045
937	0.045
937	0.046
938	0.046
938	0.046
938	0.046
939	0.046
939	0.047
940	0.048
940	0.048
941	0.05
941	0.051
941	0.052
942	0.053
942	0.054
943	0.055
943	0.056
944	0.057
944	0.057
944	0.057
945	0.057
945	0.058
946	0.058
946	0.057
946	0.057
947	0.057
947	0.057
948	0.057
948	0.056
949	0.056
949	0.056
949	0.055
950	0.055
950	0.054
951	0.054
951	0.053
952	0.053
952	0.053
952	0.053
953	0.053
953	0.053
954	0.053
954	0.053
955	0.053
955	0.053
955	0.053
956	0.054
956	0.054
957	0.054
957	0.054
957	0.053
958	0.053
958	0.052
959	0.052
959	0.051
960	0.051
960	0.05
960	0.049
961	0.048
961	0.047
962	0.046
962	0.046
963	0.046
963	0.046
963	0.046
964	0.046
964	0.047
965	0.048
965	0.048
966	0.049
966	0.05
966	0.05
967	0.051
967	0.051
968	0.051
968	0.051
968	0.051
969	0.051
969	0.051
970	0.05
970	0.05
971	0.05
971	0.05
971	0.05
972	0.051
972	0.051
973	0.052
973	0.052
974	0.053
974	0.053
974	0.054
975	0.055
975	0.055
976	0.055
976	0.055
976	0.055
977	0.054
977	0.053
978	0.052
978	0.051
979	0.05
979	0.049
979	0.049
980	0.048
980	0.047
981	0.047
981	0.046
982	0.047
982	0.047
982	0.048
983	0.048
983	0.049
984	0.05
984	0.05
984	0.051
985	0.052
985	0.053
986	0.053
986	0.053
987	0.054
987	0.054
987	0.055
988	0.055
988	0.056
989	0.056
989	0.057
990	0.057
990	0.058
990	0.059
991	0.06
991	0.061
992	0.062
992	0.063
992	0.063
993	0.063
993	0.063
994	0.063
994	0.062
995	0.061
995	0.061
995	0.06
996	0.059
996	0.057
997	0.057
997	0.056
997	0.056
998	0.055
998	0.055
999	0.056
999	0.055
1000	0.056
1000	0.056
1000	0.056
1001	0.056
1001	0.056
1002	0.056
1002	0.056
1003	0.057
1003	0.056
1003	0.056
1004	0.056
1004	0.055
1005	0.055
1005	0.054
1005	0.054
1006	0.053
1006	0.052
1007	0.052
1007	0.051
1008	0.05
1008	0.049
1008	0.049
1009	0.049
1009	0.048
1010	0.048
1010	0.048
1010	0.048
1011	0.047
1011	0.047
1012	0.046
1012	0.046
1013	0.045
1013	0.045
1013	0.044
1014	0.043
1014	0.042
1015	0.042
1015	0.042
1016	0.041
1016	0.041
1016	0.041
1017	0.041
1017	0.041
1018	0.041
1018	0.042
1018	0.043
1019	0.043
1019	0.044
1020	0.044
1020	0.045
1021	0.045
1021	0.046
1021	0.046
1022	0.046
1022	0.046
1023	0.046
1023	0.046
1023	0.045
1024	0.044
1024	0.043
1025	0.042
1025	0.042
1026	0.041
1026	0.041
1026	0.04
1027	0.04
1027	0.04
1028	0.04
1028	0.041
1028	0.041
1029	0.042
1029	0.042
1030	0.043
1030	0.043
1031	0.043
1031	0.044
1031	0.044
1032	0.044
1032	0.044
1033	0.044
1033	0.044
1033	0.044
1034	0.043
1034	0.042
1035	0.042
1035	0.041
1036	0.041
1036	0.041
1036	0.041
1037	0.041
1037	0.041
1038	0.042
1038	0.043
1039	0.044
1039	0.045
1039	0.046
1040	0.047
1040	0.048
1041	0.049
1041	0.05
1041	0.05
1042	0.05
1042	0.05
1043	0.051
1043	0.05
1044	0.051
1044	0.051
1044	0.052
1045	0.052
1045	0.053
1046	0.054
1046	0.055
1046	0.056
1047	0.057
1047	0.059
1048	0.06
1048	0.061
1049	0.062
1049	0.062
1049	0.062
1050	0.063
1050	0.063
1051	0.063
1051	0.063
1051	0.063
1052	0.064
1052	0.063
1053	0.063
1053	0.063
1053	0.064
1054	0.064
1054	0.064
1055	0.064
1055	0.063
1056	0.062
1056	0.062
1056	0.061
1057	0.061
1057	0.061
1058	0.061
1058	0.062
1058	0.063
1059	0.064
1059	0.064
1060	0.066
1060	0.068
1061	0.07
1061	0.072
1061	0.074
1062	0.075
1062	0.076
1063	0.077
1063	0.078
1063	0.079
1064	0.081
1064	0.082
1065	0.083
1065	0.083
1066	0.084
1066	0.085
1066	0.086
1067	0.087
1067	0.088
1068	0.088
1068	0.088
1068	0.089
1069	0.089
1069	0.088
1070	0.089
1070	0.09
1071	0.091
1071	0.092
1071	0.093
1072	0.095
1072	0.097
1073	0.1
1073	0.102
1073	0.105
1074	0.108
1074	0.11
1075	0.112
1075	0.114
1076	0.116
1076	0.119
1076	0.121
1077	0.123
1077	0.125
1078	0.127
1078	0.131
1078	0.134
1079	0.137
1079	0.141
1080	0.143
1080	0.147
1080	0.149
1081	0.152
1081	0.156
1082	0.159
1082	0.163
1083	0.166
1083	0.171
1083	0.175
1084	0.18
1084	0.187
1085	0.193
1085	0.199
1085	0.207
1086	0.213
1086	0.218
1087	0.226
1087	0.232
1088	0.238
1088	0.245
1088	0.253
1089	0.259
1089	0.268
1090	0.279
1090	0.291
1090	0.303
1091	0.318
1091	0.334
1092	0.35
1092	0.371
1092	0.391
1093	0.412
1093	0.438
1094	0.463
1094	0.49
1095	0.519
1095	0.552
1095	0.595
1096	0.64
1096	0.694
1097	0.762
1097	0.837
1097	0.941
1098	1.08
1098	1.301
1099	1.912
1099	-0
1100	-0
1100	-0
1100	-0
1101	-0
1101	-0
1102	-0
1102	-0
1102	-0
1103	-0
1103	-0
1104	-0
1104	-0
1104	-0
1105	-0
1105	-0
1106	-0
1106	-0
1107	-0
1107	-0
1107	-0
1108	-0
1108	-0
1109	-0
1109	-0
1109	-0
1110	-0
1110	-0
1111	-0
1111	-0
