Data from 15c-2-5a_Absorbance__133__04409.txt Node

Date: Wed Jan 17 14:34:57 CET 2024
User: Marek
Spectrometer: MAYP115816
Trigger mode: 0
Integration Time (sec): 2.000000E-1
Scans to average: 10
Electric dark correction enabled: true
Nonlinearity correction enabled: true
Boxcar width: 5
XAxis mode: Wavelengths
Number of Pixels in Spectrum: 2068
>>>>>Begin Spectral Data<<<<<
199	-2.252
199	-2.104
200	-1.937
200	-1.808
201	-1.727
201	-1.676
202	-1.598
202	-1.539
203	-1.486
203	-1.439
204	-1.412
204	-1.386
205	-1.361
205	-1.351
205	-1.348
206	-1.347
206	-1.342
207	-1.34
207	-1.334
208	-1.332
208	-1.331
209	-1.326
209	-1.323
210	-1.322
210	-1.322
211	-1.32
211	-1.319
212	-1.319
212	-1.318
213	-1.316
213	-1.315
213	-1.314
214	-1.312
214	-1.312
215	-1.31
215	-1.309
216	-1.309
216	-1.305
217	-1.301
217	-1.298
218	-1.297
218	-1.294
219	-1.291
219	-1.29
220	-1.286
220	-1.282
221	-1.276
221	-1.272
221	-1.268
222	-1.264
222	-1.259
223	-1.253
223	-1.249
224	-1.242
224	-1.235
225	-1.227
225	-1.219
226	-1.209
226	-1.197
227	-1.183
227	-1.169
228	-1.152
228	-1.133
229	-1.111
229	-1.086
229	-1.057
230	-1.025
230	-0.993
231	-0.955
231	-0.916
232	-0.874
232	-0.829
233	-0.781
233	-0.731
234	-0.68
234	-0.629
235	-0.579
235	-0.528
236	-0.478
236	-0.429
236	-0.38
237	-0.333
237	-0.289
238	-0.247
238	-0.206
239	-0.167
239	-0.131
240	-0.096
240	-0.065
241	-0.035
241	-0.007
242	0.018
242	0.042
243	0.064
243	0.085
243	0.103
244	0.121
244	0.137
245	0.151
245	0.165
246	0.178
246	0.19
247	0.2
247	0.211
248	0.22
248	0.229
249	0.237
249	0.245
250	0.252
250	0.258
250	0.265
251	0.27
251	0.276
252	0.281
252	0.285
253	0.29
253	0.294
254	0.298
254	0.301
255	0.305
255	0.308
256	0.311
256	0.313
257	0.316
257	0.318
258	0.32
258	0.322
258	0.323
259	0.325
259	0.325
260	0.327
260	0.327
261	0.328
261	0.329
262	0.33
262	0.33
263	0.331
263	0.332
264	0.332
264	0.333
265	0.333
265	0.333
265	0.333
266	0.333
266	0.333
267	0.333
267	0.332
268	0.332
268	0.331
269	0.33
269	0.33
270	0.329
270	0.328
271	0.327
271	0.326
272	0.325
272	0.324
272	0.323
273	0.322
273	0.321
274	0.32
274	0.319
275	0.318
275	0.317
276	0.317
276	0.315
277	0.314
277	0.313
278	0.311
278	0.309
278	0.308
279	0.305
279	0.304
280	0.303
280	0.302
281	0.301
281	0.3
282	0.299
282	0.298
283	0.298
283	0.298
284	0.298
284	0.298
285	0.297
285	0.297
285	0.296
286	0.295
286	0.295
287	0.294
287	0.293
288	0.292
288	0.292
289	0.291
289	0.29
290	0.289
290	0.288
291	0.288
291	0.287
292	0.286
292	0.285
292	0.284
293	0.284
293	0.283
294	0.282
294	0.282
295	0.281
295	0.28
296	0.28
296	0.279
297	0.279
297	0.278
298	0.278
298	0.277
298	0.276
299	0.276
299	0.275
300	0.275
300	0.274
301	0.273
301	0.273
302	0.272
302	0.271
303	0.271
303	0.27
304	0.27
304	0.269
305	0.268
305	0.268
305	0.267
306	0.266
306	0.265
307	0.264
307	0.264
308	0.263
308	0.262
309	0.261
309	0.26
310	0.26
310	0.259
311	0.258
311	0.257
311	0.257
312	0.256
312	0.255
313	0.254
313	0.253
314	0.252
314	0.251
315	0.251
315	0.25
316	0.249
316	0.248
317	0.247
317	0.246
318	0.245
318	0.244
318	0.243
319	0.243
319	0.242
320	0.241
320	0.24
321	0.239
321	0.238
322	0.237
322	0.236
323	0.235
323	0.234
324	0.233
324	0.232
324	0.231
325	0.23
325	0.229
326	0.229
326	0.228
327	0.227
327	0.226
328	0.225
328	0.225
329	0.224
329	0.223
330	0.222
330	0.221
330	0.22
331	0.219
331	0.218
332	0.217
332	0.216
333	0.215
333	0.215
334	0.214
334	0.213
335	0.212
335	0.211
336	0.21
336	0.209
336	0.209
337	0.208
337	0.207
338	0.206
338	0.206
339	0.205
339	0.204
340	0.203
340	0.203
341	0.202
341	0.201
342	0.2
342	0.2
342	0.199
343	0.198
343	0.197
344	0.196
344	0.196
345	0.195
345	0.194
346	0.193
346	0.193
347	0.192
347	0.191
348	0.19
348	0.189
348	0.188
349	0.187
349	0.187
350	0.186
350	0.185
351	0.184
351	0.183
352	0.182
352	0.181
353	0.18
353	0.179
354	0.178
354	0.177
354	0.176
355	0.175
355	0.173
356	0.172
356	0.171
357	0.171
357	0.17
358	0.17
358	0.17
359	0.171
359	0.171
360	0.172
360	0.173
360	0.174
361	0.174
361	0.175
362	0.175
362	0.175
363	0.175
363	0.175
364	0.174
364	0.173
365	0.173
365	0.172
366	0.172
366	0.171
366	0.171
367	0.171
367	0.17
368	0.17
368	0.169
369	0.169
369	0.169
370	0.168
370	0.168
371	0.167
371	0.167
372	0.166
372	0.166
372	0.165
373	0.165
373	0.165
374	0.165
374	0.165
375	0.165
375	0.165
376	0.165
376	0.165
377	0.165
377	0.165
378	0.166
378	0.166
378	0.166
379	0.166
379	0.166
380	0.166
380	0.166
381	0.166
381	0.166
382	0.166
382	0.165
383	0.165
383	0.164
383	0.164
384	0.163
384	0.163
385	0.163
385	0.163
386	0.163
386	0.162
387	0.163
387	0.162
388	0.162
388	0.162
389	0.162
389	0.162
389	0.162
390	0.162
390	0.163
391	0.163
391	0.164
392	0.164
392	0.164
393	0.164
393	0.164
394	0.163
394	0.163
394	0.163
395	0.163
395	0.162
396	0.162
396	0.162
397	0.162
397	0.162
398	0.162
398	0.162
399	0.162
399	0.162
400	0.162
400	0.161
400	0.161
401	0.16
401	0.159
402	0.157
402	0.157
403	0.156
403	0.156
404	0.156
404	0.156
405	0.155
405	0.155
405	0.155
406	0.154
406	0.154
407	0.154
407	0.154
408	0.153
408	0.152
409	0.152
409	0.151
410	0.151
410	0.152
411	0.152
411	0.152
411	0.151
412	0.151
412	0.151
413	0.15
413	0.15
414	0.149
414	0.149
415	0.149
415	0.148
416	0.148
416	0.147
416	0.146
417	0.146
417	0.146
418	0.146
418	0.146
419	0.147
419	0.148
420	0.149
420	0.15
421	0.15
421	0.151
421	0.151
422	0.152
422	0.152
423	0.152
423	0.152
424	0.151
424	0.15
425	0.149
425	0.148
426	0.148
426	0.147
427	0.147
427	0.147
427	0.147
428	0.148
428	0.149
429	0.149
429	0.15
430	0.15
430	0.15
431	0.15
431	0.149
432	0.149
432	0.148
432	0.147
433	0.146
433	0.144
434	0.143
434	0.143
435	0.143
435	0.143
436	0.143
436	0.144
437	0.144
437	0.144
437	0.144
438	0.144
438	0.144
439	0.144
439	0.143
440	0.143
440	0.142
441	0.142
441	0.143
442	0.143
442	0.143
442	0.143
443	0.144
443	0.144
444	0.144
444	0.145
445	0.145
445	0.145
446	0.146
446	0.145
447	0.145
447	0.145
447	0.145
448	0.145
448	0.144
449	0.144
449	0.144
450	0.144
450	0.144
451	0.143
451	0.143
452	0.142
452	0.142
452	0.141
453	0.141
453	0.14
454	0.139
454	0.139
455	0.138
455	0.138
456	0.138
456	0.137
457	0.137
457	0.137
458	0.137
458	0.137
458	0.137
459	0.137
459	0.137
460	0.136
460	0.135
461	0.134
461	0.134
462	0.134
462	0.134
463	0.134
463	0.134
463	0.135
464	0.135
464	0.135
465	0.135
465	0.135
466	0.136
466	0.136
467	0.136
467	0.135
467	0.134
468	0.133
468	0.131
469	0.129
469	0.128
470	0.127
470	0.126
471	0.126
471	0.125
472	0.125
472	0.125
472	0.125
473	0.126
473	0.128
474	0.129
474	0.13
475	0.131
475	0.131
476	0.132
476	0.132
477	0.132
477	0.132
477	0.132
478	0.132
478	0.132
479	0.132
479	0.132
480	0.133
480	0.134
481	0.135
481	0.135
482	0.136
482	0.138
482	0.139
483	0.141
483	0.145
484	0.148
484	0.151
485	0.153
485	0.154
486	0.156
486	0.157
487	0.157
487	0.157
487	0.157
488	0.157
488	0.155
489	0.152
489	0.15
490	0.149
490	0.148
491	0.147
491	0.147
492	0.147
492	0.147
492	0.147
493	0.147
493	0.148
494	0.15
494	0.152
495	0.154
495	0.155
496	0.156
496	0.157
496	0.159
497	0.16
497	0.161
498	0.161
498	0.162
499	0.162
499	0.162
500	0.162
500	0.163
501	0.165
501	0.166
501	0.168
502	0.169
502	0.171
503	0.172
503	0.173
504	0.174
504	0.174
505	0.174
505	0.174
506	0.174
506	0.174
506	0.175
507	0.175
507	0.175
508	0.175
508	0.175
509	0.176
509	0.177
510	0.178
510	0.178
511	0.177
511	0.177
511	0.177
512	0.177
512	0.176
513	0.176
513	0.175
514	0.173
514	0.172
515	0.171
515	0.17
515	0.169
516	0.169
516	0.168
517	0.169
517	0.169
518	0.169
518	0.169
519	0.168
519	0.167
520	0.165
520	0.162
520	0.16
521	0.157
521	0.154
522	0.15
522	0.147
523	0.145
523	0.144
524	0.143
524	0.144
524	0.145
525	0.147
525	0.15
526	0.153
526	0.156
527	0.16
527	0.163
528	0.165
528	0.168
529	0.169
529	0.17
529	0.171
530	0.172
530	0.172
531	0.173
531	0.174
532	0.173
532	0.173
533	0.174
533	0.174
533	0.175
534	0.174
534	0.174
535	0.173
535	0.173
536	0.172
536	0.172
537	0.171
537	0.171
538	0.17
538	0.168
538	0.167
539	0.166
539	0.165
540	0.164
540	0.163
541	0.162
541	0.16
542	0.158
542	0.157
542	0.155
543	0.154
543	0.153
544	0.151
544	0.15
545	0.149
545	0.149
546	0.15
546	0.149
547	0.148
547	0.146
547	0.144
548	0.142
548	0.14
549	0.138
549	0.136
550	0.134
550	0.132
551	0.129
551	0.127
551	0.125
552	0.124
552	0.123
553	0.122
553	0.122
554	0.122
554	0.12
555	0.118
555	0.115
556	0.112
556	0.109
556	0.106
557	0.103
557	0.101
558	0.099
558	0.097
559	0.095
559	0.095
560	0.094
560	0.094
560	0.094
561	0.094
561	0.094
562	0.094
562	0.093
563	0.092
563	0.089
564	0.087
564	0.084
564	0.082
565	0.08
565	0.079
566	0.078
566	0.076
567	0.077
567	0.078
568	0.08
568	0.082
568	0.085
569	0.088
569	0.091
570	0.093
570	0.094
571	0.095
571	0.097
572	0.097
572	0.097
573	0.097
573	0.097
573	0.096
574	0.095
574	0.094
575	0.094
575	0.095
576	0.096
576	0.096
577	0.094
577	0.093
577	0.092
578	0.091
578	0.091
579	0.092
579	0.094
580	0.093
580	0.09
581	0.087
581	0.084
581	0.082
582	0.082
582	0.082
583	0.083
583	0.082
584	0.079
584	0.074
585	0.072
585	0.071
585	0.071
586	0.071
586	0.071
587	0.069
587	0.066
588	0.063
588	0.06
589	0.058
589	0.057
590	0.056
590	0.056
590	0.057
591	0.058
591	0.058
592	0.058
592	0.057
593	0.057
593	0.057
594	0.057
594	0.055
594	0.054
595	0.053
595	0.051
596	0.049
596	0.05
597	0.052
597	0.054
598	0.056
598	0.058
598	0.059
599	0.06
599	0.06
600	0.059
600	0.058
601	0.057
601	0.055
602	0.053
602	0.052
602	0.05
603	0.049
603	0.05
604	0.051
604	0.053
605	0.055
605	0.057
606	0.058
606	0.058
606	0.057
607	0.056
607	0.056
608	0.055
608	0.053
609	0.052
609	0.051
610	0.05
610	0.048
610	0.048
611	0.049
611	0.05
612	0.052
612	0.053
613	0.055
613	0.057
614	0.057
614	0.055
614	0.054
615	0.053
615	0.052
616	0.051
616	0.049
617	0.048
617	0.045
618	0.043
618	0.04
618	0.039
619	0.039
619	0.039
620	0.041
620	0.043
621	0.043
621	0.044
622	0.044
622	0.045
622	0.046
623	0.046
623	0.047
624	0.048
624	0.048
625	0.047
625	0.047
626	0.047
626	0.047
626	0.047
627	0.047
627	0.048
628	0.048
628	0.048
629	0.048
629	0.048
630	0.046
630	0.045
630	0.045
631	0.045
631	0.046
632	0.045
632	0.045
633	0.046
633	0.047
634	0.049
634	0.051
634	0.054
635	0.056
635	0.057
636	0.058
636	0.06
637	0.061
637	0.061
638	0.062
638	0.063
638	0.064
639	0.064
639	0.064
640	0.065
640	0.066
641	0.067
641	0.068
642	0.069
642	0.071
642	0.073
643	0.074
643	0.076
644	0.077
644	0.079
645	0.081
645	0.083
646	0.086
646	0.089
646	0.093
647	0.097
647	0.1
648	0.103
648	0.106
649	0.108
649	0.111
650	0.115
650	0.118
650	0.12
651	0.122
651	0.125
652	0.126
652	0.128
653	0.131
653	0.14
653	0.164
654	0.135
654	0.113
655	0.115
655	0.117
656	0.119
656	0.12
657	0.122
657	0.124
657	0.124
658	0.121
658	0.103
659	0.128
659	0.162
660	0.165
660	0.167
661	0.168
661	0.17
661	0.173
662	0.177
662	0.181
663	0.185
663	0.188
664	0.192
664	0.194
665	0.197
665	0.2
665	0.202
666	0.204
666	0.206
667	0.208
667	0.21
668	0.212
668	0.215
669	0.217
669	0.22
669	0.225
670	0.229
670	0.233
671	0.235
671	0.237
672	0.239
672	0.241
672	0.242
673	0.243
673	0.244
674	0.245
674	0.244
675	0.243
675	0.243
676	0.244
676	0.246
676	0.247
677	0.249
677	0.251
678	0.254
678	0.255
679	0.256
679	0.258
680	0.26
680	0.262
680	0.263
681	0.263
681	0.265
682	0.266
682	0.267
683	0.269
683	0.272
684	0.275
684	0.276
684	0.277
685	0.277
685	0.279
686	0.281
686	0.281
687	0.281
687	0.281
687	0.281
688	0.28
688	0.278
689	0.279
689	0.28
690	0.281
690	0.28
691	0.279
691	0.279
691	0.279
692	0.278
692	0.277
693	0.276
693	0.276
694	0.275
694	0.272
695	0.272
695	0.274
695	0.275
696	0.274
696	0.273
697	0.272
697	0.27
698	0.269
698	0.267
698	0.265
699	0.264
699	0.262
700	0.258
700	0.255
701	0.254
701	0.254
702	0.253
702	0.252
702	0.251
703	0.25
703	0.248
704	0.247
704	0.247
705	0.247
705	0.247
705	0.247
706	0.246
706	0.246
707	0.245
707	0.243
708	0.241
708	0.239
709	0.238
709	0.235
709	0.231
710	0.227
710	0.223
711	0.221
711	0.218
712	0.216
712	0.214
713	0.213
713	0.211
713	0.209
714	0.206
714	0.203
715	0.201
715	0.199
716	0.196
716	0.195
716	0.192
717	0.19
717	0.188
718	0.185
718	0.182
719	0.181
719	0.179
720	0.177
720	0.174
720	0.172
721	0.169
721	0.166
722	0.163
722	0.16
723	0.158
723	0.156
723	0.154
724	0.151
724	0.149
725	0.147
725	0.144
726	0.142
726	0.14
727	0.138
727	0.136
727	0.135
728	0.132
728	0.13
729	0.13
729	0.129
730	0.128
730	0.126
730	0.125
731	0.123
731	0.122
732	0.121
732	0.12
733	0.118
733	0.116
734	0.114
734	0.111
734	0.109
735	0.108
735	0.105
736	0.103
736	0.101
737	0.099
737	0.098
737	0.097
738	0.094
738	0.091
739	0.088
739	0.085
740	0.082
740	0.08
741	0.078
741	0.075
741	0.07
742	0.064
742	0.06
743	0.056
743	0.053
744	0.05
744	0.048
744	0.046
745	0.043
745	0.04
746	0.037
746	0.036
747	0.035
747	0.034
748	0.034
748	0.034
748	0.033
749	0.032
749	0.032
750	0.031
750	0.031
751	0.031
751	0.032
751	0.033
752	0.033
752	0.032
753	0.031
753	0.031
754	0.032
754	0.031
754	0.032
755	0.033
755	0.034
756	0.034
756	0.031
757	0.029
757	0.029
758	0.028
758	0.026
758	0.026
759	0.025
759	0.022
760	0.019
760	0.015
761	0.013
761	0.012
761	0.011
762	0.008
762	0.008
763	0.007
763	0.004
764	0.001
764	-0.002
764	-0.005
765	-0.008
765	-0.01
766	-0.012
766	-0.013
767	-0.014
767	-0.017
768	-0.022
768	-0.024
768	-0.026
769	-0.026
769	-0.027
770	-0.028
770	-0.03
771	-0.032
771	-0.036
771	-0.039
772	-0.042
772	-0.045
773	-0.048
773	-0.052
774	-0.056
774	-0.06
775	-0.064
775	-0.068
775	-0.072
776	-0.077
776	-0.082
777	-0.086
777	-0.091
778	-0.097
778	-0.102
778	-0.108
779	-0.112
779	-0.114
780	-0.118
780	-0.124
781	-0.128
781	-0.132
781	-0.135
782	-0.139
782	-0.143
783	-0.146
783	-0.148
784	-0.15
784	-0.152
784	-0.154
785	-0.155
785	-0.156
786	-0.156
786	-0.153
787	-0.147
787	-0.143
788	-0.142
788	-0.142
788	-0.144
789	-0.146
789	-0.145
790	-0.142
790	-0.141
791	-0.141
791	-0.143
791	-0.146
792	-0.141
792	-0.13
793	-0.124
793	-0.12
794	-0.118
794	-0.121
794	-0.125
795	-0.127
795	-0.127
796	-0.128
796	-0.131
797	-0.14
797	-0.151
797	-0.157
798	-0.163
798	-0.165
799	-0.166
799	-0.165
800	-0.164
800	-0.166
801	-0.169
801	-0.169
801	-0.17
802	-0.171
802	-0.172
803	-0.173
803	-0.174
804	-0.173
804	-0.167
804	-0.161
805	-0.157
805	-0.155
806	-0.153
806	-0.152
807	-0.151
807	-0.15
807	-0.15
808	-0.15
808	-0.151
809	-0.156
809	-0.162
810	-0.166
810	-0.169
810	-0.172
811	-0.176
811	-0.176
812	-0.172
812	-0.169
813	-0.169
813	-0.17
813	-0.17
814	-0.171
814	-0.17
815	-0.167
815	-0.163
816	-0.16
816	-0.16
817	-0.164
817	-0.166
817	-0.166
818	-0.165
818	-0.162
819	-0.156
819	-0.154
820	-0.155
820	-0.158
820	-0.159
821	-0.16
821	-0.158
822	-0.156
822	-0.153
823	-0.15
823	-0.149
823	-0.148
824	-0.145
824	-0.139
825	-0.13
825	-0.12
826	-0.11
826	-0.102
826	-0.095
827	-0.088
827	-0.082
828	-0.076
828	-0.072
829	-0.067
829	-0.064
829	-0.061
830	-0.06
830	-0.057
831	-0.053
831	-0.05
832	-0.047
832	-0.043
832	-0.04
833	-0.037
833	-0.033
834	-0.03
834	-0.027
835	-0.024
835	-0.022
835	-0.02
836	-0.019
836	-0.017
837	-0.016
837	-0.016
838	-0.015
838	-0.015
839	-0.014
839	-0.014
839	-0.014
840	-0.014
840	-0.013
841	-0.012
841	-0.011
842	-0.01
842	-0.008
842	-0.007
843	-0.005
843	-0.004
844	-0.002
844	-0
845	0.001
845	0.003
845	0.004
846	0.005
846	0.006
847	0.007
847	0.007
848	0.008
848	0.008
848	0.008
849	0.009
849	0.009
850	0.009
850	0.009
851	0.009
851	0.01
851	0.01
852	0.01
852	0.011
853	0.012
853	0.012
854	0.013
854	0.014
854	0.014
855	0.015
855	0.015
856	0.015
856	0.016
857	0.017
857	0.017
857	0.017
858	0.018
858	0.018
859	0.017
859	0.018
860	0.018
860	0.018
860	0.019
861	0.019
861	0.02
862	0.02
862	0.02
863	0.02
863	0.02
863	0.021
864	0.021
864	0.021
865	0.022
865	0.022
866	0.022
866	0.022
866	0.022
867	0.023
867	0.023
868	0.024
868	0.025
869	0.026
869	0.027
869	0.027
870	0.028
870	0.028
871	0.029
871	0.028
872	0.028
872	0.027
872	0.026
873	0.025
873	0.024
874	0.022
874	0.022
875	0.021
875	0.021
875	0.021
876	0.021
876	0.022
877	0.023
877	0.025
878	0.026
878	0.028
878	0.03
879	0.031
879	0.032
880	0.033
880	0.033
881	0.034
881	0.034
881	0.034
882	0.033
882	0.033
883	0.032
883	0.032
884	0.032
884	0.032
884	0.032
885	0.033
885	0.034
886	0.035
886	0.036
887	0.037
887	0.038
887	0.038
888	0.039
888	0.039
889	0.039
889	0.039
890	0.039
890	0.038
890	0.037
891	0.036
891	0.035
892	0.034
892	0.032
893	0.032
893	0.031
893	0.03
894	0.029
894	0.029
895	0.028
895	0.028
895	0.027
896	0.027
896	0.027
897	0.027
897	0.027
898	0.027
898	0.027
898	0.028
899	0.029
899	0.03
900	0.031
900	0.032
901	0.034
901	0.035
901	0.036
902	0.037
902	0.038
903	0.038
903	0.039
904	0.039
904	0.039
904	0.039
905	0.039
905	0.039
906	0.039
906	0.039
907	0.039
907	0.039
907	0.039
908	0.039
908	0.039
909	0.039
909	0.039
910	0.04
910	0.04
910	0.04
911	0.041
911	0.042
912	0.043
912	0.044
913	0.044
913	0.044
913	0.044
914	0.044
914	0.043
915	0.042
915	0.041
916	0.04
916	0.039
916	0.037
917	0.036
917	0.035
918	0.034
918	0.034
918	0.034
919	0.034
919	0.034
920	0.035
920	0.036
921	0.036
921	0.037
921	0.037
922	0.038
922	0.038
923	0.039
923	0.039
924	0.039
924	0.038
924	0.038
925	0.037
925	0.037
926	0.037
926	0.036
927	0.036
927	0.035
927	0.035
928	0.035
928	0.034
929	0.034
929	0.034
930	0.033
930	0.033
930	0.033
931	0.032
931	0.032
932	0.032
932	0.031
933	0.031
933	0.031
933	0.031
934	0.032
934	0.032
935	0.033
935	0.033
935	0.034
936	0.035
936	0.036
937	0.037
937	0.038
938	0.038
938	0.039
938	0.04
939	0.04
939	0.041
940	0.041
940	0.042
941	0.043
941	0.043
941	0.044
942	0.045
942	0.046
943	0.047
943	0.047
944	0.048
944	0.048
944	0.049
945	0.049
945	0.05
946	0.05
946	0.05
946	0.05
947	0.05
947	0.05
948	0.05
948	0.049
949	0.049
949	0.049
949	0.049
950	0.049
950	0.049
951	0.049
951	0.048
952	0.048
952	0.049
952	0.049
953	0.049
953	0.049
954	0.049
954	0.048
955	0.048
955	0.048
955	0.047
956	0.047
956	0.047
957	0.046
957	0.045
957	0.044
958	0.043
958	0.042
959	0.041
959	0.04
960	0.04
960	0.039
960	0.038
961	0.037
961	0.037
962	0.037
962	0.037
963	0.037
963	0.037
963	0.037
964	0.038
964	0.038
965	0.039
965	0.04
966	0.041
966	0.042
966	0.043
967	0.044
967	0.044
968	0.045
968	0.045
968	0.045
969	0.046
969	0.046
970	0.046
970	0.046
971	0.046
971	0.046
971	0.046
972	0.046
972	0.046
973	0.046
973	0.047
974	0.046
974	0.047
974	0.047
975	0.048
975	0.048
976	0.048
976	0.048
976	0.048
977	0.047
977	0.046
978	0.045
978	0.043
979	0.042
979	0.041
979	0.04
980	0.039
980	0.038
981	0.037
981	0.037
982	0.037
982	0.038
982	0.038
983	0.039
983	0.04
984	0.041
984	0.043
984	0.044
985	0.045
985	0.046
986	0.047
986	0.047
987	0.048
987	0.048
987	0.049
988	0.049
988	0.05
989	0.05
989	0.05
990	0.05
990	0.051
990	0.051
991	0.052
991	0.053
992	0.054
992	0.054
992	0.054
993	0.055
993	0.055
994	0.055
994	0.055
995	0.055
995	0.054
995	0.054
996	0.053
996	0.052
997	0.052
997	0.052
997	0.051
998	0.051
998	0.051
999	0.052
999	0.052
1000	0.052
1000	0.052
1000	0.052
1001	0.052
1001	0.053
1002	0.053
1002	0.053
1003	0.053
1003	0.053
1003	0.052
1004	0.052
1004	0.051
1005	0.05
1005	0.049
1005	0.048
1006	0.047
1006	0.046
1007	0.045
1007	0.043
1008	0.042
1008	0.04
1008	0.04
1009	0.039
1009	0.038
1010	0.038
1010	0.037
1010	0.037
1011	0.037
1011	0.037
1012	0.037
1012	0.037
1013	0.037
1013	0.037
1013	0.036
1014	0.036
1014	0.035
1015	0.035
1015	0.034
1016	0.034
1016	0.033
1016	0.033
1017	0.032
1017	0.033
1018	0.033
1018	0.034
1018	0.034
1019	0.035
1019	0.036
1020	0.036
1020	0.037
1021	0.037
1021	0.037
1021	0.037
1022	0.037
1022	0.037
1023	0.037
1023	0.036
1023	0.036
1024	0.035
1024	0.034
1025	0.034
1025	0.033
1026	0.033
1026	0.032
1026	0.032
1027	0.032
1027	0.032
1028	0.033
1028	0.033
1028	0.034
1029	0.035
1029	0.035
1030	0.036
1030	0.037
1031	0.037
1031	0.037
1031	0.038
1032	0.037
1032	0.037
1033	0.037
1033	0.036
1033	0.036
1034	0.034
1034	0.033
1035	0.033
1035	0.032
1036	0.032
1036	0.032
1036	0.032
1037	0.032
1037	0.033
1038	0.033
1038	0.034
1039	0.035
1039	0.036
1039	0.037
1040	0.038
1040	0.039
1041	0.039
1041	0.04
1041	0.04
1042	0.04
1042	0.04
1043	0.04
1043	0.04
1044	0.04
1044	0.04
1044	0.041
1045	0.041
1045	0.042
1046	0.042
1046	0.044
1046	0.045
1047	0.046
1047	0.048
1048	0.05
1048	0.051
1049	0.052
1049	0.052
1049	0.053
1050	0.053
1050	0.054
1051	0.054
1051	0.055
1051	0.055
1052	0.055
1052	0.056
1053	0.056
1053	0.057
1053	0.057
1054	0.058
1054	0.058
1055	0.059
1055	0.059
1056	0.059
1056	0.058
1056	0.057
1057	0.057
1057	0.058
1058	0.058
1058	0.058
1058	0.059
1059	0.06
1059	0.061
1060	0.062
1060	0.064
1061	0.066
1061	0.068
1061	0.07
1062	0.071
1062	0.072
1063	0.073
1063	0.074
1063	0.075
1064	0.077
1064	0.078
1065	0.079
1065	0.079
1066	0.08
1066	0.081
1066	0.082
1067	0.083
1067	0.084
1068	0.085
1068	0.085
1068	0.085
1069	0.085
1069	0.085
1070	0.086
1070	0.086
1071	0.088
1071	0.089
1071	0.09
1072	0.093
1072	0.095
1073	0.097
1073	0.1
1073	0.102
1074	0.105
1074	0.109
1075	0.11
1075	0.113
1076	0.115
1076	0.118
1076	0.119
1077	0.121
1077	0.124
1078	0.125
1078	0.128
1078	0.132
1079	0.134
1079	0.138
1080	0.14
1080	0.144
1080	0.145
1081	0.148
1081	0.152
1082	0.155
1082	0.159
1083	0.163
1083	0.166
1083	0.172
1084	0.177
1084	0.183
1085	0.188
1085	0.194
1085	0.201
1086	0.207
1086	0.211
1087	0.217
1087	0.223
1088	0.228
1088	0.234
1088	0.242
1089	0.249
1089	0.259
1090	0.268
1090	0.28
1090	0.293
1091	0.308
1091	0.324
1092	0.34
1092	0.361
1092	0.38
1093	0.4
1093	0.425
1094	0.449
1094	0.477
1095	0.505
1095	0.539
1095	0.581
1096	0.627
1096	0.68
1097	0.746
1097	0.823
1097	0.932
1098	1.068
1098	1.292
1099	1.838
1099	-0
1100	-0
1100	-0
1100	-0
1101	-0
1101	-0
1102	-0
1102	-0
1102	-0
1103	-0
1103	-0
1104	-0
1104	-0
1104	-0
1105	-0
1105	-0
1106	-0
1106	-0
1107	-0
1107	-0
1107	-0
1108	-0
1108	-0
1109	-0
1109	-0
1109	-0
1110	-0
1110	-0
1111	-0
1111	-0
