Data from 15c-2-5a_Absorbance__209__04485.txt Node

Date: Wed Jan 17 14:37:29 CET 2024
User: Marek
Spectrometer: MAYP115816
Trigger mode: 0
Integration Time (sec): 2.000000E-1
Scans to average: 10
Electric dark correction enabled: true
Nonlinearity correction enabled: true
Boxcar width: 5
XAxis mode: Wavelengths
Number of Pixels in Spectrum: 2068
>>>>>Begin Spectral Data<<<<<
199	-2.252
199	-2.105
200	-1.938
200	-1.809
201	-1.728
201	-1.676
202	-1.599
202	-1.539
203	-1.486
203	-1.439
204	-1.411
204	-1.386
205	-1.361
205	-1.35
205	-1.348
206	-1.346
206	-1.341
207	-1.339
207	-1.334
208	-1.332
208	-1.331
209	-1.326
209	-1.324
210	-1.322
210	-1.322
211	-1.32
211	-1.319
212	-1.32
212	-1.318
213	-1.317
213	-1.316
213	-1.315
214	-1.313
214	-1.312
215	-1.311
215	-1.309
216	-1.308
216	-1.305
217	-1.3
217	-1.298
218	-1.297
218	-1.293
219	-1.29
219	-1.289
220	-1.285
220	-1.281
221	-1.275
221	-1.271
221	-1.267
222	-1.263
222	-1.258
223	-1.252
223	-1.248
224	-1.241
224	-1.234
225	-1.225
225	-1.218
226	-1.208
226	-1.196
227	-1.182
227	-1.167
228	-1.151
228	-1.131
229	-1.109
229	-1.083
229	-1.055
230	-1.023
230	-0.99
231	-0.952
231	-0.913
232	-0.871
232	-0.826
233	-0.778
233	-0.728
234	-0.678
234	-0.627
235	-0.576
235	-0.525
236	-0.475
236	-0.426
236	-0.378
237	-0.332
237	-0.287
238	-0.245
238	-0.204
239	-0.165
239	-0.129
240	-0.095
240	-0.063
241	-0.033
241	-0.006
242	0.02
242	0.044
243	0.066
243	0.086
243	0.105
244	0.123
244	0.139
245	0.153
245	0.167
246	0.18
246	0.192
247	0.203
247	0.213
248	0.222
248	0.231
249	0.24
249	0.247
250	0.254
250	0.261
250	0.267
251	0.273
251	0.278
252	0.283
252	0.288
253	0.293
253	0.296
254	0.3
254	0.304
255	0.308
255	0.311
256	0.314
256	0.316
257	0.319
257	0.321
258	0.323
258	0.325
258	0.327
259	0.328
259	0.329
260	0.33
260	0.331
261	0.332
261	0.333
262	0.334
262	0.334
263	0.335
263	0.335
264	0.336
264	0.336
265	0.336
265	0.336
265	0.336
266	0.336
266	0.336
267	0.336
267	0.335
268	0.335
268	0.334
269	0.333
269	0.333
270	0.332
270	0.331
271	0.33
271	0.329
272	0.328
272	0.327
272	0.326
273	0.325
273	0.324
274	0.323
274	0.323
275	0.322
275	0.321
276	0.32
276	0.318
277	0.317
277	0.316
278	0.314
278	0.313
278	0.311
279	0.308
279	0.307
280	0.306
280	0.305
281	0.304
281	0.303
282	0.302
282	0.301
283	0.301
283	0.3
284	0.3
284	0.3
285	0.3
285	0.299
285	0.299
286	0.298
286	0.297
287	0.297
287	0.296
288	0.295
288	0.295
289	0.293
289	0.293
290	0.292
290	0.291
291	0.29
291	0.289
292	0.288
292	0.287
292	0.287
293	0.286
293	0.285
294	0.284
294	0.284
295	0.283
295	0.282
296	0.282
296	0.281
297	0.281
297	0.28
298	0.279
298	0.279
298	0.278
299	0.278
299	0.277
300	0.276
300	0.276
301	0.275
301	0.275
302	0.274
302	0.273
303	0.273
303	0.272
304	0.271
304	0.271
305	0.27
305	0.269
305	0.268
306	0.267
306	0.267
307	0.266
307	0.265
308	0.265
308	0.264
309	0.263
309	0.263
310	0.262
310	0.261
311	0.26
311	0.259
311	0.258
312	0.258
312	0.257
313	0.256
313	0.255
314	0.254
314	0.253
315	0.252
315	0.252
316	0.251
316	0.25
317	0.249
317	0.248
318	0.247
318	0.246
318	0.245
319	0.244
319	0.243
320	0.242
320	0.241
321	0.241
321	0.24
322	0.239
322	0.238
323	0.237
323	0.236
324	0.235
324	0.234
324	0.233
325	0.232
325	0.231
326	0.23
326	0.23
327	0.229
327	0.228
328	0.227
328	0.226
329	0.226
329	0.225
330	0.224
330	0.223
330	0.222
331	0.221
331	0.22
332	0.219
332	0.218
333	0.217
333	0.216
334	0.215
334	0.214
335	0.213
335	0.213
336	0.212
336	0.211
336	0.21
337	0.209
337	0.209
338	0.208
338	0.207
339	0.207
339	0.206
340	0.205
340	0.204
341	0.204
341	0.203
342	0.202
342	0.202
342	0.201
343	0.2
343	0.199
344	0.198
344	0.198
345	0.197
345	0.196
346	0.195
346	0.195
347	0.194
347	0.193
348	0.192
348	0.192
348	0.191
349	0.19
349	0.189
350	0.188
350	0.187
351	0.186
351	0.185
352	0.184
352	0.183
353	0.182
353	0.181
354	0.18
354	0.179
354	0.178
355	0.176
355	0.175
356	0.174
356	0.173
357	0.172
357	0.172
358	0.171
358	0.172
359	0.172
359	0.173
360	0.174
360	0.175
360	0.175
361	0.176
361	0.177
362	0.177
362	0.177
363	0.177
363	0.177
364	0.176
364	0.175
365	0.175
365	0.174
366	0.174
366	0.173
366	0.173
367	0.172
367	0.172
368	0.172
368	0.171
369	0.171
369	0.171
370	0.17
370	0.17
371	0.169
371	0.169
372	0.168
372	0.168
372	0.168
373	0.167
373	0.167
374	0.167
374	0.167
375	0.167
375	0.167
376	0.167
376	0.167
377	0.167
377	0.168
378	0.168
378	0.168
378	0.168
379	0.169
379	0.169
380	0.169
380	0.169
381	0.169
381	0.169
382	0.168
382	0.168
383	0.167
383	0.167
383	0.166
384	0.166
384	0.165
385	0.165
385	0.165
386	0.165
386	0.165
387	0.165
387	0.165
388	0.164
388	0.164
389	0.164
389	0.164
389	0.164
390	0.164
390	0.165
391	0.165
391	0.166
392	0.166
392	0.166
393	0.166
393	0.166
394	0.165
394	0.165
394	0.165
395	0.165
395	0.164
396	0.164
396	0.164
397	0.164
397	0.164
398	0.164
398	0.164
399	0.164
399	0.164
400	0.164
400	0.163
400	0.163
401	0.162
401	0.16
402	0.159
402	0.158
403	0.158
403	0.158
404	0.158
404	0.158
405	0.157
405	0.157
405	0.157
406	0.157
406	0.156
407	0.156
407	0.156
408	0.155
408	0.154
409	0.154
409	0.153
410	0.153
410	0.153
411	0.153
411	0.153
411	0.153
412	0.153
412	0.152
413	0.152
413	0.152
414	0.152
414	0.151
415	0.151
415	0.151
416	0.15
416	0.149
416	0.149
417	0.148
417	0.148
418	0.148
418	0.148
419	0.149
419	0.15
420	0.151
420	0.152
421	0.153
421	0.153
421	0.153
422	0.154
422	0.154
423	0.155
423	0.154
424	0.154
424	0.153
425	0.152
425	0.15
426	0.15
426	0.149
427	0.149
427	0.149
427	0.149
428	0.15
428	0.15
429	0.151
429	0.152
430	0.152
430	0.152
431	0.152
431	0.151
432	0.151
432	0.15
432	0.149
433	0.147
433	0.146
434	0.145
434	0.145
435	0.145
435	0.145
436	0.145
436	0.145
437	0.146
437	0.146
437	0.146
438	0.146
438	0.146
439	0.146
439	0.145
440	0.145
440	0.145
441	0.145
441	0.145
442	0.145
442	0.145
442	0.145
443	0.146
443	0.146
444	0.146
444	0.147
445	0.147
445	0.147
446	0.147
446	0.147
447	0.147
447	0.147
447	0.147
448	0.147
448	0.146
449	0.146
449	0.146
450	0.146
450	0.145
451	0.145
451	0.144
452	0.144
452	0.143
452	0.143
453	0.142
453	0.142
454	0.141
454	0.14
455	0.14
455	0.14
456	0.139
456	0.139
457	0.139
457	0.138
458	0.138
458	0.138
458	0.139
459	0.139
459	0.139
460	0.138
460	0.137
461	0.136
461	0.136
462	0.135
462	0.135
463	0.136
463	0.136
463	0.137
464	0.137
464	0.137
465	0.137
465	0.137
466	0.138
466	0.138
467	0.138
467	0.137
467	0.136
468	0.135
468	0.132
469	0.131
469	0.129
470	0.128
470	0.128
471	0.127
471	0.127
472	0.126
472	0.126
472	0.127
473	0.128
473	0.129
474	0.13
474	0.132
475	0.133
475	0.133
476	0.133
476	0.134
477	0.134
477	0.134
477	0.134
478	0.134
478	0.134
479	0.134
479	0.134
480	0.135
480	0.136
481	0.137
481	0.137
482	0.138
482	0.14
482	0.141
483	0.144
483	0.147
484	0.151
484	0.154
485	0.155
485	0.157
486	0.158
486	0.159
487	0.16
487	0.16
487	0.16
488	0.159
488	0.157
489	0.155
489	0.153
490	0.151
490	0.15
491	0.149
491	0.149
492	0.149
492	0.149
492	0.149
493	0.149
493	0.15
494	0.152
494	0.154
495	0.156
495	0.157
496	0.158
496	0.159
496	0.161
497	0.162
497	0.163
498	0.164
498	0.164
499	0.164
499	0.164
500	0.164
500	0.165
501	0.167
501	0.169
501	0.17
502	0.171
502	0.172
503	0.174
503	0.175
504	0.176
504	0.176
505	0.176
505	0.176
506	0.176
506	0.176
506	0.177
507	0.177
507	0.177
508	0.177
508	0.177
509	0.177
509	0.178
510	0.179
510	0.179
511	0.18
511	0.179
511	0.179
512	0.179
512	0.179
513	0.178
513	0.177
514	0.176
514	0.175
515	0.173
515	0.172
515	0.171
516	0.17
516	0.17
517	0.171
517	0.171
518	0.171
518	0.171
519	0.17
519	0.168
520	0.166
520	0.164
520	0.161
521	0.158
521	0.155
522	0.151
522	0.149
523	0.147
523	0.146
524	0.146
524	0.146
524	0.148
525	0.15
525	0.153
526	0.156
526	0.16
527	0.163
527	0.166
528	0.168
528	0.171
529	0.172
529	0.173
529	0.174
530	0.175
530	0.175
531	0.175
531	0.176
532	0.176
532	0.176
533	0.176
533	0.176
533	0.176
534	0.176
534	0.175
535	0.174
535	0.174
536	0.174
536	0.173
537	0.173
537	0.172
538	0.171
538	0.17
538	0.169
539	0.168
539	0.167
540	0.167
540	0.165
541	0.164
541	0.162
542	0.16
542	0.158
542	0.157
543	0.155
543	0.154
544	0.153
544	0.151
545	0.151
545	0.151
546	0.151
546	0.151
547	0.15
547	0.148
547	0.145
548	0.143
548	0.141
549	0.139
549	0.137
550	0.135
550	0.133
551	0.13
551	0.128
551	0.126
552	0.125
552	0.124
553	0.124
553	0.123
554	0.123
554	0.122
555	0.12
555	0.117
556	0.114
556	0.111
556	0.107
557	0.105
557	0.102
558	0.1
558	0.098
559	0.096
559	0.095
560	0.095
560	0.094
560	0.094
561	0.095
561	0.095
562	0.095
562	0.094
563	0.093
563	0.091
564	0.088
564	0.085
564	0.083
565	0.081
565	0.08
566	0.079
566	0.077
567	0.078
567	0.079
568	0.08
568	0.083
568	0.085
569	0.089
569	0.092
570	0.094
570	0.095
571	0.096
571	0.098
572	0.099
572	0.099
573	0.099
573	0.099
573	0.097
574	0.096
574	0.096
575	0.095
575	0.096
576	0.097
576	0.097
577	0.095
577	0.094
577	0.093
578	0.092
578	0.092
579	0.093
579	0.094
580	0.094
580	0.091
581	0.087
581	0.085
581	0.083
582	0.083
582	0.083
583	0.083
583	0.083
584	0.08
584	0.075
585	0.073
585	0.072
585	0.072
586	0.072
586	0.072
587	0.07
587	0.067
588	0.064
588	0.061
589	0.059
589	0.058
590	0.057
590	0.057
590	0.058
591	0.059
591	0.059
592	0.059
592	0.059
593	0.059
593	0.059
594	0.058
594	0.057
594	0.055
595	0.054
595	0.053
596	0.051
596	0.051
597	0.053
597	0.055
598	0.057
598	0.058
598	0.06
599	0.061
599	0.061
600	0.06
600	0.058
601	0.057
601	0.056
602	0.054
602	0.053
602	0.051
603	0.05
603	0.051
604	0.052
604	0.054
605	0.056
605	0.058
606	0.059
606	0.059
606	0.058
607	0.057
607	0.057
608	0.056
608	0.054
609	0.052
609	0.052
610	0.05
610	0.049
610	0.048
611	0.049
611	0.051
612	0.052
612	0.054
613	0.056
613	0.058
614	0.058
614	0.056
614	0.056
615	0.055
615	0.053
616	0.052
616	0.05
617	0.049
617	0.047
618	0.044
618	0.041
618	0.04
619	0.04
619	0.04
620	0.042
620	0.043
621	0.044
621	0.045
622	0.045
622	0.046
622	0.047
623	0.047
623	0.048
624	0.049
624	0.049
625	0.048
625	0.048
626	0.048
626	0.048
626	0.048
627	0.048
627	0.048
628	0.049
628	0.049
629	0.049
629	0.048
630	0.047
630	0.046
630	0.046
631	0.046
631	0.046
632	0.046
632	0.046
633	0.047
633	0.048
634	0.05
634	0.052
634	0.055
635	0.057
635	0.058
636	0.06
636	0.061
637	0.062
637	0.062
638	0.063
638	0.065
638	0.066
639	0.066
639	0.066
640	0.067
640	0.068
641	0.069
641	0.07
642	0.072
642	0.074
642	0.075
643	0.077
643	0.078
644	0.08
644	0.081
645	0.083
645	0.085
646	0.088
646	0.091
646	0.094
647	0.098
647	0.102
648	0.105
648	0.107
649	0.11
649	0.113
650	0.116
650	0.12
650	0.122
651	0.125
651	0.127
652	0.128
652	0.13
653	0.133
653	0.143
653	0.167
654	0.137
654	0.114
655	0.117
655	0.119
656	0.121
656	0.122
657	0.124
657	0.125
657	0.126
658	0.123
658	0.105
659	0.13
659	0.165
660	0.168
660	0.17
661	0.171
661	0.173
661	0.176
662	0.179
662	0.183
663	0.187
663	0.191
664	0.194
664	0.196
665	0.199
665	0.202
665	0.204
666	0.206
666	0.208
667	0.21
667	0.212
668	0.214
668	0.216
669	0.219
669	0.222
669	0.226
670	0.231
670	0.235
671	0.238
671	0.24
672	0.242
672	0.243
672	0.244
673	0.246
673	0.247
674	0.247
674	0.247
675	0.246
675	0.245
676	0.247
676	0.249
676	0.25
677	0.251
677	0.253
678	0.255
678	0.257
679	0.258
679	0.259
680	0.262
680	0.264
680	0.264
681	0.265
681	0.266
682	0.267
682	0.269
683	0.271
683	0.273
684	0.276
684	0.277
684	0.278
685	0.279
685	0.28
686	0.281
686	0.282
687	0.282
687	0.281
687	0.281
688	0.28
688	0.279
689	0.279
689	0.28
690	0.281
690	0.28
691	0.279
691	0.279
691	0.279
692	0.278
692	0.277
693	0.276
693	0.277
694	0.275
694	0.273
695	0.272
695	0.274
695	0.275
696	0.275
696	0.273
697	0.272
697	0.271
698	0.27
698	0.267
698	0.266
699	0.265
699	0.262
700	0.258
700	0.256
701	0.255
701	0.254
702	0.253
702	0.252
702	0.251
703	0.25
703	0.248
704	0.247
704	0.247
705	0.247
705	0.247
705	0.247
706	0.246
706	0.246
707	0.245
707	0.243
708	0.241
708	0.239
709	0.238
709	0.235
709	0.231
710	0.227
710	0.224
711	0.221
711	0.219
712	0.217
712	0.215
713	0.213
713	0.211
713	0.209
714	0.207
714	0.204
715	0.202
715	0.2
716	0.197
716	0.196
716	0.193
717	0.191
717	0.189
718	0.186
718	0.183
719	0.181
719	0.18
720	0.178
720	0.176
720	0.173
721	0.17
721	0.166
722	0.164
722	0.161
723	0.158
723	0.157
723	0.155
724	0.152
724	0.15
725	0.147
725	0.145
726	0.143
726	0.141
727	0.139
727	0.137
727	0.135
728	0.133
728	0.131
729	0.13
729	0.13
730	0.128
730	0.127
730	0.125
731	0.124
731	0.123
732	0.122
732	0.121
733	0.119
733	0.117
734	0.114
734	0.112
734	0.11
735	0.108
735	0.106
736	0.104
736	0.102
737	0.1
737	0.099
737	0.098
738	0.095
738	0.092
739	0.089
739	0.087
740	0.083
740	0.081
741	0.079
741	0.075
741	0.071
742	0.065
742	0.06
743	0.057
743	0.053
744	0.051
744	0.049
744	0.046
745	0.043
745	0.04
746	0.038
746	0.036
747	0.035
747	0.035
748	0.034
748	0.034
748	0.033
749	0.032
749	0.032
750	0.031
750	0.031
751	0.031
751	0.032
751	0.033
752	0.033
752	0.032
753	0.031
753	0.031
754	0.031
754	0.031
754	0.032
755	0.033
755	0.034
756	0.033
756	0.031
757	0.029
757	0.029
758	0.028
758	0.027
758	0.026
759	0.025
759	0.022
760	0.019
760	0.015
761	0.013
761	0.012
761	0.011
762	0.008
762	0.008
763	0.007
763	0.005
764	0.001
764	-0.001
764	-0.004
765	-0.007
765	-0.01
766	-0.011
766	-0.012
767	-0.013
767	-0.017
768	-0.021
768	-0.024
768	-0.025
769	-0.026
769	-0.026
770	-0.028
770	-0.029
771	-0.032
771	-0.036
771	-0.039
772	-0.042
772	-0.045
773	-0.048
773	-0.051
774	-0.056
774	-0.06
775	-0.064
775	-0.068
775	-0.072
776	-0.077
776	-0.081
777	-0.086
777	-0.091
778	-0.096
778	-0.102
778	-0.107
779	-0.111
779	-0.113
780	-0.117
780	-0.123
781	-0.127
781	-0.131
781	-0.135
782	-0.139
782	-0.143
783	-0.146
783	-0.148
784	-0.15
784	-0.152
784	-0.154
785	-0.155
785	-0.156
786	-0.156
786	-0.153
787	-0.147
787	-0.143
788	-0.142
788	-0.142
788	-0.144
789	-0.146
789	-0.145
790	-0.142
790	-0.141
791	-0.141
791	-0.143
791	-0.146
792	-0.141
792	-0.13
793	-0.124
793	-0.12
794	-0.118
794	-0.121
794	-0.125
795	-0.127
795	-0.127
796	-0.128
796	-0.131
797	-0.14
797	-0.151
797	-0.157
798	-0.163
798	-0.165
799	-0.166
799	-0.165
800	-0.164
800	-0.166
801	-0.169
801	-0.169
801	-0.17
802	-0.171
802	-0.172
803	-0.173
803	-0.174
804	-0.173
804	-0.167
804	-0.161
805	-0.157
805	-0.155
806	-0.153
806	-0.152
807	-0.151
807	-0.15
807	-0.15
808	-0.15
808	-0.151
809	-0.156
809	-0.162
810	-0.166
810	-0.169
810	-0.172
811	-0.176
811	-0.176
812	-0.172
812	-0.169
813	-0.169
813	-0.17
813	-0.17
814	-0.171
814	-0.17
815	-0.167
815	-0.163
816	-0.16
816	-0.16
817	-0.164
817	-0.166
817	-0.166
818	-0.165
818	-0.162
819	-0.156
819	-0.154
820	-0.155
820	-0.158
820	-0.159
821	-0.16
821	-0.158
822	-0.156
822	-0.154
823	-0.15
823	-0.149
823	-0.149
824	-0.146
824	-0.139
825	-0.13
825	-0.12
826	-0.11
826	-0.103
826	-0.095
827	-0.088
827	-0.082
828	-0.076
828	-0.072
829	-0.067
829	-0.064
829	-0.061
830	-0.06
830	-0.057
831	-0.053
831	-0.05
832	-0.047
832	-0.043
832	-0.04
833	-0.036
833	-0.033
834	-0.03
834	-0.026
835	-0.024
835	-0.022
835	-0.02
836	-0.019
836	-0.017
837	-0.016
837	-0.016
838	-0.016
838	-0.015
839	-0.015
839	-0.015
839	-0.015
840	-0.015
840	-0.014
841	-0.013
841	-0.012
842	-0.011
842	-0.009
842	-0.007
843	-0.006
843	-0.004
844	-0.002
844	-0
845	0.001
845	0.003
845	0.004
846	0.005
846	0.006
847	0.007
847	0.007
848	0.008
848	0.008
848	0.009
849	0.009
849	0.01
850	0.01
850	0.009
851	0.01
851	0.01
851	0.01
852	0.01
852	0.011
853	0.012
853	0.012
854	0.013
854	0.013
854	0.014
855	0.015
855	0.015
856	0.015
856	0.016
857	0.017
857	0.017
857	0.018
858	0.018
858	0.018
859	0.018
859	0.018
860	0.019
860	0.019
860	0.02
861	0.02
861	0.021
862	0.021
862	0.021
863	0.021
863	0.021
863	0.021
864	0.021
864	0.021
865	0.022
865	0.021
866	0.021
866	0.021
866	0.021
867	0.022
867	0.022
868	0.023
868	0.024
869	0.025
869	0.026
869	0.026
870	0.026
870	0.027
871	0.027
871	0.027
872	0.027
872	0.026
872	0.025
873	0.024
873	0.023
874	0.022
874	0.022
875	0.022
875	0.022
875	0.022
876	0.022
876	0.023
877	0.024
877	0.025
878	0.026
878	0.028
878	0.03
879	0.031
879	0.032
880	0.033
880	0.033
881	0.034
881	0.034
881	0.034
882	0.033
882	0.033
883	0.033
883	0.032
884	0.032
884	0.033
884	0.033
885	0.034
885	0.035
886	0.036
886	0.037
887	0.038
887	0.039
887	0.04
888	0.04
888	0.04
889	0.041
889	0.041
890	0.04
890	0.04
890	0.038
891	0.037
891	0.036
892	0.035
892	0.033
893	0.032
893	0.032
893	0.031
894	0.03
894	0.03
895	0.029
895	0.029
895	0.028
896	0.028
896	0.028
897	0.028
897	0.028
898	0.028
898	0.029
898	0.029
899	0.03
899	0.031
900	0.032
900	0.033
901	0.035
901	0.036
901	0.037
902	0.038
902	0.039
903	0.04
903	0.04
904	0.041
904	0.041
904	0.041
905	0.041
905	0.041
906	0.041
906	0.041
907	0.04
907	0.04
907	0.039
908	0.039
908	0.039
909	0.039
909	0.039
910	0.039
910	0.04
910	0.04
911	0.041
911	0.042
912	0.043
912	0.044
913	0.045
913	0.045
913	0.045
914	0.045
914	0.045
915	0.044
915	0.043
916	0.042
916	0.041
916	0.04
917	0.039
917	0.038
918	0.037
918	0.037
918	0.037
919	0.037
919	0.037
920	0.038
920	0.038
921	0.039
921	0.039
921	0.039
922	0.04
922	0.04
923	0.04
923	0.04
924	0.04
924	0.04
924	0.039
925	0.039
925	0.039
926	0.038
926	0.038
927	0.038
927	0.038
927	0.038
928	0.038
928	0.037
929	0.037
929	0.037
930	0.037
930	0.037
930	0.037
931	0.036
931	0.036
932	0.035
932	0.035
933	0.034
933	0.034
933	0.034
934	0.034
934	0.034
935	0.034
935	0.034
935	0.035
936	0.035
936	0.036
937	0.037
937	0.038
938	0.038
938	0.039
938	0.04
939	0.04
939	0.041
940	0.041
940	0.042
941	0.043
941	0.044
941	0.045
942	0.046
942	0.047
943	0.048
943	0.048
944	0.049
944	0.049
944	0.05
945	0.051
945	0.051
946	0.052
946	0.052
946	0.052
947	0.052
947	0.052
948	0.051
948	0.051
949	0.05
949	0.05
949	0.05
950	0.05
950	0.05
951	0.05
951	0.049
952	0.049
952	0.05
952	0.05
953	0.051
953	0.051
954	0.05
954	0.05
955	0.05
955	0.049
955	0.049
956	0.048
956	0.048
957	0.047
957	0.045
957	0.044
958	0.043
958	0.042
959	0.041
959	0.04
960	0.039
960	0.038
960	0.037
961	0.037
961	0.037
962	0.036
962	0.036
963	0.037
963	0.037
963	0.037
964	0.038
964	0.039
965	0.04
965	0.041
966	0.042
966	0.043
966	0.044
967	0.045
967	0.045
968	0.046
968	0.046
968	0.047
969	0.047
969	0.047
970	0.048
970	0.048
971	0.048
971	0.048
971	0.048
972	0.048
972	0.049
973	0.049
973	0.049
974	0.049
974	0.049
974	0.049
975	0.05
975	0.05
976	0.05
976	0.049
976	0.049
977	0.048
977	0.047
978	0.045
978	0.044
979	0.043
979	0.042
979	0.04
980	0.039
980	0.038
981	0.038
981	0.038
982	0.038
982	0.039
982	0.04
983	0.041
983	0.042
984	0.043
984	0.044
984	0.046
985	0.047
985	0.048
986	0.048
986	0.049
987	0.049
987	0.05
987	0.05
988	0.051
988	0.051
989	0.051
989	0.051
990	0.051
990	0.051
990	0.052
991	0.053
991	0.053
992	0.054
992	0.054
992	0.054
993	0.055
993	0.055
994	0.055
994	0.055
995	0.055
995	0.055
995	0.054
996	0.054
996	0.053
997	0.052
997	0.052
997	0.052
998	0.052
998	0.052
999	0.052
999	0.052
1000	0.052
1000	0.053
1000	0.053
1001	0.053
1001	0.054
1002	0.054
1002	0.054
1003	0.054
1003	0.054
1003	0.054
1004	0.053
1004	0.052
1005	0.052
1005	0.051
1005	0.049
1006	0.048
1006	0.047
1007	0.045
1007	0.044
1008	0.042
1008	0.041
1008	0.039
1009	0.039
1009	0.038
1010	0.037
1010	0.037
1010	0.037
1011	0.037
1011	0.037
1012	0.037
1012	0.037
1013	0.037
1013	0.037
1013	0.036
1014	0.035
1014	0.035
1015	0.034
1015	0.034
1016	0.033
1016	0.033
1016	0.032
1017	0.032
1017	0.031
1018	0.032
1018	0.032
1018	0.032
1019	0.033
1019	0.033
1020	0.034
1020	0.034
1021	0.035
1021	0.035
1021	0.036
1022	0.036
1022	0.036
1023	0.036
1023	0.036
1023	0.035
1024	0.034
1024	0.034
1025	0.033
1025	0.032
1026	0.031
1026	0.031
1026	0.031
1027	0.031
1027	0.031
1028	0.032
1028	0.033
1028	0.034
1029	0.034
1029	0.035
1030	0.036
1030	0.036
1031	0.037
1031	0.037
1031	0.037
1032	0.037
1032	0.037
1033	0.036
1033	0.035
1033	0.035
1034	0.034
1034	0.033
1035	0.032
1035	0.031
1036	0.031
1036	0.031
1036	0.031
1037	0.031
1037	0.031
1038	0.031
1038	0.032
1039	0.033
1039	0.034
1039	0.035
1040	0.036
1040	0.037
1041	0.037
1041	0.037
1041	0.038
1042	0.038
1042	0.038
1043	0.038
1043	0.037
1044	0.038
1044	0.038
1044	0.039
1045	0.039
1045	0.04
1046	0.041
1046	0.042
1046	0.044
1047	0.046
1047	0.048
1048	0.049
1048	0.05
1049	0.051
1049	0.052
1049	0.052
1050	0.053
1050	0.054
1051	0.054
1051	0.055
1051	0.055
1052	0.056
1052	0.056
1053	0.056
1053	0.057
1053	0.057
1054	0.058
1054	0.058
1055	0.058
1055	0.058
1056	0.058
1056	0.058
1056	0.057
1057	0.057
1057	0.057
1058	0.058
1058	0.059
1058	0.06
1059	0.06
1059	0.061
1060	0.063
1060	0.065
1061	0.067
1061	0.069
1061	0.07
1062	0.071
1062	0.072
1063	0.072
1063	0.073
1063	0.074
1064	0.075
1064	0.077
1065	0.077
1065	0.077
1066	0.078
1066	0.079
1066	0.081
1067	0.081
1067	0.083
1068	0.083
1068	0.084
1068	0.084
1069	0.084
1069	0.084
1070	0.085
1070	0.086
1071	0.088
1071	0.089
1071	0.091
1072	0.093
1072	0.096
1073	0.098
1073	0.101
1073	0.104
1074	0.107
1074	0.11
1075	0.111
1075	0.113
1076	0.115
1076	0.118
1076	0.119
1077	0.121
1077	0.124
1078	0.126
1078	0.129
1078	0.132
1079	0.135
1079	0.139
1080	0.141
1080	0.145
1080	0.147
1081	0.15
1081	0.153
1082	0.156
1082	0.16
1083	0.163
1083	0.167
1083	0.171
1084	0.176
1084	0.182
1085	0.188
1085	0.194
1085	0.201
1086	0.207
1086	0.212
1087	0.218
1087	0.224
1088	0.23
1088	0.237
1088	0.243
1089	0.251
1089	0.259
1090	0.269
1090	0.281
1090	0.293
1091	0.307
1091	0.325
1092	0.342
1092	0.362
1092	0.381
1093	0.403
1093	0.428
1094	0.454
1094	0.481
1095	0.511
1095	0.546
1095	0.59
1096	0.635
1096	0.69
1097	0.759
1097	0.836
1097	0.945
1098	1.078
1098	1.314
1099	1.942
1099	-0
1100	-0
1100	-0
1100	-0
1101	-0
1101	-0
1102	-0
1102	-0
1102	-0
1103	-0
1103	-0
1104	-0
1104	-0
1104	-0
1105	-0
1105	-0
1106	-0
1106	-0
1107	-0
1107	-0
1107	-0
1108	-0
1108	-0
1109	-0
1109	-0
1109	-0
1110	-0
1110	-0
1111	-0
1111	-0
