Data from 15c-2-5a_Absorbance__36__04312.txt Node

Date: Wed Jan 17 14:31:43 CET 2024
User: Marek
Spectrometer: MAYP115816
Trigger mode: 0
Integration Time (sec): 2.000000E-1
Scans to average: 10
Electric dark correction enabled: true
Nonlinearity correction enabled: true
Boxcar width: 5
XAxis mode: Wavelengths
Number of Pixels in Spectrum: 2068
>>>>>Begin Spectral Data<<<<<
199	-2.25
199	-2.102
200	-1.936
200	-1.807
201	-1.726
201	-1.674
202	-1.597
202	-1.537
203	-1.483
203	-1.436
204	-1.409
204	-1.384
205	-1.36
205	-1.349
205	-1.346
206	-1.345
206	-1.34
207	-1.338
207	-1.334
208	-1.331
208	-1.33
209	-1.325
209	-1.322
210	-1.321
210	-1.321
211	-1.319
211	-1.317
212	-1.318
212	-1.316
213	-1.315
213	-1.314
213	-1.312
214	-1.311
214	-1.311
215	-1.309
215	-1.307
216	-1.307
216	-1.304
217	-1.299
217	-1.297
218	-1.296
218	-1.292
219	-1.29
219	-1.288
220	-1.284
220	-1.281
221	-1.275
221	-1.272
221	-1.267
222	-1.263
222	-1.258
223	-1.252
223	-1.248
224	-1.242
224	-1.234
225	-1.226
225	-1.218
226	-1.208
226	-1.196
227	-1.182
227	-1.167
228	-1.151
228	-1.131
229	-1.109
229	-1.083
229	-1.055
230	-1.023
230	-0.99
231	-0.953
231	-0.914
232	-0.872
232	-0.827
233	-0.779
233	-0.729
234	-0.679
234	-0.629
235	-0.578
235	-0.527
236	-0.477
236	-0.429
236	-0.381
237	-0.334
237	-0.29
238	-0.249
238	-0.208
239	-0.17
239	-0.134
240	-0.1
240	-0.069
241	-0.04
241	-0.012
242	0.013
242	0.037
243	0.058
243	0.078
243	0.097
244	0.114
244	0.13
245	0.144
245	0.158
246	0.17
246	0.182
247	0.192
247	0.202
248	0.211
248	0.22
249	0.228
249	0.235
250	0.242
250	0.248
250	0.254
251	0.26
251	0.265
252	0.27
252	0.274
253	0.278
253	0.282
254	0.285
254	0.289
255	0.292
255	0.295
256	0.298
256	0.3
257	0.303
257	0.305
258	0.307
258	0.308
258	0.31
259	0.311
259	0.312
260	0.313
260	0.314
261	0.314
261	0.315
262	0.316
262	0.316
263	0.316
263	0.317
264	0.317
264	0.317
265	0.317
265	0.317
265	0.317
266	0.317
266	0.317
267	0.317
267	0.316
268	0.316
268	0.315
269	0.314
269	0.313
270	0.312
270	0.312
271	0.311
271	0.31
272	0.309
272	0.308
272	0.307
273	0.307
273	0.306
274	0.305
274	0.304
275	0.303
275	0.302
276	0.301
276	0.3
277	0.299
277	0.297
278	0.296
278	0.294
278	0.292
279	0.29
279	0.288
280	0.287
280	0.286
281	0.285
281	0.284
282	0.284
282	0.283
283	0.283
283	0.282
284	0.282
284	0.282
285	0.282
285	0.281
285	0.281
286	0.28
286	0.279
287	0.279
287	0.278
288	0.277
288	0.277
289	0.276
289	0.275
290	0.274
290	0.274
291	0.273
291	0.272
292	0.272
292	0.271
292	0.27
293	0.27
293	0.269
294	0.268
294	0.267
295	0.267
295	0.266
296	0.265
296	0.265
297	0.264
297	0.264
298	0.263
298	0.262
298	0.262
299	0.261
299	0.261
300	0.26
300	0.26
301	0.259
301	0.259
302	0.258
302	0.257
303	0.257
303	0.256
304	0.256
304	0.255
305	0.254
305	0.254
305	0.253
306	0.252
306	0.252
307	0.251
307	0.25
308	0.249
308	0.249
309	0.248
309	0.247
310	0.246
310	0.246
311	0.245
311	0.244
311	0.243
312	0.243
312	0.242
313	0.241
313	0.24
314	0.239
314	0.238
315	0.238
315	0.237
316	0.236
316	0.235
317	0.234
317	0.233
318	0.233
318	0.232
318	0.231
319	0.23
319	0.229
320	0.228
320	0.227
321	0.226
321	0.225
322	0.224
322	0.223
323	0.222
323	0.221
324	0.22
324	0.22
324	0.219
325	0.218
325	0.217
326	0.216
326	0.216
327	0.215
327	0.214
328	0.213
328	0.212
329	0.211
329	0.21
330	0.21
330	0.209
330	0.208
331	0.207
331	0.206
332	0.205
332	0.204
333	0.204
333	0.203
334	0.202
334	0.201
335	0.2
335	0.199
336	0.198
336	0.197
336	0.197
337	0.196
337	0.195
338	0.195
338	0.194
339	0.193
339	0.193
340	0.192
340	0.191
341	0.191
341	0.19
342	0.189
342	0.189
342	0.188
343	0.187
343	0.186
344	0.186
344	0.185
345	0.184
345	0.184
346	0.183
346	0.182
347	0.181
347	0.18
348	0.179
348	0.179
348	0.178
349	0.177
349	0.176
350	0.175
350	0.174
351	0.174
351	0.173
352	0.172
352	0.171
353	0.17
353	0.169
354	0.168
354	0.166
354	0.165
355	0.164
355	0.163
356	0.162
356	0.161
357	0.16
357	0.16
358	0.16
358	0.16
359	0.161
359	0.161
360	0.162
360	0.163
360	0.163
361	0.164
361	0.164
362	0.165
362	0.165
363	0.165
363	0.165
364	0.164
364	0.163
365	0.163
365	0.162
366	0.162
366	0.161
366	0.161
367	0.161
367	0.16
368	0.16
368	0.159
369	0.159
369	0.158
370	0.158
370	0.158
371	0.157
371	0.157
372	0.156
372	0.156
372	0.155
373	0.155
373	0.155
374	0.155
374	0.155
375	0.155
375	0.155
376	0.155
376	0.155
377	0.155
377	0.156
378	0.156
378	0.156
378	0.157
379	0.157
379	0.157
380	0.157
380	0.157
381	0.157
381	0.156
382	0.156
382	0.156
383	0.155
383	0.155
383	0.154
384	0.154
384	0.154
385	0.154
385	0.154
386	0.153
386	0.153
387	0.153
387	0.153
388	0.153
388	0.153
389	0.153
389	0.153
389	0.153
390	0.153
390	0.153
391	0.154
391	0.154
392	0.154
392	0.154
393	0.154
393	0.154
394	0.154
394	0.154
394	0.154
395	0.153
395	0.153
396	0.153
396	0.153
397	0.153
397	0.153
398	0.154
398	0.153
399	0.153
399	0.153
400	0.153
400	0.152
400	0.152
401	0.151
401	0.15
402	0.148
402	0.148
403	0.147
403	0.147
404	0.147
404	0.147
405	0.147
405	0.146
405	0.146
406	0.146
406	0.145
407	0.145
407	0.145
408	0.144
408	0.144
409	0.143
409	0.142
410	0.142
410	0.143
411	0.143
411	0.143
411	0.143
412	0.142
412	0.142
413	0.142
413	0.141
414	0.141
414	0.141
415	0.141
415	0.14
416	0.139
416	0.139
416	0.138
417	0.138
417	0.138
418	0.138
418	0.138
419	0.139
419	0.14
420	0.141
420	0.142
421	0.142
421	0.143
421	0.143
422	0.144
422	0.144
423	0.144
423	0.144
424	0.143
424	0.142
425	0.141
425	0.14
426	0.139
426	0.139
427	0.139
427	0.139
427	0.139
428	0.14
428	0.141
429	0.141
429	0.142
430	0.142
430	0.142
431	0.142
431	0.141
432	0.141
432	0.14
432	0.139
433	0.137
433	0.136
434	0.135
434	0.135
435	0.135
435	0.135
436	0.135
436	0.136
437	0.136
437	0.136
437	0.136
438	0.136
438	0.136
439	0.136
439	0.135
440	0.135
440	0.134
441	0.135
441	0.135
442	0.135
442	0.135
442	0.135
443	0.136
443	0.136
444	0.137
444	0.137
445	0.137
445	0.138
446	0.138
446	0.137
447	0.137
447	0.137
447	0.137
448	0.137
448	0.137
449	0.136
449	0.136
450	0.136
450	0.136
451	0.135
451	0.135
452	0.134
452	0.133
452	0.133
453	0.133
453	0.132
454	0.131
454	0.131
455	0.13
455	0.13
456	0.13
456	0.129
457	0.129
457	0.129
458	0.129
458	0.129
458	0.129
459	0.129
459	0.129
460	0.128
460	0.127
461	0.126
461	0.126
462	0.126
462	0.126
463	0.126
463	0.126
463	0.127
464	0.127
464	0.127
465	0.127
465	0.127
466	0.127
466	0.127
467	0.127
467	0.127
467	0.126
468	0.124
468	0.122
469	0.12
469	0.119
470	0.118
470	0.118
471	0.117
471	0.117
472	0.117
472	0.117
472	0.117
473	0.119
473	0.12
474	0.121
474	0.122
475	0.123
475	0.124
476	0.124
476	0.124
477	0.124
477	0.124
477	0.124
478	0.124
478	0.124
479	0.124
479	0.124
480	0.125
480	0.125
481	0.126
481	0.127
482	0.128
482	0.129
482	0.131
483	0.133
483	0.137
484	0.14
484	0.143
485	0.144
485	0.146
486	0.147
486	0.148
487	0.148
487	0.149
487	0.149
488	0.148
488	0.146
489	0.143
489	0.141
490	0.14
490	0.139
491	0.138
491	0.138
492	0.138
492	0.138
492	0.138
493	0.138
493	0.139
494	0.141
494	0.143
495	0.145
495	0.146
496	0.147
496	0.148
496	0.15
497	0.151
497	0.152
498	0.153
498	0.153
499	0.153
499	0.153
500	0.153
500	0.154
501	0.156
501	0.157
501	0.159
502	0.16
502	0.161
503	0.163
503	0.164
504	0.165
504	0.165
505	0.165
505	0.165
506	0.166
506	0.166
506	0.166
507	0.166
507	0.166
508	0.166
508	0.167
509	0.167
509	0.168
510	0.169
510	0.169
511	0.17
511	0.17
511	0.169
512	0.169
512	0.168
513	0.168
513	0.166
514	0.166
514	0.165
515	0.164
515	0.163
515	0.162
516	0.161
516	0.161
517	0.161
517	0.161
518	0.162
518	0.162
519	0.161
519	0.16
520	0.158
520	0.156
520	0.154
521	0.152
521	0.149
522	0.145
522	0.142
523	0.14
523	0.138
524	0.137
524	0.137
524	0.137
525	0.138
525	0.14
526	0.143
526	0.146
527	0.149
527	0.152
528	0.155
528	0.158
529	0.16
529	0.161
529	0.163
530	0.164
530	0.165
531	0.166
531	0.167
532	0.166
532	0.166
533	0.167
533	0.167
533	0.167
534	0.167
534	0.166
535	0.165
535	0.165
536	0.164
536	0.164
537	0.163
537	0.163
538	0.162
538	0.161
538	0.159
539	0.159
539	0.158
540	0.158
540	0.157
541	0.155
541	0.154
542	0.152
542	0.15
542	0.149
543	0.148
543	0.147
544	0.145
544	0.144
545	0.143
545	0.143
546	0.143
546	0.143
547	0.142
547	0.14
547	0.137
548	0.136
548	0.134
549	0.132
549	0.13
550	0.128
550	0.126
551	0.123
551	0.121
551	0.119
552	0.118
552	0.117
553	0.117
553	0.117
554	0.116
554	0.115
555	0.112
555	0.11
556	0.107
556	0.104
556	0.101
557	0.098
557	0.095
558	0.093
558	0.091
559	0.09
559	0.09
560	0.089
560	0.089
560	0.089
561	0.089
561	0.09
562	0.09
562	0.089
563	0.087
563	0.085
564	0.082
564	0.08
564	0.078
565	0.076
565	0.075
566	0.074
566	0.073
567	0.073
567	0.075
568	0.077
568	0.079
568	0.081
569	0.084
569	0.087
570	0.089
570	0.09
571	0.091
571	0.093
572	0.093
572	0.094
573	0.094
573	0.094
573	0.092
574	0.091
574	0.091
575	0.09
575	0.092
576	0.093
576	0.092
577	0.091
577	0.09
577	0.089
578	0.088
578	0.088
579	0.089
579	0.091
580	0.09
580	0.087
581	0.083
581	0.081
581	0.08
582	0.079
582	0.079
583	0.08
583	0.08
584	0.077
584	0.072
585	0.07
585	0.07
585	0.07
586	0.07
586	0.07
587	0.068
587	0.065
588	0.061
588	0.058
589	0.056
589	0.055
590	0.054
590	0.054
590	0.055
591	0.056
591	0.056
592	0.056
592	0.055
593	0.055
593	0.056
594	0.055
594	0.054
594	0.052
595	0.051
595	0.05
596	0.048
596	0.048
597	0.051
597	0.053
598	0.054
598	0.056
598	0.057
599	0.058
599	0.058
600	0.057
600	0.056
601	0.055
601	0.053
602	0.051
602	0.05
602	0.048
603	0.047
603	0.048
604	0.049
604	0.05
605	0.053
605	0.055
606	0.056
606	0.055
606	0.055
607	0.054
607	0.054
608	0.053
608	0.051
609	0.05
609	0.049
610	0.048
610	0.046
610	0.046
611	0.047
611	0.049
612	0.05
612	0.052
613	0.054
613	0.056
614	0.056
614	0.054
614	0.054
615	0.052
615	0.051
616	0.05
616	0.048
617	0.047
617	0.045
618	0.042
618	0.04
618	0.038
619	0.038
619	0.039
620	0.04
620	0.042
621	0.042
621	0.042
622	0.043
622	0.043
622	0.044
623	0.043
623	0.044
624	0.045
624	0.044
625	0.044
625	0.043
626	0.043
626	0.043
626	0.044
627	0.044
627	0.044
628	0.044
628	0.044
629	0.044
629	0.044
630	0.043
630	0.041
630	0.041
631	0.041
631	0.041
632	0.041
632	0.041
633	0.042
633	0.043
634	0.044
634	0.046
634	0.049
635	0.051
635	0.052
636	0.053
636	0.055
637	0.056
637	0.056
638	0.057
638	0.058
638	0.059
639	0.059
639	0.059
640	0.059
640	0.06
641	0.061
641	0.062
642	0.063
642	0.064
642	0.066
643	0.067
643	0.068
644	0.07
644	0.072
645	0.073
645	0.075
646	0.078
646	0.081
646	0.085
647	0.089
647	0.092
648	0.095
648	0.098
649	0.101
649	0.104
650	0.107
650	0.11
650	0.113
651	0.115
651	0.117
652	0.118
652	0.12
653	0.122
653	0.131
653	0.156
654	0.128
654	0.108
655	0.11
655	0.111
656	0.112
656	0.114
657	0.115
657	0.117
657	0.118
658	0.114
658	0.096
659	0.119
659	0.15
660	0.154
660	0.156
661	0.158
661	0.159
661	0.162
662	0.166
662	0.169
663	0.173
663	0.177
664	0.18
664	0.183
665	0.186
665	0.189
665	0.191
666	0.194
666	0.196
667	0.197
667	0.199
668	0.201
668	0.203
669	0.206
669	0.209
669	0.213
670	0.218
670	0.222
671	0.224
671	0.227
672	0.229
672	0.231
672	0.232
673	0.233
673	0.235
674	0.235
674	0.235
675	0.234
675	0.234
676	0.236
676	0.238
676	0.239
677	0.241
677	0.244
678	0.246
678	0.247
679	0.249
679	0.25
680	0.253
680	0.255
680	0.255
681	0.255
681	0.256
682	0.258
682	0.259
683	0.261
683	0.264
684	0.266
684	0.268
684	0.268
685	0.269
685	0.27
686	0.272
686	0.273
687	0.273
687	0.273
687	0.273
688	0.272
688	0.271
689	0.272
689	0.273
690	0.274
690	0.273
691	0.273
691	0.273
691	0.273
692	0.272
692	0.271
693	0.271
693	0.271
694	0.269
694	0.267
695	0.267
695	0.269
695	0.27
696	0.269
696	0.268
697	0.267
697	0.266
698	0.264
698	0.262
698	0.261
699	0.26
699	0.257
700	0.254
700	0.252
701	0.251
701	0.25
702	0.249
702	0.248
702	0.247
703	0.246
703	0.245
704	0.244
704	0.244
705	0.244
705	0.244
705	0.243
706	0.243
706	0.242
707	0.241
707	0.239
708	0.238
708	0.236
709	0.235
709	0.233
709	0.229
710	0.225
710	0.222
711	0.219
711	0.217
712	0.215
712	0.213
713	0.212
713	0.21
713	0.208
714	0.205
714	0.203
715	0.201
715	0.199
716	0.196
716	0.194
716	0.192
717	0.189
717	0.187
718	0.185
718	0.182
719	0.18
719	0.179
720	0.177
720	0.175
720	0.172
721	0.169
721	0.166
722	0.163
722	0.16
723	0.158
723	0.156
723	0.154
724	0.152
724	0.149
725	0.146
725	0.144
726	0.142
726	0.141
727	0.139
727	0.137
727	0.135
728	0.133
728	0.131
729	0.131
729	0.13
730	0.129
730	0.127
730	0.126
731	0.124
731	0.122
732	0.121
732	0.12
733	0.118
733	0.115
734	0.113
734	0.11
734	0.108
735	0.107
735	0.105
736	0.102
736	0.1
737	0.099
737	0.098
737	0.097
738	0.094
738	0.091
739	0.088
739	0.085
740	0.082
740	0.08
741	0.078
741	0.075
741	0.071
742	0.065
742	0.06
743	0.057
743	0.055
744	0.052
744	0.05
744	0.047
745	0.045
745	0.041
746	0.039
746	0.038
747	0.036
747	0.036
748	0.036
748	0.035
748	0.034
749	0.032
749	0.032
750	0.032
750	0.031
751	0.031
751	0.032
751	0.033
752	0.033
752	0.032
753	0.032
753	0.031
754	0.032
754	0.031
754	0.032
755	0.033
755	0.034
756	0.033
756	0.031
757	0.029
757	0.029
758	0.028
758	0.026
758	0.026
759	0.025
759	0.022
760	0.019
760	0.015
761	0.012
761	0.011
761	0.009
762	0.007
762	0.007
763	0.007
763	0.004
764	0.001
764	-0.002
764	-0.005
765	-0.007
765	-0.01
766	-0.011
766	-0.012
767	-0.013
767	-0.017
768	-0.021
768	-0.024
768	-0.026
769	-0.026
769	-0.027
770	-0.028
770	-0.03
771	-0.033
771	-0.036
771	-0.04
772	-0.042
772	-0.045
773	-0.048
773	-0.052
774	-0.056
774	-0.06
775	-0.064
775	-0.068
775	-0.073
776	-0.078
776	-0.083
777	-0.088
777	-0.093
778	-0.098
778	-0.104
778	-0.109
779	-0.113
779	-0.115
780	-0.119
780	-0.125
781	-0.129
781	-0.132
781	-0.136
782	-0.139
782	-0.143
783	-0.146
783	-0.148
784	-0.15
784	-0.152
784	-0.154
785	-0.155
785	-0.156
786	-0.156
786	-0.153
787	-0.147
787	-0.143
788	-0.142
788	-0.142
788	-0.144
789	-0.146
789	-0.145
790	-0.142
790	-0.141
791	-0.142
791	-0.143
791	-0.146
792	-0.141
792	-0.13
793	-0.124
793	-0.12
794	-0.118
794	-0.121
794	-0.125
795	-0.127
795	-0.127
796	-0.128
796	-0.131
797	-0.14
797	-0.151
797	-0.157
798	-0.163
798	-0.165
799	-0.166
799	-0.165
800	-0.164
800	-0.166
801	-0.169
801	-0.169
801	-0.17
802	-0.171
802	-0.173
803	-0.173
803	-0.174
804	-0.173
804	-0.167
804	-0.161
805	-0.157
805	-0.155
806	-0.153
806	-0.152
807	-0.151
807	-0.15
807	-0.15
808	-0.15
808	-0.151
809	-0.156
809	-0.162
810	-0.166
810	-0.169
810	-0.172
811	-0.176
811	-0.176
812	-0.172
812	-0.169
813	-0.169
813	-0.17
813	-0.17
814	-0.171
814	-0.17
815	-0.167
815	-0.163
816	-0.16
816	-0.16
817	-0.164
817	-0.166
817	-0.166
818	-0.165
818	-0.162
819	-0.156
819	-0.154
820	-0.156
820	-0.158
820	-0.159
821	-0.159
821	-0.157
822	-0.154
822	-0.15
823	-0.146
823	-0.144
823	-0.144
824	-0.14
824	-0.133
825	-0.124
825	-0.113
826	-0.104
826	-0.097
826	-0.091
827	-0.084
827	-0.078
828	-0.073
828	-0.069
829	-0.065
829	-0.062
829	-0.06
830	-0.059
830	-0.056
831	-0.053
831	-0.049
832	-0.046
832	-0.043
832	-0.04
833	-0.036
833	-0.033
834	-0.029
834	-0.026
835	-0.023
835	-0.021
835	-0.019
836	-0.017
836	-0.016
837	-0.015
837	-0.014
838	-0.014
838	-0.014
839	-0.014
839	-0.014
839	-0.014
840	-0.013
840	-0.013
841	-0.012
841	-0.011
842	-0.01
842	-0.009
842	-0.007
843	-0.006
843	-0.005
844	-0.004
844	-0.003
845	-0.002
845	-0.001
845	-0
846	0
846	0
847	0
847	0.001
848	0.001
848	0.002
848	0.003
849	0.004
849	0.005
850	0.005
850	0.006
851	0.007
851	0.008
851	0.009
852	0.01
852	0.011
853	0.012
853	0.013
854	0.014
854	0.015
854	0.015
855	0.015
855	0.015
856	0.015
856	0.016
857	0.016
857	0.016
857	0.016
858	0.016
858	0.016
859	0.016
859	0.016
860	0.017
860	0.018
860	0.018
861	0.019
861	0.019
862	0.02
862	0.02
863	0.02
863	0.02
863	0.02
864	0.02
864	0.02
865	0.02
865	0.02
866	0.02
866	0.02
866	0.02
867	0.021
867	0.021
868	0.022
868	0.023
869	0.024
869	0.025
869	0.025
870	0.026
870	0.026
871	0.027
871	0.027
872	0.026
872	0.026
872	0.025
873	0.024
873	0.024
874	0.023
874	0.023
875	0.023
875	0.023
875	0.023
876	0.023
876	0.024
877	0.025
877	0.026
878	0.027
878	0.029
878	0.031
879	0.032
879	0.032
880	0.033
880	0.033
881	0.033
881	0.034
881	0.034
882	0.033
882	0.033
883	0.032
883	0.032
884	0.032
884	0.032
884	0.032
885	0.032
885	0.033
886	0.034
886	0.034
887	0.035
887	0.035
887	0.036
888	0.036
888	0.036
889	0.036
889	0.036
890	0.036
890	0.035
890	0.034
891	0.033
891	0.032
892	0.03
892	0.028
893	0.027
893	0.026
893	0.025
894	0.024
894	0.023
895	0.023
895	0.022
895	0.022
896	0.022
896	0.022
897	0.023
897	0.024
898	0.024
898	0.025
898	0.026
899	0.026
899	0.027
900	0.028
900	0.03
901	0.031
901	0.032
901	0.033
902	0.034
902	0.035
903	0.036
903	0.037
904	0.038
904	0.038
904	0.039
905	0.04
905	0.041
906	0.041
906	0.041
907	0.042
907	0.042
907	0.042
908	0.041
908	0.041
909	0.041
909	0.041
910	0.041
910	0.041
910	0.041
911	0.042
911	0.042
912	0.043
912	0.044
913	0.044
913	0.044
913	0.044
914	0.044
914	0.043
915	0.042
915	0.041
916	0.04
916	0.039
916	0.037
917	0.036
917	0.035
918	0.034
918	0.033
918	0.033
919	0.032
919	0.032
920	0.033
920	0.034
921	0.034
921	0.035
921	0.035
922	0.036
922	0.037
923	0.037
923	0.037
924	0.037
924	0.037
924	0.037
925	0.036
925	0.036
926	0.036
926	0.035
927	0.035
927	0.034
927	0.034
928	0.034
928	0.033
929	0.033
929	0.033
930	0.033
930	0.032
930	0.032
931	0.031
931	0.03
932	0.03
932	0.029
933	0.029
933	0.029
933	0.029
934	0.029
934	0.028
935	0.028
935	0.029
935	0.029
936	0.029
936	0.029
937	0.03
937	0.03
938	0.03
938	0.03
938	0.031
939	0.031
939	0.032
940	0.033
940	0.034
941	0.036
941	0.037
941	0.039
942	0.041
942	0.042
943	0.043
943	0.044
944	0.045
944	0.045
944	0.046
945	0.046
945	0.047
946	0.047
946	0.047
946	0.046
947	0.047
947	0.046
948	0.046
948	0.046
949	0.045
949	0.046
949	0.046
950	0.045
950	0.045
951	0.045
951	0.045
952	0.045
952	0.045
952	0.045
953	0.045
953	0.045
954	0.045
954	0.045
955	0.044
955	0.044
955	0.044
956	0.044
956	0.044
957	0.043
957	0.042
957	0.041
958	0.04
958	0.039
959	0.038
959	0.038
960	0.037
960	0.036
960	0.036
961	0.035
961	0.034
962	0.034
962	0.033
963	0.033
963	0.033
963	0.033
964	0.033
964	0.033
965	0.033
965	0.033
966	0.034
966	0.034
966	0.035
967	0.036
967	0.036
968	0.036
968	0.037
968	0.037
969	0.037
969	0.037
970	0.037
970	0.037
971	0.037
971	0.037
971	0.037
972	0.038
972	0.038
973	0.038
973	0.039
974	0.039
974	0.04
974	0.04
975	0.041
975	0.042
976	0.042
976	0.042
976	0.042
977	0.042
977	0.041
978	0.04
978	0.04
979	0.039
979	0.039
979	0.038
980	0.037
980	0.037
981	0.036
981	0.036
982	0.037
982	0.037
982	0.038
983	0.039
983	0.039
984	0.04
984	0.041
984	0.042
985	0.043
985	0.044
986	0.044
986	0.044
987	0.044
987	0.045
987	0.045
988	0.045
988	0.046
989	0.046
989	0.046
990	0.046
990	0.047
990	0.048
991	0.049
991	0.05
992	0.051
992	0.051
992	0.052
993	0.052
993	0.052
994	0.052
994	0.051
995	0.051
995	0.05
995	0.049
996	0.048
996	0.047
997	0.046
997	0.046
997	0.046
998	0.045
998	0.045
999	0.045
999	0.045
1000	0.045
1000	0.045
1000	0.045
1001	0.045
1001	0.046
1002	0.046
1002	0.046
1003	0.046
1003	0.046
1003	0.046
1004	0.046
1004	0.045
1005	0.045
1005	0.044
1005	0.043
1006	0.042
1006	0.042
1007	0.041
1007	0.04
1008	0.039
1008	0.039
1008	0.038
1009	0.038
1009	0.038
1010	0.038
1010	0.038
1010	0.038
1011	0.037
1011	0.037
1012	0.037
1012	0.037
1013	0.037
1013	0.037
1013	0.036
1014	0.036
1014	0.035
1015	0.034
1015	0.034
1016	0.034
1016	0.033
1016	0.033
1017	0.032
1017	0.033
1018	0.033
1018	0.033
1018	0.034
1019	0.035
1019	0.036
1020	0.036
1020	0.037
1021	0.037
1021	0.038
1021	0.039
1022	0.039
1022	0.039
1023	0.039
1023	0.039
1023	0.039
1024	0.038
1024	0.038
1025	0.037
1025	0.036
1026	0.036
1026	0.035
1026	0.035
1027	0.034
1027	0.034
1028	0.034
1028	0.035
1028	0.035
1029	0.035
1029	0.035
1030	0.036
1030	0.036
1031	0.036
1031	0.036
1031	0.037
1032	0.037
1032	0.037
1033	0.037
1033	0.036
1033	0.036
1034	0.035
1034	0.035
1035	0.035
1035	0.034
1036	0.034
1036	0.034
1036	0.035
1037	0.035
1037	0.036
1038	0.036
1038	0.036
1039	0.038
1039	0.039
1039	0.039
1040	0.04
1040	0.04
1041	0.041
1041	0.041
1041	0.041
1042	0.041
1042	0.041
1043	0.041
1043	0.041
1044	0.041
1044	0.041
1044	0.042
1045	0.042
1045	0.042
1046	0.043
1046	0.043
1046	0.045
1047	0.046
1047	0.047
1048	0.049
1048	0.049
1049	0.05
1049	0.05
1049	0.05
1050	0.05
1050	0.05
1051	0.05
1051	0.05
1051	0.05
1052	0.05
1052	0.05
1053	0.05
1053	0.05
1053	0.05
1054	0.05
1054	0.05
1055	0.051
1055	0.05
1056	0.05
1056	0.049
1056	0.049
1057	0.048
1057	0.049
1058	0.049
1058	0.049
1058	0.05
1059	0.051
1059	0.051
1060	0.053
1060	0.054
1061	0.056
1061	0.058
1061	0.06
1062	0.061
1062	0.062
1063	0.063
1063	0.064
1063	0.065
1064	0.066
1064	0.067
1065	0.068
1065	0.069
1066	0.07
1066	0.07
1066	0.072
1067	0.073
1067	0.073
1068	0.074
1068	0.074
1068	0.075
1069	0.075
1069	0.075
1070	0.076
1070	0.077
1071	0.079
1071	0.08
1071	0.081
1072	0.084
1072	0.086
1073	0.088
1073	0.091
1073	0.093
1074	0.095
1074	0.098
1075	0.099
1075	0.1
1076	0.102
1076	0.104
1076	0.105
1077	0.108
1077	0.11
1078	0.112
1078	0.115
1078	0.119
1079	0.121
1079	0.126
1080	0.128
1080	0.131
1080	0.134
1081	0.137
1081	0.141
1082	0.145
1082	0.148
1083	0.153
1083	0.156
1083	0.162
1084	0.167
1084	0.173
1085	0.18
1085	0.186
1085	0.193
1086	0.2
1086	0.205
1087	0.211
1087	0.218
1088	0.224
1088	0.23
1088	0.238
1089	0.245
1089	0.254
1090	0.263
1090	0.275
1090	0.288
1091	0.302
1091	0.318
1092	0.335
1092	0.355
1092	0.373
1093	0.392
1093	0.417
1094	0.442
1094	0.468
1095	0.494
1095	0.529
1095	0.572
1096	0.617
1096	0.667
1097	0.732
1097	0.805
1097	0.903
1098	1.033
1098	1.222
1099	1.62
1099	-0
1100	-0
1100	-0
1100	-0
1101	-0
1101	-0
1102	-0
1102	-0
1102	-0
1103	-0
1103	-0
1104	-0
1104	-0
1104	-0
1105	-0
1105	-0
1106	-0
1106	-0
1107	-0
1107	-0
1107	-0
1108	-0
1108	-0
1109	-0
1109	-0
1109	-0
1110	-0
1110	-0
1111	-0
1111	-0
