Data from 15c-2-5a_Absorbance__237__04513.txt Node

Date: Wed Jan 17 14:38:25 CET 2024
User: Marek
Spectrometer: MAYP115816
Trigger mode: 0
Integration Time (sec): 2.000000E-1
Scans to average: 10
Electric dark correction enabled: true
Nonlinearity correction enabled: true
Boxcar width: 5
XAxis mode: Wavelengths
Number of Pixels in Spectrum: 2068
>>>>>Begin Spectral Data<<<<<
199	-2.253
199	-2.105
200	-1.939
200	-1.811
201	-1.729
201	-1.678
202	-1.6
202	-1.541
203	-1.487
203	-1.441
204	-1.413
204	-1.388
205	-1.363
205	-1.353
205	-1.35
206	-1.349
206	-1.344
207	-1.342
207	-1.337
208	-1.335
208	-1.334
209	-1.329
209	-1.326
210	-1.325
210	-1.325
211	-1.323
211	-1.322
212	-1.322
212	-1.321
213	-1.319
213	-1.318
213	-1.316
214	-1.315
214	-1.315
215	-1.313
215	-1.311
216	-1.311
216	-1.307
217	-1.303
217	-1.3
218	-1.299
218	-1.296
219	-1.293
219	-1.292
220	-1.288
220	-1.284
221	-1.279
221	-1.275
221	-1.271
222	-1.267
222	-1.261
223	-1.255
223	-1.251
224	-1.245
224	-1.237
225	-1.229
225	-1.22
226	-1.211
226	-1.198
227	-1.185
227	-1.17
228	-1.154
228	-1.134
229	-1.112
229	-1.086
229	-1.057
230	-1.026
230	-0.993
231	-0.955
231	-0.916
232	-0.875
232	-0.83
233	-0.782
233	-0.732
234	-0.681
234	-0.629
235	-0.579
235	-0.528
236	-0.478
236	-0.428
236	-0.38
237	-0.333
237	-0.289
238	-0.246
238	-0.205
239	-0.166
239	-0.13
240	-0.095
240	-0.064
241	-0.033
241	-0.005
242	0.021
242	0.045
243	0.068
243	0.089
243	0.108
244	0.125
244	0.141
245	0.156
245	0.17
246	0.183
246	0.195
247	0.206
247	0.216
248	0.226
248	0.235
249	0.243
249	0.25
250	0.258
250	0.264
250	0.271
251	0.277
251	0.282
252	0.288
252	0.293
253	0.297
253	0.301
254	0.305
254	0.309
255	0.313
255	0.316
256	0.319
256	0.321
257	0.324
257	0.326
258	0.328
258	0.33
258	0.332
259	0.334
259	0.335
260	0.336
260	0.337
261	0.338
261	0.339
262	0.34
262	0.34
263	0.341
263	0.341
264	0.342
264	0.342
265	0.342
265	0.342
265	0.342
266	0.342
266	0.342
267	0.342
267	0.342
268	0.341
268	0.341
269	0.34
269	0.339
270	0.338
270	0.338
271	0.337
271	0.336
272	0.335
272	0.334
272	0.333
273	0.332
273	0.331
274	0.33
274	0.329
275	0.328
275	0.327
276	0.326
276	0.325
277	0.324
277	0.322
278	0.32
278	0.319
278	0.317
279	0.315
279	0.313
280	0.312
280	0.311
281	0.31
281	0.309
282	0.308
282	0.307
283	0.307
283	0.306
284	0.306
284	0.306
285	0.306
285	0.305
285	0.305
286	0.304
286	0.303
287	0.303
287	0.302
288	0.301
288	0.3
289	0.299
289	0.299
290	0.298
290	0.297
291	0.296
291	0.295
292	0.294
292	0.293
292	0.293
293	0.292
293	0.291
294	0.29
294	0.29
295	0.289
295	0.288
296	0.288
296	0.287
297	0.286
297	0.286
298	0.285
298	0.284
298	0.284
299	0.283
299	0.283
300	0.282
300	0.281
301	0.28
301	0.28
302	0.279
302	0.278
303	0.278
303	0.277
304	0.277
304	0.276
305	0.275
305	0.275
305	0.274
306	0.273
306	0.273
307	0.272
307	0.271
308	0.27
308	0.269
309	0.269
309	0.268
310	0.267
310	0.266
311	0.265
311	0.265
311	0.264
312	0.263
312	0.262
313	0.261
313	0.261
314	0.26
314	0.259
315	0.258
315	0.257
316	0.256
316	0.255
317	0.254
317	0.253
318	0.252
318	0.251
318	0.251
319	0.25
319	0.249
320	0.248
320	0.247
321	0.246
321	0.245
322	0.244
322	0.243
323	0.242
323	0.241
324	0.24
324	0.24
324	0.238
325	0.238
325	0.237
326	0.236
326	0.235
327	0.234
327	0.234
328	0.233
328	0.232
329	0.231
329	0.23
330	0.229
330	0.228
330	0.227
331	0.226
331	0.226
332	0.225
332	0.224
333	0.223
333	0.222
334	0.221
334	0.22
335	0.22
335	0.219
336	0.218
336	0.217
336	0.216
337	0.216
337	0.215
338	0.214
338	0.214
339	0.213
339	0.212
340	0.211
340	0.211
341	0.21
341	0.209
342	0.208
342	0.208
342	0.207
343	0.206
343	0.205
344	0.205
344	0.204
345	0.203
345	0.202
346	0.202
346	0.201
347	0.2
347	0.199
348	0.199
348	0.198
348	0.197
349	0.196
349	0.195
350	0.194
350	0.194
351	0.193
351	0.192
352	0.191
352	0.19
353	0.189
353	0.188
354	0.187
354	0.186
354	0.185
355	0.184
355	0.183
356	0.182
356	0.181
357	0.18
357	0.179
358	0.179
358	0.179
359	0.18
359	0.18
360	0.181
360	0.181
360	0.182
361	0.182
361	0.183
362	0.184
362	0.184
363	0.184
363	0.183
364	0.183
364	0.182
365	0.182
365	0.181
366	0.181
366	0.181
366	0.18
367	0.18
367	0.18
368	0.179
368	0.179
369	0.178
369	0.178
370	0.178
370	0.177
371	0.177
371	0.176
372	0.176
372	0.175
372	0.175
373	0.174
373	0.174
374	0.174
374	0.174
375	0.174
375	0.174
376	0.174
376	0.174
377	0.175
377	0.175
378	0.175
378	0.176
378	0.176
379	0.176
379	0.176
380	0.176
380	0.176
381	0.176
381	0.175
382	0.175
382	0.174
383	0.174
383	0.173
383	0.173
384	0.172
384	0.172
385	0.172
385	0.171
386	0.172
386	0.172
387	0.172
387	0.172
388	0.171
388	0.171
389	0.171
389	0.171
389	0.171
390	0.171
390	0.172
391	0.172
391	0.172
392	0.172
392	0.172
393	0.172
393	0.172
394	0.172
394	0.172
394	0.172
395	0.171
395	0.171
396	0.171
396	0.171
397	0.171
397	0.171
398	0.171
398	0.171
399	0.171
399	0.171
400	0.171
400	0.17
400	0.17
401	0.169
401	0.167
402	0.166
402	0.165
403	0.165
403	0.165
404	0.165
404	0.165
405	0.164
405	0.164
405	0.164
406	0.163
406	0.163
407	0.163
407	0.163
408	0.163
408	0.162
409	0.161
409	0.161
410	0.161
410	0.161
411	0.161
411	0.161
411	0.161
412	0.16
412	0.16
413	0.159
413	0.159
414	0.159
414	0.158
415	0.158
415	0.157
416	0.157
416	0.156
416	0.156
417	0.155
417	0.155
418	0.156
418	0.156
419	0.157
419	0.157
420	0.158
420	0.159
421	0.16
421	0.161
421	0.161
422	0.161
422	0.162
423	0.162
423	0.162
424	0.161
424	0.16
425	0.159
425	0.158
426	0.157
426	0.157
427	0.156
427	0.156
427	0.156
428	0.157
428	0.158
429	0.159
429	0.159
430	0.159
430	0.159
431	0.159
431	0.159
432	0.158
432	0.158
432	0.157
433	0.155
433	0.154
434	0.153
434	0.153
435	0.153
435	0.153
436	0.153
436	0.153
437	0.153
437	0.154
437	0.154
438	0.154
438	0.153
439	0.153
439	0.153
440	0.152
440	0.152
441	0.152
441	0.152
442	0.152
442	0.152
442	0.153
443	0.153
443	0.153
444	0.154
444	0.154
445	0.155
445	0.155
446	0.155
446	0.155
447	0.155
447	0.155
447	0.154
448	0.154
448	0.154
449	0.154
449	0.153
450	0.153
450	0.153
451	0.152
451	0.152
452	0.151
452	0.151
452	0.15
453	0.15
453	0.149
454	0.148
454	0.148
455	0.148
455	0.147
456	0.147
456	0.147
457	0.147
457	0.147
458	0.146
458	0.146
458	0.146
459	0.147
459	0.146
460	0.145
460	0.145
461	0.144
461	0.144
462	0.143
462	0.144
463	0.144
463	0.145
463	0.145
464	0.146
464	0.146
465	0.146
465	0.146
466	0.147
466	0.147
467	0.147
467	0.146
467	0.145
468	0.144
468	0.142
469	0.14
469	0.139
470	0.138
470	0.137
471	0.137
471	0.136
472	0.136
472	0.136
472	0.137
473	0.138
473	0.139
474	0.14
474	0.141
475	0.142
475	0.143
476	0.143
476	0.143
477	0.143
477	0.143
477	0.144
478	0.144
478	0.144
479	0.144
479	0.145
480	0.145
480	0.146
481	0.147
481	0.148
482	0.149
482	0.151
482	0.152
483	0.154
483	0.158
484	0.161
484	0.164
485	0.165
485	0.167
486	0.168
486	0.169
487	0.169
487	0.17
487	0.17
488	0.169
488	0.167
489	0.164
489	0.163
490	0.161
490	0.16
491	0.159
491	0.159
492	0.16
492	0.159
492	0.16
493	0.16
493	0.161
494	0.163
494	0.165
495	0.167
495	0.168
496	0.169
496	0.17
496	0.172
497	0.173
497	0.174
498	0.174
498	0.174
499	0.175
499	0.175
500	0.175
500	0.176
501	0.177
501	0.179
501	0.18
502	0.181
502	0.183
503	0.184
503	0.186
504	0.187
504	0.187
505	0.187
505	0.187
506	0.187
506	0.188
506	0.188
507	0.188
507	0.188
508	0.188
508	0.189
509	0.189
509	0.19
510	0.191
510	0.191
511	0.191
511	0.191
511	0.191
512	0.191
512	0.19
513	0.189
513	0.188
514	0.187
514	0.186
515	0.185
515	0.184
515	0.184
516	0.183
516	0.183
517	0.183
517	0.183
518	0.183
518	0.183
519	0.182
519	0.18
520	0.178
520	0.176
520	0.173
521	0.17
521	0.167
522	0.164
522	0.162
523	0.16
523	0.16
524	0.16
524	0.162
524	0.163
525	0.166
525	0.169
526	0.172
526	0.175
527	0.178
527	0.181
528	0.183
528	0.185
529	0.186
529	0.187
529	0.188
530	0.188
530	0.188
531	0.189
531	0.189
532	0.189
532	0.188
533	0.188
533	0.188
533	0.188
534	0.187
534	0.186
535	0.186
535	0.185
536	0.185
536	0.184
537	0.184
537	0.183
538	0.183
538	0.181
538	0.18
539	0.179
539	0.179
540	0.178
540	0.176
541	0.175
541	0.173
542	0.171
542	0.169
542	0.168
543	0.166
543	0.165
544	0.163
544	0.162
545	0.161
545	0.161
546	0.161
546	0.161
547	0.159
547	0.157
547	0.155
548	0.153
548	0.151
549	0.149
549	0.146
550	0.144
550	0.142
551	0.14
551	0.137
551	0.136
552	0.134
552	0.134
553	0.133
553	0.132
554	0.132
554	0.13
555	0.128
555	0.125
556	0.122
556	0.119
556	0.116
557	0.113
557	0.111
558	0.109
558	0.106
559	0.105
559	0.104
560	0.103
560	0.103
560	0.102
561	0.103
561	0.103
562	0.103
562	0.102
563	0.1
563	0.098
564	0.095
564	0.093
564	0.09
565	0.088
565	0.087
566	0.085
566	0.084
567	0.084
567	0.085
568	0.087
568	0.088
568	0.091
569	0.094
569	0.097
570	0.099
570	0.1
571	0.101
571	0.102
572	0.103
572	0.103
573	0.103
573	0.102
573	0.101
574	0.099
574	0.099
575	0.098
575	0.099
576	0.1
576	0.099
577	0.097
577	0.096
577	0.095
578	0.094
578	0.094
579	0.095
579	0.096
580	0.096
580	0.093
581	0.089
581	0.087
581	0.086
582	0.086
582	0.085
583	0.086
583	0.086
584	0.083
584	0.078
585	0.076
585	0.075
585	0.075
586	0.075
586	0.074
587	0.072
587	0.07
588	0.066
588	0.064
589	0.062
589	0.061
590	0.061
590	0.06
590	0.061
591	0.063
591	0.063
592	0.063
592	0.062
593	0.062
593	0.061
594	0.061
594	0.059
594	0.058
595	0.057
595	0.055
596	0.053
596	0.053
597	0.055
597	0.057
598	0.059
598	0.06
598	0.062
599	0.063
599	0.063
600	0.062
600	0.061
601	0.06
601	0.059
602	0.057
602	0.055
602	0.054
603	0.053
603	0.054
604	0.055
604	0.056
605	0.059
605	0.061
606	0.062
606	0.061
606	0.061
607	0.06
607	0.059
608	0.058
608	0.056
609	0.055
609	0.054
610	0.053
610	0.051
610	0.05
611	0.051
611	0.053
612	0.054
612	0.056
613	0.058
613	0.059
614	0.059
614	0.057
614	0.057
615	0.056
615	0.055
616	0.053
616	0.052
617	0.05
617	0.048
618	0.046
618	0.044
618	0.042
619	0.042
619	0.042
620	0.044
620	0.046
621	0.046
621	0.047
622	0.047
622	0.048
622	0.049
623	0.049
623	0.05
624	0.051
624	0.051
625	0.051
625	0.051
626	0.051
626	0.051
626	0.052
627	0.052
627	0.052
628	0.052
628	0.052
629	0.052
629	0.051
630	0.05
630	0.049
630	0.049
631	0.049
631	0.049
632	0.049
632	0.049
633	0.05
633	0.051
634	0.053
634	0.055
634	0.058
635	0.06
635	0.061
636	0.063
636	0.064
637	0.065
637	0.066
638	0.067
638	0.069
638	0.07
639	0.07
639	0.07
640	0.071
640	0.072
641	0.073
641	0.075
642	0.076
642	0.078
642	0.079
643	0.08
643	0.081
644	0.083
644	0.085
645	0.087
645	0.089
646	0.091
646	0.094
646	0.098
647	0.102
647	0.105
648	0.108
648	0.11
649	0.113
649	0.116
650	0.119
650	0.122
650	0.125
651	0.127
651	0.129
652	0.131
652	0.132
653	0.135
653	0.145
653	0.169
654	0.138
654	0.115
655	0.118
655	0.12
656	0.122
656	0.123
657	0.125
657	0.126
657	0.127
658	0.124
658	0.106
659	0.132
659	0.168
660	0.171
660	0.173
661	0.174
661	0.176
661	0.179
662	0.183
662	0.187
663	0.19
663	0.194
664	0.197
664	0.2
665	0.202
665	0.205
665	0.207
666	0.209
666	0.211
667	0.213
667	0.214
668	0.216
668	0.219
669	0.221
669	0.224
669	0.228
670	0.233
670	0.237
671	0.239
671	0.241
672	0.243
672	0.245
672	0.246
673	0.247
673	0.248
674	0.249
674	0.248
675	0.247
675	0.247
676	0.248
676	0.25
676	0.251
677	0.253
677	0.255
678	0.257
678	0.258
679	0.26
679	0.261
680	0.264
680	0.266
680	0.266
681	0.267
681	0.268
682	0.269
682	0.271
683	0.273
683	0.275
684	0.278
684	0.279
684	0.279
685	0.28
685	0.281
686	0.282
686	0.283
687	0.283
687	0.282
687	0.282
688	0.281
688	0.28
689	0.281
689	0.282
690	0.283
690	0.282
691	0.281
691	0.28
691	0.28
692	0.279
692	0.278
693	0.278
693	0.278
694	0.276
694	0.274
695	0.274
695	0.276
695	0.277
696	0.276
696	0.275
697	0.274
697	0.273
698	0.271
698	0.269
698	0.267
699	0.266
699	0.263
700	0.259
700	0.257
701	0.256
701	0.255
702	0.254
702	0.252
702	0.252
703	0.25
703	0.249
704	0.248
704	0.248
705	0.248
705	0.248
705	0.247
706	0.246
706	0.246
707	0.245
707	0.243
708	0.241
708	0.239
709	0.238
709	0.235
709	0.231
710	0.227
710	0.224
711	0.222
711	0.219
712	0.217
712	0.216
713	0.214
713	0.213
713	0.21
714	0.208
714	0.206
715	0.204
715	0.201
716	0.199
716	0.197
716	0.194
717	0.192
717	0.19
718	0.187
718	0.184
719	0.182
719	0.181
720	0.178
720	0.176
720	0.173
721	0.17
721	0.167
722	0.164
722	0.161
723	0.159
723	0.157
723	0.155
724	0.152
724	0.15
725	0.147
725	0.145
726	0.143
726	0.141
727	0.139
727	0.137
727	0.135
728	0.132
728	0.13
729	0.13
729	0.129
730	0.128
730	0.126
730	0.125
731	0.124
731	0.122
732	0.122
732	0.12
733	0.118
733	0.116
734	0.114
734	0.111
734	0.109
735	0.108
735	0.106
736	0.103
736	0.101
737	0.1
737	0.099
737	0.098
738	0.095
738	0.092
739	0.089
739	0.087
740	0.083
740	0.081
741	0.078
741	0.075
741	0.07
742	0.064
742	0.059
743	0.056
743	0.052
744	0.05
744	0.047
744	0.045
745	0.042
745	0.038
746	0.036
746	0.034
747	0.033
747	0.033
748	0.033
748	0.033
748	0.032
749	0.031
749	0.031
750	0.03
750	0.03
751	0.03
751	0.031
751	0.032
752	0.032
752	0.031
753	0.03
753	0.03
754	0.03
754	0.03
754	0.03
755	0.031
755	0.032
756	0.031
756	0.029
757	0.027
757	0.027
758	0.026
758	0.025
758	0.024
759	0.023
759	0.02
760	0.017
760	0.014
761	0.011
761	0.01
761	0.009
762	0.007
762	0.006
763	0.005
763	0.003
764	-0
764	-0.003
764	-0.006
765	-0.009
765	-0.011
766	-0.013
766	-0.014
767	-0.015
767	-0.018
768	-0.023
768	-0.025
768	-0.027
769	-0.027
769	-0.028
770	-0.029
770	-0.031
771	-0.034
771	-0.037
771	-0.041
772	-0.044
772	-0.046
773	-0.049
773	-0.053
774	-0.057
774	-0.061
775	-0.065
775	-0.069
775	-0.073
776	-0.078
776	-0.082
777	-0.087
777	-0.092
778	-0.097
778	-0.102
778	-0.107
779	-0.111
779	-0.114
780	-0.117
780	-0.123
781	-0.127
781	-0.131
781	-0.135
782	-0.138
782	-0.143
783	-0.146
783	-0.148
784	-0.149
784	-0.152
784	-0.154
785	-0.154
785	-0.156
786	-0.156
786	-0.153
787	-0.147
787	-0.143
788	-0.142
788	-0.142
788	-0.144
789	-0.146
789	-0.145
790	-0.142
790	-0.141
791	-0.141
791	-0.143
791	-0.146
792	-0.14
792	-0.13
793	-0.124
793	-0.12
794	-0.118
794	-0.12
794	-0.125
795	-0.127
795	-0.127
796	-0.128
796	-0.131
797	-0.14
797	-0.151
797	-0.157
798	-0.163
798	-0.165
799	-0.166
799	-0.165
800	-0.164
800	-0.166
801	-0.169
801	-0.169
801	-0.17
802	-0.171
802	-0.172
803	-0.173
803	-0.174
804	-0.172
804	-0.167
804	-0.161
805	-0.157
805	-0.155
806	-0.153
806	-0.152
807	-0.151
807	-0.15
807	-0.15
808	-0.15
808	-0.151
809	-0.156
809	-0.162
810	-0.166
810	-0.169
810	-0.172
811	-0.176
811	-0.176
812	-0.172
812	-0.169
813	-0.169
813	-0.17
813	-0.17
814	-0.171
814	-0.17
815	-0.167
815	-0.163
816	-0.16
816	-0.16
817	-0.164
817	-0.166
817	-0.166
818	-0.165
818	-0.162
819	-0.156
819	-0.154
820	-0.155
820	-0.158
820	-0.159
821	-0.159
821	-0.159
822	-0.157
822	-0.155
823	-0.152
823	-0.151
823	-0.151
824	-0.149
824	-0.142
825	-0.134
825	-0.124
826	-0.115
826	-0.107
826	-0.1
827	-0.093
827	-0.086
828	-0.08
828	-0.075
829	-0.07
829	-0.066
829	-0.063
830	-0.061
830	-0.058
831	-0.054
831	-0.05
832	-0.047
832	-0.044
832	-0.04
833	-0.037
833	-0.034
834	-0.031
834	-0.029
835	-0.026
835	-0.025
835	-0.023
836	-0.022
836	-0.021
837	-0.02
837	-0.02
838	-0.019
838	-0.019
839	-0.019
839	-0.019
839	-0.018
840	-0.018
840	-0.017
841	-0.016
841	-0.015
842	-0.014
842	-0.012
842	-0.01
843	-0.008
843	-0.007
844	-0.004
844	-0.002
845	-0.001
845	0.001
845	0.003
846	0.004
846	0.005
847	0.005
847	0.006
848	0.007
848	0.007
848	0.007
849	0.008
849	0.008
850	0.009
850	0.008
851	0.008
851	0.009
851	0.009
852	0.009
852	0.009
853	0.01
853	0.01
854	0.011
854	0.012
854	0.012
855	0.013
855	0.013
856	0.014
856	0.014
857	0.015
857	0.016
857	0.016
858	0.016
858	0.016
859	0.016
859	0.017
860	0.018
860	0.018
860	0.019
861	0.019
861	0.02
862	0.02
862	0.02
863	0.02
863	0.021
863	0.021
864	0.02
864	0.02
865	0.02
865	0.02
866	0.02
866	0.02
866	0.02
867	0.021
867	0.022
868	0.023
868	0.024
869	0.026
869	0.027
869	0.027
870	0.028
870	0.028
871	0.029
871	0.028
872	0.028
872	0.026
872	0.025
873	0.024
873	0.023
874	0.022
874	0.022
875	0.021
875	0.021
875	0.021
876	0.022
876	0.022
877	0.024
877	0.025
878	0.026
878	0.027
878	0.029
879	0.03
879	0.031
880	0.032
880	0.032
881	0.032
881	0.032
881	0.032
882	0.032
882	0.032
883	0.032
883	0.031
884	0.032
884	0.032
884	0.033
885	0.034
885	0.035
886	0.037
886	0.038
887	0.039
887	0.04
887	0.04
888	0.04
888	0.04
889	0.04
889	0.04
890	0.039
890	0.038
890	0.037
891	0.035
891	0.033
892	0.032
892	0.03
893	0.029
893	0.028
893	0.028
894	0.027
894	0.027
895	0.026
895	0.026
895	0.026
896	0.026
896	0.026
897	0.026
897	0.027
898	0.027
898	0.027
898	0.028
899	0.029
899	0.03
900	0.031
900	0.033
901	0.034
901	0.036
901	0.037
902	0.039
902	0.04
903	0.04
903	0.041
904	0.042
904	0.042
904	0.042
905	0.042
905	0.042
906	0.042
906	0.042
907	0.041
907	0.041
907	0.041
908	0.04
908	0.04
909	0.04
909	0.04
910	0.041
910	0.041
910	0.041
911	0.042
911	0.043
912	0.044
912	0.045
913	0.045
913	0.046
913	0.046
914	0.046
914	0.045
915	0.045
915	0.045
916	0.044
916	0.043
916	0.042
917	0.041
917	0.04
918	0.04
918	0.039
918	0.039
919	0.039
919	0.039
920	0.039
920	0.039
921	0.039
921	0.039
921	0.039
922	0.039
922	0.04
923	0.04
923	0.04
924	0.04
924	0.04
924	0.039
925	0.039
925	0.039
926	0.039
926	0.039
927	0.038
927	0.038
927	0.038
928	0.038
928	0.038
929	0.038
929	0.038
930	0.038
930	0.038
930	0.037
931	0.037
931	0.036
932	0.036
932	0.035
933	0.034
933	0.034
933	0.034
934	0.034
934	0.034
935	0.034
935	0.034
935	0.034
936	0.035
936	0.036
937	0.037
937	0.037
938	0.038
938	0.039
938	0.039
939	0.04
939	0.041
940	0.042
940	0.043
941	0.044
941	0.045
941	0.047
942	0.048
942	0.049
943	0.05
943	0.051
944	0.051
944	0.052
944	0.053
945	0.054
945	0.054
946	0.055
946	0.055
946	0.055
947	0.055
947	0.054
948	0.054
948	0.053
949	0.052
949	0.052
949	0.051
950	0.051
950	0.05
951	0.05
951	0.049
952	0.049
952	0.049
952	0.049
953	0.049
953	0.049
954	0.049
954	0.049
955	0.048
955	0.048
955	0.048
956	0.048
956	0.047
957	0.046
957	0.046
957	0.044
958	0.044
958	0.043
959	0.042
959	0.041
960	0.041
960	0.04
960	0.039
961	0.038
961	0.038
962	0.038
962	0.038
963	0.038
963	0.038
963	0.038
964	0.039
964	0.04
965	0.041
965	0.042
966	0.043
966	0.044
966	0.046
967	0.047
967	0.047
968	0.048
968	0.049
968	0.049
969	0.05
969	0.05
970	0.05
970	0.05
971	0.049
971	0.049
971	0.049
972	0.049
972	0.049
973	0.049
973	0.049
974	0.048
974	0.048
974	0.048
975	0.048
975	0.048
976	0.048
976	0.047
976	0.047
977	0.045
977	0.044
978	0.043
978	0.041
979	0.04
979	0.039
979	0.038
980	0.037
980	0.037
981	0.037
981	0.037
982	0.038
982	0.039
982	0.041
983	0.042
983	0.044
984	0.045
984	0.047
984	0.048
985	0.05
985	0.051
986	0.051
986	0.051
987	0.051
987	0.052
987	0.052
988	0.052
988	0.052
989	0.052
989	0.052
990	0.052
990	0.052
990	0.052
991	0.053
991	0.054
992	0.054
992	0.054
992	0.055
993	0.055
993	0.056
994	0.056
994	0.056
995	0.056
995	0.056
995	0.055
996	0.055
996	0.054
997	0.054
997	0.054
997	0.053
998	0.053
998	0.053
999	0.053
999	0.053
1000	0.053
1000	0.054
1000	0.054
1001	0.054
1001	0.055
1002	0.055
1002	0.055
1003	0.056
1003	0.055
1003	0.055
1004	0.055
1004	0.054
1005	0.053
1005	0.052
1005	0.051
1006	0.049
1006	0.048
1007	0.046
1007	0.045
1008	0.043
1008	0.042
1008	0.041
1009	0.04
1009	0.039
1010	0.039
1010	0.038
1010	0.038
1011	0.038
1011	0.037
1012	0.037
1012	0.037
1013	0.037
1013	0.036
1013	0.035
1014	0.035
1014	0.034
1015	0.033
1015	0.032
1016	0.031
1016	0.031
1016	0.03
1017	0.03
1017	0.03
1018	0.03
1018	0.03
1018	0.031
1019	0.031
1019	0.032
1020	0.032
1020	0.033
1021	0.033
1021	0.034
1021	0.034
1022	0.035
1022	0.035
1023	0.035
1023	0.035
1023	0.034
1024	0.034
1024	0.033
1025	0.032
1025	0.032
1026	0.031
1026	0.031
1026	0.031
1027	0.031
1027	0.031
1028	0.032
1028	0.033
1028	0.033
1029	0.034
1029	0.035
1030	0.036
1030	0.036
1031	0.036
1031	0.037
1031	0.037
1032	0.037
1032	0.037
1033	0.036
1033	0.035
1033	0.035
1034	0.034
1034	0.033
1035	0.032
1035	0.031
1036	0.031
1036	0.03
1036	0.03
1037	0.03
1037	0.03
1038	0.03
1038	0.031
1039	0.031
1039	0.032
1039	0.033
1040	0.033
1040	0.034
1041	0.034
1041	0.034
1041	0.035
1042	0.035
1042	0.035
1043	0.035
1043	0.035
1044	0.035
1044	0.036
1044	0.037
1045	0.037
1045	0.038
1046	0.039
1046	0.04
1046	0.042
1047	0.044
1047	0.046
1048	0.047
1048	0.049
1049	0.05
1049	0.05
1049	0.05
1050	0.051
1050	0.051
1051	0.052
1051	0.052
1051	0.053
1052	0.053
1052	0.053
1053	0.053
1053	0.054
1053	0.055
1054	0.055
1054	0.056
1055	0.056
1055	0.056
1056	0.056
1056	0.055
1056	0.055
1057	0.054
1057	0.055
1058	0.055
1058	0.055
1058	0.057
1059	0.057
1059	0.058
1060	0.059
1060	0.061
1061	0.063
1061	0.065
1061	0.066
1062	0.067
1062	0.068
1063	0.069
1063	0.069
1063	0.07
1064	0.072
1064	0.073
1065	0.074
1065	0.074
1066	0.075
1066	0.076
1066	0.078
1067	0.079
1067	0.08
1068	0.081
1068	0.081
1068	0.082
1069	0.082
1069	0.082
1070	0.083
1070	0.084
1071	0.085
1071	0.087
1071	0.088
1072	0.091
1072	0.094
1073	0.097
1073	0.1
1073	0.103
1074	0.107
1074	0.11
1075	0.112
1075	0.114
1076	0.116
1076	0.119
1076	0.121
1077	0.123
1077	0.126
1078	0.129
1078	0.132
1078	0.135
1079	0.138
1079	0.142
1080	0.145
1080	0.148
1080	0.15
1081	0.153
1081	0.156
1082	0.159
1082	0.162
1083	0.165
1083	0.168
1083	0.172
1084	0.176
1084	0.182
1085	0.188
1085	0.193
1085	0.199
1086	0.204
1086	0.209
1087	0.214
1087	0.221
1088	0.226
1088	0.232
1088	0.24
1089	0.246
1089	0.254
1090	0.264
1090	0.276
1090	0.289
1091	0.304
1091	0.322
1092	0.339
1092	0.36
1092	0.38
1093	0.402
1093	0.427
1094	0.454
1094	0.482
1095	0.511
1095	0.547
1095	0.589
1096	0.636
1096	0.688
1097	0.759
1097	0.836
1097	0.948
1098	1.1
1098	1.351
1099	2.099
1099	-0
1100	-0
1100	-0
1100	-0
1101	-0
1101	-0
1102	-0
1102	-0
1102	-0
1103	-0
1103	-0
1104	-0
1104	-0
1104	-0
1105	-0
1105	-0
1106	-0
1106	-0
1107	-0
1107	-0
1107	-0
1108	-0
1108	-0
1109	-0
1109	-0
1109	-0
1110	-0
1110	-0
1111	-0
1111	-0
