Data from 15c-2-5a_Absorbance__123__04399.txt Node

Date: Wed Jan 17 14:34:37 CET 2024
User: Marek
Spectrometer: MAYP115816
Trigger mode: 0
Integration Time (sec): 2.000000E-1
Scans to average: 10
Electric dark correction enabled: true
Nonlinearity correction enabled: true
Boxcar width: 5
XAxis mode: Wavelengths
Number of Pixels in Spectrum: 2068
>>>>>Begin Spectral Data<<<<<
199	-2.256
199	-2.108
200	-1.942
200	-1.813
201	-1.732
201	-1.681
202	-1.604
202	-1.544
203	-1.491
203	-1.444
204	-1.416
204	-1.391
205	-1.367
205	-1.356
205	-1.353
206	-1.352
206	-1.347
207	-1.345
207	-1.34
208	-1.337
208	-1.337
209	-1.332
209	-1.329
210	-1.327
210	-1.327
211	-1.325
211	-1.324
212	-1.325
212	-1.323
213	-1.322
213	-1.321
213	-1.319
214	-1.318
214	-1.317
215	-1.316
215	-1.314
216	-1.314
216	-1.31
217	-1.306
217	-1.303
218	-1.303
218	-1.299
219	-1.296
219	-1.295
220	-1.291
220	-1.287
221	-1.282
221	-1.278
221	-1.273
222	-1.269
222	-1.264
223	-1.258
223	-1.254
224	-1.248
224	-1.24
225	-1.232
225	-1.224
226	-1.214
226	-1.201
227	-1.188
227	-1.173
228	-1.157
228	-1.137
229	-1.115
229	-1.09
229	-1.061
230	-1.03
230	-0.996
231	-0.959
231	-0.919
232	-0.877
232	-0.833
233	-0.785
233	-0.735
234	-0.684
234	-0.633
235	-0.582
235	-0.531
236	-0.481
236	-0.432
236	-0.384
237	-0.338
237	-0.294
238	-0.251
238	-0.211
239	-0.172
239	-0.136
240	-0.102
240	-0.071
241	-0.041
241	-0.013
242	0.013
242	0.037
243	0.059
243	0.079
243	0.098
244	0.115
244	0.131
245	0.146
245	0.16
246	0.173
246	0.185
247	0.195
247	0.205
248	0.215
248	0.223
249	0.231
249	0.239
250	0.246
250	0.253
250	0.259
251	0.265
251	0.27
252	0.275
252	0.28
253	0.284
253	0.288
254	0.292
254	0.296
255	0.299
255	0.302
256	0.305
256	0.308
257	0.31
257	0.312
258	0.314
258	0.316
258	0.317
259	0.319
259	0.32
260	0.321
260	0.322
261	0.322
261	0.323
262	0.324
262	0.325
263	0.325
263	0.326
264	0.326
264	0.327
265	0.327
265	0.327
265	0.327
266	0.327
266	0.327
267	0.327
267	0.326
268	0.326
268	0.325
269	0.324
269	0.324
270	0.323
270	0.322
271	0.321
271	0.32
272	0.319
272	0.318
272	0.317
273	0.316
273	0.315
274	0.315
274	0.314
275	0.313
275	0.312
276	0.311
276	0.31
277	0.309
277	0.307
278	0.306
278	0.304
278	0.302
279	0.3
279	0.299
280	0.298
280	0.297
281	0.296
281	0.295
282	0.294
282	0.293
283	0.293
283	0.293
284	0.293
284	0.293
285	0.292
285	0.291
285	0.291
286	0.29
286	0.29
287	0.289
287	0.288
288	0.287
288	0.287
289	0.286
289	0.285
290	0.284
290	0.283
291	0.283
291	0.282
292	0.281
292	0.28
292	0.279
293	0.279
293	0.278
294	0.277
294	0.277
295	0.276
295	0.275
296	0.275
296	0.274
297	0.274
297	0.273
298	0.273
298	0.272
298	0.271
299	0.271
299	0.27
300	0.27
300	0.269
301	0.269
301	0.268
302	0.267
302	0.266
303	0.266
303	0.265
304	0.265
304	0.264
305	0.263
305	0.262
305	0.262
306	0.261
306	0.26
307	0.26
307	0.259
308	0.258
308	0.258
309	0.257
309	0.256
310	0.255
310	0.255
311	0.254
311	0.253
311	0.252
312	0.251
312	0.25
313	0.25
313	0.249
314	0.248
314	0.247
315	0.246
315	0.245
316	0.244
316	0.244
317	0.243
317	0.242
318	0.241
318	0.24
318	0.239
319	0.238
319	0.237
320	0.236
320	0.235
321	0.234
321	0.233
322	0.232
322	0.231
323	0.23
323	0.229
324	0.228
324	0.228
324	0.227
325	0.226
325	0.225
326	0.224
326	0.223
327	0.222
327	0.222
328	0.221
328	0.22
329	0.219
329	0.218
330	0.217
330	0.216
330	0.216
331	0.215
331	0.214
332	0.213
332	0.212
333	0.211
333	0.21
334	0.209
334	0.209
335	0.208
335	0.207
336	0.206
336	0.205
336	0.204
337	0.203
337	0.203
338	0.202
338	0.201
339	0.201
339	0.2
340	0.199
340	0.199
341	0.198
341	0.197
342	0.196
342	0.196
342	0.195
343	0.194
343	0.193
344	0.193
344	0.192
345	0.191
345	0.19
346	0.189
346	0.189
347	0.188
347	0.187
348	0.186
348	0.186
348	0.185
349	0.184
349	0.183
350	0.182
350	0.181
351	0.18
351	0.179
352	0.178
352	0.177
353	0.176
353	0.176
354	0.174
354	0.173
354	0.172
355	0.171
355	0.17
356	0.169
356	0.168
357	0.167
357	0.166
358	0.166
358	0.166
359	0.167
359	0.168
360	0.168
360	0.169
360	0.17
361	0.17
361	0.171
362	0.171
362	0.171
363	0.171
363	0.171
364	0.17
364	0.17
365	0.169
365	0.169
366	0.168
366	0.168
366	0.167
367	0.167
367	0.167
368	0.166
368	0.166
369	0.165
369	0.165
370	0.165
370	0.164
371	0.164
371	0.163
372	0.162
372	0.162
372	0.162
373	0.161
373	0.161
374	0.161
374	0.161
375	0.161
375	0.161
376	0.161
376	0.161
377	0.161
377	0.162
378	0.162
378	0.162
378	0.163
379	0.163
379	0.163
380	0.163
380	0.163
381	0.163
381	0.163
382	0.162
382	0.162
383	0.161
383	0.161
383	0.16
384	0.16
384	0.159
385	0.159
385	0.159
386	0.159
386	0.159
387	0.159
387	0.159
388	0.159
388	0.159
389	0.159
389	0.159
389	0.159
390	0.159
390	0.159
391	0.16
391	0.16
392	0.16
392	0.16
393	0.16
393	0.16
394	0.16
394	0.16
394	0.16
395	0.159
395	0.159
396	0.158
396	0.158
397	0.159
397	0.159
398	0.159
398	0.159
399	0.159
399	0.159
400	0.158
400	0.158
400	0.157
401	0.156
401	0.155
402	0.154
402	0.153
403	0.153
403	0.153
404	0.153
404	0.152
405	0.152
405	0.152
405	0.151
406	0.151
406	0.151
407	0.151
407	0.151
408	0.15
408	0.149
409	0.148
409	0.148
410	0.148
410	0.148
411	0.148
411	0.148
411	0.148
412	0.147
412	0.147
413	0.147
413	0.147
414	0.146
414	0.146
415	0.146
415	0.145
416	0.144
416	0.143
416	0.143
417	0.142
417	0.142
418	0.142
418	0.143
419	0.144
419	0.144
420	0.146
420	0.146
421	0.147
421	0.148
421	0.148
422	0.149
422	0.149
423	0.149
423	0.149
424	0.148
424	0.147
425	0.146
425	0.145
426	0.144
426	0.144
427	0.143
427	0.143
427	0.143
428	0.144
428	0.145
429	0.146
429	0.146
430	0.147
430	0.147
431	0.146
431	0.146
432	0.146
432	0.145
432	0.144
433	0.142
433	0.141
434	0.14
434	0.14
435	0.14
435	0.14
436	0.14
436	0.14
437	0.14
437	0.141
437	0.141
438	0.141
438	0.141
439	0.141
439	0.14
440	0.14
440	0.14
441	0.14
441	0.14
442	0.14
442	0.14
442	0.14
443	0.14
443	0.141
444	0.141
444	0.142
445	0.142
445	0.142
446	0.143
446	0.142
447	0.142
447	0.142
447	0.142
448	0.142
448	0.141
449	0.141
449	0.141
450	0.141
450	0.14
451	0.14
451	0.139
452	0.139
452	0.138
452	0.138
453	0.137
453	0.137
454	0.136
454	0.135
455	0.135
455	0.134
456	0.134
456	0.134
457	0.133
457	0.133
458	0.133
458	0.133
458	0.133
459	0.133
459	0.133
460	0.133
460	0.132
461	0.131
461	0.13
462	0.13
462	0.13
463	0.131
463	0.131
463	0.132
464	0.132
464	0.132
465	0.132
465	0.132
466	0.132
466	0.132
467	0.132
467	0.132
467	0.131
468	0.129
468	0.127
469	0.126
469	0.124
470	0.123
470	0.122
471	0.122
471	0.122
472	0.122
472	0.122
472	0.122
473	0.123
473	0.125
474	0.126
474	0.127
475	0.128
475	0.128
476	0.129
476	0.129
477	0.129
477	0.129
477	0.129
478	0.129
478	0.128
479	0.129
479	0.129
480	0.129
480	0.13
481	0.131
481	0.132
482	0.133
482	0.135
482	0.136
483	0.139
483	0.142
484	0.145
484	0.148
485	0.15
485	0.152
486	0.153
486	0.154
487	0.154
487	0.154
487	0.154
488	0.153
488	0.151
489	0.149
489	0.147
490	0.145
490	0.144
491	0.143
491	0.143
492	0.143
492	0.143
492	0.143
493	0.144
493	0.145
494	0.146
494	0.148
495	0.15
495	0.152
496	0.153
496	0.154
496	0.156
497	0.157
497	0.157
498	0.158
498	0.158
499	0.158
499	0.159
500	0.159
500	0.16
501	0.161
501	0.163
501	0.164
502	0.165
502	0.167
503	0.168
503	0.17
504	0.17
504	0.17
505	0.171
505	0.171
506	0.171
506	0.171
506	0.171
507	0.171
507	0.171
508	0.171
508	0.172
509	0.172
509	0.173
510	0.174
510	0.174
511	0.174
511	0.174
511	0.174
512	0.173
512	0.173
513	0.172
513	0.171
514	0.17
514	0.169
515	0.168
515	0.167
515	0.166
516	0.165
516	0.165
517	0.165
517	0.166
518	0.166
518	0.165
519	0.164
519	0.163
520	0.161
520	0.159
520	0.157
521	0.154
521	0.151
522	0.147
522	0.144
523	0.142
523	0.141
524	0.14
524	0.14
524	0.141
525	0.143
525	0.146
526	0.149
526	0.152
527	0.155
527	0.159
528	0.161
528	0.164
529	0.166
529	0.167
529	0.168
530	0.168
530	0.169
531	0.169
531	0.17
532	0.17
532	0.17
533	0.17
533	0.17
533	0.17
534	0.17
534	0.169
535	0.168
535	0.168
536	0.168
536	0.167
537	0.167
537	0.167
538	0.166
538	0.164
538	0.163
539	0.162
539	0.162
540	0.161
540	0.16
541	0.158
541	0.157
542	0.155
542	0.153
542	0.152
543	0.151
543	0.149
544	0.148
544	0.147
545	0.146
545	0.146
546	0.147
546	0.146
547	0.145
547	0.143
547	0.14
548	0.138
548	0.136
549	0.134
549	0.132
550	0.13
550	0.128
551	0.126
551	0.123
551	0.122
552	0.12
552	0.12
553	0.119
553	0.119
554	0.119
554	0.117
555	0.115
555	0.112
556	0.109
556	0.106
556	0.103
557	0.101
557	0.098
558	0.096
558	0.094
559	0.093
559	0.092
560	0.092
560	0.091
560	0.091
561	0.091
561	0.092
562	0.092
562	0.091
563	0.089
563	0.087
564	0.085
564	0.082
564	0.079
565	0.078
565	0.077
566	0.076
566	0.074
567	0.075
567	0.076
568	0.078
568	0.08
568	0.082
569	0.086
569	0.089
570	0.091
570	0.091
571	0.093
571	0.094
572	0.095
572	0.095
573	0.095
573	0.095
573	0.094
574	0.093
574	0.092
575	0.092
575	0.093
576	0.095
576	0.094
577	0.092
577	0.091
577	0.09
578	0.089
578	0.089
579	0.09
579	0.092
580	0.091
580	0.089
581	0.085
581	0.082
581	0.081
582	0.08
582	0.08
583	0.081
583	0.081
584	0.077
584	0.072
585	0.07
585	0.07
585	0.069
586	0.069
586	0.069
587	0.067
587	0.064
588	0.061
588	0.058
589	0.056
589	0.055
590	0.055
590	0.054
590	0.055
591	0.056
591	0.057
592	0.057
592	0.056
593	0.056
593	0.056
594	0.055
594	0.054
594	0.053
595	0.052
595	0.05
596	0.048
596	0.049
597	0.051
597	0.054
598	0.055
598	0.057
598	0.058
599	0.059
599	0.059
600	0.058
600	0.057
601	0.055
601	0.054
602	0.052
602	0.051
602	0.049
603	0.048
603	0.049
604	0.05
604	0.052
605	0.054
605	0.056
606	0.057
606	0.057
606	0.056
607	0.055
607	0.055
608	0.054
608	0.052
609	0.05
609	0.05
610	0.049
610	0.047
610	0.046
611	0.048
611	0.049
612	0.05
612	0.052
613	0.054
613	0.056
614	0.055
614	0.054
614	0.053
615	0.052
615	0.051
616	0.049
616	0.048
617	0.046
617	0.044
618	0.041
618	0.039
618	0.038
619	0.037
619	0.038
620	0.04
620	0.041
621	0.042
621	0.042
622	0.043
622	0.044
622	0.044
623	0.044
623	0.045
624	0.046
624	0.046
625	0.045
625	0.045
626	0.045
626	0.045
626	0.045
627	0.046
627	0.046
628	0.046
628	0.046
629	0.046
629	0.046
630	0.045
630	0.044
630	0.043
631	0.044
631	0.044
632	0.044
632	0.044
633	0.044
633	0.045
634	0.047
634	0.049
634	0.052
635	0.054
635	0.055
636	0.057
636	0.058
637	0.059
637	0.059
638	0.06
638	0.061
638	0.062
639	0.062
639	0.062
640	0.062
640	0.063
641	0.064
641	0.066
642	0.067
642	0.069
642	0.07
643	0.072
643	0.073
644	0.075
644	0.077
645	0.079
645	0.08
646	0.083
646	0.086
646	0.09
647	0.094
647	0.098
648	0.101
648	0.103
649	0.106
649	0.109
650	0.112
650	0.115
650	0.118
651	0.12
651	0.122
652	0.124
652	0.125
653	0.128
653	0.138
653	0.162
654	0.133
654	0.111
655	0.114
655	0.116
656	0.118
656	0.119
657	0.121
657	0.122
657	0.123
658	0.119
658	0.102
659	0.126
659	0.159
660	0.163
660	0.164
661	0.166
661	0.167
661	0.17
662	0.174
662	0.178
663	0.181
663	0.185
664	0.188
664	0.191
665	0.194
665	0.197
665	0.199
666	0.202
666	0.204
667	0.205
667	0.207
668	0.209
668	0.212
669	0.214
669	0.217
669	0.222
670	0.226
670	0.23
671	0.232
671	0.234
672	0.236
672	0.237
672	0.239
673	0.24
673	0.241
674	0.241
674	0.241
675	0.24
675	0.24
676	0.241
676	0.243
676	0.244
677	0.246
677	0.248
678	0.25
678	0.252
679	0.253
679	0.254
680	0.257
680	0.259
680	0.26
681	0.26
681	0.261
682	0.263
682	0.264
683	0.266
683	0.269
684	0.272
684	0.273
684	0.273
685	0.274
685	0.276
686	0.277
686	0.278
687	0.278
687	0.278
687	0.278
688	0.277
688	0.276
689	0.276
689	0.278
690	0.278
690	0.277
691	0.276
691	0.276
691	0.276
692	0.275
692	0.274
693	0.273
693	0.273
694	0.272
694	0.269
695	0.269
695	0.271
695	0.272
696	0.271
696	0.27
697	0.269
697	0.268
698	0.266
698	0.264
698	0.262
699	0.262
699	0.259
700	0.255
700	0.253
701	0.252
701	0.252
702	0.251
702	0.25
702	0.249
703	0.248
703	0.247
704	0.245
704	0.245
705	0.245
705	0.245
705	0.244
706	0.244
706	0.243
707	0.242
707	0.24
708	0.238
708	0.236
709	0.235
709	0.233
709	0.229
710	0.225
710	0.221
711	0.219
711	0.216
712	0.214
712	0.212
713	0.211
713	0.209
713	0.206
714	0.204
714	0.201
715	0.199
715	0.197
716	0.194
716	0.193
716	0.19
717	0.188
717	0.186
718	0.184
718	0.181
719	0.179
719	0.178
720	0.176
720	0.173
720	0.171
721	0.167
721	0.165
722	0.162
722	0.159
723	0.156
723	0.155
723	0.153
724	0.15
724	0.148
725	0.145
725	0.143
726	0.141
726	0.139
727	0.137
727	0.135
727	0.133
728	0.131
728	0.129
729	0.129
729	0.128
730	0.127
730	0.125
730	0.124
731	0.122
731	0.121
732	0.121
732	0.119
733	0.117
733	0.116
734	0.113
734	0.11
734	0.108
735	0.107
735	0.105
736	0.102
736	0.1
737	0.098
737	0.097
737	0.096
738	0.093
738	0.09
739	0.087
739	0.084
740	0.081
740	0.079
741	0.077
741	0.074
741	0.069
742	0.063
742	0.058
743	0.055
743	0.052
744	0.049
744	0.047
744	0.045
745	0.042
745	0.039
746	0.037
746	0.035
747	0.034
747	0.034
748	0.034
748	0.034
748	0.033
749	0.031
749	0.031
750	0.031
750	0.03
751	0.031
751	0.031
751	0.032
752	0.032
752	0.031
753	0.031
753	0.031
754	0.031
754	0.031
754	0.032
755	0.032
755	0.033
756	0.033
756	0.031
757	0.029
757	0.028
758	0.027
758	0.026
758	0.025
759	0.024
759	0.022
760	0.018
760	0.015
761	0.012
761	0.011
761	0.01
762	0.008
762	0.007
763	0.006
763	0.004
764	0
764	-0.003
764	-0.005
765	-0.008
765	-0.011
766	-0.013
766	-0.013
767	-0.014
767	-0.018
768	-0.022
768	-0.025
768	-0.026
769	-0.027
769	-0.027
770	-0.029
770	-0.03
771	-0.033
771	-0.036
771	-0.04
772	-0.043
772	-0.046
773	-0.049
773	-0.052
774	-0.057
774	-0.061
775	-0.065
775	-0.069
775	-0.073
776	-0.078
776	-0.083
777	-0.088
777	-0.093
778	-0.098
778	-0.104
778	-0.109
779	-0.113
779	-0.115
780	-0.119
780	-0.124
781	-0.128
781	-0.132
781	-0.136
782	-0.139
782	-0.143
783	-0.146
783	-0.148
784	-0.149
784	-0.152
784	-0.153
785	-0.154
785	-0.156
786	-0.156
786	-0.152
787	-0.147
787	-0.143
788	-0.141
788	-0.142
788	-0.143
789	-0.146
789	-0.145
790	-0.142
790	-0.141
791	-0.141
791	-0.143
791	-0.146
792	-0.14
792	-0.13
793	-0.124
793	-0.12
794	-0.118
794	-0.12
794	-0.125
795	-0.127
795	-0.127
796	-0.128
796	-0.131
797	-0.14
797	-0.151
797	-0.157
798	-0.162
798	-0.165
799	-0.166
799	-0.165
800	-0.164
800	-0.166
801	-0.168
801	-0.169
801	-0.169
802	-0.171
802	-0.172
803	-0.173
803	-0.173
804	-0.172
804	-0.167
804	-0.161
805	-0.157
805	-0.155
806	-0.153
806	-0.152
807	-0.151
807	-0.15
807	-0.15
808	-0.15
808	-0.151
809	-0.156
809	-0.162
810	-0.166
810	-0.169
810	-0.172
811	-0.175
811	-0.176
812	-0.172
812	-0.169
813	-0.169
813	-0.169
813	-0.17
814	-0.17
814	-0.17
815	-0.166
815	-0.163
816	-0.16
816	-0.16
817	-0.164
817	-0.166
817	-0.166
818	-0.165
818	-0.162
819	-0.156
819	-0.154
820	-0.155
820	-0.158
820	-0.159
821	-0.159
821	-0.158
822	-0.156
822	-0.153
823	-0.149
823	-0.148
823	-0.148
824	-0.145
824	-0.138
825	-0.129
825	-0.119
826	-0.109
826	-0.102
826	-0.095
827	-0.088
827	-0.082
828	-0.076
828	-0.071
829	-0.067
829	-0.064
829	-0.061
830	-0.06
830	-0.057
831	-0.053
831	-0.05
832	-0.047
832	-0.043
832	-0.04
833	-0.037
833	-0.033
834	-0.03
834	-0.027
835	-0.024
835	-0.022
835	-0.02
836	-0.019
836	-0.017
837	-0.016
837	-0.016
838	-0.015
838	-0.015
839	-0.015
839	-0.015
839	-0.015
840	-0.014
840	-0.013
841	-0.013
841	-0.012
842	-0.01
842	-0.009
842	-0.007
843	-0.005
843	-0.004
844	-0.002
844	-0
845	0.001
845	0.003
845	0.004
846	0.005
846	0.006
847	0.007
847	0.008
848	0.008
848	0.008
848	0.009
849	0.009
849	0.01
850	0.01
850	0.009
851	0.01
851	0.01
851	0.011
852	0.011
852	0.012
853	0.012
853	0.013
854	0.014
854	0.015
854	0.015
855	0.016
855	0.016
856	0.016
856	0.017
857	0.017
857	0.018
857	0.018
858	0.018
858	0.018
859	0.017
859	0.018
860	0.018
860	0.019
860	0.019
861	0.019
861	0.02
862	0.02
862	0.02
863	0.021
863	0.021
863	0.021
864	0.021
864	0.022
865	0.022
865	0.022
866	0.022
866	0.022
866	0.023
867	0.024
867	0.024
868	0.025
868	0.026
869	0.028
869	0.028
869	0.029
870	0.029
870	0.03
871	0.03
871	0.03
872	0.029
872	0.028
872	0.028
873	0.027
873	0.025
874	0.024
874	0.023
875	0.023
875	0.022
875	0.022
876	0.023
876	0.023
877	0.024
877	0.025
878	0.027
878	0.028
878	0.03
879	0.032
879	0.033
880	0.033
880	0.034
881	0.034
881	0.035
881	0.035
882	0.034
882	0.033
883	0.033
883	0.032
884	0.032
884	0.032
884	0.033
885	0.033
885	0.034
886	0.035
886	0.036
887	0.037
887	0.038
887	0.039
888	0.039
888	0.039
889	0.04
889	0.04
890	0.04
890	0.039
890	0.038
891	0.037
891	0.035
892	0.034
892	0.033
893	0.032
893	0.031
893	0.03
894	0.03
894	0.029
895	0.028
895	0.028
895	0.028
896	0.027
896	0.027
897	0.027
897	0.027
898	0.028
898	0.028
898	0.028
899	0.029
899	0.03
900	0.031
900	0.033
901	0.034
901	0.035
901	0.036
902	0.037
902	0.038
903	0.039
903	0.039
904	0.039
904	0.04
904	0.04
905	0.04
905	0.04
906	0.04
906	0.04
907	0.04
907	0.04
907	0.04
908	0.04
908	0.04
909	0.04
909	0.04
910	0.041
910	0.041
910	0.041
911	0.042
911	0.043
912	0.044
912	0.045
913	0.045
913	0.045
913	0.045
914	0.045
914	0.044
915	0.043
915	0.042
916	0.041
916	0.04
916	0.039
917	0.037
917	0.036
918	0.035
918	0.035
918	0.035
919	0.035
919	0.035
920	0.036
920	0.037
921	0.037
921	0.037
921	0.038
922	0.039
922	0.039
923	0.039
923	0.039
924	0.04
924	0.039
924	0.039
925	0.038
925	0.038
926	0.037
926	0.037
927	0.036
927	0.036
927	0.036
928	0.035
928	0.035
929	0.034
929	0.034
930	0.034
930	0.034
930	0.034
931	0.033
931	0.033
932	0.033
932	0.032
933	0.032
933	0.033
933	0.033
934	0.033
934	0.033
935	0.034
935	0.034
935	0.035
936	0.036
936	0.037
937	0.038
937	0.039
938	0.039
938	0.04
938	0.041
939	0.041
939	0.042
940	0.042
940	0.043
941	0.044
941	0.044
941	0.045
942	0.046
942	0.047
943	0.047
943	0.048
944	0.048
944	0.049
944	0.049
945	0.05
945	0.05
946	0.051
946	0.051
946	0.051
947	0.051
947	0.051
948	0.05
948	0.05
949	0.05
949	0.05
949	0.05
950	0.05
950	0.05
951	0.05
951	0.049
952	0.049
952	0.049
952	0.05
953	0.05
953	0.05
954	0.049
954	0.049
955	0.048
955	0.048
955	0.047
956	0.047
956	0.047
957	0.046
957	0.045
957	0.044
958	0.043
958	0.042
959	0.041
959	0.041
960	0.04
960	0.039
960	0.038
961	0.038
961	0.037
962	0.037
962	0.037
963	0.037
963	0.037
963	0.038
964	0.038
964	0.039
965	0.04
965	0.04
966	0.041
966	0.042
966	0.043
967	0.044
967	0.045
968	0.045
968	0.046
968	0.046
969	0.046
969	0.047
970	0.047
970	0.047
971	0.047
971	0.047
971	0.046
972	0.047
972	0.047
973	0.047
973	0.047
974	0.048
974	0.048
974	0.048
975	0.048
975	0.049
976	0.049
976	0.049
976	0.048
977	0.047
977	0.046
978	0.045
978	0.044
979	0.043
979	0.042
979	0.041
980	0.039
980	0.039
981	0.038
981	0.038
982	0.038
982	0.039
982	0.04
983	0.041
983	0.042
984	0.043
984	0.044
984	0.046
985	0.047
985	0.048
986	0.049
986	0.049
987	0.049
987	0.05
987	0.05
988	0.051
988	0.051
989	0.051
989	0.051
990	0.051
990	0.052
990	0.053
991	0.054
991	0.054
992	0.055
992	0.055
992	0.056
993	0.056
993	0.056
994	0.056
994	0.056
995	0.056
995	0.056
995	0.055
996	0.054
996	0.054
997	0.053
997	0.053
997	0.053
998	0.052
998	0.052
999	0.052
999	0.052
1000	0.052
1000	0.052
1000	0.052
1001	0.053
1001	0.053
1002	0.053
1002	0.053
1003	0.053
1003	0.053
1003	0.053
1004	0.053
1004	0.052
1005	0.051
1005	0.05
1005	0.049
1006	0.048
1006	0.047
1007	0.045
1007	0.044
1008	0.043
1008	0.041
1008	0.04
1009	0.04
1009	0.039
1010	0.039
1010	0.039
1010	0.038
1011	0.038
1011	0.038
1012	0.038
1012	0.038
1013	0.039
1013	0.038
1013	0.038
1014	0.037
1014	0.036
1015	0.036
1015	0.036
1016	0.035
1016	0.034
1016	0.034
1017	0.034
1017	0.034
1018	0.035
1018	0.035
1018	0.036
1019	0.037
1019	0.037
1020	0.037
1020	0.038
1021	0.038
1021	0.039
1021	0.039
1022	0.039
1022	0.038
1023	0.038
1023	0.038
1023	0.037
1024	0.037
1024	0.036
1025	0.035
1025	0.035
1026	0.034
1026	0.034
1026	0.033
1027	0.033
1027	0.034
1028	0.034
1028	0.035
1028	0.035
1029	0.036
1029	0.036
1030	0.037
1030	0.037
1031	0.038
1031	0.038
1031	0.038
1032	0.038
1032	0.038
1033	0.038
1033	0.037
1033	0.037
1034	0.036
1034	0.035
1035	0.035
1035	0.034
1036	0.033
1036	0.033
1036	0.034
1037	0.034
1037	0.035
1038	0.035
1038	0.036
1039	0.037
1039	0.038
1039	0.039
1040	0.04
1040	0.041
1041	0.041
1041	0.042
1041	0.042
1042	0.042
1042	0.042
1043	0.042
1043	0.042
1044	0.042
1044	0.042
1044	0.043
1045	0.043
1045	0.044
1046	0.045
1046	0.046
1046	0.048
1047	0.049
1047	0.051
1048	0.053
1048	0.054
1049	0.054
1049	0.054
1049	0.055
1050	0.055
1050	0.055
1051	0.056
1051	0.056
1051	0.056
1052	0.057
1052	0.057
1053	0.057
1053	0.058
1053	0.059
1054	0.059
1054	0.06
1055	0.06
1055	0.06
1056	0.06
1056	0.06
1056	0.059
1057	0.059
1057	0.059
1058	0.06
1058	0.06
1058	0.061
1059	0.062
1059	0.063
1060	0.064
1060	0.066
1061	0.068
1061	0.071
1061	0.073
1062	0.073
1062	0.074
1063	0.075
1063	0.076
1063	0.077
1064	0.078
1064	0.08
1065	0.081
1065	0.081
1066	0.082
1066	0.083
1066	0.085
1067	0.086
1067	0.087
1068	0.088
1068	0.088
1068	0.089
1069	0.089
1069	0.088
1070	0.088
1070	0.089
1071	0.091
1071	0.092
1071	0.093
1072	0.095
1072	0.097
1073	0.099
1073	0.102
1073	0.105
1074	0.108
1074	0.111
1075	0.113
1075	0.115
1076	0.117
1076	0.12
1076	0.121
1077	0.123
1077	0.126
1078	0.128
1078	0.131
1078	0.134
1079	0.137
1079	0.141
1080	0.143
1080	0.146
1080	0.149
1081	0.152
1081	0.155
1082	0.159
1082	0.162
1083	0.166
1083	0.17
1083	0.176
1084	0.181
1084	0.187
1085	0.193
1085	0.2
1085	0.207
1086	0.213
1086	0.218
1087	0.225
1087	0.231
1088	0.236
1088	0.243
1088	0.251
1089	0.258
1089	0.267
1090	0.277
1090	0.289
1090	0.301
1091	0.315
1091	0.333
1092	0.35
1092	0.372
1092	0.391
1093	0.412
1093	0.437
1094	0.464
1094	0.49
1095	0.52
1095	0.556
1095	0.602
1096	0.649
1096	0.707
1097	0.78
1097	0.861
1097	0.977
1098	1.141
1098	1.413
1099	-0
1099	-0
1100	-0
1100	-0
1100	-0
1101	-0
1101	-0
1102	-0
1102	-0
1102	-0
1103	-0
1103	-0
1104	-0
1104	-0
1104	-0
1105	-0
1105	-0
1106	-0
1106	-0
1107	-0
1107	-0
1107	-0
1108	-0
1108	-0
1109	-0
1109	-0
1109	-0
1110	-0
1110	-0
1111	-0
1111	-0
