Data from 15c-2-5a_Absorbance__94__04370.txt Node

Date: Wed Jan 17 14:33:39 CET 2024
User: Marek
Spectrometer: MAYP115816
Trigger mode: 0
Integration Time (sec): 2.000000E-1
Scans to average: 10
Electric dark correction enabled: true
Nonlinearity correction enabled: true
Boxcar width: 5
XAxis mode: Wavelengths
Number of Pixels in Spectrum: 2068
>>>>>Begin Spectral Data<<<<<
199	-2.247
199	-2.099
200	-1.933
200	-1.804
201	-1.723
201	-1.672
202	-1.595
202	-1.535
203	-1.482
203	-1.435
204	-1.408
204	-1.382
205	-1.358
205	-1.347
205	-1.344
206	-1.343
206	-1.337
207	-1.335
207	-1.33
208	-1.327
208	-1.327
209	-1.322
209	-1.319
210	-1.318
210	-1.318
211	-1.316
211	-1.315
212	-1.315
212	-1.314
213	-1.313
213	-1.312
213	-1.31
214	-1.309
214	-1.308
215	-1.307
215	-1.305
216	-1.305
216	-1.302
217	-1.297
217	-1.295
218	-1.294
218	-1.29
219	-1.288
219	-1.286
220	-1.282
220	-1.278
221	-1.273
221	-1.269
221	-1.264
222	-1.26
222	-1.255
223	-1.249
223	-1.245
224	-1.239
224	-1.232
225	-1.223
225	-1.215
226	-1.206
226	-1.194
227	-1.18
227	-1.165
228	-1.149
228	-1.129
229	-1.107
229	-1.082
229	-1.053
230	-1.022
230	-0.989
231	-0.951
231	-0.911
232	-0.87
232	-0.825
233	-0.777
233	-0.727
234	-0.677
234	-0.626
235	-0.575
235	-0.524
236	-0.475
236	-0.426
236	-0.378
237	-0.332
237	-0.288
238	-0.246
238	-0.206
239	-0.168
239	-0.132
240	-0.098
240	-0.067
241	-0.038
241	-0.01
242	0.015
242	0.039
243	0.06
243	0.08
243	0.098
244	0.116
244	0.131
245	0.145
245	0.158
246	0.171
246	0.182
247	0.192
247	0.202
248	0.211
248	0.22
249	0.228
249	0.235
250	0.241
250	0.248
250	0.254
251	0.259
251	0.265
252	0.27
252	0.274
253	0.279
253	0.282
254	0.286
254	0.289
255	0.293
255	0.296
256	0.298
256	0.301
257	0.303
257	0.305
258	0.307
258	0.308
258	0.31
259	0.311
259	0.312
260	0.314
260	0.315
261	0.315
261	0.316
262	0.317
262	0.317
263	0.318
263	0.319
264	0.319
264	0.319
265	0.319
265	0.319
265	0.319
266	0.319
266	0.319
267	0.319
267	0.318
268	0.318
268	0.317
269	0.316
269	0.315
270	0.315
270	0.314
271	0.313
271	0.312
272	0.311
272	0.31
272	0.309
273	0.308
273	0.307
274	0.306
274	0.305
275	0.304
275	0.303
276	0.302
276	0.301
277	0.3
277	0.299
278	0.297
278	0.296
278	0.294
279	0.292
279	0.29
280	0.289
280	0.288
281	0.287
281	0.286
282	0.285
282	0.284
283	0.284
283	0.283
284	0.283
284	0.283
285	0.283
285	0.282
285	0.282
286	0.281
286	0.28
287	0.28
287	0.279
288	0.278
288	0.278
289	0.277
289	0.276
290	0.275
290	0.275
291	0.274
291	0.273
292	0.273
292	0.272
292	0.271
293	0.27
293	0.27
294	0.269
294	0.268
295	0.268
295	0.267
296	0.267
296	0.266
297	0.265
297	0.265
298	0.264
298	0.264
298	0.263
299	0.263
299	0.262
300	0.262
300	0.261
301	0.26
301	0.26
302	0.259
302	0.258
303	0.258
303	0.257
304	0.257
304	0.256
305	0.255
305	0.255
305	0.254
306	0.253
306	0.253
307	0.252
307	0.251
308	0.251
308	0.25
309	0.249
309	0.249
310	0.248
310	0.247
311	0.247
311	0.246
311	0.245
312	0.244
312	0.244
313	0.243
313	0.242
314	0.241
314	0.24
315	0.239
315	0.238
316	0.238
316	0.237
317	0.236
317	0.235
318	0.234
318	0.233
318	0.233
319	0.232
319	0.231
320	0.23
320	0.229
321	0.228
321	0.227
322	0.226
322	0.225
323	0.224
323	0.223
324	0.222
324	0.222
324	0.221
325	0.22
325	0.219
326	0.218
326	0.218
327	0.217
327	0.216
328	0.215
328	0.214
329	0.214
329	0.213
330	0.212
330	0.211
330	0.21
331	0.209
331	0.208
332	0.208
332	0.207
333	0.206
333	0.205
334	0.204
334	0.203
335	0.202
335	0.201
336	0.201
336	0.2
336	0.199
337	0.198
337	0.198
338	0.197
338	0.196
339	0.196
339	0.195
340	0.194
340	0.194
341	0.193
341	0.192
342	0.192
342	0.191
342	0.19
343	0.189
343	0.189
344	0.188
344	0.187
345	0.187
345	0.186
346	0.185
346	0.185
347	0.184
347	0.183
348	0.182
348	0.182
348	0.181
349	0.18
349	0.179
350	0.178
350	0.177
351	0.176
351	0.175
352	0.174
352	0.173
353	0.172
353	0.171
354	0.17
354	0.169
354	0.168
355	0.167
355	0.166
356	0.165
356	0.164
357	0.163
357	0.163
358	0.163
358	0.163
359	0.164
359	0.164
360	0.165
360	0.166
360	0.166
361	0.167
361	0.167
362	0.168
362	0.168
363	0.168
363	0.167
364	0.166
364	0.166
365	0.165
365	0.165
366	0.164
366	0.164
366	0.164
367	0.163
367	0.163
368	0.163
368	0.162
369	0.162
369	0.162
370	0.161
370	0.161
371	0.16
371	0.16
372	0.159
372	0.159
372	0.158
373	0.158
373	0.158
374	0.158
374	0.158
375	0.158
375	0.158
376	0.158
376	0.158
377	0.158
377	0.158
378	0.159
378	0.159
378	0.159
379	0.159
379	0.159
380	0.159
380	0.16
381	0.16
381	0.159
382	0.159
382	0.158
383	0.158
383	0.157
383	0.157
384	0.156
384	0.156
385	0.156
385	0.156
386	0.156
386	0.156
387	0.156
387	0.156
388	0.156
388	0.156
389	0.156
389	0.156
389	0.156
390	0.156
390	0.156
391	0.157
391	0.157
392	0.157
392	0.157
393	0.157
393	0.157
394	0.157
394	0.157
394	0.157
395	0.156
395	0.156
396	0.156
396	0.156
397	0.156
397	0.157
398	0.157
398	0.156
399	0.156
399	0.156
400	0.156
400	0.156
400	0.155
401	0.154
401	0.153
402	0.152
402	0.151
403	0.151
403	0.151
404	0.151
404	0.151
405	0.15
405	0.15
405	0.149
406	0.149
406	0.149
407	0.149
407	0.149
408	0.148
408	0.147
409	0.146
409	0.146
410	0.146
410	0.146
411	0.146
411	0.146
411	0.146
412	0.146
412	0.146
413	0.145
413	0.145
414	0.145
414	0.145
415	0.144
415	0.144
416	0.143
416	0.143
416	0.142
417	0.142
417	0.142
418	0.142
418	0.142
419	0.143
419	0.144
420	0.145
420	0.146
421	0.146
421	0.147
421	0.147
422	0.147
422	0.148
423	0.148
423	0.147
424	0.147
424	0.146
425	0.145
425	0.143
426	0.143
426	0.142
427	0.142
427	0.142
427	0.142
428	0.143
428	0.144
429	0.145
429	0.145
430	0.146
430	0.145
431	0.145
431	0.145
432	0.144
432	0.144
432	0.143
433	0.141
433	0.14
434	0.139
434	0.139
435	0.139
435	0.139
436	0.139
436	0.14
437	0.14
437	0.14
437	0.14
438	0.14
438	0.14
439	0.14
439	0.139
440	0.139
440	0.139
441	0.139
441	0.139
442	0.139
442	0.139
442	0.14
443	0.14
443	0.14
444	0.141
444	0.141
445	0.141
445	0.142
446	0.142
446	0.142
447	0.141
447	0.141
447	0.141
448	0.141
448	0.141
449	0.141
449	0.141
450	0.14
450	0.14
451	0.14
451	0.139
452	0.139
452	0.138
452	0.137
453	0.137
453	0.136
454	0.136
454	0.135
455	0.134
455	0.134
456	0.134
456	0.133
457	0.133
457	0.133
458	0.133
458	0.133
458	0.133
459	0.133
459	0.133
460	0.133
460	0.132
461	0.131
461	0.131
462	0.13
462	0.13
463	0.13
463	0.131
463	0.131
464	0.132
464	0.132
465	0.132
465	0.132
466	0.132
466	0.132
467	0.132
467	0.131
467	0.13
468	0.129
468	0.127
469	0.125
469	0.124
470	0.123
470	0.122
471	0.122
471	0.121
472	0.121
472	0.121
472	0.122
473	0.123
473	0.124
474	0.125
474	0.126
475	0.127
475	0.128
476	0.128
476	0.128
477	0.128
477	0.129
477	0.129
478	0.129
478	0.129
479	0.129
479	0.129
480	0.129
480	0.131
481	0.131
481	0.132
482	0.133
482	0.134
482	0.136
483	0.138
483	0.141
484	0.145
484	0.147
485	0.149
485	0.15
486	0.152
486	0.152
487	0.153
487	0.153
487	0.153
488	0.152
488	0.15
489	0.148
489	0.146
490	0.144
490	0.143
491	0.142
491	0.142
492	0.142
492	0.142
492	0.142
493	0.143
493	0.143
494	0.145
494	0.147
495	0.149
495	0.15
496	0.151
496	0.152
496	0.153
497	0.154
497	0.155
498	0.156
498	0.156
499	0.156
499	0.156
500	0.156
500	0.157
501	0.158
501	0.16
501	0.161
502	0.162
502	0.164
503	0.165
503	0.167
504	0.167
504	0.167
505	0.168
505	0.168
506	0.168
506	0.168
506	0.168
507	0.168
507	0.168
508	0.168
508	0.169
509	0.169
509	0.171
510	0.171
510	0.171
511	0.171
511	0.171
511	0.171
512	0.17
512	0.17
513	0.169
513	0.168
514	0.167
514	0.166
515	0.165
515	0.164
515	0.163
516	0.162
516	0.162
517	0.163
517	0.163
518	0.163
518	0.163
519	0.162
519	0.161
520	0.159
520	0.157
520	0.155
521	0.152
521	0.149
522	0.146
522	0.143
523	0.141
523	0.139
524	0.139
524	0.139
524	0.14
525	0.142
525	0.144
526	0.147
526	0.15
527	0.153
527	0.156
528	0.159
528	0.161
529	0.163
529	0.164
529	0.165
530	0.166
530	0.166
531	0.167
531	0.168
532	0.168
532	0.168
533	0.168
533	0.168
533	0.169
534	0.168
534	0.167
535	0.167
535	0.167
536	0.166
536	0.166
537	0.165
537	0.165
538	0.164
538	0.163
538	0.162
539	0.161
539	0.16
540	0.16
540	0.158
541	0.157
541	0.155
542	0.153
542	0.152
542	0.15
543	0.149
543	0.148
544	0.146
544	0.145
545	0.145
545	0.145
546	0.146
546	0.145
547	0.144
547	0.142
547	0.14
548	0.138
548	0.136
549	0.134
549	0.132
550	0.13
550	0.128
551	0.126
551	0.124
551	0.122
552	0.121
552	0.121
553	0.12
553	0.12
554	0.12
554	0.119
555	0.117
555	0.114
556	0.111
556	0.108
556	0.105
557	0.102
557	0.1
558	0.098
558	0.096
559	0.095
559	0.094
560	0.094
560	0.093
560	0.093
561	0.093
561	0.094
562	0.094
562	0.093
563	0.091
563	0.089
564	0.087
564	0.084
564	0.082
565	0.081
565	0.08
566	0.079
566	0.078
567	0.078
567	0.08
568	0.082
568	0.084
568	0.087
569	0.09
569	0.093
570	0.095
570	0.096
571	0.097
571	0.099
572	0.099
572	0.1
573	0.1
573	0.1
573	0.098
574	0.097
574	0.097
575	0.097
575	0.098
576	0.099
576	0.099
577	0.097
577	0.096
577	0.096
578	0.095
578	0.095
579	0.096
579	0.097
580	0.097
580	0.094
581	0.09
581	0.088
581	0.086
582	0.086
582	0.086
583	0.087
583	0.087
584	0.083
584	0.079
585	0.077
585	0.076
585	0.076
586	0.076
586	0.076
587	0.074
587	0.071
588	0.068
588	0.065
589	0.063
589	0.062
590	0.061
590	0.061
590	0.062
591	0.063
591	0.063
592	0.063
592	0.062
593	0.062
593	0.063
594	0.062
594	0.061
594	0.06
595	0.059
595	0.057
596	0.055
596	0.056
597	0.059
597	0.061
598	0.062
598	0.064
598	0.065
599	0.066
599	0.066
600	0.065
600	0.064
601	0.063
601	0.061
602	0.059
602	0.058
602	0.056
603	0.055
603	0.056
604	0.057
604	0.059
605	0.061
605	0.063
606	0.064
606	0.063
606	0.063
607	0.062
607	0.062
608	0.061
608	0.059
609	0.058
609	0.057
610	0.056
610	0.054
610	0.054
611	0.055
611	0.056
612	0.058
612	0.06
613	0.062
613	0.064
614	0.064
614	0.062
614	0.062
615	0.061
615	0.06
616	0.058
616	0.057
617	0.055
617	0.053
618	0.05
618	0.048
618	0.046
619	0.046
619	0.046
620	0.048
620	0.049
621	0.05
621	0.051
622	0.051
622	0.052
622	0.052
623	0.052
623	0.053
624	0.054
624	0.053
625	0.052
625	0.052
626	0.052
626	0.052
626	0.052
627	0.052
627	0.052
628	0.053
628	0.053
629	0.053
629	0.052
630	0.051
630	0.05
630	0.05
631	0.05
631	0.051
632	0.05
632	0.05
633	0.051
633	0.052
634	0.053
634	0.056
634	0.058
635	0.06
635	0.061
636	0.062
636	0.064
637	0.064
637	0.065
638	0.066
638	0.067
638	0.068
639	0.068
639	0.068
640	0.068
640	0.069
641	0.069
641	0.071
642	0.072
642	0.073
642	0.075
643	0.076
643	0.077
644	0.079
644	0.08
645	0.082
645	0.084
646	0.087
646	0.09
646	0.093
647	0.097
647	0.101
648	0.103
648	0.106
649	0.108
649	0.112
650	0.115
650	0.118
650	0.12
651	0.122
651	0.124
652	0.126
652	0.127
653	0.13
653	0.14
653	0.164
654	0.134
654	0.112
655	0.115
655	0.117
656	0.118
656	0.119
657	0.121
657	0.122
657	0.123
658	0.12
658	0.102
659	0.126
659	0.16
660	0.163
660	0.164
661	0.166
661	0.167
661	0.17
662	0.173
662	0.177
663	0.181
663	0.184
664	0.187
664	0.19
665	0.193
665	0.196
665	0.198
666	0.2
666	0.202
667	0.204
667	0.205
668	0.207
668	0.209
669	0.212
669	0.215
669	0.219
670	0.224
670	0.227
671	0.23
671	0.232
672	0.234
672	0.236
672	0.237
673	0.238
673	0.239
674	0.24
674	0.239
675	0.238
675	0.238
676	0.239
676	0.241
676	0.242
677	0.244
677	0.246
678	0.248
678	0.249
679	0.251
679	0.252
680	0.254
680	0.256
680	0.257
681	0.257
681	0.258
682	0.259
682	0.261
683	0.263
683	0.265
684	0.268
684	0.27
684	0.27
685	0.271
685	0.273
686	0.274
686	0.275
687	0.275
687	0.275
687	0.275
688	0.274
688	0.272
689	0.273
689	0.275
690	0.275
690	0.274
691	0.273
691	0.273
691	0.273
692	0.272
692	0.271
693	0.27
693	0.27
694	0.269
694	0.266
695	0.265
695	0.267
695	0.268
696	0.267
696	0.266
697	0.265
697	0.264
698	0.263
698	0.261
698	0.259
699	0.259
699	0.256
700	0.253
700	0.251
701	0.251
701	0.25
702	0.249
702	0.248
702	0.247
703	0.246
703	0.245
704	0.243
704	0.243
705	0.243
705	0.243
705	0.242
706	0.242
706	0.242
707	0.241
707	0.239
708	0.238
708	0.236
709	0.235
709	0.233
709	0.229
710	0.225
710	0.222
711	0.219
711	0.217
712	0.215
712	0.213
713	0.212
713	0.21
713	0.209
714	0.206
714	0.204
715	0.202
715	0.2
716	0.197
716	0.196
716	0.194
717	0.192
717	0.19
718	0.187
718	0.185
719	0.183
719	0.182
720	0.18
720	0.178
720	0.176
721	0.172
721	0.169
722	0.167
722	0.164
723	0.161
723	0.16
723	0.158
724	0.155
724	0.153
725	0.15
725	0.148
726	0.146
726	0.144
727	0.142
727	0.14
727	0.138
728	0.135
728	0.133
729	0.133
729	0.132
730	0.131
730	0.129
730	0.128
731	0.126
731	0.125
732	0.124
732	0.123
733	0.121
733	0.119
734	0.116
734	0.114
734	0.112
735	0.111
735	0.109
736	0.107
736	0.105
737	0.103
737	0.103
737	0.102
738	0.099
738	0.095
739	0.093
739	0.09
740	0.087
740	0.085
741	0.083
741	0.08
741	0.076
742	0.07
742	0.066
743	0.063
743	0.06
744	0.058
744	0.055
744	0.053
745	0.05
745	0.047
746	0.044
746	0.043
747	0.041
747	0.041
748	0.041
748	0.04
748	0.039
749	0.038
749	0.037
750	0.037
750	0.036
751	0.036
751	0.037
751	0.038
752	0.038
752	0.037
753	0.037
753	0.038
754	0.038
754	0.038
754	0.039
755	0.04
755	0.041
756	0.041
756	0.038
757	0.036
757	0.036
758	0.035
758	0.033
758	0.032
759	0.032
759	0.029
760	0.025
760	0.022
761	0.019
761	0.018
761	0.017
762	0.015
762	0.014
763	0.014
763	0.012
764	0.009
764	0.006
764	0.003
765	0
765	-0.002
766	-0.004
766	-0.005
767	-0.006
767	-0.009
768	-0.013
768	-0.016
768	-0.017
769	-0.018
769	-0.018
770	-0.02
770	-0.021
771	-0.024
771	-0.027
771	-0.031
772	-0.033
772	-0.036
773	-0.039
773	-0.043
774	-0.047
774	-0.051
775	-0.055
775	-0.059
775	-0.063
776	-0.068
776	-0.073
777	-0.078
777	-0.082
778	-0.088
778	-0.094
778	-0.099
779	-0.103
779	-0.106
780	-0.111
780	-0.118
781	-0.122
781	-0.127
781	-0.132
782	-0.136
782	-0.141
783	-0.145
783	-0.147
784	-0.15
784	-0.152
784	-0.154
785	-0.155
785	-0.156
786	-0.156
786	-0.153
787	-0.148
787	-0.143
788	-0.142
788	-0.143
788	-0.144
789	-0.146
789	-0.145
790	-0.142
790	-0.141
791	-0.142
791	-0.143
791	-0.146
792	-0.141
792	-0.13
793	-0.124
793	-0.12
794	-0.119
794	-0.121
794	-0.125
795	-0.127
795	-0.127
796	-0.128
796	-0.131
797	-0.14
797	-0.151
797	-0.158
798	-0.163
798	-0.165
799	-0.166
799	-0.165
800	-0.164
800	-0.166
801	-0.169
801	-0.17
801	-0.17
802	-0.171
802	-0.173
803	-0.173
803	-0.174
804	-0.173
804	-0.168
804	-0.161
805	-0.157
805	-0.155
806	-0.153
806	-0.152
807	-0.151
807	-0.15
807	-0.15
808	-0.15
808	-0.151
809	-0.156
809	-0.162
810	-0.166
810	-0.169
810	-0.173
811	-0.176
811	-0.176
812	-0.172
812	-0.169
813	-0.169
813	-0.17
813	-0.17
814	-0.171
814	-0.17
815	-0.167
815	-0.163
816	-0.16
816	-0.16
817	-0.164
817	-0.166
817	-0.166
818	-0.166
818	-0.162
819	-0.157
819	-0.154
820	-0.156
820	-0.158
820	-0.16
821	-0.159
821	-0.157
822	-0.154
822	-0.15
823	-0.145
823	-0.143
823	-0.142
824	-0.138
824	-0.131
825	-0.121
825	-0.11
826	-0.1
826	-0.092
826	-0.086
827	-0.079
827	-0.072
828	-0.067
828	-0.062
829	-0.058
829	-0.054
829	-0.052
830	-0.05
830	-0.048
831	-0.043
831	-0.04
832	-0.037
832	-0.033
832	-0.03
833	-0.026
833	-0.022
834	-0.019
834	-0.016
835	-0.013
835	-0.011
835	-0.009
836	-0.008
836	-0.007
837	-0.006
837	-0.005
838	-0.005
838	-0.005
839	-0.005
839	-0.005
839	-0.005
840	-0.005
840	-0.004
841	-0.003
841	-0.002
842	-0.001
842	0
842	0.002
843	0.003
843	0.004
844	0.005
844	0.007
845	0.008
845	0.009
845	0.01
846	0.011
846	0.011
847	0.012
847	0.013
848	0.014
848	0.015
848	0.016
849	0.017
849	0.018
850	0.018
850	0.018
851	0.019
851	0.02
851	0.02
852	0.02
852	0.021
853	0.022
853	0.022
854	0.023
854	0.023
854	0.024
855	0.024
855	0.024
856	0.024
856	0.025
857	0.025
857	0.026
857	0.026
858	0.026
858	0.026
859	0.026
859	0.027
860	0.027
860	0.028
860	0.028
861	0.029
861	0.029
862	0.029
862	0.03
863	0.03
863	0.03
863	0.03
864	0.03
864	0.031
865	0.031
865	0.031
866	0.031
866	0.031
866	0.032
867	0.032
867	0.033
868	0.034
868	0.035
869	0.037
869	0.037
869	0.038
870	0.039
870	0.039
871	0.04
871	0.04
872	0.039
872	0.039
872	0.038
873	0.037
873	0.036
874	0.035
874	0.034
875	0.034
875	0.033
875	0.033
876	0.033
876	0.034
877	0.034
877	0.036
878	0.037
878	0.038
878	0.04
879	0.041
879	0.042
880	0.043
880	0.043
881	0.044
881	0.044
881	0.044
882	0.043
882	0.043
883	0.043
883	0.042
884	0.042
884	0.043
884	0.043
885	0.044
885	0.045
886	0.046
886	0.047
887	0.048
887	0.049
887	0.049
888	0.05
888	0.05
889	0.05
889	0.05
890	0.049
890	0.048
890	0.046
891	0.045
891	0.043
892	0.041
892	0.039
893	0.038
893	0.036
893	0.035
894	0.034
894	0.033
895	0.033
895	0.033
895	0.032
896	0.033
896	0.033
897	0.034
897	0.034
898	0.035
898	0.036
898	0.037
899	0.038
899	0.039
900	0.04
900	0.042
901	0.044
901	0.045
901	0.047
902	0.048
902	0.049
903	0.05
903	0.051
904	0.052
904	0.052
904	0.053
905	0.053
905	0.053
906	0.053
906	0.053
907	0.053
907	0.053
907	0.053
908	0.052
908	0.052
909	0.053
909	0.053
910	0.053
910	0.053
910	0.054
911	0.055
911	0.055
912	0.056
912	0.057
913	0.057
913	0.057
913	0.057
914	0.057
914	0.056
915	0.055
915	0.054
916	0.053
916	0.052
916	0.05
917	0.049
917	0.048
918	0.047
918	0.046
918	0.046
919	0.046
919	0.046
920	0.046
920	0.047
921	0.047
921	0.047
921	0.047
922	0.048
922	0.048
923	0.049
923	0.049
924	0.049
924	0.048
924	0.048
925	0.047
925	0.047
926	0.047
926	0.047
927	0.047
927	0.047
927	0.047
928	0.047
928	0.047
929	0.047
929	0.047
930	0.047
930	0.047
930	0.047
931	0.046
931	0.046
932	0.045
932	0.045
933	0.045
933	0.045
933	0.045
934	0.045
934	0.045
935	0.045
935	0.046
935	0.046
936	0.046
936	0.047
937	0.047
937	0.048
938	0.048
938	0.048
938	0.049
939	0.049
939	0.05
940	0.051
940	0.051
941	0.053
941	0.054
941	0.055
942	0.056
942	0.056
943	0.057
943	0.057
944	0.058
944	0.058
944	0.058
945	0.058
945	0.059
946	0.059
946	0.059
946	0.059
947	0.059
947	0.059
948	0.059
948	0.059
949	0.058
949	0.058
949	0.058
950	0.057
950	0.057
951	0.056
951	0.055
952	0.055
952	0.055
952	0.055
953	0.055
953	0.055
954	0.055
954	0.055
955	0.055
955	0.055
955	0.056
956	0.057
956	0.057
957	0.057
957	0.057
957	0.056
958	0.056
958	0.056
959	0.055
959	0.055
960	0.054
960	0.053
960	0.052
961	0.05
961	0.05
962	0.049
962	0.048
963	0.048
963	0.048
963	0.048
964	0.049
964	0.049
965	0.05
965	0.05
966	0.051
966	0.052
966	0.052
967	0.053
967	0.053
968	0.053
968	0.053
968	0.053
969	0.053
969	0.053
970	0.053
970	0.052
971	0.052
971	0.052
971	0.052
972	0.053
972	0.054
973	0.054
973	0.055
974	0.055
974	0.056
974	0.056
975	0.057
975	0.057
976	0.058
976	0.058
976	0.057
977	0.057
977	0.055
978	0.054
978	0.053
979	0.053
979	0.052
979	0.051
980	0.05
980	0.05
981	0.049
981	0.049
982	0.049
982	0.05
982	0.051
983	0.051
983	0.052
984	0.053
984	0.053
984	0.054
985	0.055
985	0.056
986	0.056
986	0.056
987	0.056
987	0.056
987	0.057
988	0.058
988	0.058
989	0.059
989	0.059
990	0.06
990	0.061
990	0.062
991	0.064
991	0.065
992	0.065
992	0.066
992	0.066
993	0.066
993	0.066
994	0.066
994	0.065
995	0.064
995	0.063
995	0.062
996	0.061
996	0.06
997	0.059
997	0.059
997	0.058
998	0.058
998	0.058
999	0.059
999	0.058
1000	0.059
1000	0.059
1000	0.059
1001	0.059
1001	0.059
1002	0.059
1002	0.059
1003	0.059
1003	0.059
1003	0.059
1004	0.059
1004	0.058
1005	0.057
1005	0.057
1005	0.056
1006	0.055
1006	0.055
1007	0.054
1007	0.053
1008	0.052
1008	0.051
1008	0.051
1009	0.051
1009	0.05
1010	0.05
1010	0.05
1010	0.05
1011	0.049
1011	0.049
1012	0.049
1012	0.049
1013	0.048
1013	0.047
1013	0.046
1014	0.046
1014	0.045
1015	0.044
1015	0.044
1016	0.043
1016	0.043
1016	0.043
1017	0.042
1017	0.043
1018	0.043
1018	0.044
1018	0.044
1019	0.045
1019	0.046
1020	0.046
1020	0.047
1021	0.047
1021	0.047
1021	0.048
1022	0.048
1022	0.048
1023	0.047
1023	0.047
1023	0.046
1024	0.045
1024	0.045
1025	0.044
1025	0.043
1026	0.042
1026	0.042
1026	0.041
1027	0.041
1027	0.042
1028	0.042
1028	0.042
1028	0.043
1029	0.043
1029	0.044
1030	0.044
1030	0.045
1031	0.045
1031	0.046
1031	0.046
1032	0.046
1032	0.046
1033	0.046
1033	0.046
1033	0.045
1034	0.044
1034	0.043
1035	0.043
1035	0.042
1036	0.042
1036	0.042
1036	0.042
1037	0.043
1037	0.043
1038	0.043
1038	0.044
1039	0.046
1039	0.047
1039	0.048
1040	0.049
1040	0.05
1041	0.05
1041	0.051
1041	0.051
1042	0.051
1042	0.052
1043	0.052
1043	0.052
1044	0.052
1044	0.053
1044	0.053
1045	0.054
1045	0.055
1046	0.055
1046	0.056
1046	0.058
1047	0.059
1047	0.061
1048	0.062
1048	0.063
1049	0.063
1049	0.064
1049	0.064
1050	0.064
1050	0.065
1051	0.065
1051	0.066
1051	0.066
1052	0.066
1052	0.066
1053	0.066
1053	0.066
1053	0.066
1054	0.066
1054	0.067
1055	0.067
1055	0.066
1056	0.065
1056	0.064
1056	0.064
1057	0.063
1057	0.064
1058	0.064
1058	0.065
1058	0.066
1059	0.066
1059	0.067
1060	0.068
1060	0.071
1061	0.073
1061	0.075
1061	0.077
1062	0.078
1062	0.079
1063	0.08
1063	0.081
1063	0.083
1064	0.084
1064	0.086
1065	0.087
1065	0.088
1066	0.089
1066	0.089
1066	0.09
1067	0.091
1067	0.092
1068	0.092
1068	0.092
1068	0.092
1069	0.092
1069	0.091
1070	0.092
1070	0.093
1071	0.095
1071	0.096
1071	0.097
1072	0.099
1072	0.101
1073	0.104
1073	0.107
1073	0.109
1074	0.112
1074	0.114
1075	0.116
1075	0.118
1076	0.12
1076	0.123
1076	0.124
1077	0.126
1077	0.128
1078	0.13
1078	0.133
1078	0.137
1079	0.14
1079	0.143
1080	0.146
1080	0.149
1080	0.151
1081	0.154
1081	0.158
1082	0.162
1082	0.166
1083	0.17
1083	0.173
1083	0.178
1084	0.183
1084	0.19
1085	0.196
1085	0.203
1085	0.21
1086	0.216
1086	0.221
1087	0.228
1087	0.235
1088	0.241
1088	0.248
1088	0.257
1089	0.264
1089	0.273
1090	0.283
1090	0.295
1090	0.308
1091	0.322
1091	0.339
1092	0.355
1092	0.376
1092	0.395
1093	0.414
1093	0.439
1094	0.463
1094	0.49
1095	0.519
1095	0.553
1095	0.597
1096	0.644
1096	0.698
1097	0.766
1097	0.847
1097	0.961
1098	1.11
1098	1.367
1099	2.164
1099	-0
1100	-0
1100	-0
1100	-0
1101	-0
1101	-0
1102	-0
1102	-0
1102	-0
1103	-0
1103	-0
1104	-0
1104	-0
1104	-0
1105	-0
1105	-0
1106	-0
1106	-0
1107	-0
1107	-0
1107	-0
1108	-0
1108	-0
1109	-0
1109	-0
1109	-0
1110	-0
1110	-0
1111	-0
1111	-0
