Data from 15c-2-5a_Absorbance__114__04390.txt Node

Date: Wed Jan 17 14:34:19 CET 2024
User: Marek
Spectrometer: MAYP115816
Trigger mode: 0
Integration Time (sec): 2.000000E-1
Scans to average: 10
Electric dark correction enabled: true
Nonlinearity correction enabled: true
Boxcar width: 5
XAxis mode: Wavelengths
Number of Pixels in Spectrum: 2068
>>>>>Begin Spectral Data<<<<<
199	-2.251
199	-2.103
200	-1.936
200	-1.808
201	-1.727
201	-1.676
202	-1.598
202	-1.539
203	-1.485
203	-1.438
204	-1.411
204	-1.386
205	-1.361
205	-1.351
205	-1.348
206	-1.346
206	-1.341
207	-1.339
207	-1.335
208	-1.332
208	-1.332
209	-1.327
209	-1.324
210	-1.323
210	-1.323
211	-1.321
211	-1.32
212	-1.32
212	-1.319
213	-1.317
213	-1.317
213	-1.315
214	-1.313
214	-1.312
215	-1.311
215	-1.309
216	-1.309
216	-1.305
217	-1.301
217	-1.298
218	-1.298
218	-1.294
219	-1.292
219	-1.29
220	-1.287
220	-1.282
221	-1.277
221	-1.273
221	-1.269
222	-1.265
222	-1.259
223	-1.253
223	-1.249
224	-1.243
224	-1.235
225	-1.227
225	-1.219
226	-1.209
226	-1.197
227	-1.183
227	-1.169
228	-1.152
228	-1.133
229	-1.11
229	-1.085
229	-1.057
230	-1.025
230	-0.992
231	-0.954
231	-0.915
232	-0.874
232	-0.829
233	-0.781
233	-0.731
234	-0.681
234	-0.63
235	-0.58
235	-0.529
236	-0.479
236	-0.431
236	-0.383
237	-0.337
237	-0.293
238	-0.25
238	-0.21
239	-0.172
239	-0.136
240	-0.102
240	-0.07
241	-0.041
241	-0.013
242	0.012
242	0.036
243	0.058
243	0.078
243	0.096
244	0.114
244	0.129
245	0.143
245	0.157
246	0.17
246	0.181
247	0.192
247	0.202
248	0.211
248	0.22
249	0.228
249	0.235
250	0.242
250	0.249
250	0.255
251	0.26
251	0.266
252	0.27
252	0.275
253	0.28
253	0.283
254	0.287
254	0.29
255	0.293
255	0.297
256	0.299
256	0.302
257	0.304
257	0.306
258	0.308
258	0.309
258	0.311
259	0.312
259	0.313
260	0.314
260	0.315
261	0.316
261	0.317
262	0.318
262	0.318
263	0.319
263	0.319
264	0.32
264	0.32
265	0.32
265	0.32
265	0.32
266	0.32
266	0.32
267	0.319
267	0.319
268	0.318
268	0.318
269	0.317
269	0.316
270	0.315
270	0.314
271	0.313
271	0.312
272	0.311
272	0.311
272	0.31
273	0.309
273	0.308
274	0.307
274	0.306
275	0.305
275	0.304
276	0.303
276	0.302
277	0.301
277	0.299
278	0.298
278	0.296
278	0.294
279	0.292
279	0.29
280	0.289
280	0.288
281	0.287
281	0.286
282	0.285
282	0.285
283	0.285
283	0.284
284	0.284
284	0.284
285	0.284
285	0.283
285	0.282
286	0.281
286	0.281
287	0.28
287	0.28
288	0.279
288	0.278
289	0.277
289	0.277
290	0.276
290	0.275
291	0.274
291	0.274
292	0.273
292	0.272
292	0.271
293	0.271
293	0.27
294	0.269
294	0.269
295	0.268
295	0.268
296	0.267
296	0.266
297	0.266
297	0.265
298	0.264
298	0.264
298	0.263
299	0.263
299	0.262
300	0.261
300	0.261
301	0.26
301	0.26
302	0.259
302	0.258
303	0.258
303	0.257
304	0.257
304	0.256
305	0.256
305	0.255
305	0.254
306	0.253
306	0.253
307	0.252
307	0.251
308	0.251
308	0.25
309	0.249
309	0.249
310	0.248
310	0.247
311	0.246
311	0.246
311	0.245
312	0.244
312	0.243
313	0.242
313	0.241
314	0.24
314	0.24
315	0.239
315	0.238
316	0.237
316	0.236
317	0.235
317	0.234
318	0.234
318	0.233
318	0.232
319	0.231
319	0.23
320	0.229
320	0.228
321	0.228
321	0.227
322	0.226
322	0.225
323	0.223
323	0.222
324	0.222
324	0.221
324	0.22
325	0.219
325	0.218
326	0.217
326	0.217
327	0.216
327	0.215
328	0.214
328	0.213
329	0.213
329	0.212
330	0.211
330	0.21
330	0.209
331	0.208
331	0.207
332	0.207
332	0.206
333	0.205
333	0.204
334	0.203
334	0.202
335	0.202
335	0.201
336	0.2
336	0.199
336	0.198
337	0.197
337	0.197
338	0.196
338	0.195
339	0.195
339	0.194
340	0.193
340	0.192
341	0.192
341	0.191
342	0.19
342	0.19
342	0.189
343	0.188
343	0.187
344	0.187
344	0.186
345	0.185
345	0.184
346	0.184
346	0.183
347	0.182
347	0.181
348	0.18
348	0.18
348	0.179
349	0.178
349	0.177
350	0.176
350	0.175
351	0.174
351	0.174
352	0.173
352	0.172
353	0.171
353	0.17
354	0.169
354	0.168
354	0.167
355	0.165
355	0.164
356	0.163
356	0.162
357	0.161
357	0.161
358	0.161
358	0.161
359	0.161
359	0.162
360	0.163
360	0.163
360	0.164
361	0.165
361	0.165
362	0.166
362	0.166
363	0.166
363	0.166
364	0.165
364	0.164
365	0.164
365	0.163
366	0.163
366	0.162
366	0.162
367	0.161
367	0.161
368	0.161
368	0.161
369	0.16
369	0.16
370	0.159
370	0.159
371	0.158
371	0.158
372	0.157
372	0.157
372	0.157
373	0.156
373	0.156
374	0.156
374	0.156
375	0.156
375	0.156
376	0.156
376	0.156
377	0.156
377	0.156
378	0.157
378	0.157
378	0.157
379	0.157
379	0.158
380	0.158
380	0.158
381	0.158
381	0.157
382	0.157
382	0.156
383	0.156
383	0.155
383	0.155
384	0.154
384	0.154
385	0.154
385	0.154
386	0.154
386	0.154
387	0.154
387	0.154
388	0.154
388	0.153
389	0.153
389	0.153
389	0.153
390	0.154
390	0.154
391	0.154
391	0.155
392	0.155
392	0.155
393	0.155
393	0.155
394	0.155
394	0.155
394	0.155
395	0.154
395	0.154
396	0.154
396	0.154
397	0.154
397	0.154
398	0.154
398	0.154
399	0.154
399	0.154
400	0.153
400	0.153
400	0.152
401	0.152
401	0.15
402	0.149
402	0.148
403	0.148
403	0.148
404	0.148
404	0.148
405	0.147
405	0.147
405	0.146
406	0.146
406	0.146
407	0.146
407	0.146
408	0.145
408	0.144
409	0.143
409	0.143
410	0.143
410	0.143
411	0.143
411	0.143
411	0.143
412	0.143
412	0.143
413	0.142
413	0.142
414	0.141
414	0.141
415	0.141
415	0.14
416	0.139
416	0.139
416	0.138
417	0.138
417	0.138
418	0.138
418	0.138
419	0.139
419	0.14
420	0.141
420	0.142
421	0.143
421	0.143
421	0.144
422	0.144
422	0.144
423	0.144
423	0.144
424	0.144
424	0.143
425	0.142
425	0.141
426	0.14
426	0.139
427	0.139
427	0.139
427	0.139
428	0.14
428	0.14
429	0.141
429	0.142
430	0.142
430	0.142
431	0.141
431	0.141
432	0.141
432	0.14
432	0.139
433	0.138
433	0.136
434	0.135
434	0.135
435	0.135
435	0.135
436	0.136
436	0.136
437	0.136
437	0.136
437	0.136
438	0.136
438	0.136
439	0.136
439	0.136
440	0.135
440	0.135
441	0.135
441	0.135
442	0.135
442	0.135
442	0.136
443	0.136
443	0.136
444	0.137
444	0.137
445	0.138
445	0.138
446	0.138
446	0.138
447	0.138
447	0.138
447	0.137
448	0.137
448	0.137
449	0.137
449	0.136
450	0.136
450	0.136
451	0.135
451	0.135
452	0.135
452	0.134
452	0.133
453	0.133
453	0.132
454	0.132
454	0.131
455	0.13
455	0.13
456	0.13
456	0.13
457	0.129
457	0.129
458	0.129
458	0.129
458	0.129
459	0.129
459	0.129
460	0.128
460	0.127
461	0.127
461	0.126
462	0.126
462	0.126
463	0.126
463	0.127
463	0.127
464	0.128
464	0.128
465	0.128
465	0.128
466	0.128
466	0.128
467	0.128
467	0.128
467	0.126
468	0.125
468	0.123
469	0.121
469	0.119
470	0.119
470	0.118
471	0.118
471	0.117
472	0.117
472	0.117
472	0.118
473	0.119
473	0.12
474	0.121
474	0.123
475	0.124
475	0.124
476	0.124
476	0.125
477	0.125
477	0.125
477	0.125
478	0.124
478	0.124
479	0.124
479	0.125
480	0.125
480	0.126
481	0.127
481	0.128
482	0.129
482	0.13
482	0.132
483	0.134
483	0.137
484	0.141
484	0.143
485	0.145
485	0.147
486	0.148
486	0.149
487	0.149
487	0.149
487	0.149
488	0.148
488	0.146
489	0.144
489	0.142
490	0.14
490	0.139
491	0.138
491	0.138
492	0.138
492	0.138
492	0.138
493	0.139
493	0.139
494	0.141
494	0.143
495	0.145
495	0.147
496	0.148
496	0.149
496	0.15
497	0.151
497	0.152
498	0.153
498	0.153
499	0.153
499	0.153
500	0.153
500	0.154
501	0.155
501	0.157
501	0.158
502	0.159
502	0.161
503	0.162
503	0.164
504	0.165
504	0.165
505	0.165
505	0.165
506	0.165
506	0.165
506	0.165
507	0.165
507	0.165
508	0.166
508	0.166
509	0.167
509	0.168
510	0.168
510	0.169
511	0.169
511	0.168
511	0.168
512	0.167
512	0.167
513	0.166
513	0.165
514	0.164
514	0.163
515	0.162
515	0.161
515	0.16
516	0.159
516	0.159
517	0.16
517	0.16
518	0.16
518	0.16
519	0.159
519	0.158
520	0.156
520	0.153
520	0.151
521	0.149
521	0.146
522	0.142
522	0.139
523	0.137
523	0.135
524	0.135
524	0.135
524	0.136
525	0.138
525	0.141
526	0.144
526	0.147
527	0.15
527	0.153
528	0.156
528	0.158
529	0.16
529	0.161
529	0.162
530	0.163
530	0.163
531	0.164
531	0.164
532	0.164
532	0.164
533	0.164
533	0.165
533	0.165
534	0.164
534	0.163
535	0.163
535	0.162
536	0.162
536	0.162
537	0.161
537	0.161
538	0.16
538	0.159
538	0.157
539	0.157
539	0.157
540	0.156
540	0.155
541	0.153
541	0.151
542	0.149
542	0.148
542	0.146
543	0.145
543	0.144
544	0.143
544	0.141
545	0.141
545	0.14
546	0.141
546	0.141
547	0.139
547	0.137
547	0.135
548	0.133
548	0.131
549	0.129
549	0.127
550	0.125
550	0.123
551	0.121
551	0.119
551	0.117
552	0.116
552	0.115
553	0.115
553	0.115
554	0.114
554	0.113
555	0.111
555	0.108
556	0.105
556	0.102
556	0.099
557	0.097
557	0.094
558	0.092
558	0.09
559	0.088
559	0.088
560	0.088
560	0.087
560	0.087
561	0.088
561	0.088
562	0.088
562	0.087
563	0.085
563	0.083
564	0.081
564	0.078
564	0.076
565	0.074
565	0.073
566	0.072
566	0.071
567	0.071
567	0.073
568	0.075
568	0.077
568	0.08
569	0.083
569	0.086
570	0.088
570	0.089
571	0.09
571	0.092
572	0.092
572	0.093
573	0.093
573	0.092
573	0.091
574	0.09
574	0.09
575	0.089
575	0.091
576	0.092
576	0.091
577	0.09
577	0.089
577	0.088
578	0.087
578	0.087
579	0.088
579	0.09
580	0.089
580	0.086
581	0.083
581	0.08
581	0.079
582	0.078
582	0.078
583	0.079
583	0.079
584	0.076
584	0.071
585	0.069
585	0.068
585	0.068
586	0.068
586	0.068
587	0.066
587	0.063
588	0.06
588	0.057
589	0.055
589	0.054
590	0.054
590	0.053
590	0.054
591	0.055
591	0.056
592	0.055
592	0.055
593	0.054
593	0.055
594	0.054
594	0.053
594	0.051
595	0.05
595	0.049
596	0.047
596	0.047
597	0.05
597	0.052
598	0.053
598	0.055
598	0.057
599	0.057
599	0.057
600	0.057
600	0.056
601	0.054
601	0.053
602	0.051
602	0.05
602	0.048
603	0.047
603	0.048
604	0.05
604	0.051
605	0.053
605	0.056
606	0.057
606	0.056
606	0.055
607	0.054
607	0.054
608	0.053
608	0.051
609	0.05
609	0.049
610	0.048
610	0.046
610	0.046
611	0.047
611	0.048
612	0.05
612	0.051
613	0.053
613	0.055
614	0.055
614	0.053
614	0.052
615	0.051
615	0.05
616	0.049
616	0.047
617	0.045
617	0.043
618	0.04
618	0.038
618	0.037
619	0.036
619	0.037
620	0.039
620	0.04
621	0.041
621	0.041
622	0.042
622	0.043
622	0.043
623	0.043
623	0.045
624	0.045
624	0.045
625	0.044
625	0.045
626	0.044
626	0.044
626	0.045
627	0.045
627	0.045
628	0.045
628	0.046
629	0.046
629	0.046
630	0.044
630	0.043
630	0.043
631	0.043
631	0.043
632	0.043
632	0.043
633	0.044
633	0.044
634	0.046
634	0.048
634	0.051
635	0.053
635	0.054
636	0.055
636	0.056
637	0.057
637	0.058
638	0.059
638	0.06
638	0.061
639	0.061
639	0.061
640	0.061
640	0.062
641	0.063
641	0.064
642	0.065
642	0.067
642	0.069
643	0.07
643	0.071
644	0.073
644	0.075
645	0.077
645	0.079
646	0.081
646	0.085
646	0.088
647	0.092
647	0.095
648	0.098
648	0.101
649	0.103
649	0.106
650	0.109
650	0.112
650	0.115
651	0.117
651	0.119
652	0.121
652	0.122
653	0.125
653	0.134
653	0.158
654	0.13
654	0.109
655	0.112
655	0.113
656	0.115
656	0.116
657	0.118
657	0.119
657	0.12
658	0.116
658	0.099
659	0.122
659	0.154
660	0.158
660	0.159
661	0.161
661	0.163
661	0.165
662	0.169
662	0.173
663	0.177
663	0.181
664	0.184
664	0.187
665	0.189
665	0.192
665	0.194
666	0.196
666	0.198
667	0.2
667	0.202
668	0.204
668	0.206
669	0.209
669	0.212
669	0.216
670	0.221
670	0.224
671	0.227
671	0.229
672	0.231
672	0.232
672	0.233
673	0.234
673	0.235
674	0.235
674	0.235
675	0.234
675	0.234
676	0.235
676	0.237
676	0.238
677	0.24
677	0.242
678	0.244
678	0.245
679	0.247
679	0.248
680	0.25
680	0.252
680	0.253
681	0.253
681	0.254
682	0.256
682	0.257
683	0.26
683	0.263
684	0.266
684	0.267
684	0.267
685	0.268
685	0.269
686	0.271
686	0.272
687	0.272
687	0.271
687	0.271
688	0.27
688	0.269
689	0.269
689	0.271
690	0.271
690	0.27
691	0.269
691	0.269
691	0.269
692	0.268
692	0.267
693	0.266
693	0.266
694	0.265
694	0.262
695	0.262
695	0.264
695	0.265
696	0.264
696	0.263
697	0.262
697	0.261
698	0.26
698	0.258
698	0.256
699	0.255
699	0.253
700	0.249
700	0.247
701	0.246
701	0.245
702	0.244
702	0.243
702	0.242
703	0.241
703	0.24
704	0.239
704	0.239
705	0.239
705	0.239
705	0.238
706	0.238
706	0.238
707	0.237
707	0.235
708	0.233
708	0.231
709	0.23
709	0.228
709	0.224
710	0.22
710	0.216
711	0.214
711	0.211
712	0.209
712	0.207
713	0.206
713	0.204
713	0.202
714	0.199
714	0.197
715	0.195
715	0.193
716	0.19
716	0.188
716	0.186
717	0.184
717	0.182
718	0.179
718	0.177
719	0.175
719	0.174
720	0.172
720	0.17
720	0.167
721	0.164
721	0.161
722	0.158
722	0.155
723	0.153
723	0.151
723	0.149
724	0.147
724	0.144
725	0.142
725	0.139
726	0.137
726	0.135
727	0.133
727	0.132
727	0.13
728	0.127
728	0.125
729	0.125
729	0.125
730	0.124
730	0.122
730	0.121
731	0.12
731	0.118
732	0.118
732	0.117
733	0.115
733	0.113
734	0.11
734	0.107
734	0.105
735	0.104
735	0.102
736	0.099
736	0.097
737	0.096
737	0.095
737	0.094
738	0.091
738	0.088
739	0.085
739	0.082
740	0.079
740	0.077
741	0.075
741	0.072
741	0.067
742	0.062
742	0.057
743	0.054
743	0.051
744	0.048
744	0.046
744	0.044
745	0.041
745	0.038
746	0.036
746	0.034
747	0.033
747	0.033
748	0.033
748	0.033
748	0.032
749	0.031
749	0.03
750	0.03
750	0.029
751	0.029
751	0.03
751	0.031
752	0.031
752	0.03
753	0.03
753	0.03
754	0.031
754	0.03
754	0.031
755	0.032
755	0.033
756	0.033
756	0.03
757	0.029
757	0.028
758	0.027
758	0.025
758	0.025
759	0.024
759	0.021
760	0.018
760	0.014
761	0.012
761	0.011
761	0.009
762	0.007
762	0.007
763	0.006
763	0.004
764	0.001
764	-0.002
764	-0.005
765	-0.008
765	-0.01
766	-0.012
766	-0.013
767	-0.014
767	-0.017
768	-0.022
768	-0.025
768	-0.026
769	-0.027
769	-0.027
770	-0.028
770	-0.03
771	-0.032
771	-0.036
771	-0.039
772	-0.042
772	-0.044
773	-0.047
773	-0.051
774	-0.055
774	-0.06
775	-0.063
775	-0.067
775	-0.071
776	-0.076
776	-0.081
777	-0.086
777	-0.091
778	-0.096
778	-0.102
778	-0.107
779	-0.111
779	-0.113
780	-0.118
780	-0.123
781	-0.127
781	-0.132
781	-0.135
782	-0.139
782	-0.143
783	-0.146
783	-0.147
784	-0.149
784	-0.152
784	-0.154
785	-0.154
785	-0.156
786	-0.156
786	-0.153
787	-0.147
787	-0.143
788	-0.142
788	-0.142
788	-0.144
789	-0.146
789	-0.145
790	-0.142
790	-0.141
791	-0.141
791	-0.143
791	-0.146
792	-0.14
792	-0.13
793	-0.124
793	-0.12
794	-0.118
794	-0.12
794	-0.125
795	-0.127
795	-0.127
796	-0.128
796	-0.131
797	-0.14
797	-0.151
797	-0.157
798	-0.163
798	-0.165
799	-0.166
799	-0.165
800	-0.164
800	-0.166
801	-0.169
801	-0.169
801	-0.17
802	-0.171
802	-0.172
803	-0.173
803	-0.174
804	-0.172
804	-0.167
804	-0.161
805	-0.157
805	-0.155
806	-0.153
806	-0.152
807	-0.151
807	-0.15
807	-0.15
808	-0.15
808	-0.151
809	-0.156
809	-0.162
810	-0.166
810	-0.169
810	-0.172
811	-0.176
811	-0.176
812	-0.172
812	-0.169
813	-0.169
813	-0.17
813	-0.17
814	-0.171
814	-0.17
815	-0.167
815	-0.163
816	-0.16
816	-0.16
817	-0.164
817	-0.166
817	-0.166
818	-0.165
818	-0.162
819	-0.156
819	-0.154
820	-0.155
820	-0.158
820	-0.159
821	-0.159
821	-0.158
822	-0.156
822	-0.153
823	-0.149
823	-0.148
823	-0.147
824	-0.144
824	-0.137
825	-0.128
825	-0.118
826	-0.108
826	-0.101
826	-0.094
827	-0.087
827	-0.08
828	-0.075
828	-0.07
829	-0.066
829	-0.062
829	-0.06
830	-0.059
830	-0.056
831	-0.052
831	-0.048
832	-0.045
832	-0.042
832	-0.038
833	-0.035
833	-0.031
834	-0.028
834	-0.025
835	-0.022
835	-0.02
835	-0.018
836	-0.016
836	-0.015
837	-0.014
837	-0.013
838	-0.013
838	-0.013
839	-0.013
839	-0.013
839	-0.013
840	-0.013
840	-0.012
841	-0.012
841	-0.011
842	-0.009
842	-0.008
842	-0.006
843	-0.005
843	-0.003
844	-0.001
844	0.001
845	0.002
845	0.004
845	0.005
846	0.006
846	0.007
847	0.007
847	0.008
848	0.009
848	0.009
848	0.009
849	0.01
849	0.01
850	0.01
850	0.01
851	0.01
851	0.011
851	0.012
852	0.012
852	0.013
853	0.014
853	0.015
854	0.016
854	0.016
854	0.017
855	0.018
855	0.018
856	0.018
856	0.018
857	0.019
857	0.019
857	0.019
858	0.018
858	0.018
859	0.018
859	0.018
860	0.018
860	0.019
860	0.019
861	0.02
861	0.02
862	0.02
862	0.021
863	0.021
863	0.022
863	0.022
864	0.022
864	0.022
865	0.023
865	0.023
866	0.023
866	0.023
866	0.024
867	0.025
867	0.026
868	0.027
868	0.028
869	0.029
869	0.03
869	0.031
870	0.032
870	0.032
871	0.032
871	0.032
872	0.032
872	0.031
872	0.03
873	0.029
873	0.027
874	0.026
874	0.025
875	0.024
875	0.024
875	0.023
876	0.023
876	0.024
877	0.025
877	0.026
878	0.027
878	0.029
878	0.031
879	0.032
879	0.033
880	0.034
880	0.034
881	0.035
881	0.035
881	0.035
882	0.035
882	0.035
883	0.034
883	0.034
884	0.034
884	0.034
884	0.034
885	0.035
885	0.036
886	0.037
886	0.038
887	0.039
887	0.039
887	0.04
888	0.04
888	0.04
889	0.041
889	0.041
890	0.041
890	0.04
890	0.039
891	0.037
891	0.036
892	0.034
892	0.033
893	0.032
893	0.031
893	0.03
894	0.029
894	0.028
895	0.027
895	0.027
895	0.026
896	0.026
896	0.026
897	0.026
897	0.026
898	0.027
898	0.027
898	0.028
899	0.029
899	0.03
900	0.031
900	0.032
901	0.034
901	0.035
901	0.037
902	0.038
902	0.038
903	0.039
903	0.039
904	0.04
904	0.04
904	0.04
905	0.04
905	0.041
906	0.041
906	0.041
907	0.041
907	0.041
907	0.041
908	0.041
908	0.041
909	0.041
909	0.041
910	0.042
910	0.042
910	0.042
911	0.043
911	0.043
912	0.044
912	0.045
913	0.045
913	0.046
913	0.045
914	0.045
914	0.044
915	0.043
915	0.042
916	0.041
916	0.04
916	0.038
917	0.037
917	0.036
918	0.035
918	0.035
918	0.035
919	0.035
919	0.035
920	0.036
920	0.037
921	0.038
921	0.038
921	0.039
922	0.04
922	0.04
923	0.041
923	0.041
924	0.041
924	0.04
924	0.04
925	0.039
925	0.038
926	0.038
926	0.037
927	0.037
927	0.036
927	0.036
928	0.036
928	0.035
929	0.035
929	0.035
930	0.035
930	0.035
930	0.035
931	0.034
931	0.034
932	0.034
932	0.033
933	0.033
933	0.033
933	0.033
934	0.034
934	0.034
935	0.034
935	0.035
935	0.035
936	0.036
936	0.037
937	0.038
937	0.039
938	0.039
938	0.04
938	0.041
939	0.042
939	0.042
940	0.043
940	0.043
941	0.044
941	0.045
941	0.045
942	0.046
942	0.047
943	0.047
943	0.047
944	0.048
944	0.048
944	0.049
945	0.05
945	0.05
946	0.051
946	0.051
946	0.051
947	0.051
947	0.051
948	0.051
948	0.051
949	0.05
949	0.05
949	0.05
950	0.05
950	0.049
951	0.049
951	0.049
952	0.048
952	0.049
952	0.049
953	0.049
953	0.049
954	0.049
954	0.049
955	0.049
955	0.048
955	0.048
956	0.049
956	0.049
957	0.048
957	0.047
957	0.046
958	0.045
958	0.045
959	0.044
959	0.043
960	0.043
960	0.042
960	0.041
961	0.04
961	0.039
962	0.039
962	0.038
963	0.038
963	0.038
963	0.038
964	0.039
964	0.039
965	0.04
965	0.041
966	0.042
966	0.043
966	0.044
967	0.045
967	0.045
968	0.046
968	0.046
968	0.047
969	0.047
969	0.048
970	0.048
970	0.048
971	0.048
971	0.048
971	0.048
972	0.048
972	0.049
973	0.049
973	0.049
974	0.049
974	0.049
974	0.049
975	0.049
975	0.05
976	0.05
976	0.05
976	0.049
977	0.048
977	0.047
978	0.046
978	0.045
979	0.044
979	0.043
979	0.043
980	0.042
980	0.041
981	0.04
981	0.04
982	0.041
982	0.041
982	0.042
983	0.043
983	0.044
984	0.045
984	0.046
984	0.047
985	0.048
985	0.049
986	0.049
986	0.049
987	0.05
987	0.05
987	0.051
988	0.051
988	0.052
989	0.052
989	0.052
990	0.053
990	0.053
990	0.055
991	0.056
991	0.056
992	0.057
992	0.057
992	0.058
993	0.058
993	0.058
994	0.058
994	0.058
995	0.057
995	0.057
995	0.056
996	0.055
996	0.054
997	0.054
997	0.053
997	0.053
998	0.052
998	0.052
999	0.052
999	0.052
1000	0.052
1000	0.052
1000	0.052
1001	0.052
1001	0.053
1002	0.053
1002	0.053
1003	0.053
1003	0.053
1003	0.053
1004	0.052
1004	0.052
1005	0.051
1005	0.051
1005	0.05
1006	0.049
1006	0.048
1007	0.046
1007	0.045
1008	0.044
1008	0.043
1008	0.042
1009	0.042
1009	0.041
1010	0.041
1010	0.04
1010	0.04
1011	0.04
1011	0.04
1012	0.04
1012	0.04
1013	0.039
1013	0.039
1013	0.038
1014	0.038
1014	0.037
1015	0.037
1015	0.036
1016	0.035
1016	0.035
1016	0.035
1017	0.034
1017	0.035
1018	0.035
1018	0.035
1018	0.036
1019	0.037
1019	0.038
1020	0.038
1020	0.039
1021	0.039
1021	0.04
1021	0.04
1022	0.04
1022	0.04
1023	0.04
1023	0.039
1023	0.038
1024	0.038
1024	0.037
1025	0.036
1025	0.035
1026	0.034
1026	0.034
1026	0.033
1027	0.033
1027	0.033
1028	0.034
1028	0.034
1028	0.035
1029	0.035
1029	0.036
1030	0.036
1030	0.037
1031	0.038
1031	0.038
1031	0.039
1032	0.039
1032	0.039
1033	0.039
1033	0.039
1033	0.038
1034	0.038
1034	0.037
1035	0.037
1035	0.036
1036	0.035
1036	0.035
1036	0.035
1037	0.035
1037	0.036
1038	0.036
1038	0.037
1039	0.038
1039	0.039
1039	0.04
1040	0.041
1040	0.042
1041	0.043
1041	0.043
1041	0.044
1042	0.043
1042	0.044
1043	0.044
1043	0.043
1044	0.044
1044	0.044
1044	0.045
1045	0.045
1045	0.046
1046	0.046
1046	0.048
1046	0.049
1047	0.051
1047	0.052
1048	0.054
1048	0.055
1049	0.055
1049	0.055
1049	0.055
1050	0.056
1050	0.056
1051	0.056
1051	0.057
1051	0.057
1052	0.058
1052	0.058
1053	0.058
1053	0.059
1053	0.059
1054	0.059
1054	0.06
1055	0.061
1055	0.061
1056	0.06
1056	0.06
1056	0.059
1057	0.059
1057	0.059
1058	0.06
1058	0.06
1058	0.062
1059	0.062
1059	0.063
1060	0.064
1060	0.066
1061	0.068
1061	0.07
1061	0.071
1062	0.072
1062	0.073
1063	0.074
1063	0.075
1063	0.076
1064	0.078
1064	0.079
1065	0.08
1065	0.081
1066	0.082
1066	0.083
1066	0.084
1067	0.085
1067	0.086
1068	0.087
1068	0.088
1068	0.088
1069	0.088
1069	0.087
1070	0.088
1070	0.089
1071	0.09
1071	0.091
1071	0.092
1072	0.094
1072	0.096
1073	0.098
1073	0.101
1073	0.104
1074	0.107
1074	0.11
1075	0.111
1075	0.114
1076	0.116
1076	0.119
1076	0.12
1077	0.122
1077	0.125
1078	0.127
1078	0.13
1078	0.133
1079	0.136
1079	0.139
1080	0.141
1080	0.144
1080	0.146
1081	0.15
1081	0.154
1082	0.157
1082	0.16
1083	0.164
1083	0.168
1083	0.173
1084	0.178
1084	0.184
1085	0.19
1085	0.196
1085	0.203
1086	0.208
1086	0.213
1087	0.219
1087	0.226
1088	0.231
1088	0.237
1088	0.245
1089	0.251
1089	0.26
1090	0.27
1090	0.282
1090	0.294
1091	0.308
1091	0.325
1092	0.342
1092	0.362
1092	0.383
1093	0.403
1093	0.431
1094	0.457
1094	0.484
1095	0.512
1095	0.549
1095	0.595
1096	0.641
1096	0.696
1097	0.765
1097	0.845
1097	0.959
1098	1.103
1098	1.349
1099	2.177
1099	-0
1100	-0
1100	-0
1100	-0
1101	-0
1101	-0
1102	-0
1102	-0
1102	-0
1103	-0
1103	-0
1104	-0
1104	-0
1104	-0
1105	-0
1105	-0
1106	-0
1106	-0
1107	-0
1107	-0
1107	-0
1108	-0
1108	-0
1109	-0
1109	-0
1109	-0
1110	-0
1110	-0
1111	-0
1111	-0
