Data from 15c-2-5a_Absorbance__990__05266.txt Node

Date: Wed Jan 17 15:03:31 CET 2024
User: Marek
Spectrometer: MAYP115816
Trigger mode: 0
Integration Time (sec): 2.000000E-1
Scans to average: 10
Electric dark correction enabled: true
Nonlinearity correction enabled: true
Boxcar width: 5
XAxis mode: Wavelengths
Number of Pixels in Spectrum: 2068
>>>>>Begin Spectral Data<<<<<
199	-2.264
199	-2.116
200	-1.949
200	-1.82
201	-1.739
201	-1.688
202	-1.61
202	-1.551
203	-1.497
203	-1.45
204	-1.422
204	-1.396
205	-1.372
205	-1.361
205	-1.358
206	-1.357
206	-1.352
207	-1.35
207	-1.345
208	-1.343
208	-1.342
209	-1.337
209	-1.335
210	-1.333
210	-1.334
211	-1.332
211	-1.33
212	-1.331
212	-1.329
213	-1.328
213	-1.326
213	-1.325
214	-1.324
214	-1.323
215	-1.322
215	-1.32
216	-1.319
216	-1.316
217	-1.311
217	-1.309
218	-1.308
218	-1.305
219	-1.302
219	-1.301
220	-1.297
220	-1.293
221	-1.287
221	-1.283
221	-1.279
222	-1.275
222	-1.27
223	-1.263
223	-1.259
224	-1.253
224	-1.245
225	-1.237
225	-1.229
226	-1.219
226	-1.207
227	-1.193
227	-1.178
228	-1.162
228	-1.142
229	-1.12
229	-1.095
229	-1.066
230	-1.035
230	-1.002
231	-0.964
231	-0.924
232	-0.882
232	-0.837
233	-0.789
233	-0.738
234	-0.687
234	-0.635
235	-0.584
235	-0.532
236	-0.481
236	-0.431
236	-0.382
237	-0.335
237	-0.289
238	-0.246
238	-0.204
239	-0.164
239	-0.126
240	-0.091
240	-0.057
241	-0.026
241	0.003
242	0.031
242	0.056
243	0.08
243	0.102
243	0.122
244	0.141
244	0.158
245	0.174
245	0.189
246	0.203
246	0.216
247	0.228
247	0.239
248	0.249
248	0.259
249	0.268
249	0.277
250	0.284
250	0.292
250	0.299
251	0.305
251	0.311
252	0.317
252	0.322
253	0.327
253	0.332
254	0.336
254	0.34
255	0.344
255	0.347
256	0.35
256	0.353
257	0.356
257	0.358
258	0.361
258	0.363
258	0.364
259	0.366
259	0.368
260	0.369
260	0.37
261	0.371
261	0.372
262	0.373
262	0.374
263	0.375
263	0.375
264	0.376
264	0.376
265	0.376
265	0.376
265	0.376
266	0.376
266	0.376
267	0.376
267	0.376
268	0.375
268	0.375
269	0.374
269	0.373
270	0.372
270	0.372
271	0.371
271	0.37
272	0.369
272	0.368
272	0.367
273	0.366
273	0.365
274	0.364
274	0.364
275	0.362
275	0.361
276	0.36
276	0.359
277	0.358
277	0.356
278	0.354
278	0.352
278	0.35
279	0.347
279	0.346
280	0.344
280	0.343
281	0.342
281	0.341
282	0.34
282	0.34
283	0.34
283	0.339
284	0.339
284	0.339
285	0.339
285	0.338
285	0.337
286	0.336
286	0.336
287	0.335
287	0.334
288	0.333
288	0.332
289	0.331
289	0.331
290	0.33
290	0.329
291	0.328
291	0.327
292	0.326
292	0.325
292	0.324
293	0.323
293	0.323
294	0.322
294	0.321
295	0.32
295	0.32
296	0.319
296	0.318
297	0.318
297	0.317
298	0.316
298	0.315
298	0.315
299	0.314
299	0.313
300	0.313
300	0.312
301	0.311
301	0.31
302	0.31
302	0.309
303	0.308
303	0.307
304	0.306
304	0.306
305	0.305
305	0.304
305	0.303
306	0.302
306	0.302
307	0.301
307	0.3
308	0.299
308	0.299
309	0.298
309	0.297
310	0.296
310	0.295
311	0.294
311	0.293
311	0.292
312	0.291
312	0.291
313	0.29
313	0.288
314	0.287
314	0.287
315	0.286
315	0.285
316	0.284
316	0.283
317	0.282
317	0.281
318	0.28
318	0.279
318	0.278
319	0.277
319	0.276
320	0.275
320	0.274
321	0.273
321	0.272
322	0.27
322	0.269
323	0.268
323	0.267
324	0.266
324	0.265
324	0.264
325	0.263
325	0.262
326	0.261
326	0.26
327	0.259
327	0.258
328	0.258
328	0.257
329	0.256
329	0.255
330	0.254
330	0.253
330	0.252
331	0.251
331	0.25
332	0.249
332	0.248
333	0.247
333	0.246
334	0.245
334	0.244
335	0.243
335	0.242
336	0.241
336	0.24
336	0.239
337	0.238
337	0.237
338	0.236
338	0.236
339	0.235
339	0.234
340	0.233
340	0.232
341	0.232
341	0.231
342	0.23
342	0.229
342	0.229
343	0.228
343	0.227
344	0.226
344	0.226
345	0.225
345	0.224
346	0.223
346	0.222
347	0.221
347	0.22
348	0.219
348	0.219
348	0.218
349	0.217
349	0.216
350	0.215
350	0.214
351	0.213
351	0.212
352	0.211
352	0.21
353	0.209
353	0.207
354	0.206
354	0.205
354	0.204
355	0.202
355	0.201
356	0.2
356	0.199
357	0.198
357	0.197
358	0.197
358	0.198
359	0.198
359	0.199
360	0.2
360	0.201
360	0.201
361	0.202
361	0.203
362	0.203
362	0.203
363	0.203
363	0.203
364	0.202
364	0.201
365	0.201
365	0.2
366	0.199
366	0.199
366	0.198
367	0.198
367	0.198
368	0.197
368	0.197
369	0.196
369	0.196
370	0.195
370	0.195
371	0.194
371	0.194
372	0.193
372	0.193
372	0.192
373	0.192
373	0.192
374	0.192
374	0.191
375	0.191
375	0.191
376	0.191
376	0.191
377	0.191
377	0.192
378	0.192
378	0.192
378	0.193
379	0.193
379	0.193
380	0.193
380	0.193
381	0.193
381	0.193
382	0.192
382	0.192
383	0.191
383	0.191
383	0.19
384	0.19
384	0.189
385	0.189
385	0.188
386	0.188
386	0.188
387	0.188
387	0.188
388	0.188
388	0.188
389	0.188
389	0.188
389	0.188
390	0.188
390	0.188
391	0.189
391	0.189
392	0.189
392	0.189
393	0.189
393	0.189
394	0.189
394	0.189
394	0.189
395	0.189
395	0.188
396	0.188
396	0.188
397	0.188
397	0.188
398	0.188
398	0.188
399	0.188
399	0.188
400	0.187
400	0.187
400	0.186
401	0.185
401	0.184
402	0.183
402	0.182
403	0.181
403	0.181
404	0.181
404	0.181
405	0.18
405	0.18
405	0.179
406	0.179
406	0.179
407	0.179
407	0.178
408	0.178
408	0.177
409	0.176
409	0.175
410	0.175
410	0.175
411	0.176
411	0.176
411	0.175
412	0.175
412	0.175
413	0.174
413	0.174
414	0.174
414	0.174
415	0.173
415	0.173
416	0.172
416	0.171
416	0.171
417	0.17
417	0.17
418	0.17
418	0.171
419	0.171
419	0.172
420	0.173
420	0.174
421	0.174
421	0.175
421	0.175
422	0.176
422	0.176
423	0.176
423	0.176
424	0.175
424	0.174
425	0.173
425	0.172
426	0.171
426	0.171
427	0.17
427	0.17
427	0.171
428	0.171
428	0.172
429	0.173
429	0.174
430	0.174
430	0.174
431	0.174
431	0.173
432	0.173
432	0.172
432	0.171
433	0.169
433	0.168
434	0.167
434	0.166
435	0.166
435	0.167
436	0.167
436	0.167
437	0.167
437	0.168
437	0.168
438	0.168
438	0.167
439	0.167
439	0.167
440	0.166
440	0.166
441	0.166
441	0.166
442	0.166
442	0.166
442	0.167
443	0.167
443	0.168
444	0.168
444	0.168
445	0.169
445	0.169
446	0.169
446	0.169
447	0.168
447	0.168
447	0.168
448	0.168
448	0.167
449	0.167
449	0.167
450	0.166
450	0.166
451	0.166
451	0.165
452	0.164
452	0.164
452	0.163
453	0.162
453	0.162
454	0.161
454	0.16
455	0.16
455	0.16
456	0.159
456	0.159
457	0.159
457	0.159
458	0.159
458	0.158
458	0.159
459	0.159
459	0.159
460	0.158
460	0.157
461	0.156
461	0.156
462	0.155
462	0.156
463	0.156
463	0.156
463	0.157
464	0.157
464	0.157
465	0.158
465	0.158
466	0.158
466	0.158
467	0.158
467	0.157
467	0.156
468	0.155
468	0.152
469	0.15
469	0.149
470	0.148
470	0.147
471	0.146
471	0.146
472	0.146
472	0.146
472	0.147
473	0.148
473	0.15
474	0.151
474	0.152
475	0.153
475	0.154
476	0.154
476	0.154
477	0.154
477	0.154
477	0.154
478	0.154
478	0.154
479	0.154
479	0.154
480	0.155
480	0.156
481	0.157
481	0.158
482	0.159
482	0.16
482	0.162
483	0.165
483	0.168
484	0.172
484	0.175
485	0.177
485	0.178
486	0.18
486	0.181
487	0.181
487	0.181
487	0.181
488	0.18
488	0.178
489	0.176
489	0.173
490	0.172
490	0.17
491	0.169
491	0.169
492	0.17
492	0.17
492	0.17
493	0.17
493	0.171
494	0.173
494	0.175
495	0.178
495	0.179
496	0.18
496	0.181
496	0.182
497	0.184
497	0.185
498	0.186
498	0.186
499	0.186
499	0.186
500	0.186
500	0.188
501	0.189
501	0.191
501	0.192
502	0.194
502	0.196
503	0.197
503	0.199
504	0.199
504	0.199
505	0.199
505	0.2
506	0.2
506	0.2
506	0.2
507	0.2
507	0.199
508	0.2
508	0.201
509	0.202
509	0.203
510	0.203
510	0.203
511	0.203
511	0.203
511	0.203
512	0.203
512	0.203
513	0.202
513	0.2
514	0.198
514	0.196
515	0.196
515	0.195
515	0.195
516	0.194
516	0.194
517	0.194
517	0.194
518	0.193
518	0.192
519	0.19
519	0.188
520	0.184
520	0.181
520	0.178
521	0.175
521	0.172
522	0.169
522	0.169
523	0.169
523	0.171
524	0.173
524	0.176
524	0.179
525	0.182
525	0.186
526	0.188
526	0.191
527	0.194
527	0.195
528	0.197
528	0.198
529	0.198
529	0.199
529	0.199
530	0.199
530	0.199
531	0.199
531	0.2
532	0.199
532	0.199
533	0.199
533	0.2
533	0.199
534	0.199
534	0.198
535	0.197
535	0.197
536	0.197
536	0.196
537	0.196
537	0.195
538	0.194
538	0.193
538	0.191
539	0.191
539	0.19
540	0.189
540	0.188
541	0.186
541	0.184
542	0.182
542	0.18
542	0.178
543	0.177
543	0.176
544	0.174
544	0.173
545	0.172
545	0.172
546	0.172
546	0.172
547	0.17
547	0.168
547	0.165
548	0.163
548	0.16
549	0.158
549	0.156
550	0.154
550	0.151
551	0.148
551	0.146
551	0.144
552	0.143
552	0.142
553	0.141
553	0.141
554	0.14
554	0.139
555	0.137
555	0.134
556	0.13
556	0.127
556	0.124
557	0.121
557	0.118
558	0.116
558	0.113
559	0.112
559	0.111
560	0.111
560	0.11
560	0.11
561	0.11
561	0.111
562	0.111
562	0.11
563	0.108
563	0.106
564	0.103
564	0.1
564	0.097
565	0.095
565	0.094
566	0.092
566	0.091
567	0.091
567	0.092
568	0.094
568	0.096
568	0.099
569	0.102
569	0.105
570	0.107
570	0.108
571	0.109
571	0.111
572	0.111
572	0.112
573	0.112
573	0.111
573	0.11
574	0.109
574	0.108
575	0.108
575	0.109
576	0.11
576	0.11
577	0.108
577	0.107
577	0.106
578	0.105
578	0.105
579	0.106
579	0.108
580	0.107
580	0.104
581	0.1
581	0.097
581	0.096
582	0.095
582	0.094
583	0.095
583	0.094
584	0.091
584	0.086
585	0.083
585	0.083
585	0.083
586	0.082
586	0.082
587	0.08
587	0.077
588	0.074
588	0.071
589	0.069
589	0.068
590	0.067
590	0.066
590	0.067
591	0.068
591	0.068
592	0.068
592	0.067
593	0.067
593	0.067
594	0.066
594	0.065
594	0.064
595	0.063
595	0.061
596	0.059
596	0.06
597	0.062
597	0.065
598	0.066
598	0.068
598	0.07
599	0.071
599	0.071
600	0.07
600	0.069
601	0.068
601	0.067
602	0.064
602	0.063
602	0.062
603	0.06
603	0.061
604	0.062
604	0.064
605	0.066
605	0.068
606	0.069
606	0.068
606	0.067
607	0.066
607	0.066
608	0.065
608	0.063
609	0.061
609	0.06
610	0.059
610	0.056
610	0.056
611	0.057
611	0.058
612	0.06
612	0.062
613	0.064
613	0.066
614	0.066
614	0.065
614	0.064
615	0.064
615	0.062
616	0.061
616	0.06
617	0.058
617	0.056
618	0.053
618	0.051
618	0.049
619	0.049
619	0.049
620	0.051
620	0.053
621	0.053
621	0.054
622	0.055
622	0.056
622	0.057
623	0.057
623	0.058
624	0.06
624	0.059
625	0.059
625	0.059
626	0.059
626	0.059
626	0.059
627	0.06
627	0.06
628	0.061
628	0.061
629	0.061
629	0.061
630	0.06
630	0.058
630	0.058
631	0.059
631	0.059
632	0.059
632	0.059
633	0.06
633	0.061
634	0.063
634	0.065
634	0.068
635	0.07
635	0.072
636	0.074
636	0.075
637	0.076
637	0.077
638	0.078
638	0.079
638	0.08
639	0.08
639	0.08
640	0.081
640	0.082
641	0.083
641	0.084
642	0.086
642	0.088
642	0.09
643	0.092
643	0.093
644	0.095
644	0.098
645	0.1
645	0.102
646	0.105
646	0.108
646	0.113
647	0.117
647	0.121
648	0.124
648	0.126
649	0.129
649	0.132
650	0.136
650	0.139
650	0.142
651	0.144
651	0.146
652	0.148
652	0.15
653	0.153
653	0.163
653	0.188
654	0.153
654	0.127
655	0.131
655	0.133
656	0.135
656	0.137
657	0.139
657	0.14
657	0.141
658	0.138
658	0.119
659	0.148
659	0.19
660	0.192
660	0.194
661	0.196
661	0.198
661	0.2
662	0.204
662	0.208
663	0.212
663	0.216
664	0.219
664	0.222
665	0.225
665	0.228
665	0.231
666	0.233
666	0.236
667	0.238
667	0.24
668	0.243
668	0.245
669	0.248
669	0.252
669	0.257
670	0.262
670	0.266
671	0.268
671	0.27
672	0.272
672	0.274
672	0.275
673	0.276
673	0.277
674	0.278
674	0.277
675	0.276
675	0.276
676	0.277
676	0.279
676	0.28
677	0.282
677	0.284
678	0.286
678	0.288
679	0.289
679	0.291
680	0.293
680	0.295
680	0.296
681	0.296
681	0.297
682	0.298
682	0.299
683	0.301
683	0.304
684	0.307
684	0.308
684	0.309
685	0.309
685	0.311
686	0.312
686	0.313
687	0.313
687	0.312
687	0.312
688	0.311
688	0.309
689	0.31
689	0.311
690	0.312
690	0.311
691	0.311
691	0.311
691	0.31
692	0.31
692	0.308
693	0.307
693	0.308
694	0.306
694	0.303
695	0.303
695	0.304
695	0.305
696	0.304
696	0.303
697	0.302
697	0.301
698	0.3
698	0.298
698	0.296
699	0.295
699	0.293
700	0.289
700	0.287
701	0.286
701	0.284
702	0.283
702	0.281
702	0.28
703	0.278
703	0.277
704	0.275
704	0.275
705	0.275
705	0.274
705	0.273
706	0.273
706	0.272
707	0.271
707	0.269
708	0.266
708	0.264
709	0.262
709	0.259
709	0.255
710	0.25
710	0.246
711	0.243
711	0.24
712	0.238
712	0.235
713	0.233
713	0.231
713	0.229
714	0.226
714	0.224
715	0.222
715	0.219
716	0.216
716	0.215
716	0.212
717	0.21
717	0.208
718	0.205
718	0.201
719	0.199
719	0.198
720	0.195
720	0.193
720	0.19
721	0.187
721	0.183
722	0.181
722	0.177
723	0.175
723	0.174
723	0.172
724	0.17
724	0.168
725	0.165
725	0.163
726	0.162
726	0.16
727	0.158
727	0.156
727	0.154
728	0.152
728	0.149
729	0.149
729	0.148
730	0.146
730	0.144
730	0.142
731	0.14
731	0.138
732	0.137
732	0.135
733	0.133
733	0.131
734	0.128
734	0.124
734	0.122
735	0.12
735	0.118
736	0.115
736	0.113
737	0.112
737	0.111
737	0.11
738	0.107
738	0.104
739	0.101
739	0.099
740	0.095
740	0.093
741	0.091
741	0.088
741	0.083
742	0.077
742	0.072
743	0.068
743	0.065
744	0.062
744	0.059
744	0.056
745	0.053
745	0.049
746	0.047
746	0.045
747	0.043
747	0.043
748	0.043
748	0.043
748	0.042
749	0.04
749	0.04
750	0.039
750	0.039
751	0.039
751	0.039
751	0.039
752	0.039
752	0.038
753	0.038
753	0.038
754	0.038
754	0.038
754	0.039
755	0.04
755	0.042
756	0.042
756	0.04
757	0.038
757	0.038
758	0.037
758	0.036
758	0.036
759	0.035
759	0.032
760	0.029
760	0.025
761	0.023
761	0.022
761	0.02
762	0.018
762	0.017
763	0.016
763	0.013
764	0.009
764	0.005
764	0.002
765	-0.001
765	-0.004
766	-0.007
766	-0.008
767	-0.009
767	-0.013
768	-0.017
768	-0.02
768	-0.022
769	-0.022
769	-0.023
770	-0.024
770	-0.026
771	-0.028
771	-0.032
771	-0.035
772	-0.038
772	-0.041
773	-0.044
773	-0.047
774	-0.051
774	-0.055
775	-0.059
775	-0.063
775	-0.067
776	-0.071
776	-0.075
777	-0.079
777	-0.082
778	-0.087
778	-0.092
778	-0.097
779	-0.1
779	-0.103
780	-0.108
780	-0.114
781	-0.119
781	-0.124
781	-0.129
782	-0.134
782	-0.14
783	-0.144
783	-0.146
784	-0.149
784	-0.152
784	-0.153
785	-0.154
785	-0.156
786	-0.155
786	-0.152
787	-0.147
787	-0.143
788	-0.141
788	-0.142
788	-0.143
789	-0.145
789	-0.145
790	-0.142
790	-0.14
791	-0.141
791	-0.143
791	-0.146
792	-0.14
792	-0.129
793	-0.123
793	-0.12
794	-0.118
794	-0.12
794	-0.124
795	-0.127
795	-0.127
796	-0.128
796	-0.131
797	-0.14
797	-0.151
797	-0.157
798	-0.162
798	-0.165
799	-0.165
799	-0.165
800	-0.164
800	-0.165
801	-0.168
801	-0.169
801	-0.169
802	-0.171
802	-0.172
803	-0.173
803	-0.173
804	-0.172
804	-0.167
804	-0.161
805	-0.157
805	-0.155
806	-0.153
806	-0.151
807	-0.15
807	-0.15
807	-0.15
808	-0.15
808	-0.151
809	-0.156
809	-0.162
810	-0.165
810	-0.168
810	-0.172
811	-0.175
811	-0.176
812	-0.172
812	-0.169
813	-0.169
813	-0.169
813	-0.17
814	-0.17
814	-0.17
815	-0.166
815	-0.163
816	-0.16
816	-0.16
817	-0.163
817	-0.166
817	-0.166
818	-0.165
818	-0.161
819	-0.156
819	-0.153
820	-0.155
820	-0.157
820	-0.159
821	-0.159
821	-0.158
822	-0.158
822	-0.157
823	-0.155
823	-0.155
823	-0.156
824	-0.154
824	-0.149
825	-0.141
825	-0.132
826	-0.123
826	-0.116
826	-0.108
827	-0.1
827	-0.093
828	-0.086
828	-0.081
829	-0.075
829	-0.07
829	-0.067
830	-0.065
830	-0.062
831	-0.057
831	-0.052
832	-0.049
832	-0.045
832	-0.041
833	-0.037
833	-0.034
834	-0.03
834	-0.027
835	-0.024
835	-0.021
835	-0.019
836	-0.017
836	-0.015
837	-0.014
837	-0.012
838	-0.011
838	-0.011
839	-0.01
839	-0.01
839	-0.01
840	-0.009
840	-0.009
841	-0.008
841	-0.008
842	-0.007
842	-0.006
842	-0.005
843	-0.004
843	-0.002
844	-0
844	0.001
845	0.003
845	0.005
845	0.007
846	0.008
846	0.008
847	0.009
847	0.01
848	0.011
848	0.011
848	0.011
849	0.012
849	0.012
850	0.012
850	0.012
851	0.013
851	0.014
851	0.015
852	0.015
852	0.016
853	0.017
853	0.018
854	0.019
854	0.019
854	0.02
855	0.02
855	0.02
856	0.02
856	0.02
857	0.02
857	0.02
857	0.02
858	0.02
858	0.02
859	0.02
859	0.02
860	0.021
860	0.021
860	0.022
861	0.022
861	0.023
862	0.023
862	0.023
863	0.024
863	0.024
863	0.025
864	0.025
864	0.025
865	0.026
865	0.026
866	0.026
866	0.025
866	0.026
867	0.026
867	0.027
868	0.027
868	0.027
869	0.028
869	0.028
869	0.028
870	0.028
870	0.029
871	0.029
871	0.029
872	0.029
872	0.028
872	0.027
873	0.026
873	0.025
874	0.024
874	0.024
875	0.024
875	0.024
875	0.024
876	0.024
876	0.025
877	0.026
877	0.028
878	0.029
878	0.031
878	0.033
879	0.034
879	0.035
880	0.036
880	0.037
881	0.037
881	0.037
881	0.037
882	0.036
882	0.035
883	0.034
883	0.034
884	0.033
884	0.033
884	0.033
885	0.034
885	0.034
886	0.035
886	0.036
887	0.037
887	0.037
887	0.037
888	0.037
888	0.037
889	0.037
889	0.037
890	0.037
890	0.036
890	0.035
891	0.034
891	0.033
892	0.033
892	0.032
893	0.032
893	0.032
893	0.032
894	0.032
894	0.031
895	0.032
895	0.032
895	0.032
896	0.032
896	0.032
897	0.032
897	0.032
898	0.033
898	0.033
898	0.033
899	0.033
899	0.034
900	0.034
900	0.035
901	0.036
901	0.037
901	0.037
902	0.038
902	0.039
903	0.039
903	0.039
904	0.039
904	0.039
904	0.039
905	0.039
905	0.038
906	0.038
906	0.038
907	0.038
907	0.038
907	0.038
908	0.038
908	0.039
909	0.039
909	0.04
910	0.041
910	0.042
910	0.043
911	0.044
911	0.045
912	0.047
912	0.048
913	0.048
913	0.048
913	0.048
914	0.048
914	0.047
915	0.046
915	0.045
916	0.044
916	0.043
916	0.041
917	0.04
917	0.038
918	0.037
918	0.037
918	0.037
919	0.036
919	0.037
920	0.037
920	0.038
921	0.038
921	0.038
921	0.039
922	0.04
922	0.04
923	0.04
923	0.04
924	0.04
924	0.04
924	0.039
925	0.039
925	0.038
926	0.038
926	0.037
927	0.036
927	0.036
927	0.035
928	0.035
928	0.035
929	0.035
929	0.035
930	0.035
930	0.035
930	0.035
931	0.035
931	0.035
932	0.035
932	0.035
933	0.035
933	0.035
933	0.035
934	0.036
934	0.036
935	0.037
935	0.037
935	0.038
936	0.039
936	0.039
937	0.04
937	0.041
938	0.042
938	0.042
938	0.043
939	0.044
939	0.045
940	0.045
940	0.046
941	0.047
941	0.048
941	0.049
942	0.05
942	0.051
943	0.051
943	0.052
944	0.052
944	0.052
944	0.053
945	0.053
945	0.053
946	0.054
946	0.054
946	0.054
947	0.054
947	0.054
948	0.054
948	0.054
949	0.054
949	0.054
949	0.054
950	0.054
950	0.054
951	0.054
951	0.054
952	0.054
952	0.055
952	0.056
953	0.056
953	0.057
954	0.057
954	0.057
955	0.056
955	0.056
955	0.056
956	0.056
956	0.055
957	0.054
957	0.053
957	0.052
958	0.051
958	0.05
959	0.049
959	0.048
960	0.047
960	0.046
960	0.045
961	0.044
961	0.043
962	0.043
962	0.043
963	0.043
963	0.043
963	0.043
964	0.044
964	0.045
965	0.045
965	0.046
966	0.047
966	0.048
966	0.048
967	0.049
967	0.05
968	0.05
968	0.051
968	0.051
969	0.052
969	0.053
970	0.053
970	0.053
971	0.054
971	0.054
971	0.054
972	0.054
972	0.055
973	0.055
973	0.055
974	0.055
974	0.055
974	0.055
975	0.055
975	0.055
976	0.055
976	0.055
976	0.055
977	0.054
977	0.053
978	0.052
978	0.051
979	0.05
979	0.049
979	0.048
980	0.046
980	0.045
981	0.044
981	0.043
982	0.043
982	0.043
982	0.043
983	0.043
983	0.043
984	0.044
984	0.044
984	0.045
985	0.046
985	0.047
986	0.047
986	0.047
987	0.048
987	0.049
987	0.049
988	0.05
988	0.051
989	0.051
989	0.052
990	0.052
990	0.053
990	0.054
991	0.055
991	0.056
992	0.056
992	0.057
992	0.058
993	0.058
993	0.058
994	0.058
994	0.058
995	0.058
995	0.057
995	0.057
996	0.056
996	0.055
997	0.055
997	0.054
997	0.054
998	0.054
998	0.055
999	0.055
999	0.055
1000	0.055
1000	0.055
1000	0.056
1001	0.056
1001	0.056
1002	0.056
1002	0.056
1003	0.055
1003	0.055
1003	0.054
1004	0.054
1004	0.053
1005	0.052
1005	0.051
1005	0.05
1006	0.048
1006	0.047
1007	0.046
1007	0.045
1008	0.044
1008	0.044
1008	0.043
1009	0.043
1009	0.043
1010	0.043
1010	0.043
1010	0.043
1011	0.043
1011	0.043
1012	0.044
1012	0.044
1013	0.044
1013	0.044
1013	0.043
1014	0.042
1014	0.042
1015	0.041
1015	0.041
1016	0.04
1016	0.04
1016	0.039
1017	0.039
1017	0.039
1018	0.039
1018	0.04
1018	0.04
1019	0.041
1019	0.041
1020	0.042
1020	0.042
1021	0.042
1021	0.042
1021	0.043
1022	0.043
1022	0.043
1023	0.043
1023	0.042
1023	0.042
1024	0.042
1024	0.041
1025	0.041
1025	0.041
1026	0.04
1026	0.04
1026	0.04
1027	0.039
1027	0.04
1028	0.04
1028	0.04
1028	0.04
1029	0.041
1029	0.041
1030	0.041
1030	0.042
1031	0.042
1031	0.043
1031	0.043
1032	0.043
1032	0.043
1033	0.042
1033	0.042
1033	0.041
1034	0.04
1034	0.039
1035	0.038
1035	0.037
1036	0.037
1036	0.037
1036	0.037
1037	0.037
1037	0.037
1038	0.037
1038	0.038
1039	0.04
1039	0.041
1039	0.042
1040	0.043
1040	0.044
1041	0.044
1041	0.045
1041	0.045
1042	0.045
1042	0.045
1043	0.045
1043	0.045
1044	0.045
1044	0.045
1044	0.046
1045	0.047
1045	0.047
1046	0.048
1046	0.049
1046	0.05
1047	0.051
1047	0.053
1048	0.055
1048	0.056
1049	0.057
1049	0.057
1049	0.058
1050	0.059
1050	0.059
1051	0.06
1051	0.061
1051	0.061
1052	0.062
1052	0.063
1053	0.063
1053	0.064
1053	0.065
1054	0.065
1054	0.066
1055	0.067
1055	0.067
1056	0.067
1056	0.067
1056	0.066
1057	0.066
1057	0.067
1058	0.067
1058	0.067
1058	0.069
1059	0.069
1059	0.07
1060	0.071
1060	0.073
1061	0.075
1061	0.077
1061	0.079
1062	0.08
1062	0.081
1063	0.082
1063	0.083
1063	0.085
1064	0.086
1064	0.087
1065	0.088
1065	0.089
1066	0.09
1066	0.091
1066	0.092
1067	0.093
1067	0.094
1068	0.094
1068	0.095
1068	0.095
1069	0.096
1069	0.096
1070	0.096
1070	0.097
1071	0.099
1071	0.1
1071	0.102
1072	0.104
1072	0.107
1073	0.109
1073	0.112
1073	0.114
1074	0.117
1074	0.12
1075	0.122
1075	0.124
1076	0.126
1076	0.129
1076	0.13
1077	0.132
1077	0.135
1078	0.137
1078	0.141
1078	0.144
1079	0.147
1079	0.151
1080	0.154
1080	0.158
1080	0.161
1081	0.165
1081	0.169
1082	0.174
1082	0.178
1083	0.182
1083	0.188
1083	0.193
1084	0.199
1084	0.206
1085	0.213
1085	0.219
1085	0.227
1086	0.233
1086	0.238
1087	0.245
1087	0.252
1088	0.257
1088	0.263
1088	0.272
1089	0.278
1089	0.287
1090	0.298
1090	0.309
1090	0.323
1091	0.338
1091	0.356
1092	0.373
1092	0.396
1092	0.417
1093	0.438
1093	0.467
1094	0.495
1094	0.523
1095	0.557
1095	0.595
1095	0.644
1096	0.695
1096	0.758
1097	0.839
1097	0.932
1097	1.074
1098	1.274
1098	1.746
1099	-0
1099	-0
1100	-0
1100	-0
1100	-0
1101	-0
1101	-0
1102	-0
1102	-0
1102	-0
1103	-0
1103	-0
1104	-0
1104	-0
1104	-0
1105	-0
1105	-0
1106	-0
1106	-0
1107	-0
1107	-0
1107	-0
1108	-0
1108	-0
1109	-0
1109	-0
1109	-0
1110	-0
1110	-0
1111	-0
1111	-0
