Data from 15c-2-5a_Absorbance__369__04645.txt Node

Date: Wed Jan 17 14:42:49 CET 2024
User: Marek
Spectrometer: MAYP115816
Trigger mode: 0
Integration Time (sec): 2.000000E-1
Scans to average: 10
Electric dark correction enabled: true
Nonlinearity correction enabled: true
Boxcar width: 5
XAxis mode: Wavelengths
Number of Pixels in Spectrum: 2068
>>>>>Begin Spectral Data<<<<<
199	-2.255
199	-2.106
200	-1.94
200	-1.811
201	-1.731
201	-1.679
202	-1.601
202	-1.541
203	-1.488
203	-1.441
204	-1.414
204	-1.388
205	-1.364
205	-1.353
205	-1.35
206	-1.349
206	-1.344
207	-1.342
207	-1.337
208	-1.334
208	-1.334
209	-1.329
209	-1.326
210	-1.325
210	-1.325
211	-1.323
211	-1.321
212	-1.321
212	-1.32
213	-1.319
213	-1.318
213	-1.316
214	-1.315
214	-1.314
215	-1.313
215	-1.311
216	-1.311
216	-1.308
217	-1.304
217	-1.301
218	-1.3
218	-1.297
219	-1.294
219	-1.293
220	-1.289
220	-1.285
221	-1.279
221	-1.275
221	-1.271
222	-1.267
222	-1.262
223	-1.256
223	-1.252
224	-1.246
224	-1.238
225	-1.229
225	-1.222
226	-1.212
226	-1.2
227	-1.186
227	-1.172
228	-1.155
228	-1.136
229	-1.113
229	-1.088
229	-1.059
230	-1.028
230	-0.994
231	-0.956
231	-0.917
232	-0.875
232	-0.83
233	-0.781
233	-0.732
234	-0.681
234	-0.63
235	-0.579
235	-0.528
236	-0.478
236	-0.429
236	-0.38
237	-0.333
237	-0.289
238	-0.246
238	-0.205
239	-0.166
239	-0.129
240	-0.095
240	-0.063
241	-0.032
241	-0.004
242	0.022
242	0.046
243	0.069
243	0.089
243	0.108
244	0.126
244	0.142
245	0.157
245	0.172
246	0.185
246	0.197
247	0.208
247	0.219
248	0.229
248	0.238
249	0.246
249	0.254
250	0.261
250	0.268
250	0.275
251	0.28
251	0.286
252	0.291
252	0.296
253	0.301
253	0.305
254	0.309
254	0.313
255	0.317
255	0.32
256	0.323
256	0.326
257	0.328
257	0.33
258	0.332
258	0.334
258	0.336
259	0.337
259	0.338
260	0.34
260	0.34
261	0.341
261	0.342
262	0.343
262	0.344
263	0.344
263	0.345
264	0.345
264	0.346
265	0.346
265	0.346
265	0.346
266	0.346
266	0.346
267	0.345
267	0.345
268	0.345
268	0.344
269	0.343
269	0.342
270	0.342
270	0.341
271	0.34
271	0.339
272	0.338
272	0.337
272	0.336
273	0.335
273	0.334
274	0.333
274	0.332
275	0.331
275	0.33
276	0.329
276	0.328
277	0.327
277	0.325
278	0.324
278	0.322
278	0.32
279	0.317
279	0.316
280	0.315
280	0.314
281	0.313
281	0.312
282	0.311
282	0.311
283	0.31
283	0.31
284	0.31
284	0.31
285	0.31
285	0.309
285	0.308
286	0.307
286	0.307
287	0.306
287	0.305
288	0.304
288	0.304
289	0.303
289	0.302
290	0.301
290	0.301
291	0.3
291	0.299
292	0.298
292	0.297
292	0.297
293	0.296
293	0.295
294	0.294
294	0.294
295	0.293
295	0.292
296	0.292
296	0.291
297	0.29
297	0.29
298	0.289
298	0.289
298	0.288
299	0.287
299	0.287
300	0.286
300	0.285
301	0.285
301	0.284
302	0.283
302	0.282
303	0.282
303	0.281
304	0.28
304	0.28
305	0.279
305	0.278
305	0.277
306	0.277
306	0.276
307	0.275
307	0.275
308	0.274
308	0.273
309	0.272
309	0.272
310	0.271
310	0.27
311	0.269
311	0.269
311	0.267
312	0.267
312	0.266
313	0.265
313	0.264
314	0.263
314	0.262
315	0.261
315	0.26
316	0.259
316	0.258
317	0.258
317	0.257
318	0.256
318	0.255
318	0.254
319	0.253
319	0.252
320	0.251
320	0.25
321	0.249
321	0.248
322	0.247
322	0.246
323	0.245
323	0.244
324	0.243
324	0.242
324	0.241
325	0.24
325	0.239
326	0.238
326	0.238
327	0.237
327	0.236
328	0.235
328	0.234
329	0.233
329	0.232
330	0.231
330	0.231
330	0.23
331	0.229
331	0.228
332	0.227
332	0.226
333	0.225
333	0.224
334	0.223
334	0.223
335	0.221
335	0.22
336	0.219
336	0.219
336	0.218
337	0.217
337	0.216
338	0.215
338	0.214
339	0.214
339	0.213
340	0.212
340	0.212
341	0.211
341	0.21
342	0.209
342	0.209
342	0.208
343	0.207
343	0.206
344	0.206
344	0.205
345	0.204
345	0.203
346	0.203
346	0.202
347	0.201
347	0.2
348	0.199
348	0.198
348	0.198
349	0.197
349	0.196
350	0.195
350	0.194
351	0.193
351	0.192
352	0.191
352	0.19
353	0.189
353	0.188
354	0.187
354	0.186
354	0.185
355	0.183
355	0.182
356	0.181
356	0.18
357	0.179
357	0.179
358	0.178
358	0.179
359	0.179
359	0.18
360	0.181
360	0.182
360	0.182
361	0.183
361	0.183
362	0.184
362	0.184
363	0.184
363	0.183
364	0.183
364	0.182
365	0.182
365	0.181
366	0.18
366	0.18
366	0.18
367	0.179
367	0.179
368	0.179
368	0.178
369	0.178
369	0.177
370	0.176
370	0.176
371	0.175
371	0.175
372	0.174
372	0.174
372	0.174
373	0.173
373	0.173
374	0.173
374	0.173
375	0.173
375	0.173
376	0.173
376	0.173
377	0.174
377	0.174
378	0.174
378	0.175
378	0.175
379	0.175
379	0.175
380	0.175
380	0.175
381	0.175
381	0.174
382	0.174
382	0.174
383	0.173
383	0.173
383	0.172
384	0.171
384	0.171
385	0.171
385	0.171
386	0.17
386	0.171
387	0.171
387	0.17
388	0.17
388	0.17
389	0.17
389	0.17
389	0.17
390	0.17
390	0.171
391	0.171
391	0.171
392	0.171
392	0.171
393	0.171
393	0.171
394	0.171
394	0.171
394	0.17
395	0.17
395	0.17
396	0.169
396	0.169
397	0.169
397	0.17
398	0.17
398	0.17
399	0.169
399	0.169
400	0.169
400	0.169
400	0.168
401	0.167
401	0.166
402	0.165
402	0.164
403	0.164
403	0.164
404	0.164
404	0.163
405	0.163
405	0.163
405	0.162
406	0.162
406	0.162
407	0.162
407	0.161
408	0.161
408	0.16
409	0.159
409	0.158
410	0.158
410	0.158
411	0.158
411	0.158
411	0.158
412	0.158
412	0.158
413	0.157
413	0.157
414	0.157
414	0.156
415	0.156
415	0.156
416	0.155
416	0.154
416	0.154
417	0.153
417	0.153
418	0.153
418	0.154
419	0.154
419	0.155
420	0.156
420	0.157
421	0.158
421	0.158
421	0.158
422	0.159
422	0.159
423	0.159
423	0.159
424	0.159
424	0.158
425	0.157
425	0.155
426	0.155
426	0.154
427	0.154
427	0.154
427	0.154
428	0.154
428	0.155
429	0.156
429	0.156
430	0.156
430	0.156
431	0.156
431	0.156
432	0.155
432	0.155
432	0.154
433	0.152
433	0.151
434	0.15
434	0.15
435	0.15
435	0.15
436	0.15
436	0.15
437	0.151
437	0.151
437	0.151
438	0.151
438	0.15
439	0.15
439	0.15
440	0.149
440	0.149
441	0.149
441	0.149
442	0.149
442	0.149
442	0.15
443	0.15
443	0.151
444	0.151
444	0.151
445	0.152
445	0.152
446	0.152
446	0.152
447	0.151
447	0.151
447	0.151
448	0.151
448	0.15
449	0.15
449	0.15
450	0.149
450	0.149
451	0.149
451	0.148
452	0.148
452	0.147
452	0.147
453	0.146
453	0.146
454	0.145
454	0.144
455	0.144
455	0.144
456	0.143
456	0.143
457	0.142
457	0.142
458	0.142
458	0.142
458	0.142
459	0.142
459	0.142
460	0.141
460	0.14
461	0.14
461	0.139
462	0.139
462	0.139
463	0.14
463	0.141
463	0.141
464	0.142
464	0.142
465	0.142
465	0.142
466	0.142
466	0.143
467	0.142
467	0.142
467	0.141
468	0.139
468	0.137
469	0.135
469	0.133
470	0.132
470	0.132
471	0.131
471	0.131
472	0.131
472	0.131
472	0.132
473	0.133
473	0.134
474	0.135
474	0.136
475	0.137
475	0.138
476	0.138
476	0.138
477	0.138
477	0.138
477	0.138
478	0.138
478	0.138
479	0.138
479	0.139
480	0.14
480	0.14
481	0.141
481	0.142
482	0.143
482	0.144
482	0.146
483	0.148
483	0.152
484	0.155
484	0.158
485	0.159
485	0.161
486	0.162
486	0.163
487	0.164
487	0.164
487	0.163
488	0.162
488	0.16
489	0.157
489	0.155
490	0.154
490	0.153
491	0.152
491	0.152
492	0.152
492	0.152
492	0.153
493	0.153
493	0.154
494	0.156
494	0.158
495	0.16
495	0.162
496	0.163
496	0.164
496	0.165
497	0.166
497	0.167
498	0.167
498	0.168
499	0.168
499	0.168
500	0.168
500	0.169
501	0.17
501	0.172
501	0.173
502	0.175
502	0.177
503	0.178
503	0.18
504	0.18
504	0.181
505	0.181
505	0.181
506	0.181
506	0.181
506	0.181
507	0.181
507	0.18
508	0.18
508	0.181
509	0.181
509	0.183
510	0.183
510	0.184
511	0.183
511	0.183
511	0.183
512	0.183
512	0.183
513	0.182
513	0.181
514	0.18
514	0.178
515	0.177
515	0.176
515	0.175
516	0.174
516	0.174
517	0.175
517	0.175
518	0.175
518	0.174
519	0.173
519	0.171
520	0.169
520	0.166
520	0.163
521	0.16
521	0.157
522	0.153
522	0.151
523	0.149
523	0.149
524	0.15
524	0.152
524	0.154
525	0.157
525	0.161
526	0.164
526	0.167
527	0.17
527	0.173
528	0.174
528	0.176
529	0.178
529	0.178
529	0.179
530	0.179
530	0.179
531	0.179
531	0.18
532	0.179
532	0.179
533	0.18
533	0.18
533	0.18
534	0.179
534	0.178
535	0.178
535	0.177
536	0.177
536	0.176
537	0.176
537	0.175
538	0.174
538	0.173
538	0.172
539	0.171
539	0.17
540	0.169
540	0.168
541	0.166
541	0.164
542	0.163
542	0.161
542	0.159
543	0.158
543	0.157
544	0.155
544	0.154
545	0.153
545	0.153
546	0.154
546	0.153
547	0.152
547	0.15
547	0.147
548	0.145
548	0.143
549	0.141
549	0.139
550	0.138
550	0.136
551	0.133
551	0.13
551	0.129
552	0.128
552	0.127
553	0.126
553	0.126
554	0.126
554	0.124
555	0.122
555	0.119
556	0.115
556	0.112
556	0.109
557	0.106
557	0.104
558	0.102
558	0.1
559	0.098
559	0.098
560	0.097
560	0.097
560	0.097
561	0.097
561	0.098
562	0.098
562	0.097
563	0.095
563	0.092
564	0.089
564	0.086
564	0.083
565	0.081
565	0.08
566	0.078
566	0.077
567	0.077
567	0.078
568	0.08
568	0.082
568	0.085
569	0.088
569	0.092
570	0.094
570	0.094
571	0.096
571	0.097
572	0.098
572	0.098
573	0.098
573	0.098
573	0.097
574	0.096
574	0.095
575	0.095
575	0.096
576	0.097
576	0.097
577	0.096
577	0.094
577	0.094
578	0.093
578	0.093
579	0.094
579	0.095
580	0.095
580	0.092
581	0.088
581	0.086
581	0.084
582	0.083
582	0.083
583	0.084
583	0.083
584	0.08
584	0.075
585	0.072
585	0.071
585	0.071
586	0.071
586	0.071
587	0.069
587	0.066
588	0.063
588	0.06
589	0.059
589	0.058
590	0.057
590	0.056
590	0.057
591	0.058
591	0.058
592	0.058
592	0.057
593	0.057
593	0.057
594	0.056
594	0.055
594	0.054
595	0.053
595	0.051
596	0.049
596	0.049
597	0.052
597	0.053
598	0.055
598	0.057
598	0.058
599	0.059
599	0.059
600	0.059
600	0.058
601	0.056
601	0.055
602	0.053
602	0.052
602	0.051
603	0.051
603	0.052
604	0.053
604	0.055
605	0.057
605	0.06
606	0.061
606	0.061
606	0.06
607	0.059
607	0.058
608	0.057
608	0.055
609	0.053
609	0.052
610	0.05
610	0.048
610	0.048
611	0.048
611	0.05
612	0.052
612	0.054
613	0.056
613	0.058
614	0.058
614	0.057
614	0.056
615	0.055
615	0.055
616	0.054
616	0.052
617	0.051
617	0.049
618	0.046
618	0.044
618	0.043
619	0.043
619	0.043
620	0.045
620	0.046
621	0.046
621	0.047
622	0.047
622	0.047
622	0.047
623	0.047
623	0.048
624	0.048
624	0.048
625	0.047
625	0.047
626	0.047
626	0.047
626	0.048
627	0.048
627	0.048
628	0.048
628	0.049
629	0.049
629	0.048
630	0.047
630	0.046
630	0.045
631	0.045
631	0.045
632	0.045
632	0.045
633	0.045
633	0.046
634	0.048
634	0.05
634	0.053
635	0.056
635	0.058
636	0.059
636	0.061
637	0.063
637	0.063
638	0.065
638	0.066
638	0.068
639	0.068
639	0.068
640	0.069
640	0.07
641	0.072
641	0.074
642	0.076
642	0.078
642	0.08
643	0.082
643	0.083
644	0.085
644	0.087
645	0.089
645	0.09
646	0.092
646	0.095
646	0.099
647	0.102
647	0.106
648	0.108
648	0.111
649	0.114
649	0.117
650	0.12
650	0.123
650	0.126
651	0.128
651	0.13
652	0.132
652	0.133
653	0.136
653	0.146
653	0.17
654	0.14
654	0.117
655	0.12
655	0.123
656	0.124
656	0.126
657	0.128
657	0.129
657	0.13
658	0.126
658	0.108
659	0.135
659	0.171
660	0.173
660	0.174
661	0.175
661	0.177
661	0.179
662	0.183
662	0.187
663	0.191
663	0.194
664	0.197
664	0.2
665	0.203
665	0.205
665	0.207
666	0.21
666	0.211
667	0.213
667	0.214
668	0.216
668	0.219
669	0.221
669	0.225
669	0.229
670	0.234
670	0.238
671	0.241
671	0.243
672	0.246
672	0.247
672	0.249
673	0.25
673	0.252
674	0.252
674	0.252
675	0.251
675	0.251
676	0.253
676	0.255
676	0.256
677	0.258
677	0.261
678	0.263
678	0.265
679	0.266
679	0.268
680	0.271
680	0.273
680	0.274
681	0.274
681	0.275
682	0.276
682	0.277
683	0.279
683	0.282
684	0.284
684	0.285
684	0.285
685	0.286
685	0.287
686	0.288
686	0.289
687	0.288
687	0.287
687	0.287
688	0.286
688	0.284
689	0.284
689	0.285
690	0.285
690	0.285
691	0.284
691	0.284
691	0.283
692	0.283
692	0.282
693	0.281
693	0.281
694	0.28
694	0.278
695	0.277
695	0.279
695	0.28
696	0.28
696	0.278
697	0.277
697	0.276
698	0.274
698	0.272
698	0.27
699	0.269
699	0.267
700	0.263
700	0.261
701	0.26
701	0.259
702	0.258
702	0.257
702	0.256
703	0.255
703	0.253
704	0.252
704	0.251
705	0.25
705	0.249
705	0.248
706	0.247
706	0.246
707	0.245
707	0.243
708	0.241
708	0.239
709	0.237
709	0.235
709	0.231
710	0.227
710	0.224
711	0.222
711	0.219
712	0.217
712	0.216
713	0.214
713	0.213
713	0.211
714	0.208
714	0.205
715	0.203
715	0.201
716	0.198
716	0.195
716	0.193
717	0.191
717	0.188
718	0.186
718	0.183
719	0.181
719	0.179
720	0.177
720	0.175
720	0.172
721	0.169
721	0.166
722	0.163
722	0.16
723	0.158
723	0.156
723	0.155
724	0.153
724	0.151
725	0.149
725	0.147
726	0.146
726	0.145
727	0.143
727	0.142
727	0.14
728	0.138
728	0.136
729	0.136
729	0.135
730	0.134
730	0.132
730	0.131
731	0.129
731	0.127
732	0.126
732	0.125
733	0.122
733	0.12
734	0.117
734	0.114
734	0.112
735	0.11
735	0.107
736	0.104
736	0.102
737	0.1
737	0.098
737	0.097
738	0.094
738	0.09
739	0.087
739	0.084
740	0.08
740	0.078
741	0.075
741	0.072
741	0.067
742	0.061
742	0.056
743	0.053
743	0.049
744	0.047
744	0.044
744	0.041
745	0.039
745	0.036
746	0.034
746	0.033
747	0.032
747	0.032
748	0.033
748	0.033
748	0.033
749	0.032
749	0.032
750	0.032
750	0.032
751	0.032
751	0.033
751	0.034
752	0.033
752	0.032
753	0.031
753	0.031
754	0.03
754	0.03
754	0.03
755	0.03
755	0.031
756	0.03
756	0.028
757	0.026
757	0.026
758	0.025
758	0.024
758	0.023
759	0.022
759	0.019
760	0.016
760	0.012
761	0.009
761	0.008
761	0.006
762	0.004
762	0.003
763	0.003
763	0
764	-0.003
764	-0.006
764	-0.008
765	-0.011
765	-0.013
766	-0.015
766	-0.015
767	-0.016
767	-0.019
768	-0.023
768	-0.026
768	-0.027
769	-0.028
769	-0.028
770	-0.029
770	-0.031
771	-0.033
771	-0.037
771	-0.04
772	-0.042
772	-0.045
773	-0.047
773	-0.051
774	-0.055
774	-0.059
775	-0.062
775	-0.066
775	-0.071
776	-0.076
776	-0.08
777	-0.084
777	-0.089
778	-0.094
778	-0.099
778	-0.104
779	-0.108
779	-0.11
780	-0.115
780	-0.12
781	-0.124
781	-0.129
781	-0.133
782	-0.137
782	-0.142
783	-0.145
783	-0.147
784	-0.149
784	-0.152
784	-0.154
785	-0.154
785	-0.156
786	-0.156
786	-0.153
787	-0.147
787	-0.143
788	-0.142
788	-0.142
788	-0.144
789	-0.146
789	-0.145
790	-0.142
790	-0.141
791	-0.141
791	-0.143
791	-0.146
792	-0.14
792	-0.13
793	-0.124
793	-0.12
794	-0.118
794	-0.12
794	-0.125
795	-0.127
795	-0.127
796	-0.128
796	-0.131
797	-0.14
797	-0.151
797	-0.157
798	-0.163
798	-0.165
799	-0.166
799	-0.165
800	-0.164
800	-0.166
801	-0.169
801	-0.169
801	-0.17
802	-0.171
802	-0.172
803	-0.173
803	-0.174
804	-0.172
804	-0.167
804	-0.161
805	-0.157
805	-0.155
806	-0.153
806	-0.152
807	-0.151
807	-0.15
807	-0.15
808	-0.15
808	-0.151
809	-0.156
809	-0.162
810	-0.166
810	-0.169
810	-0.172
811	-0.176
811	-0.176
812	-0.172
812	-0.169
813	-0.169
813	-0.17
813	-0.17
814	-0.171
814	-0.17
815	-0.167
815	-0.163
816	-0.16
816	-0.16
817	-0.164
817	-0.166
817	-0.166
818	-0.165
818	-0.162
819	-0.156
819	-0.154
820	-0.155
820	-0.158
820	-0.159
821	-0.159
821	-0.159
822	-0.157
822	-0.155
823	-0.152
823	-0.151
823	-0.151
824	-0.148
824	-0.142
825	-0.133
825	-0.123
826	-0.114
826	-0.106
826	-0.099
827	-0.091
827	-0.084
828	-0.078
828	-0.073
829	-0.068
829	-0.064
829	-0.062
830	-0.06
830	-0.057
831	-0.053
831	-0.05
832	-0.047
832	-0.044
832	-0.041
833	-0.038
833	-0.035
834	-0.033
834	-0.03
835	-0.027
835	-0.025
835	-0.024
836	-0.022
836	-0.02
837	-0.019
837	-0.018
838	-0.018
838	-0.017
839	-0.017
839	-0.017
839	-0.017
840	-0.017
840	-0.017
841	-0.017
841	-0.016
842	-0.016
842	-0.015
842	-0.014
843	-0.013
843	-0.012
844	-0.01
844	-0.009
845	-0.007
845	-0.006
845	-0.004
846	-0.003
846	-0.002
847	-0.001
847	0
848	0.001
848	0.002
848	0.003
849	0.004
849	0.005
850	0.006
850	0.005
851	0.006
851	0.007
851	0.007
852	0.007
852	0.007
853	0.008
853	0.008
854	0.008
854	0.009
854	0.009
855	0.009
855	0.009
856	0.009
856	0.009
857	0.009
857	0.009
857	0.009
858	0.009
858	0.009
859	0.008
859	0.007
860	0.007
860	0.007
860	0.007
861	0.007
861	0.007
862	0.006
862	0.006
863	0.007
863	0.007
863	0.008
864	0.008
864	0.009
865	0.009
865	0.01
866	0.01
866	0.011
866	0.012
867	0.013
867	0.015
868	0.017
868	0.019
869	0.021
869	0.023
869	0.025
870	0.027
870	0.028
871	0.029
871	0.03
872	0.03
872	0.029
872	0.028
873	0.028
873	0.026
874	0.026
874	0.025
875	0.025
875	0.025
875	0.025
876	0.025
876	0.026
877	0.027
877	0.028
878	0.029
878	0.03
878	0.031
879	0.031
879	0.032
880	0.032
880	0.032
881	0.031
881	0.031
881	0.031
882	0.03
882	0.029
883	0.028
883	0.027
884	0.027
884	0.026
884	0.026
885	0.026
885	0.026
886	0.027
886	0.028
887	0.028
887	0.028
887	0.029
888	0.03
888	0.03
889	0.031
889	0.032
890	0.033
890	0.033
890	0.033
891	0.033
891	0.033
892	0.032
892	0.032
893	0.031
893	0.031
893	0.03
894	0.029
894	0.028
895	0.028
895	0.027
895	0.026
896	0.025
896	0.025
897	0.025
897	0.024
898	0.024
898	0.024
898	0.024
899	0.024
899	0.024
900	0.025
900	0.027
901	0.028
901	0.029
901	0.031
902	0.032
902	0.033
903	0.034
903	0.034
904	0.035
904	0.035
904	0.035
905	0.035
905	0.036
906	0.035
906	0.036
907	0.035
907	0.036
907	0.036
908	0.036
908	0.036
909	0.037
909	0.038
910	0.038
910	0.038
910	0.039
911	0.039
911	0.04
912	0.041
912	0.041
913	0.041
913	0.041
913	0.041
914	0.041
914	0.04
915	0.04
915	0.039
916	0.038
916	0.038
916	0.037
917	0.036
917	0.036
918	0.035
918	0.035
918	0.035
919	0.035
919	0.034
920	0.035
920	0.035
921	0.035
921	0.035
921	0.036
922	0.037
922	0.038
923	0.039
923	0.04
924	0.041
924	0.041
924	0.042
925	0.042
925	0.042
926	0.042
926	0.041
927	0.041
927	0.04
927	0.039
928	0.038
928	0.037
929	0.036
929	0.035
930	0.034
930	0.033
930	0.033
931	0.032
931	0.031
932	0.031
932	0.03
933	0.029
933	0.029
933	0.028
934	0.028
934	0.027
935	0.027
935	0.027
935	0.028
936	0.028
936	0.029
937	0.03
937	0.031
938	0.033
938	0.034
938	0.036
939	0.037
939	0.039
940	0.04
940	0.042
941	0.043
941	0.044
941	0.046
942	0.047
942	0.048
943	0.049
943	0.05
944	0.05
944	0.051
944	0.051
945	0.052
945	0.052
946	0.052
946	0.052
946	0.052
947	0.052
947	0.051
948	0.051
948	0.051
949	0.05
949	0.05
949	0.05
950	0.05
950	0.049
951	0.049
951	0.048
952	0.047
952	0.047
952	0.047
953	0.046
953	0.046
954	0.045
954	0.044
955	0.043
955	0.043
955	0.042
956	0.043
956	0.043
957	0.043
957	0.042
957	0.042
958	0.042
958	0.042
959	0.041
959	0.041
960	0.04
960	0.039
960	0.038
961	0.037
961	0.036
962	0.035
962	0.034
963	0.034
963	0.035
963	0.035
964	0.036
964	0.038
965	0.039
965	0.041
966	0.042
966	0.044
966	0.045
967	0.046
967	0.046
968	0.046
968	0.046
968	0.045
969	0.045
969	0.044
970	0.043
970	0.042
971	0.041
971	0.04
971	0.04
972	0.04
972	0.04
973	0.04
973	0.04
974	0.04
974	0.04
974	0.04
975	0.04
975	0.04
976	0.04
976	0.04
976	0.04
977	0.039
977	0.038
978	0.037
978	0.036
979	0.036
979	0.035
979	0.035
980	0.034
980	0.033
981	0.033
981	0.033
982	0.034
982	0.034
982	0.035
983	0.036
983	0.037
984	0.038
984	0.038
984	0.039
985	0.04
985	0.041
986	0.041
986	0.041
987	0.041
987	0.042
987	0.042
988	0.043
988	0.044
989	0.045
989	0.046
990	0.047
990	0.048
990	0.05
991	0.052
991	0.053
992	0.054
992	0.055
992	0.056
993	0.057
993	0.057
994	0.057
994	0.057
995	0.056
995	0.055
995	0.054
996	0.053
996	0.052
997	0.051
997	0.05
997	0.049
998	0.048
998	0.048
999	0.048
999	0.047
1000	0.047
1000	0.046
1000	0.046
1001	0.046
1001	0.046
1002	0.046
1002	0.047
1003	0.047
1003	0.047
1003	0.047
1004	0.047
1004	0.047
1005	0.046
1005	0.046
1005	0.045
1006	0.044
1006	0.043
1007	0.042
1007	0.041
1008	0.04
1008	0.038
1008	0.038
1009	0.037
1009	0.037
1010	0.036
1010	0.036
1010	0.036
1011	0.036
1011	0.036
1012	0.036
1012	0.035
1013	0.035
1013	0.034
1013	0.033
1014	0.032
1014	0.031
1015	0.031
1015	0.03
1016	0.029
1016	0.029
1016	0.028
1017	0.028
1017	0.028
1018	0.028
1018	0.029
1018	0.03
1019	0.031
1019	0.031
1020	0.032
1020	0.033
1021	0.034
1021	0.034
1021	0.035
1022	0.036
1022	0.036
1023	0.037
1023	0.036
1023	0.036
1024	0.036
1024	0.035
1025	0.035
1025	0.034
1026	0.033
1026	0.033
1026	0.032
1027	0.032
1027	0.031
1028	0.031
1028	0.031
1028	0.031
1029	0.03
1029	0.031
1030	0.031
1030	0.03
1031	0.03
1031	0.03
1031	0.03
1032	0.03
1032	0.029
1033	0.029
1033	0.029
1033	0.029
1034	0.029
1034	0.028
1035	0.028
1035	0.028
1036	0.027
1036	0.028
1036	0.028
1037	0.028
1037	0.028
1038	0.028
1038	0.029
1039	0.029
1039	0.029
1039	0.029
1040	0.029
1040	0.029
1041	0.028
1041	0.028
1041	0.027
1042	0.027
1042	0.027
1043	0.027
1043	0.027
1044	0.027
1044	0.027
1044	0.028
1045	0.029
1045	0.03
1046	0.03
1046	0.031
1046	0.032
1047	0.034
1047	0.035
1048	0.037
1048	0.037
1049	0.038
1049	0.038
1049	0.039
1050	0.039
1050	0.039
1051	0.04
1051	0.04
1051	0.041
1052	0.041
1052	0.041
1053	0.042
1053	0.043
1053	0.044
1054	0.045
1054	0.046
1055	0.047
1055	0.048
1056	0.048
1056	0.049
1056	0.049
1057	0.049
1057	0.05
1058	0.05
1058	0.051
1058	0.052
1059	0.052
1059	0.053
1060	0.054
1060	0.056
1061	0.059
1061	0.06
1061	0.062
1062	0.063
1062	0.064
1063	0.065
1063	0.066
1063	0.068
1064	0.07
1064	0.071
1065	0.073
1065	0.074
1066	0.075
1066	0.076
1066	0.078
1067	0.079
1067	0.081
1068	0.082
1068	0.082
1068	0.083
1069	0.083
1069	0.083
1070	0.084
1070	0.084
1071	0.086
1071	0.088
1071	0.089
1072	0.091
1072	0.093
1073	0.095
1073	0.098
1073	0.101
1074	0.104
1074	0.107
1075	0.109
1075	0.111
1076	0.113
1076	0.116
1076	0.118
1077	0.12
1077	0.123
1078	0.126
1078	0.129
1078	0.133
1079	0.136
1079	0.141
1080	0.144
1080	0.148
1080	0.15
1081	0.154
1081	0.158
1082	0.162
1082	0.165
1083	0.168
1083	0.171
1083	0.176
1084	0.18
1084	0.185
1085	0.19
1085	0.196
1085	0.201
1086	0.206
1086	0.21
1087	0.215
1087	0.221
1088	0.226
1088	0.232
1088	0.239
1089	0.245
1089	0.253
1090	0.261
1090	0.274
1090	0.286
1091	0.299
1091	0.316
1092	0.332
1092	0.353
1092	0.372
1093	0.391
1093	0.417
1094	0.442
1094	0.47
1095	0.498
1095	0.532
1095	0.576
1096	0.62
1096	0.672
1097	0.737
1097	0.811
1097	0.918
1098	1.051
1098	1.272
1099	1.823
1099	-0
1100	-0
1100	-0
1100	-0
1101	-0
1101	-0
1102	-0
1102	-0
1102	-0
1103	-0
1103	-0
1104	-0
1104	-0
1104	-0
1105	-0
1105	-0
1106	-0
1106	-0
1107	-0
1107	-0
1107	-0
1108	-0
1108	-0
1109	-0
1109	-0
1109	-0
1110	-0
1110	-0
1111	-0
1111	-0
