Data from 15c-2-5a_Absorbance__852__05128.txt Node

Date: Wed Jan 17 14:58:55 CET 2024
User: Marek
Spectrometer: MAYP115816
Trigger mode: 0
Integration Time (sec): 2.000000E-1
Scans to average: 10
Electric dark correction enabled: true
Nonlinearity correction enabled: true
Boxcar width: 5
XAxis mode: Wavelengths
Number of Pixels in Spectrum: 2068
>>>>>Begin Spectral Data<<<<<
199	-2.259
199	-2.111
200	-1.945
200	-1.816
201	-1.735
201	-1.683
202	-1.606
202	-1.546
203	-1.493
203	-1.446
204	-1.419
204	-1.393
205	-1.368
205	-1.358
205	-1.355
206	-1.354
206	-1.349
207	-1.347
207	-1.342
208	-1.34
208	-1.338
209	-1.334
209	-1.331
210	-1.33
210	-1.33
211	-1.328
211	-1.327
212	-1.327
212	-1.326
213	-1.325
213	-1.323
213	-1.322
214	-1.321
214	-1.32
215	-1.318
215	-1.316
216	-1.316
216	-1.313
217	-1.308
217	-1.306
218	-1.305
218	-1.301
219	-1.299
219	-1.298
220	-1.294
220	-1.29
221	-1.284
221	-1.28
221	-1.276
222	-1.272
222	-1.267
223	-1.261
223	-1.257
224	-1.251
224	-1.243
225	-1.234
225	-1.227
226	-1.217
226	-1.204
227	-1.191
227	-1.176
228	-1.159
228	-1.14
229	-1.117
229	-1.092
229	-1.063
230	-1.032
230	-0.998
231	-0.961
231	-0.921
232	-0.879
232	-0.834
233	-0.785
233	-0.735
234	-0.684
234	-0.633
235	-0.582
235	-0.531
236	-0.48
236	-0.43
236	-0.381
237	-0.334
237	-0.288
238	-0.245
238	-0.204
239	-0.164
239	-0.126
240	-0.091
240	-0.058
241	-0.026
241	0.003
242	0.03
242	0.055
243	0.079
243	0.1
243	0.12
244	0.139
244	0.156
245	0.171
245	0.186
246	0.2
246	0.213
247	0.225
247	0.235
248	0.246
248	0.255
249	0.264
249	0.272
250	0.28
250	0.287
250	0.295
251	0.3
251	0.306
252	0.312
252	0.317
253	0.322
253	0.326
254	0.33
254	0.334
255	0.338
255	0.342
256	0.345
256	0.347
257	0.35
257	0.353
258	0.355
258	0.357
258	0.359
259	0.361
259	0.362
260	0.364
260	0.365
261	0.366
261	0.367
262	0.367
262	0.368
263	0.369
263	0.369
264	0.37
264	0.371
265	0.371
265	0.371
265	0.371
266	0.371
266	0.371
267	0.371
267	0.37
268	0.37
268	0.369
269	0.369
269	0.368
270	0.367
270	0.366
271	0.365
271	0.364
272	0.363
272	0.362
272	0.361
273	0.36
273	0.359
274	0.358
274	0.357
275	0.356
275	0.355
276	0.354
276	0.353
277	0.352
277	0.35
278	0.348
278	0.346
278	0.344
279	0.342
279	0.34
280	0.339
280	0.338
281	0.337
281	0.336
282	0.335
282	0.334
283	0.334
283	0.333
284	0.333
284	0.334
285	0.333
285	0.332
285	0.332
286	0.331
286	0.33
287	0.329
287	0.328
288	0.328
288	0.327
289	0.326
289	0.325
290	0.324
290	0.324
291	0.323
291	0.322
292	0.321
292	0.32
292	0.319
293	0.318
293	0.318
294	0.317
294	0.316
295	0.316
295	0.315
296	0.314
296	0.313
297	0.313
297	0.312
298	0.311
298	0.31
298	0.31
299	0.309
299	0.308
300	0.308
300	0.307
301	0.306
301	0.306
302	0.305
302	0.304
303	0.303
303	0.302
304	0.302
304	0.301
305	0.3
305	0.299
305	0.298
306	0.297
306	0.297
307	0.296
307	0.295
308	0.295
308	0.294
309	0.293
309	0.292
310	0.291
310	0.29
311	0.29
311	0.289
311	0.288
312	0.287
312	0.286
313	0.285
313	0.284
314	0.283
314	0.282
315	0.281
315	0.28
316	0.279
316	0.278
317	0.277
317	0.276
318	0.275
318	0.274
318	0.273
319	0.272
319	0.271
320	0.27
320	0.269
321	0.268
321	0.267
322	0.266
322	0.264
323	0.263
323	0.262
324	0.261
324	0.26
324	0.259
325	0.258
325	0.257
326	0.256
326	0.256
327	0.255
327	0.254
328	0.253
328	0.252
329	0.251
329	0.25
330	0.249
330	0.248
330	0.247
331	0.246
331	0.245
332	0.244
332	0.243
333	0.242
333	0.241
334	0.24
334	0.239
335	0.239
335	0.238
336	0.237
336	0.236
336	0.235
337	0.234
337	0.233
338	0.232
338	0.232
339	0.231
339	0.23
340	0.229
340	0.229
341	0.228
341	0.227
342	0.226
342	0.225
342	0.225
343	0.224
343	0.223
344	0.222
344	0.221
345	0.22
345	0.219
346	0.219
346	0.218
347	0.217
347	0.216
348	0.215
348	0.214
348	0.214
349	0.213
349	0.211
350	0.211
350	0.21
351	0.209
351	0.208
352	0.207
352	0.205
353	0.204
353	0.203
354	0.202
354	0.201
354	0.199
355	0.198
355	0.197
356	0.196
356	0.195
357	0.194
357	0.193
358	0.193
358	0.193
359	0.194
359	0.195
360	0.196
360	0.196
360	0.197
361	0.198
361	0.198
362	0.199
362	0.199
363	0.199
363	0.199
364	0.198
364	0.197
365	0.197
365	0.196
366	0.196
366	0.195
366	0.195
367	0.194
367	0.194
368	0.193
368	0.192
369	0.192
369	0.191
370	0.191
370	0.19
371	0.19
371	0.189
372	0.189
372	0.189
372	0.188
373	0.188
373	0.187
374	0.188
374	0.187
375	0.187
375	0.187
376	0.187
376	0.187
377	0.188
377	0.188
378	0.188
378	0.189
378	0.189
379	0.189
379	0.189
380	0.189
380	0.189
381	0.189
381	0.189
382	0.189
382	0.188
383	0.188
383	0.187
383	0.187
384	0.186
384	0.186
385	0.185
385	0.185
386	0.185
386	0.185
387	0.185
387	0.185
388	0.185
388	0.184
389	0.184
389	0.184
389	0.184
390	0.184
390	0.185
391	0.185
391	0.186
392	0.186
392	0.186
393	0.186
393	0.186
394	0.185
394	0.185
394	0.185
395	0.185
395	0.184
396	0.184
396	0.184
397	0.184
397	0.184
398	0.184
398	0.184
399	0.184
399	0.184
400	0.184
400	0.183
400	0.182
401	0.181
401	0.18
402	0.179
402	0.178
403	0.178
403	0.177
404	0.178
404	0.177
405	0.177
405	0.177
405	0.176
406	0.176
406	0.176
407	0.176
407	0.175
408	0.175
408	0.174
409	0.173
409	0.172
410	0.172
410	0.172
411	0.172
411	0.172
411	0.172
412	0.171
412	0.171
413	0.171
413	0.17
414	0.17
414	0.17
415	0.17
415	0.169
416	0.168
416	0.168
416	0.167
417	0.167
417	0.167
418	0.167
418	0.167
419	0.167
419	0.168
420	0.169
420	0.17
421	0.171
421	0.171
421	0.172
422	0.172
422	0.172
423	0.173
423	0.172
424	0.171
424	0.171
425	0.169
425	0.168
426	0.168
426	0.167
427	0.167
427	0.167
427	0.167
428	0.168
428	0.169
429	0.17
429	0.17
430	0.17
430	0.17
431	0.17
431	0.17
432	0.169
432	0.168
432	0.168
433	0.166
433	0.165
434	0.163
434	0.163
435	0.163
435	0.163
436	0.163
436	0.163
437	0.164
437	0.164
437	0.164
438	0.164
438	0.164
439	0.164
439	0.163
440	0.162
440	0.162
441	0.162
441	0.163
442	0.163
442	0.163
442	0.163
443	0.163
443	0.164
444	0.164
444	0.165
445	0.165
445	0.165
446	0.165
446	0.165
447	0.165
447	0.165
447	0.164
448	0.164
448	0.164
449	0.164
449	0.163
450	0.163
450	0.163
451	0.162
451	0.161
452	0.161
452	0.16
452	0.159
453	0.159
453	0.158
454	0.157
454	0.157
455	0.156
455	0.156
456	0.156
456	0.155
457	0.155
457	0.155
458	0.155
458	0.155
458	0.155
459	0.155
459	0.155
460	0.155
460	0.154
461	0.153
461	0.153
462	0.153
462	0.153
463	0.153
463	0.154
463	0.154
464	0.155
464	0.155
465	0.155
465	0.155
466	0.155
466	0.155
467	0.155
467	0.155
467	0.153
468	0.152
468	0.149
469	0.147
469	0.146
470	0.145
470	0.144
471	0.143
471	0.143
472	0.142
472	0.143
472	0.143
473	0.145
473	0.146
474	0.147
474	0.149
475	0.15
475	0.151
476	0.151
476	0.151
477	0.151
477	0.152
477	0.152
478	0.152
478	0.151
479	0.152
479	0.152
480	0.153
480	0.154
481	0.155
481	0.155
482	0.156
482	0.158
482	0.159
483	0.162
483	0.165
484	0.169
484	0.172
485	0.174
485	0.175
486	0.177
486	0.178
487	0.178
487	0.178
487	0.178
488	0.177
488	0.175
489	0.172
489	0.17
490	0.168
490	0.167
491	0.166
491	0.166
492	0.166
492	0.166
492	0.166
493	0.167
493	0.168
494	0.17
494	0.172
495	0.174
495	0.176
496	0.177
496	0.178
496	0.179
497	0.181
497	0.182
498	0.182
498	0.183
499	0.183
499	0.183
500	0.183
500	0.184
501	0.186
501	0.187
501	0.189
502	0.19
502	0.192
503	0.193
503	0.195
504	0.196
504	0.196
505	0.196
505	0.196
506	0.196
506	0.197
506	0.197
507	0.197
507	0.196
508	0.197
508	0.197
509	0.198
509	0.199
510	0.2
510	0.2
511	0.199
511	0.2
511	0.2
512	0.2
512	0.2
513	0.198
513	0.197
514	0.195
514	0.193
515	0.192
515	0.192
515	0.192
516	0.191
516	0.191
517	0.191
517	0.191
518	0.191
518	0.19
519	0.188
519	0.186
520	0.183
520	0.179
520	0.176
521	0.173
521	0.17
522	0.167
522	0.165
523	0.165
523	0.166
524	0.168
524	0.171
524	0.174
525	0.177
525	0.18
526	0.183
526	0.186
527	0.189
527	0.191
528	0.193
528	0.194
529	0.195
529	0.195
529	0.195
530	0.196
530	0.195
531	0.196
531	0.196
532	0.196
532	0.196
533	0.196
533	0.196
533	0.196
534	0.195
534	0.195
535	0.194
535	0.193
536	0.193
536	0.192
537	0.192
537	0.192
538	0.191
538	0.189
538	0.188
539	0.187
539	0.186
540	0.186
540	0.184
541	0.182
541	0.18
542	0.178
542	0.176
542	0.175
543	0.173
543	0.172
544	0.17
544	0.169
545	0.168
545	0.168
546	0.168
546	0.168
547	0.167
547	0.164
547	0.162
548	0.16
548	0.158
549	0.155
549	0.153
550	0.151
550	0.149
551	0.146
551	0.143
551	0.141
552	0.14
552	0.139
553	0.138
553	0.138
554	0.137
554	0.136
555	0.133
555	0.13
556	0.127
556	0.123
556	0.12
557	0.117
557	0.115
558	0.112
558	0.11
559	0.109
559	0.108
560	0.108
560	0.107
560	0.107
561	0.107
561	0.108
562	0.108
562	0.107
563	0.105
563	0.103
564	0.1
564	0.097
564	0.095
565	0.092
565	0.091
566	0.09
566	0.088
567	0.088
567	0.09
568	0.091
568	0.093
568	0.096
569	0.099
569	0.103
570	0.105
570	0.105
571	0.106
571	0.108
572	0.108
572	0.108
573	0.108
573	0.108
573	0.107
574	0.105
574	0.105
575	0.104
575	0.105
576	0.107
576	0.106
577	0.105
577	0.104
577	0.103
578	0.102
578	0.102
579	0.103
579	0.105
580	0.104
580	0.101
581	0.097
581	0.095
581	0.093
582	0.092
582	0.092
583	0.093
583	0.092
584	0.089
584	0.084
585	0.081
585	0.08
585	0.08
586	0.08
586	0.08
587	0.078
587	0.075
588	0.072
588	0.069
589	0.067
589	0.066
590	0.065
590	0.065
590	0.065
591	0.067
591	0.067
592	0.066
592	0.066
593	0.065
593	0.065
594	0.065
594	0.063
594	0.062
595	0.061
595	0.06
596	0.058
596	0.058
597	0.06
597	0.062
598	0.064
598	0.066
598	0.067
599	0.069
599	0.068
600	0.068
600	0.066
601	0.065
601	0.064
602	0.062
602	0.061
602	0.059
603	0.058
603	0.059
604	0.06
604	0.061
605	0.063
605	0.065
606	0.067
606	0.066
606	0.065
607	0.064
607	0.063
608	0.063
608	0.061
609	0.059
609	0.059
610	0.057
610	0.055
610	0.055
611	0.056
611	0.057
612	0.059
612	0.06
613	0.062
613	0.064
614	0.064
614	0.062
614	0.062
615	0.061
615	0.06
616	0.059
616	0.057
617	0.055
617	0.053
618	0.051
618	0.048
618	0.047
619	0.046
619	0.047
620	0.049
620	0.05
621	0.051
621	0.052
622	0.053
622	0.054
622	0.054
623	0.055
623	0.056
624	0.057
624	0.057
625	0.056
625	0.056
626	0.056
626	0.056
626	0.057
627	0.057
627	0.057
628	0.058
628	0.058
629	0.058
629	0.058
630	0.057
630	0.056
630	0.056
631	0.056
631	0.056
632	0.056
632	0.056
633	0.057
633	0.059
634	0.061
634	0.063
634	0.066
635	0.068
635	0.069
636	0.071
636	0.072
637	0.073
637	0.074
638	0.075
638	0.076
638	0.077
639	0.077
639	0.077
640	0.078
640	0.079
641	0.08
641	0.081
642	0.083
642	0.085
642	0.087
643	0.089
643	0.09
644	0.092
644	0.095
645	0.097
645	0.099
646	0.102
646	0.105
646	0.109
647	0.114
647	0.117
648	0.121
648	0.123
649	0.126
649	0.129
650	0.132
650	0.135
650	0.138
651	0.14
651	0.143
652	0.144
652	0.146
653	0.149
653	0.159
653	0.185
654	0.151
654	0.125
655	0.129
655	0.131
656	0.133
656	0.135
657	0.136
657	0.138
657	0.139
658	0.135
658	0.117
659	0.145
659	0.186
660	0.188
660	0.19
661	0.191
661	0.194
661	0.196
662	0.2
662	0.204
663	0.209
663	0.212
664	0.216
664	0.219
665	0.222
665	0.225
665	0.228
666	0.23
666	0.232
667	0.234
667	0.236
668	0.239
668	0.241
669	0.244
669	0.247
669	0.252
670	0.257
670	0.261
671	0.263
671	0.265
672	0.267
672	0.269
672	0.27
673	0.271
673	0.272
674	0.272
674	0.272
675	0.271
675	0.27
676	0.271
676	0.273
676	0.274
677	0.276
677	0.278
678	0.28
678	0.281
679	0.283
679	0.284
680	0.287
680	0.289
680	0.29
681	0.29
681	0.292
682	0.293
682	0.294
683	0.297
683	0.3
684	0.303
684	0.304
684	0.305
685	0.305
685	0.307
686	0.308
686	0.309
687	0.309
687	0.308
687	0.308
688	0.306
688	0.305
689	0.305
689	0.306
690	0.306
690	0.306
691	0.305
691	0.305
691	0.304
692	0.304
692	0.302
693	0.302
693	0.302
694	0.3
694	0.298
695	0.297
695	0.299
695	0.3
696	0.3
696	0.298
697	0.297
697	0.296
698	0.295
698	0.293
698	0.291
699	0.29
699	0.288
700	0.283
700	0.281
701	0.28
701	0.279
702	0.278
702	0.277
702	0.276
703	0.274
703	0.273
704	0.271
704	0.27
705	0.27
705	0.27
705	0.268
706	0.268
706	0.267
707	0.265
707	0.263
708	0.261
708	0.259
709	0.257
709	0.255
709	0.25
710	0.245
710	0.242
711	0.239
711	0.236
712	0.234
712	0.232
713	0.23
713	0.228
713	0.226
714	0.223
714	0.221
715	0.219
715	0.216
716	0.214
716	0.212
716	0.209
717	0.207
717	0.205
718	0.202
718	0.199
719	0.197
719	0.195
720	0.193
720	0.19
720	0.188
721	0.184
721	0.181
722	0.178
722	0.175
723	0.172
723	0.171
723	0.169
724	0.166
724	0.164
725	0.161
725	0.159
726	0.157
726	0.156
727	0.154
727	0.152
727	0.15
728	0.147
728	0.145
729	0.145
729	0.144
730	0.143
730	0.141
730	0.14
731	0.138
731	0.136
732	0.135
732	0.134
733	0.132
733	0.129
734	0.127
734	0.123
734	0.121
735	0.119
735	0.117
736	0.114
736	0.112
737	0.11
737	0.109
737	0.107
738	0.104
738	0.101
739	0.098
739	0.095
740	0.092
740	0.089
741	0.087
741	0.084
741	0.079
742	0.074
742	0.069
743	0.065
743	0.062
744	0.059
744	0.056
744	0.053
745	0.05
745	0.047
746	0.044
746	0.042
747	0.041
747	0.041
748	0.041
748	0.04
748	0.04
749	0.038
749	0.038
750	0.037
750	0.037
751	0.036
751	0.037
751	0.038
752	0.038
752	0.037
753	0.036
753	0.036
754	0.036
754	0.036
754	0.037
755	0.038
755	0.039
756	0.039
756	0.037
757	0.035
757	0.034
758	0.033
758	0.032
758	0.032
759	0.031
759	0.028
760	0.025
760	0.022
761	0.019
761	0.018
761	0.017
762	0.014
762	0.013
763	0.012
763	0.009
764	0.005
764	0.001
764	-0.002
765	-0.005
765	-0.008
766	-0.01
766	-0.011
767	-0.012
767	-0.015
768	-0.019
768	-0.022
768	-0.023
769	-0.024
769	-0.024
770	-0.025
770	-0.027
771	-0.029
771	-0.033
771	-0.036
772	-0.039
772	-0.042
773	-0.045
773	-0.048
774	-0.052
774	-0.056
775	-0.06
775	-0.063
775	-0.067
776	-0.072
776	-0.076
777	-0.079
777	-0.083
778	-0.088
778	-0.094
778	-0.099
779	-0.103
779	-0.105
780	-0.11
780	-0.116
781	-0.121
781	-0.126
781	-0.131
782	-0.136
782	-0.141
783	-0.145
783	-0.147
784	-0.149
784	-0.152
784	-0.153
785	-0.154
785	-0.156
786	-0.156
786	-0.152
787	-0.147
787	-0.143
788	-0.141
788	-0.142
788	-0.143
789	-0.146
789	-0.145
790	-0.142
790	-0.141
791	-0.141
791	-0.143
791	-0.146
792	-0.14
792	-0.13
793	-0.124
793	-0.12
794	-0.118
794	-0.12
794	-0.124
795	-0.127
795	-0.127
796	-0.128
796	-0.131
797	-0.14
797	-0.151
797	-0.157
798	-0.162
798	-0.165
799	-0.165
799	-0.165
800	-0.164
800	-0.166
801	-0.168
801	-0.169
801	-0.169
802	-0.171
802	-0.172
803	-0.173
803	-0.173
804	-0.172
804	-0.167
804	-0.161
805	-0.157
805	-0.155
806	-0.153
806	-0.151
807	-0.151
807	-0.15
807	-0.15
808	-0.15
808	-0.151
809	-0.156
809	-0.162
810	-0.166
810	-0.169
810	-0.172
811	-0.175
811	-0.176
812	-0.172
812	-0.169
813	-0.169
813	-0.169
813	-0.17
814	-0.17
814	-0.17
815	-0.166
815	-0.163
816	-0.16
816	-0.16
817	-0.163
817	-0.166
817	-0.166
818	-0.165
818	-0.162
819	-0.156
819	-0.154
820	-0.155
820	-0.158
820	-0.159
821	-0.159
821	-0.158
822	-0.158
822	-0.156
823	-0.154
823	-0.154
823	-0.155
824	-0.153
824	-0.148
825	-0.14
825	-0.131
826	-0.122
826	-0.115
826	-0.107
827	-0.099
827	-0.092
828	-0.085
828	-0.08
829	-0.074
829	-0.069
829	-0.066
830	-0.064
830	-0.061
831	-0.056
831	-0.052
832	-0.049
832	-0.046
832	-0.042
833	-0.039
833	-0.036
834	-0.034
834	-0.031
835	-0.028
835	-0.026
835	-0.025
836	-0.023
836	-0.021
837	-0.02
837	-0.018
838	-0.017
838	-0.016
839	-0.015
839	-0.014
839	-0.014
840	-0.013
840	-0.012
841	-0.011
841	-0.01
842	-0.009
842	-0.007
842	-0.006
843	-0.005
843	-0.003
844	-0.001
844	0.001
845	0.003
845	0.005
845	0.007
846	0.008
846	0.009
847	0.01
847	0.011
848	0.011
848	0.011
848	0.011
849	0.011
849	0.012
850	0.011
850	0.011
851	0.011
851	0.011
851	0.012
852	0.011
852	0.012
853	0.013
853	0.013
854	0.014
854	0.014
854	0.015
855	0.015
855	0.015
856	0.015
856	0.015
857	0.016
857	0.016
857	0.016
858	0.016
858	0.016
859	0.016
859	0.017
860	0.018
860	0.018
860	0.019
861	0.02
861	0.021
862	0.021
862	0.021
863	0.022
863	0.022
863	0.023
864	0.022
864	0.023
865	0.023
865	0.023
866	0.022
866	0.022
866	0.023
867	0.023
867	0.024
868	0.024
868	0.025
869	0.026
869	0.026
869	0.026
870	0.026
870	0.026
871	0.026
871	0.026
872	0.026
872	0.025
872	0.024
873	0.023
873	0.022
874	0.021
874	0.021
875	0.021
875	0.021
875	0.022
876	0.022
876	0.023
877	0.024
877	0.026
878	0.027
878	0.029
878	0.031
879	0.032
879	0.033
880	0.033
880	0.034
881	0.034
881	0.034
881	0.034
882	0.033
882	0.033
883	0.032
883	0.032
884	0.033
884	0.033
884	0.034
885	0.035
885	0.036
886	0.037
886	0.038
887	0.039
887	0.039
887	0.039
888	0.039
888	0.039
889	0.039
889	0.039
890	0.038
890	0.037
890	0.036
891	0.035
891	0.034
892	0.034
892	0.033
893	0.033
893	0.033
893	0.033
894	0.033
894	0.033
895	0.033
895	0.033
895	0.033
896	0.033
896	0.033
897	0.033
897	0.033
898	0.033
898	0.033
898	0.033
899	0.033
899	0.033
900	0.034
900	0.034
901	0.035
901	0.036
901	0.037
902	0.038
902	0.039
903	0.039
903	0.04
904	0.04
904	0.04
904	0.04
905	0.04
905	0.04
906	0.039
906	0.039
907	0.039
907	0.039
907	0.039
908	0.039
908	0.039
909	0.04
909	0.04
910	0.041
910	0.042
910	0.043
911	0.044
911	0.045
912	0.046
912	0.047
913	0.048
913	0.048
913	0.048
914	0.048
914	0.047
915	0.047
915	0.046
916	0.045
916	0.044
916	0.042
917	0.041
917	0.04
918	0.039
918	0.039
918	0.038
919	0.038
919	0.038
920	0.038
920	0.038
921	0.038
921	0.038
921	0.039
922	0.039
922	0.039
923	0.039
923	0.039
924	0.039
924	0.039
924	0.039
925	0.039
925	0.039
926	0.039
926	0.039
927	0.038
927	0.038
927	0.038
928	0.038
928	0.038
929	0.038
929	0.038
930	0.037
930	0.037
930	0.036
931	0.036
931	0.035
932	0.035
932	0.034
933	0.034
933	0.034
933	0.034
934	0.034
934	0.035
935	0.035
935	0.036
935	0.037
936	0.037
936	0.038
937	0.04
937	0.04
938	0.041
938	0.042
938	0.043
939	0.044
939	0.045
940	0.046
940	0.046
941	0.047
941	0.048
941	0.049
942	0.051
942	0.051
943	0.052
943	0.052
944	0.053
944	0.053
944	0.053
945	0.054
945	0.054
946	0.054
946	0.054
946	0.054
947	0.054
947	0.054
948	0.054
948	0.053
949	0.053
949	0.053
949	0.053
950	0.053
950	0.053
951	0.053
951	0.053
952	0.053
952	0.053
952	0.054
953	0.055
953	0.055
954	0.054
954	0.054
955	0.054
955	0.054
955	0.053
956	0.053
956	0.053
957	0.052
957	0.051
957	0.049
958	0.048
958	0.048
959	0.047
959	0.046
960	0.045
960	0.044
960	0.043
961	0.042
961	0.042
962	0.042
962	0.041
963	0.041
963	0.041
963	0.042
964	0.042
964	0.043
965	0.043
965	0.044
966	0.045
966	0.046
966	0.047
967	0.048
967	0.049
968	0.05
968	0.051
968	0.051
969	0.052
969	0.053
970	0.053
970	0.053
971	0.053
971	0.053
971	0.053
972	0.053
972	0.054
973	0.054
973	0.054
974	0.054
974	0.054
974	0.054
975	0.054
975	0.055
976	0.055
976	0.055
976	0.054
977	0.053
977	0.052
978	0.05
978	0.049
979	0.048
979	0.046
979	0.045
980	0.043
980	0.042
981	0.041
981	0.041
982	0.041
982	0.042
982	0.042
983	0.043
983	0.044
984	0.045
984	0.046
984	0.047
985	0.048
985	0.049
986	0.049
986	0.049
987	0.049
987	0.05
987	0.05
988	0.05
988	0.051
989	0.051
989	0.051
990	0.051
990	0.051
990	0.052
991	0.053
991	0.054
992	0.054
992	0.055
992	0.056
993	0.056
993	0.056
994	0.057
994	0.057
995	0.057
995	0.056
995	0.056
996	0.056
996	0.055
997	0.054
997	0.054
997	0.054
998	0.054
998	0.054
999	0.054
999	0.054
1000	0.054
1000	0.054
1000	0.054
1001	0.053
1001	0.053
1002	0.053
1002	0.053
1003	0.052
1003	0.051
1003	0.051
1004	0.05
1004	0.049
1005	0.048
1005	0.047
1005	0.046
1006	0.045
1006	0.044
1007	0.043
1007	0.042
1008	0.042
1008	0.041
1008	0.041
1009	0.041
1009	0.041
1010	0.04
1010	0.041
1010	0.041
1011	0.041
1011	0.04
1012	0.041
1012	0.041
1013	0.04
1013	0.04
1013	0.039
1014	0.038
1014	0.037
1015	0.037
1015	0.036
1016	0.036
1016	0.035
1016	0.035
1017	0.034
1017	0.034
1018	0.034
1018	0.035
1018	0.035
1019	0.036
1019	0.036
1020	0.037
1020	0.037
1021	0.037
1021	0.037
1021	0.038
1022	0.038
1022	0.038
1023	0.038
1023	0.038
1023	0.038
1024	0.037
1024	0.037
1025	0.036
1025	0.036
1026	0.036
1026	0.035
1026	0.035
1027	0.035
1027	0.035
1028	0.036
1028	0.036
1028	0.036
1029	0.036
1029	0.037
1030	0.037
1030	0.038
1031	0.038
1031	0.038
1031	0.038
1032	0.038
1032	0.038
1033	0.038
1033	0.037
1033	0.037
1034	0.036
1034	0.035
1035	0.034
1035	0.033
1036	0.033
1036	0.033
1036	0.033
1037	0.033
1037	0.033
1038	0.033
1038	0.034
1039	0.035
1039	0.036
1039	0.037
1040	0.038
1040	0.039
1041	0.039
1041	0.04
1041	0.04
1042	0.041
1042	0.041
1043	0.041
1043	0.041
1044	0.042
1044	0.042
1044	0.044
1045	0.044
1045	0.045
1046	0.046
1046	0.047
1046	0.048
1047	0.05
1047	0.052
1048	0.053
1048	0.054
1049	0.055
1049	0.055
1049	0.056
1050	0.056
1050	0.056
1051	0.056
1051	0.057
1051	0.057
1052	0.058
1052	0.058
1053	0.058
1053	0.059
1053	0.059
1054	0.06
1054	0.061
1055	0.061
1055	0.062
1056	0.062
1056	0.061
1056	0.061
1057	0.061
1057	0.061
1058	0.062
1058	0.062
1058	0.063
1059	0.064
1059	0.065
1060	0.066
1060	0.068
1061	0.07
1061	0.072
1061	0.073
1062	0.074
1062	0.075
1063	0.076
1063	0.077
1063	0.078
1064	0.079
1064	0.08
1065	0.081
1065	0.081
1066	0.083
1066	0.084
1066	0.085
1067	0.086
1067	0.087
1068	0.087
1068	0.088
1068	0.088
1069	0.088
1069	0.088
1070	0.089
1070	0.09
1071	0.091
1071	0.093
1071	0.094
1072	0.096
1072	0.099
1073	0.101
1073	0.104
1073	0.106
1074	0.109
1074	0.112
1075	0.113
1075	0.116
1076	0.117
1076	0.12
1076	0.122
1077	0.124
1077	0.126
1078	0.128
1078	0.132
1078	0.135
1079	0.138
1079	0.142
1080	0.145
1080	0.149
1080	0.152
1081	0.156
1081	0.16
1082	0.165
1082	0.169
1083	0.173
1083	0.177
1083	0.182
1084	0.188
1084	0.195
1085	0.201
1085	0.207
1085	0.213
1086	0.218
1086	0.223
1087	0.229
1087	0.236
1088	0.241
1088	0.247
1088	0.254
1089	0.261
1089	0.27
1090	0.28
1090	0.293
1090	0.306
1091	0.32
1091	0.338
1092	0.355
1092	0.378
1092	0.399
1093	0.42
1093	0.446
1094	0.472
1094	0.5
1095	0.529
1095	0.564
1095	0.611
1096	0.659
1096	0.716
1097	0.783
1097	0.865
1097	0.98
1098	1.137
1098	1.414
1099	-0
1099	-0
1100	-0
1100	-0
1100	-0
1101	-0
1101	-0
1102	-0
1102	-0
1102	-0
1103	-0
1103	-0
1104	-0
1104	-0
1104	-0
1105	-0
1105	-0
1106	-0
1106	-0
1107	-0
1107	-0
1107	-0
1108	-0
1108	-0
1109	-0
1109	-0
1109	-0
1110	-0
1110	-0
1111	-0
1111	-0
