Data from 15c-2-5a_Absorbance__16__04292.txt Node

Date: Wed Jan 17 14:31:03 CET 2024
User: Marek
Spectrometer: MAYP115816
Trigger mode: 0
Integration Time (sec): 2.000000E-1
Scans to average: 10
Electric dark correction enabled: true
Nonlinearity correction enabled: true
Boxcar width: 5
XAxis mode: Wavelengths
Number of Pixels in Spectrum: 2068
>>>>>Begin Spectral Data<<<<<
199	-2.386
199	-2.238
200	-2.071
200	-1.942
201	-1.86
201	-1.808
202	-1.73
202	-1.669
203	-1.615
203	-1.568
204	-1.54
204	-1.515
205	-1.49
205	-1.478
205	-1.476
206	-1.474
206	-1.469
207	-1.467
207	-1.462
208	-1.46
208	-1.459
209	-1.454
209	-1.451
210	-1.45
210	-1.45
211	-1.448
211	-1.447
212	-1.447
212	-1.446
213	-1.445
213	-1.443
213	-1.442
214	-1.44
214	-1.44
215	-1.438
215	-1.436
216	-1.436
216	-1.433
217	-1.428
217	-1.426
218	-1.425
218	-1.421
219	-1.419
219	-1.418
220	-1.414
220	-1.409
221	-1.404
221	-1.4
221	-1.396
222	-1.392
222	-1.386
223	-1.38
223	-1.376
224	-1.37
224	-1.362
225	-1.354
225	-1.346
226	-1.336
226	-1.324
227	-1.31
227	-1.295
228	-1.278
228	-1.258
229	-1.236
229	-1.211
229	-1.182
230	-1.151
230	-1.118
231	-1.08
231	-1.04
232	-0.998
232	-0.953
233	-0.905
233	-0.855
234	-0.804
234	-0.752
235	-0.701
235	-0.65
236	-0.599
236	-0.549
236	-0.501
237	-0.453
237	-0.408
238	-0.365
238	-0.324
239	-0.285
239	-0.248
240	-0.212
240	-0.18
241	-0.149
241	-0.12
242	-0.093
242	-0.068
243	-0.045
243	-0.024
243	-0.004
244	0.015
244	0.031
245	0.047
245	0.061
246	0.075
246	0.087
247	0.098
247	0.109
248	0.119
248	0.129
249	0.138
249	0.145
250	0.153
250	0.16
250	0.166
251	0.172
251	0.178
252	0.184
252	0.189
253	0.194
253	0.198
254	0.201
254	0.205
255	0.209
255	0.212
256	0.215
256	0.218
257	0.22
257	0.223
258	0.225
258	0.226
258	0.228
259	0.23
259	0.231
260	0.233
260	0.234
261	0.235
261	0.236
262	0.236
262	0.237
263	0.238
263	0.239
264	0.24
264	0.24
265	0.24
265	0.241
265	0.241
266	0.241
266	0.241
267	0.241
267	0.241
268	0.241
268	0.241
269	0.24
269	0.24
270	0.239
270	0.239
271	0.238
271	0.238
272	0.238
272	0.237
272	0.237
273	0.236
273	0.236
274	0.236
274	0.235
275	0.235
275	0.234
276	0.234
276	0.233
277	0.232
277	0.231
278	0.23
278	0.229
278	0.227
279	0.225
279	0.224
280	0.224
280	0.224
281	0.223
281	0.223
282	0.223
282	0.223
283	0.223
283	0.224
284	0.224
284	0.225
285	0.225
285	0.225
285	0.225
286	0.224
286	0.224
287	0.224
287	0.224
288	0.224
288	0.223
289	0.223
289	0.223
290	0.222
290	0.222
291	0.222
291	0.221
292	0.221
292	0.221
292	0.22
293	0.22
293	0.22
294	0.22
294	0.219
295	0.219
295	0.219
296	0.219
296	0.218
297	0.218
297	0.218
298	0.218
298	0.217
298	0.217
299	0.217
299	0.217
300	0.216
300	0.216
301	0.216
301	0.215
302	0.215
302	0.215
303	0.214
303	0.214
304	0.213
304	0.213
305	0.213
305	0.212
305	0.211
306	0.211
306	0.21
307	0.21
307	0.209
308	0.209
308	0.208
309	0.208
309	0.207
310	0.207
310	0.206
311	0.205
311	0.205
311	0.204
312	0.203
312	0.203
313	0.202
313	0.201
314	0.2
314	0.2
315	0.199
315	0.198
316	0.198
316	0.197
317	0.196
317	0.196
318	0.195
318	0.194
318	0.193
319	0.192
319	0.191
320	0.191
320	0.19
321	0.189
321	0.188
322	0.187
322	0.186
323	0.185
323	0.184
324	0.183
324	0.183
324	0.182
325	0.181
325	0.18
326	0.18
326	0.179
327	0.178
327	0.178
328	0.177
328	0.176
329	0.176
329	0.175
330	0.174
330	0.173
330	0.172
331	0.172
331	0.171
332	0.17
332	0.169
333	0.168
333	0.167
334	0.166
334	0.166
335	0.165
335	0.164
336	0.163
336	0.162
336	0.161
337	0.161
337	0.16
338	0.159
338	0.158
339	0.158
339	0.157
340	0.156
340	0.156
341	0.155
341	0.154
342	0.153
342	0.153
342	0.152
343	0.151
343	0.15
344	0.149
344	0.149
345	0.148
345	0.147
346	0.146
346	0.146
347	0.145
347	0.144
348	0.143
348	0.143
348	0.142
349	0.141
349	0.14
350	0.139
350	0.138
351	0.137
351	0.136
352	0.135
352	0.133
353	0.132
353	0.131
354	0.13
354	0.128
354	0.127
355	0.126
355	0.125
356	0.123
356	0.122
357	0.122
357	0.121
358	0.121
358	0.122
359	0.122
359	0.123
360	0.124
360	0.125
360	0.126
361	0.127
361	0.127
362	0.128
362	0.128
363	0.128
363	0.128
364	0.127
364	0.127
365	0.126
365	0.126
366	0.125
366	0.125
366	0.124
367	0.124
367	0.124
368	0.123
368	0.122
369	0.122
369	0.122
370	0.121
370	0.121
371	0.12
371	0.12
372	0.119
372	0.119
372	0.119
373	0.118
373	0.118
374	0.118
374	0.118
375	0.118
375	0.118
376	0.118
376	0.118
377	0.119
377	0.119
378	0.119
378	0.12
378	0.12
379	0.12
379	0.12
380	0.12
380	0.121
381	0.121
381	0.121
382	0.12
382	0.12
383	0.119
383	0.119
383	0.118
384	0.118
384	0.118
385	0.118
385	0.117
386	0.118
386	0.118
387	0.118
387	0.118
388	0.118
388	0.117
389	0.117
389	0.117
389	0.117
390	0.118
390	0.118
391	0.119
391	0.119
392	0.119
392	0.119
393	0.12
393	0.12
394	0.12
394	0.12
394	0.119
395	0.119
395	0.119
396	0.118
396	0.118
397	0.119
397	0.119
398	0.119
398	0.119
399	0.119
399	0.119
400	0.119
400	0.118
400	0.118
401	0.117
401	0.115
402	0.114
402	0.113
403	0.113
403	0.113
404	0.113
404	0.113
405	0.112
405	0.112
405	0.111
406	0.111
406	0.111
407	0.111
407	0.111
408	0.11
408	0.109
409	0.108
409	0.108
410	0.108
410	0.108
411	0.108
411	0.108
411	0.108
412	0.108
412	0.107
413	0.107
413	0.107
414	0.106
414	0.106
415	0.106
415	0.105
416	0.104
416	0.104
416	0.103
417	0.103
417	0.102
418	0.102
418	0.103
419	0.104
419	0.105
420	0.106
420	0.107
421	0.108
421	0.109
421	0.109
422	0.11
422	0.11
423	0.11
423	0.11
424	0.109
424	0.108
425	0.107
425	0.105
426	0.105
426	0.104
427	0.104
427	0.104
427	0.104
428	0.105
428	0.106
429	0.107
429	0.108
430	0.108
430	0.108
431	0.108
431	0.107
432	0.107
432	0.106
432	0.105
433	0.103
433	0.101
434	0.1
434	0.1
435	0.1
435	0.1
436	0.1
436	0.1
437	0.101
437	0.101
437	0.101
438	0.101
438	0.101
439	0.1
439	0.1
440	0.099
440	0.099
441	0.099
441	0.1
442	0.1
442	0.1
442	0.101
443	0.101
443	0.102
444	0.102
444	0.102
445	0.103
445	0.103
446	0.103
446	0.103
447	0.103
447	0.102
447	0.102
448	0.102
448	0.101
449	0.101
449	0.101
450	0.1
450	0.1
451	0.099
451	0.099
452	0.098
452	0.097
452	0.097
453	0.096
453	0.095
454	0.094
454	0.094
455	0.093
455	0.093
456	0.093
456	0.092
457	0.092
457	0.092
458	0.091
458	0.091
458	0.091
459	0.092
459	0.091
460	0.09
460	0.089
461	0.088
461	0.087
462	0.087
462	0.087
463	0.087
463	0.088
463	0.088
464	0.089
464	0.089
465	0.088
465	0.089
466	0.089
466	0.089
467	0.089
467	0.088
467	0.087
468	0.085
468	0.082
469	0.08
469	0.078
470	0.076
470	0.075
471	0.075
471	0.074
472	0.074
472	0.074
472	0.074
473	0.075
473	0.077
474	0.078
474	0.079
475	0.08
475	0.081
476	0.081
476	0.081
477	0.081
477	0.081
477	0.081
478	0.08
478	0.08
479	0.079
479	0.08
480	0.08
480	0.081
481	0.082
481	0.082
482	0.083
482	0.084
482	0.086
483	0.088
483	0.092
484	0.096
484	0.099
485	0.1
485	0.102
486	0.103
486	0.104
487	0.104
487	0.104
487	0.103
488	0.102
488	0.099
489	0.096
489	0.093
490	0.091
490	0.089
491	0.087
491	0.087
492	0.087
492	0.086
492	0.086
493	0.086
493	0.087
494	0.088
494	0.09
495	0.092
495	0.094
496	0.095
496	0.095
496	0.096
497	0.097
497	0.098
498	0.098
498	0.098
499	0.098
499	0.097
500	0.097
500	0.097
501	0.099
501	0.1
501	0.101
502	0.102
502	0.103
503	0.104
503	0.105
504	0.106
504	0.106
505	0.106
505	0.105
506	0.105
506	0.105
506	0.104
507	0.104
507	0.104
508	0.104
508	0.104
509	0.104
509	0.105
510	0.105
510	0.105
511	0.105
511	0.105
511	0.104
512	0.103
512	0.102
513	0.101
513	0.099
514	0.098
514	0.097
515	0.096
515	0.095
515	0.093
516	0.092
516	0.091
517	0.091
517	0.092
518	0.092
518	0.092
519	0.091
519	0.09
520	0.087
520	0.085
520	0.083
521	0.08
521	0.077
522	0.073
522	0.069
523	0.065
523	0.063
524	0.062
524	0.061
524	0.062
525	0.063
525	0.065
526	0.068
526	0.072
527	0.077
527	0.081
528	0.084
528	0.088
529	0.09
529	0.092
529	0.094
530	0.096
530	0.097
531	0.098
531	0.1
532	0.1
532	0.1
533	0.101
533	0.102
533	0.102
534	0.102
534	0.102
535	0.102
535	0.102
536	0.102
536	0.102
537	0.102
537	0.102
538	0.102
538	0.101
538	0.1
539	0.099
539	0.099
540	0.099
540	0.099
541	0.098
541	0.096
542	0.095
542	0.094
542	0.093
543	0.093
543	0.093
544	0.092
544	0.091
545	0.091
545	0.092
546	0.093
546	0.093
547	0.093
547	0.091
547	0.089
548	0.087
548	0.086
549	0.084
549	0.083
550	0.082
550	0.08
551	0.078
551	0.076
551	0.075
552	0.075
552	0.075
553	0.075
553	0.076
554	0.076
554	0.076
555	0.074
555	0.071
556	0.069
556	0.066
556	0.063
557	0.061
557	0.059
558	0.057
558	0.056
559	0.055
559	0.055
560	0.056
560	0.056
560	0.057
561	0.058
561	0.059
562	0.06
562	0.06
563	0.059
563	0.058
564	0.055
564	0.053
564	0.05
565	0.049
565	0.049
566	0.048
566	0.048
567	0.049
567	0.052
568	0.055
568	0.058
568	0.062
569	0.067
569	0.072
570	0.075
570	0.077
571	0.079
571	0.082
572	0.083
572	0.085
573	0.086
573	0.086
573	0.086
574	0.086
574	0.085
575	0.085
575	0.087
576	0.09
576	0.09
577	0.09
577	0.089
577	0.088
578	0.088
578	0.088
579	0.089
579	0.092
580	0.092
580	0.09
581	0.086
581	0.083
581	0.082
582	0.081
582	0.081
583	0.083
583	0.083
584	0.08
584	0.075
585	0.072
585	0.071
585	0.072
586	0.072
586	0.072
587	0.071
587	0.068
588	0.064
588	0.06
589	0.057
589	0.056
590	0.055
590	0.054
590	0.055
591	0.056
591	0.057
592	0.058
592	0.057
593	0.057
593	0.057
594	0.057
594	0.056
594	0.054
595	0.054
595	0.052
596	0.049
596	0.049
597	0.052
597	0.055
598	0.057
598	0.059
598	0.061
599	0.062
599	0.062
600	0.062
600	0.06
601	0.059
601	0.057
602	0.055
602	0.053
602	0.051
603	0.05
603	0.05
604	0.052
604	0.053
605	0.056
605	0.059
606	0.06
606	0.06
606	0.059
607	0.058
607	0.057
608	0.057
608	0.054
609	0.052
609	0.051
610	0.049
610	0.046
610	0.046
611	0.046
611	0.048
612	0.049
612	0.051
613	0.053
613	0.055
614	0.055
614	0.054
614	0.053
615	0.052
615	0.05
616	0.049
616	0.047
617	0.045
617	0.042
618	0.039
618	0.036
618	0.034
619	0.033
619	0.032
620	0.034
620	0.035
621	0.036
621	0.036
622	0.036
622	0.037
622	0.037
623	0.037
623	0.038
624	0.038
624	0.038
625	0.036
625	0.036
626	0.035
626	0.035
626	0.034
627	0.034
627	0.034
628	0.034
628	0.034
629	0.034
629	0.033
630	0.031
630	0.03
630	0.029
631	0.029
631	0.028
632	0.027
632	0.027
633	0.027
633	0.027
634	0.028
634	0.03
634	0.033
635	0.035
635	0.036
636	0.037
636	0.038
637	0.039
637	0.039
638	0.04
638	0.041
638	0.041
639	0.041
639	0.04
640	0.04
640	0.04
641	0.041
641	0.042
642	0.043
642	0.044
642	0.045
643	0.046
643	0.047
644	0.048
644	0.05
645	0.051
645	0.053
646	0.056
646	0.059
646	0.063
647	0.066
647	0.07
648	0.073
648	0.076
649	0.078
649	0.081
650	0.084
650	0.087
650	0.089
651	0.091
651	0.092
652	0.093
652	0.094
653	0.096
653	0.105
653	0.132
654	0.111
654	0.095
655	0.098
655	0.099
656	0.101
656	0.102
657	0.103
657	0.105
657	0.105
658	0.101
658	0.082
659	0.099
659	0.122
660	0.123
660	0.124
661	0.125
661	0.126
661	0.129
662	0.132
662	0.135
663	0.139
663	0.143
664	0.146
664	0.148
665	0.151
665	0.153
665	0.155
666	0.157
666	0.159
667	0.16
667	0.161
668	0.163
668	0.165
669	0.167
669	0.17
669	0.174
670	0.179
670	0.183
671	0.185
671	0.187
672	0.189
672	0.191
672	0.192
673	0.193
673	0.194
674	0.194
674	0.193
675	0.191
675	0.191
676	0.192
676	0.194
676	0.195
677	0.197
677	0.199
678	0.201
678	0.203
679	0.205
679	0.207
680	0.209
680	0.211
680	0.212
681	0.212
681	0.213
682	0.214
682	0.215
683	0.217
683	0.22
684	0.223
684	0.225
684	0.225
685	0.226
685	0.227
686	0.229
686	0.23
687	0.23
687	0.229
687	0.229
688	0.228
688	0.227
689	0.228
689	0.229
690	0.23
690	0.23
691	0.23
691	0.23
691	0.231
692	0.231
692	0.23
693	0.229
693	0.23
694	0.229
694	0.227
695	0.227
695	0.229
695	0.231
696	0.231
696	0.23
697	0.229
697	0.229
698	0.228
698	0.226
698	0.225
699	0.224
699	0.222
700	0.218
700	0.217
701	0.216
701	0.216
702	0.215
702	0.215
702	0.214
703	0.213
703	0.213
704	0.212
704	0.212
705	0.213
705	0.213
705	0.213
706	0.213
706	0.213
707	0.212
707	0.211
708	0.209
708	0.208
709	0.207
709	0.206
709	0.202
710	0.198
710	0.195
711	0.193
711	0.191
712	0.189
712	0.188
713	0.187
713	0.186
713	0.184
714	0.181
714	0.179
715	0.178
715	0.175
716	0.173
716	0.171
716	0.169
717	0.167
717	0.166
718	0.164
718	0.161
719	0.16
719	0.159
720	0.158
720	0.156
720	0.154
721	0.151
721	0.148
722	0.146
722	0.143
723	0.141
723	0.14
723	0.138
724	0.136
724	0.134
725	0.132
725	0.13
726	0.128
726	0.127
727	0.125
727	0.124
727	0.122
728	0.12
728	0.119
729	0.119
729	0.119
730	0.118
730	0.116
730	0.115
731	0.113
731	0.112
732	0.111
732	0.11
733	0.107
733	0.105
734	0.102
734	0.1
734	0.097
735	0.096
735	0.094
736	0.092
736	0.09
737	0.088
737	0.088
737	0.087
738	0.085
738	0.081
739	0.078
739	0.076
740	0.073
740	0.07
741	0.068
741	0.065
741	0.06
742	0.053
742	0.048
743	0.045
743	0.042
744	0.039
744	0.037
744	0.035
745	0.032
745	0.029
746	0.027
746	0.026
747	0.026
747	0.026
748	0.026
748	0.026
748	0.026
749	0.025
749	0.025
750	0.025
750	0.025
751	0.026
751	0.026
751	0.028
752	0.028
752	0.027
753	0.026
753	0.026
754	0.026
754	0.025
754	0.026
755	0.027
755	0.029
756	0.029
756	0.027
757	0.025
757	0.025
758	0.024
758	0.023
758	0.022
759	0.022
759	0.019
760	0.015
760	0.011
761	0.007
761	0.005
761	0.004
762	0.001
762	0
763	0
763	-0.002
764	-0.006
764	-0.009
764	-0.012
765	-0.015
765	-0.018
766	-0.02
766	-0.02
767	-0.021
767	-0.025
768	-0.03
768	-0.033
768	-0.035
769	-0.036
769	-0.037
770	-0.038
770	-0.04
771	-0.043
771	-0.047
771	-0.051
772	-0.055
772	-0.058
773	-0.062
773	-0.067
774	-0.072
774	-0.077
775	-0.082
775	-0.087
775	-0.093
776	-0.099
776	-0.105
777	-0.112
777	-0.118
778	-0.125
778	-0.132
778	-0.138
779	-0.141
779	-0.14
780	-0.141
780	-0.144
781	-0.145
781	-0.146
781	-0.146
782	-0.146
782	-0.147
783	-0.146
783	-0.145
784	-0.145
784	-0.148
784	-0.149
785	-0.15
785	-0.152
786	-0.151
786	-0.148
787	-0.143
787	-0.139
788	-0.137
788	-0.138
788	-0.139
789	-0.141
789	-0.141
790	-0.138
790	-0.136
791	-0.137
791	-0.139
791	-0.142
792	-0.136
792	-0.125
793	-0.12
793	-0.116
794	-0.114
794	-0.116
794	-0.12
795	-0.123
795	-0.123
796	-0.124
796	-0.127
797	-0.136
797	-0.147
797	-0.153
798	-0.158
798	-0.161
799	-0.161
799	-0.161
800	-0.16
800	-0.162
801	-0.164
801	-0.165
801	-0.165
802	-0.167
802	-0.168
803	-0.169
803	-0.169
804	-0.168
804	-0.163
804	-0.157
805	-0.153
805	-0.151
806	-0.149
806	-0.147
807	-0.146
807	-0.146
807	-0.146
808	-0.146
808	-0.147
809	-0.152
809	-0.158
810	-0.162
810	-0.165
810	-0.168
811	-0.171
811	-0.172
812	-0.168
812	-0.165
813	-0.165
813	-0.165
813	-0.166
814	-0.166
814	-0.166
815	-0.162
815	-0.159
816	-0.156
816	-0.156
817	-0.159
817	-0.162
817	-0.162
818	-0.161
818	-0.157
819	-0.152
819	-0.149
820	-0.151
820	-0.153
820	-0.155
821	-0.155
821	-0.154
822	-0.154
822	-0.154
823	-0.153
823	-0.153
823	-0.155
824	-0.154
824	-0.149
825	-0.141
825	-0.133
826	-0.124
826	-0.117
826	-0.109
827	-0.1
827	-0.092
828	-0.085
828	-0.079
829	-0.074
829	-0.069
829	-0.066
830	-0.064
830	-0.061
831	-0.056
831	-0.052
832	-0.049
832	-0.045
832	-0.041
833	-0.037
833	-0.033
834	-0.029
834	-0.026
835	-0.022
835	-0.019
835	-0.017
836	-0.015
836	-0.012
837	-0.011
837	-0.01
838	-0.01
838	-0.009
839	-0.009
839	-0.008
839	-0.008
840	-0.008
840	-0.007
841	-0.007
841	-0.006
842	-0.004
842	-0.002
842	-0.001
843	0.001
843	0.002
844	0.004
844	0.006
845	0.007
845	0.009
845	0.01
846	0.012
846	0.013
847	0.014
847	0.015
848	0.016
848	0.017
848	0.018
849	0.02
849	0.021
850	0.022
850	0.022
851	0.024
851	0.025
851	0.026
852	0.027
852	0.028
853	0.03
853	0.031
854	0.031
854	0.032
854	0.033
855	0.033
855	0.033
856	0.033
856	0.033
857	0.034
857	0.034
857	0.034
858	0.034
858	0.034
859	0.034
859	0.034
860	0.035
860	0.036
860	0.036
861	0.037
861	0.038
862	0.038
862	0.039
863	0.039
863	0.04
863	0.04
864	0.041
864	0.041
865	0.042
865	0.042
866	0.042
866	0.042
866	0.043
867	0.043
867	0.044
868	0.044
868	0.045
869	0.046
869	0.047
869	0.047
870	0.047
870	0.048
871	0.048
871	0.048
872	0.048
872	0.047
872	0.047
873	0.046
873	0.045
874	0.045
874	0.045
875	0.045
875	0.045
875	0.045
876	0.046
876	0.046
877	0.048
877	0.049
878	0.05
878	0.052
878	0.053
879	0.054
879	0.055
880	0.055
880	0.055
881	0.055
881	0.055
881	0.055
882	0.055
882	0.055
883	0.054
883	0.054
884	0.054
884	0.054
884	0.054
885	0.055
885	0.055
886	0.056
886	0.056
887	0.057
887	0.057
887	0.057
888	0.057
888	0.057
889	0.057
889	0.056
890	0.056
890	0.055
890	0.054
891	0.053
891	0.052
892	0.051
892	0.05
893	0.049
893	0.048
893	0.048
894	0.047
894	0.047
895	0.047
895	0.047
895	0.047
896	0.048
896	0.048
897	0.049
897	0.05
898	0.05
898	0.051
898	0.052
899	0.053
899	0.053
900	0.054
900	0.055
901	0.057
901	0.058
901	0.059
902	0.06
902	0.06
903	0.061
903	0.061
904	0.062
904	0.063
904	0.063
905	0.064
905	0.064
906	0.064
906	0.065
907	0.064
907	0.064
907	0.064
908	0.064
908	0.064
909	0.064
909	0.064
910	0.064
910	0.064
910	0.065
911	0.065
911	0.066
912	0.066
912	0.067
913	0.068
913	0.068
913	0.068
914	0.067
914	0.067
915	0.066
915	0.065
916	0.064
916	0.062
916	0.061
917	0.06
917	0.058
918	0.057
918	0.057
918	0.056
919	0.056
919	0.056
920	0.057
920	0.057
921	0.058
921	0.059
921	0.059
922	0.06
922	0.061
923	0.061
923	0.062
924	0.062
924	0.061
924	0.061
925	0.06
925	0.059
926	0.059
926	0.058
927	0.058
927	0.057
927	0.057
928	0.056
928	0.056
929	0.055
929	0.055
930	0.055
930	0.054
930	0.054
931	0.053
931	0.052
932	0.052
932	0.051
933	0.05
933	0.05
933	0.05
934	0.05
934	0.05
935	0.05
935	0.051
935	0.051
936	0.052
936	0.053
937	0.053
937	0.054
938	0.055
938	0.056
938	0.057
939	0.059
939	0.06
940	0.062
940	0.063
941	0.065
941	0.067
941	0.068
942	0.07
942	0.071
943	0.072
943	0.073
944	0.074
944	0.074
944	0.075
945	0.075
945	0.075
946	0.076
946	0.076
946	0.075
947	0.076
947	0.075
948	0.075
948	0.075
949	0.075
949	0.075
949	0.074
950	0.074
950	0.074
951	0.073
951	0.073
952	0.072
952	0.073
952	0.073
953	0.073
953	0.073
954	0.072
954	0.072
955	0.071
955	0.071
955	0.071
956	0.071
956	0.07
957	0.069
957	0.068
957	0.067
958	0.066
958	0.065
959	0.064
959	0.064
960	0.063
960	0.061
960	0.06
961	0.059
961	0.058
962	0.058
962	0.057
963	0.057
963	0.056
963	0.056
964	0.056
964	0.056
965	0.056
965	0.057
966	0.057
966	0.058
966	0.058
967	0.059
967	0.059
968	0.059
968	0.059
968	0.059
969	0.059
969	0.059
970	0.059
970	0.059
971	0.059
971	0.059
971	0.059
972	0.059
972	0.06
973	0.061
973	0.061
974	0.061
974	0.062
974	0.062
975	0.063
975	0.064
976	0.065
976	0.065
976	0.065
977	0.065
977	0.064
978	0.064
978	0.063
979	0.063
979	0.063
979	0.063
980	0.062
980	0.062
981	0.061
981	0.061
982	0.062
982	0.062
982	0.063
983	0.063
983	0.064
984	0.064
984	0.065
984	0.066
985	0.066
985	0.067
986	0.066
986	0.066
987	0.066
987	0.066
987	0.067
988	0.067
988	0.067
989	0.068
989	0.068
990	0.069
990	0.07
990	0.072
991	0.073
991	0.074
992	0.075
992	0.076
992	0.076
993	0.077
993	0.077
994	0.077
994	0.076
995	0.076
995	0.075
995	0.074
996	0.073
996	0.072
997	0.072
997	0.071
997	0.071
998	0.071
998	0.071
999	0.071
999	0.071
1000	0.071
1000	0.072
1000	0.072
1001	0.072
1001	0.072
1002	0.072
1002	0.072
1003	0.071
1003	0.071
1003	0.071
1004	0.07
1004	0.069
1005	0.069
1005	0.068
1005	0.067
1006	0.066
1006	0.066
1007	0.065
1007	0.064
1008	0.064
1008	0.063
1008	0.063
1009	0.063
1009	0.063
1010	0.063
1010	0.064
1010	0.064
1011	0.064
1011	0.064
1012	0.064
1012	0.065
1013	0.065
1013	0.064
1013	0.064
1014	0.064
1014	0.063
1015	0.063
1015	0.063
1016	0.063
1016	0.062
1016	0.062
1017	0.062
1017	0.062
1018	0.063
1018	0.064
1018	0.065
1019	0.065
1019	0.066
1020	0.067
1020	0.068
1021	0.068
1021	0.069
1021	0.07
1022	0.07
1022	0.07
1023	0.071
1023	0.07
1023	0.07
1024	0.069
1024	0.069
1025	0.068
1025	0.067
1026	0.067
1026	0.066
1026	0.065
1027	0.065
1027	0.064
1028	0.065
1028	0.065
1028	0.065
1029	0.065
1029	0.065
1030	0.066
1030	0.066
1031	0.067
1031	0.067
1031	0.067
1032	0.067
1032	0.067
1033	0.068
1033	0.068
1033	0.068
1034	0.067
1034	0.067
1035	0.067
1035	0.066
1036	0.067
1036	0.067
1036	0.068
1037	0.068
1037	0.069
1038	0.07
1038	0.07
1039	0.072
1039	0.073
1039	0.074
1040	0.075
1040	0.076
1041	0.076
1041	0.077
1041	0.077
1042	0.077
1042	0.078
1043	0.078
1043	0.078
1044	0.079
1044	0.079
1044	0.08
1045	0.081
1045	0.082
1046	0.082
1046	0.084
1046	0.085
1047	0.087
1047	0.088
1048	0.09
1048	0.091
1049	0.092
1049	0.092
1049	0.093
1050	0.093
1050	0.093
1051	0.094
1051	0.095
1051	0.096
1052	0.096
1052	0.096
1053	0.097
1053	0.098
1053	0.099
1054	0.1
1054	0.101
1055	0.101
1055	0.101
1056	0.101
1056	0.101
1056	0.1
1057	0.101
1057	0.102
1058	0.103
1058	0.103
1058	0.105
1059	0.106
1059	0.107
1060	0.109
1060	0.112
1061	0.114
1061	0.117
1061	0.119
1062	0.119
1062	0.121
1063	0.122
1063	0.123
1063	0.125
1064	0.127
1064	0.129
1065	0.131
1065	0.132
1066	0.135
1066	0.137
1066	0.14
1067	0.142
1067	0.145
1068	0.146
1068	0.147
1068	0.149
1069	0.15
1069	0.151
1070	0.153
1070	0.155
1071	0.157
1071	0.159
1071	0.161
1072	0.165
1072	0.169
1073	0.173
1073	0.177
1073	0.181
1074	0.185
1074	0.189
1075	0.191
1075	0.195
1076	0.198
1076	0.203
1076	0.205
1077	0.209
1077	0.213
1078	0.217
1078	0.222
1078	0.228
1079	0.233
1079	0.24
1080	0.246
1080	0.251
1080	0.256
1081	0.262
1081	0.269
1082	0.275
1082	0.282
1083	0.29
1083	0.298
1083	0.307
1084	0.317
1084	0.328
1085	0.34
1085	0.353
1085	0.366
1086	0.378
1086	0.389
1087	0.403
1087	0.419
1088	0.432
1088	0.448
1088	0.468
1089	0.486
1089	0.509
1090	0.536
1090	0.569
1090	0.604
1091	0.646
1091	0.699
1092	0.755
1092	0.829
1092	0.914
1093	1.014
1093	1.169
1094	1.416
1094	2.056
1095	-0
1095	-0
1095	-0
1096	-0
1096	-0
1097	-0
1097	-0
1097	-0
1098	-0
1098	-0
1099	-0
1099	-0
1100	-0
1100	-0
1100	-0
1101	-0
1101	-0
1102	-0
1102	-0
1102	-0
1103	-0
1103	-0
1104	-0
1104	-0
1104	-0
1105	-0
1105	-0
1106	-0
1106	-0
1107	-0
1107	-0
1107	-0
1108	-0
1108	-0
1109	-0
1109	-0
1109	-0
1110	-0
1110	-0
1111	-0
1111	-0
