Data from 15c-2-5a_Absorbance__955__05231.txt Node

Date: Wed Jan 17 15:02:21 CET 2024
User: Marek
Spectrometer: MAYP115816
Trigger mode: 0
Integration Time (sec): 2.000000E-1
Scans to average: 10
Electric dark correction enabled: true
Nonlinearity correction enabled: true
Boxcar width: 5
XAxis mode: Wavelengths
Number of Pixels in Spectrum: 2068
>>>>>Begin Spectral Data<<<<<
199	-2.266
199	-2.118
200	-1.951
200	-1.823
201	-1.741
201	-1.69
202	-1.612
202	-1.552
203	-1.499
203	-1.452
204	-1.425
204	-1.399
205	-1.375
205	-1.364
205	-1.362
206	-1.36
206	-1.355
207	-1.353
207	-1.348
208	-1.345
208	-1.344
209	-1.339
209	-1.336
210	-1.335
210	-1.335
211	-1.333
211	-1.332
212	-1.332
212	-1.331
213	-1.33
213	-1.329
213	-1.327
214	-1.326
214	-1.325
215	-1.324
215	-1.322
216	-1.322
216	-1.318
217	-1.313
217	-1.311
218	-1.31
218	-1.306
219	-1.303
219	-1.302
220	-1.297
220	-1.293
221	-1.288
221	-1.284
221	-1.28
222	-1.276
222	-1.271
223	-1.265
223	-1.261
224	-1.255
224	-1.247
225	-1.239
225	-1.231
226	-1.221
226	-1.209
227	-1.195
227	-1.18
228	-1.164
228	-1.144
229	-1.122
229	-1.096
229	-1.067
230	-1.036
230	-1.002
231	-0.965
231	-0.925
232	-0.883
232	-0.838
233	-0.789
233	-0.739
234	-0.688
234	-0.637
235	-0.585
235	-0.533
236	-0.482
236	-0.432
236	-0.383
237	-0.335
237	-0.29
238	-0.247
238	-0.205
239	-0.165
239	-0.127
240	-0.091
240	-0.058
241	-0.027
241	0.003
242	0.029
242	0.055
243	0.079
243	0.1
243	0.12
244	0.139
244	0.156
245	0.172
245	0.187
246	0.202
246	0.215
247	0.226
247	0.238
248	0.248
248	0.258
249	0.267
249	0.275
250	0.283
250	0.291
250	0.298
251	0.304
251	0.31
252	0.316
252	0.321
253	0.326
253	0.331
254	0.335
254	0.339
255	0.343
255	0.347
256	0.35
256	0.353
257	0.355
257	0.358
258	0.36
258	0.362
258	0.364
259	0.366
259	0.367
260	0.369
260	0.37
261	0.371
261	0.372
262	0.373
262	0.373
263	0.374
263	0.374
264	0.375
264	0.375
265	0.375
265	0.375
265	0.375
266	0.376
266	0.375
267	0.375
267	0.375
268	0.375
268	0.374
269	0.373
269	0.372
270	0.371
270	0.37
271	0.369
271	0.368
272	0.367
272	0.366
272	0.366
273	0.365
273	0.364
274	0.363
274	0.362
275	0.361
275	0.36
276	0.359
276	0.358
277	0.357
277	0.355
278	0.354
278	0.352
278	0.35
279	0.347
279	0.346
280	0.345
280	0.343
281	0.342
281	0.341
282	0.34
282	0.339
283	0.339
283	0.339
284	0.339
284	0.339
285	0.339
285	0.338
285	0.337
286	0.336
286	0.335
287	0.335
287	0.334
288	0.333
288	0.332
289	0.331
289	0.33
290	0.329
290	0.328
291	0.328
291	0.327
292	0.326
292	0.325
292	0.324
293	0.323
293	0.322
294	0.322
294	0.321
295	0.32
295	0.319
296	0.318
296	0.318
297	0.317
297	0.316
298	0.316
298	0.315
298	0.314
299	0.314
299	0.313
300	0.312
300	0.312
301	0.311
301	0.31
302	0.309
302	0.308
303	0.308
303	0.307
304	0.306
304	0.305
305	0.305
305	0.304
305	0.303
306	0.302
306	0.301
307	0.301
307	0.3
308	0.299
308	0.298
309	0.297
309	0.297
310	0.295
310	0.295
311	0.294
311	0.293
311	0.292
312	0.291
312	0.29
313	0.289
313	0.288
314	0.287
314	0.286
315	0.285
315	0.284
316	0.283
316	0.282
317	0.281
317	0.28
318	0.279
318	0.278
318	0.277
319	0.276
319	0.275
320	0.274
320	0.273
321	0.272
321	0.271
322	0.27
322	0.269
323	0.267
323	0.266
324	0.265
324	0.265
324	0.263
325	0.263
325	0.262
326	0.261
326	0.26
327	0.259
327	0.258
328	0.257
328	0.256
329	0.255
329	0.254
330	0.253
330	0.252
330	0.251
331	0.25
331	0.249
332	0.248
332	0.248
333	0.247
333	0.246
334	0.245
334	0.244
335	0.243
335	0.241
336	0.241
336	0.24
336	0.239
337	0.238
337	0.237
338	0.236
338	0.235
339	0.234
339	0.234
340	0.233
340	0.232
341	0.231
341	0.23
342	0.23
342	0.229
342	0.228
343	0.227
343	0.227
344	0.226
344	0.225
345	0.224
345	0.223
346	0.223
346	0.222
347	0.221
347	0.22
348	0.219
348	0.218
348	0.217
349	0.216
349	0.215
350	0.214
350	0.213
351	0.212
351	0.211
352	0.21
352	0.209
353	0.208
353	0.207
354	0.206
354	0.204
354	0.203
355	0.202
355	0.201
356	0.199
356	0.198
357	0.198
357	0.197
358	0.197
358	0.197
359	0.198
359	0.199
360	0.199
360	0.2
360	0.201
361	0.202
361	0.202
362	0.203
362	0.203
363	0.202
363	0.202
364	0.201
364	0.201
365	0.2
365	0.2
366	0.199
366	0.199
366	0.198
367	0.198
367	0.198
368	0.197
368	0.197
369	0.196
369	0.195
370	0.195
370	0.194
371	0.194
371	0.193
372	0.193
372	0.192
372	0.192
373	0.192
373	0.191
374	0.191
374	0.191
375	0.191
375	0.191
376	0.191
376	0.191
377	0.191
377	0.191
378	0.192
378	0.192
378	0.192
379	0.192
379	0.192
380	0.193
380	0.193
381	0.192
381	0.192
382	0.192
382	0.191
383	0.191
383	0.19
383	0.19
384	0.189
384	0.189
385	0.188
385	0.188
386	0.188
386	0.188
387	0.188
387	0.188
388	0.188
388	0.188
389	0.187
389	0.187
389	0.187
390	0.188
390	0.188
391	0.188
391	0.189
392	0.189
392	0.189
393	0.189
393	0.189
394	0.189
394	0.189
394	0.188
395	0.188
395	0.187
396	0.187
396	0.187
397	0.187
397	0.188
398	0.188
398	0.188
399	0.187
399	0.187
400	0.187
400	0.187
400	0.186
401	0.185
401	0.184
402	0.182
402	0.181
403	0.181
403	0.18
404	0.181
404	0.18
405	0.18
405	0.179
405	0.179
406	0.179
406	0.178
407	0.178
407	0.178
408	0.177
408	0.177
409	0.176
409	0.175
410	0.175
410	0.175
411	0.175
411	0.175
411	0.175
412	0.174
412	0.174
413	0.174
413	0.173
414	0.173
414	0.173
415	0.172
415	0.172
416	0.171
416	0.171
416	0.17
417	0.17
417	0.169
418	0.169
418	0.17
419	0.17
419	0.171
420	0.172
420	0.173
421	0.174
421	0.174
421	0.175
422	0.175
422	0.176
423	0.176
423	0.176
424	0.175
424	0.174
425	0.173
425	0.172
426	0.171
426	0.17
427	0.17
427	0.17
427	0.17
428	0.171
428	0.172
429	0.173
429	0.173
430	0.173
430	0.173
431	0.173
431	0.172
432	0.172
432	0.171
432	0.17
433	0.169
433	0.167
434	0.166
434	0.166
435	0.166
435	0.166
436	0.166
436	0.166
437	0.166
437	0.166
437	0.166
438	0.166
438	0.166
439	0.166
439	0.166
440	0.165
440	0.165
441	0.165
441	0.165
442	0.165
442	0.166
442	0.166
443	0.166
443	0.167
444	0.167
444	0.168
445	0.168
445	0.168
446	0.168
446	0.168
447	0.168
447	0.168
447	0.167
448	0.167
448	0.167
449	0.167
449	0.166
450	0.166
450	0.165
451	0.165
451	0.164
452	0.164
452	0.163
452	0.163
453	0.162
453	0.161
454	0.161
454	0.16
455	0.159
455	0.159
456	0.159
456	0.158
457	0.158
457	0.158
458	0.158
458	0.158
458	0.158
459	0.158
459	0.158
460	0.157
460	0.156
461	0.156
461	0.155
462	0.155
462	0.155
463	0.155
463	0.156
463	0.157
464	0.157
464	0.157
465	0.157
465	0.157
466	0.157
466	0.157
467	0.157
467	0.157
467	0.156
468	0.154
468	0.152
469	0.15
469	0.148
470	0.147
470	0.147
471	0.146
471	0.145
472	0.145
472	0.145
472	0.146
473	0.147
473	0.148
474	0.15
474	0.151
475	0.152
475	0.153
476	0.153
476	0.153
477	0.153
477	0.154
477	0.154
478	0.154
478	0.153
479	0.154
479	0.154
480	0.155
480	0.156
481	0.157
481	0.158
482	0.159
482	0.16
482	0.162
483	0.165
483	0.168
484	0.172
484	0.175
485	0.177
485	0.178
486	0.18
486	0.181
487	0.181
487	0.181
487	0.181
488	0.18
488	0.178
489	0.175
489	0.173
490	0.171
490	0.17
491	0.169
491	0.169
492	0.169
492	0.17
492	0.17
493	0.17
493	0.171
494	0.173
494	0.176
495	0.178
495	0.179
496	0.18
496	0.181
496	0.183
497	0.184
497	0.185
498	0.186
498	0.186
499	0.186
499	0.186
500	0.186
500	0.187
501	0.189
501	0.19
501	0.192
502	0.193
502	0.195
503	0.196
503	0.197
504	0.198
504	0.198
505	0.199
505	0.199
506	0.199
506	0.199
506	0.199
507	0.199
507	0.199
508	0.199
508	0.2
509	0.2
509	0.201
510	0.202
510	0.202
511	0.201
511	0.201
511	0.201
512	0.201
512	0.201
513	0.2
513	0.198
514	0.197
514	0.195
515	0.195
515	0.194
515	0.194
516	0.193
516	0.193
517	0.194
517	0.193
518	0.193
518	0.192
519	0.19
519	0.188
520	0.185
520	0.182
520	0.179
521	0.176
521	0.173
522	0.17
522	0.169
523	0.168
523	0.17
524	0.171
524	0.174
524	0.177
525	0.18
525	0.183
526	0.186
526	0.189
527	0.192
527	0.194
528	0.195
528	0.197
529	0.198
529	0.198
529	0.198
530	0.198
530	0.198
531	0.198
531	0.199
532	0.199
532	0.198
533	0.198
533	0.198
533	0.198
534	0.198
534	0.197
535	0.196
535	0.196
536	0.195
536	0.195
537	0.194
537	0.194
538	0.193
538	0.192
538	0.19
539	0.189
539	0.189
540	0.188
540	0.186
541	0.185
541	0.183
542	0.181
542	0.179
542	0.177
543	0.176
543	0.175
544	0.173
544	0.172
545	0.171
545	0.171
546	0.171
546	0.171
547	0.169
547	0.167
547	0.164
548	0.162
548	0.16
549	0.158
549	0.155
550	0.153
550	0.151
551	0.148
551	0.145
551	0.143
552	0.142
552	0.141
553	0.14
553	0.14
554	0.14
554	0.138
555	0.136
555	0.133
556	0.13
556	0.126
556	0.123
557	0.12
557	0.117
558	0.115
558	0.112
559	0.111
559	0.11
560	0.11
560	0.109
560	0.109
561	0.109
561	0.11
562	0.11
562	0.109
563	0.107
563	0.105
564	0.102
564	0.099
564	0.096
565	0.094
565	0.093
566	0.092
566	0.091
567	0.091
567	0.092
568	0.093
568	0.096
568	0.098
569	0.101
569	0.105
570	0.107
570	0.107
571	0.109
571	0.11
572	0.111
572	0.111
573	0.111
573	0.111
573	0.109
574	0.108
574	0.108
575	0.107
575	0.108
576	0.11
576	0.109
577	0.107
577	0.106
577	0.105
578	0.104
578	0.104
579	0.105
579	0.107
580	0.106
580	0.103
581	0.099
581	0.096
581	0.095
582	0.094
582	0.094
583	0.094
583	0.094
584	0.09
584	0.085
585	0.083
585	0.082
585	0.082
586	0.082
586	0.081
587	0.079
587	0.076
588	0.073
588	0.07
589	0.068
589	0.067
590	0.066
590	0.065
590	0.066
591	0.067
591	0.068
592	0.067
592	0.067
593	0.066
593	0.067
594	0.066
594	0.065
594	0.063
595	0.063
595	0.061
596	0.059
596	0.059
597	0.062
597	0.064
598	0.066
598	0.068
598	0.069
599	0.07
599	0.07
600	0.069
600	0.068
601	0.067
601	0.066
602	0.064
602	0.062
602	0.061
603	0.06
603	0.061
604	0.062
604	0.063
605	0.065
605	0.068
606	0.069
606	0.068
606	0.067
607	0.066
607	0.065
608	0.065
608	0.062
609	0.061
609	0.06
610	0.058
610	0.056
610	0.056
611	0.057
611	0.058
612	0.06
612	0.062
613	0.064
613	0.065
614	0.065
614	0.064
614	0.064
615	0.063
615	0.062
616	0.06
616	0.059
617	0.057
617	0.055
618	0.052
618	0.05
618	0.049
619	0.048
619	0.048
620	0.051
620	0.052
621	0.053
621	0.054
622	0.055
622	0.056
622	0.057
623	0.057
623	0.058
624	0.059
624	0.059
625	0.059
625	0.059
626	0.059
626	0.059
626	0.059
627	0.059
627	0.059
628	0.06
628	0.06
629	0.06
629	0.06
630	0.059
630	0.058
630	0.058
631	0.058
631	0.058
632	0.058
632	0.058
633	0.059
633	0.06
634	0.062
634	0.065
634	0.067
635	0.07
635	0.071
636	0.073
636	0.075
637	0.076
637	0.076
638	0.077
638	0.079
638	0.08
639	0.08
639	0.08
640	0.08
640	0.081
641	0.082
641	0.084
642	0.085
642	0.087
642	0.089
643	0.091
643	0.093
644	0.095
644	0.097
645	0.099
645	0.101
646	0.104
646	0.108
646	0.112
647	0.116
647	0.12
648	0.123
648	0.126
649	0.129
649	0.132
650	0.135
650	0.138
650	0.141
651	0.144
651	0.146
652	0.148
652	0.15
653	0.153
653	0.163
653	0.188
654	0.154
654	0.127
655	0.131
655	0.134
656	0.135
656	0.137
657	0.139
657	0.14
657	0.141
658	0.138
658	0.119
659	0.148
659	0.189
660	0.192
660	0.193
661	0.195
661	0.197
661	0.2
662	0.204
662	0.208
663	0.212
663	0.216
664	0.219
664	0.222
665	0.225
665	0.228
665	0.231
666	0.234
666	0.236
667	0.238
667	0.24
668	0.242
668	0.245
669	0.248
669	0.251
669	0.256
670	0.261
670	0.265
671	0.267
671	0.27
672	0.271
672	0.273
672	0.274
673	0.275
673	0.276
674	0.277
674	0.277
675	0.275
675	0.275
676	0.276
676	0.278
676	0.279
677	0.281
677	0.283
678	0.285
678	0.287
679	0.288
679	0.29
680	0.292
680	0.294
680	0.295
681	0.295
681	0.296
682	0.297
682	0.299
683	0.301
683	0.304
684	0.307
684	0.308
684	0.308
685	0.309
685	0.31
686	0.312
686	0.312
687	0.312
687	0.312
687	0.311
688	0.31
688	0.309
689	0.309
689	0.311
690	0.311
690	0.311
691	0.31
691	0.31
691	0.31
692	0.309
692	0.307
693	0.307
693	0.307
694	0.306
694	0.303
695	0.302
695	0.304
695	0.305
696	0.304
696	0.303
697	0.302
697	0.301
698	0.299
698	0.297
698	0.295
699	0.295
699	0.292
700	0.288
700	0.286
701	0.285
701	0.284
702	0.282
702	0.281
702	0.279
703	0.278
703	0.277
704	0.275
704	0.275
705	0.275
705	0.274
705	0.273
706	0.272
706	0.272
707	0.27
707	0.268
708	0.266
708	0.264
709	0.262
709	0.259
709	0.254
710	0.249
710	0.245
711	0.242
711	0.239
712	0.237
712	0.234
713	0.232
713	0.23
713	0.228
714	0.225
714	0.223
715	0.221
715	0.218
716	0.215
716	0.214
716	0.211
717	0.209
717	0.207
718	0.204
718	0.201
719	0.199
719	0.197
720	0.195
720	0.192
720	0.19
721	0.186
721	0.183
722	0.18
722	0.177
723	0.175
723	0.173
723	0.171
724	0.169
724	0.167
725	0.165
725	0.163
726	0.161
726	0.16
727	0.158
727	0.156
727	0.154
728	0.151
728	0.149
729	0.148
729	0.147
730	0.146
730	0.144
730	0.142
731	0.14
731	0.138
732	0.137
732	0.135
733	0.133
733	0.131
734	0.127
734	0.124
734	0.122
735	0.12
735	0.118
736	0.115
736	0.113
737	0.112
737	0.111
737	0.11
738	0.107
738	0.103
739	0.101
739	0.098
740	0.094
740	0.092
741	0.09
741	0.086
741	0.082
742	0.076
742	0.071
743	0.067
743	0.064
744	0.061
744	0.058
744	0.055
745	0.052
745	0.049
746	0.046
746	0.044
747	0.043
747	0.043
748	0.043
748	0.043
748	0.042
749	0.04
749	0.04
750	0.039
750	0.038
751	0.038
751	0.039
751	0.039
752	0.039
752	0.038
753	0.038
753	0.038
754	0.038
754	0.038
754	0.039
755	0.04
755	0.042
756	0.042
756	0.039
757	0.038
757	0.037
758	0.037
758	0.035
758	0.035
759	0.034
759	0.031
760	0.028
760	0.024
761	0.022
761	0.021
761	0.019
762	0.017
762	0.016
763	0.015
763	0.012
764	0.008
764	0.004
764	0.001
765	-0.002
765	-0.006
766	-0.008
766	-0.009
767	-0.01
767	-0.013
768	-0.018
768	-0.02
768	-0.022
769	-0.023
769	-0.023
770	-0.024
770	-0.026
771	-0.029
771	-0.032
771	-0.036
772	-0.038
772	-0.041
773	-0.044
773	-0.048
774	-0.052
774	-0.056
775	-0.06
775	-0.063
775	-0.067
776	-0.072
776	-0.075
777	-0.079
777	-0.083
778	-0.088
778	-0.093
778	-0.098
779	-0.102
779	-0.104
780	-0.109
780	-0.115
781	-0.12
781	-0.125
781	-0.13
782	-0.135
782	-0.14
783	-0.144
783	-0.147
784	-0.149
784	-0.152
784	-0.153
785	-0.154
785	-0.156
786	-0.155
786	-0.152
787	-0.147
787	-0.142
788	-0.141
788	-0.142
788	-0.143
789	-0.145
789	-0.145
790	-0.142
790	-0.14
791	-0.141
791	-0.143
791	-0.145
792	-0.14
792	-0.129
793	-0.123
793	-0.12
794	-0.118
794	-0.12
794	-0.124
795	-0.127
795	-0.127
796	-0.128
796	-0.131
797	-0.14
797	-0.151
797	-0.157
798	-0.162
798	-0.165
799	-0.165
799	-0.165
800	-0.164
800	-0.165
801	-0.168
801	-0.169
801	-0.169
802	-0.171
802	-0.172
803	-0.173
803	-0.173
804	-0.172
804	-0.167
804	-0.161
805	-0.157
805	-0.155
806	-0.153
806	-0.151
807	-0.15
807	-0.15
807	-0.15
808	-0.15
808	-0.151
809	-0.156
809	-0.162
810	-0.165
810	-0.168
810	-0.172
811	-0.175
811	-0.176
812	-0.172
812	-0.169
813	-0.169
813	-0.169
813	-0.17
814	-0.17
814	-0.169
815	-0.166
815	-0.163
816	-0.16
816	-0.16
817	-0.163
817	-0.166
817	-0.166
818	-0.165
818	-0.161
819	-0.156
819	-0.153
820	-0.155
820	-0.157
820	-0.159
821	-0.159
821	-0.158
822	-0.158
822	-0.157
823	-0.154
823	-0.154
823	-0.156
824	-0.154
824	-0.148
825	-0.14
825	-0.131
826	-0.122
826	-0.115
826	-0.107
827	-0.099
827	-0.092
828	-0.085
828	-0.08
829	-0.075
829	-0.07
829	-0.067
830	-0.064
830	-0.061
831	-0.057
831	-0.052
832	-0.049
832	-0.045
832	-0.041
833	-0.038
833	-0.034
834	-0.031
834	-0.028
835	-0.025
835	-0.023
835	-0.021
836	-0.019
836	-0.017
837	-0.015
837	-0.014
838	-0.013
838	-0.012
839	-0.011
839	-0.011
839	-0.011
840	-0.01
840	-0.01
841	-0.009
841	-0.009
842	-0.008
842	-0.007
842	-0.005
843	-0.004
843	-0.003
844	-0.001
844	0.001
845	0.003
845	0.005
845	0.006
846	0.008
846	0.009
847	0.009
847	0.01
848	0.011
848	0.011
848	0.011
849	0.011
849	0.012
850	0.012
850	0.012
851	0.012
851	0.013
851	0.013
852	0.014
852	0.015
853	0.016
853	0.017
854	0.017
854	0.018
854	0.018
855	0.019
855	0.019
856	0.019
856	0.019
857	0.019
857	0.019
857	0.019
858	0.019
858	0.019
859	0.019
859	0.019
860	0.02
860	0.021
860	0.021
861	0.022
861	0.022
862	0.023
862	0.023
863	0.024
863	0.024
863	0.024
864	0.025
864	0.025
865	0.025
865	0.025
866	0.025
866	0.025
866	0.025
867	0.025
867	0.026
868	0.026
868	0.027
869	0.027
869	0.028
869	0.027
870	0.028
870	0.028
871	0.028
871	0.028
872	0.027
872	0.026
872	0.026
873	0.025
873	0.024
874	0.023
874	0.023
875	0.023
875	0.023
875	0.023
876	0.023
876	0.024
877	0.025
877	0.027
878	0.028
878	0.03
878	0.032
879	0.033
879	0.034
880	0.035
880	0.036
881	0.036
881	0.036
881	0.036
882	0.035
882	0.034
883	0.033
883	0.033
884	0.033
884	0.033
884	0.033
885	0.033
885	0.034
886	0.035
886	0.036
887	0.037
887	0.037
887	0.037
888	0.037
888	0.037
889	0.037
889	0.037
890	0.037
890	0.037
890	0.036
891	0.035
891	0.034
892	0.033
892	0.033
893	0.032
893	0.032
893	0.032
894	0.032
894	0.032
895	0.033
895	0.033
895	0.033
896	0.033
896	0.033
897	0.033
897	0.033
898	0.033
898	0.033
898	0.033
899	0.034
899	0.034
900	0.034
900	0.035
901	0.036
901	0.036
901	0.037
902	0.038
902	0.038
903	0.039
903	0.039
904	0.038
904	0.038
904	0.038
905	0.038
905	0.038
906	0.038
906	0.038
907	0.037
907	0.037
907	0.038
908	0.038
908	0.038
909	0.039
909	0.04
910	0.041
910	0.042
910	0.043
911	0.044
911	0.045
912	0.046
912	0.047
913	0.048
913	0.048
913	0.048
914	0.048
914	0.047
915	0.046
915	0.045
916	0.044
916	0.042
916	0.041
917	0.039
917	0.038
918	0.037
918	0.037
918	0.036
919	0.036
919	0.036
920	0.037
920	0.037
921	0.038
921	0.038
921	0.039
922	0.039
922	0.04
923	0.04
923	0.04
924	0.04
924	0.04
924	0.039
925	0.039
925	0.038
926	0.038
926	0.038
927	0.037
927	0.037
927	0.037
928	0.037
928	0.036
929	0.036
929	0.036
930	0.036
930	0.036
930	0.036
931	0.036
931	0.036
932	0.036
932	0.035
933	0.035
933	0.035
933	0.035
934	0.036
934	0.036
935	0.036
935	0.037
935	0.037
936	0.038
936	0.039
937	0.04
937	0.04
938	0.041
938	0.042
938	0.043
939	0.044
939	0.045
940	0.045
940	0.046
941	0.047
941	0.048
941	0.049
942	0.05
942	0.051
943	0.052
943	0.052
944	0.053
944	0.053
944	0.053
945	0.054
945	0.054
946	0.054
946	0.054
946	0.054
947	0.055
947	0.054
948	0.054
948	0.054
949	0.054
949	0.054
949	0.054
950	0.054
950	0.054
951	0.055
951	0.054
952	0.055
952	0.055
952	0.056
953	0.056
953	0.057
954	0.057
954	0.057
955	0.056
955	0.056
955	0.056
956	0.056
956	0.055
957	0.054
957	0.053
957	0.052
958	0.05
958	0.049
959	0.048
959	0.047
960	0.046
960	0.045
960	0.044
961	0.043
961	0.043
962	0.042
962	0.042
963	0.042
963	0.042
963	0.043
964	0.043
964	0.044
965	0.045
965	0.045
966	0.046
966	0.047
966	0.048
967	0.049
967	0.049
968	0.05
968	0.05
968	0.051
969	0.052
969	0.052
970	0.053
970	0.053
971	0.053
971	0.053
971	0.053
972	0.054
972	0.054
973	0.054
973	0.054
974	0.054
974	0.054
974	0.055
975	0.055
975	0.055
976	0.056
976	0.056
976	0.055
977	0.055
977	0.054
978	0.052
978	0.051
979	0.05
979	0.049
979	0.047
980	0.046
980	0.044
981	0.043
981	0.043
982	0.042
982	0.042
982	0.043
983	0.043
983	0.043
984	0.044
984	0.044
984	0.045
985	0.046
985	0.047
986	0.047
986	0.047
987	0.048
987	0.048
987	0.049
988	0.05
988	0.05
989	0.051
989	0.051
990	0.052
990	0.053
990	0.054
991	0.055
991	0.056
992	0.056
992	0.057
992	0.058
993	0.058
993	0.058
994	0.058
994	0.058
995	0.058
995	0.057
995	0.057
996	0.056
996	0.055
997	0.055
997	0.055
997	0.055
998	0.054
998	0.055
999	0.055
999	0.055
1000	0.055
1000	0.055
1000	0.055
1001	0.055
1001	0.055
1002	0.055
1002	0.055
1003	0.054
1003	0.054
1003	0.053
1004	0.053
1004	0.051
1005	0.051
1005	0.05
1005	0.049
1006	0.048
1006	0.046
1007	0.045
1007	0.044
1008	0.044
1008	0.043
1008	0.042
1009	0.042
1009	0.042
1010	0.042
1010	0.042
1010	0.042
1011	0.042
1011	0.042
1012	0.043
1012	0.043
1013	0.043
1013	0.042
1013	0.042
1014	0.041
1014	0.041
1015	0.04
1015	0.04
1016	0.039
1016	0.039
1016	0.038
1017	0.038
1017	0.038
1018	0.038
1018	0.039
1018	0.039
1019	0.04
1019	0.04
1020	0.04
1020	0.041
1021	0.041
1021	0.041
1021	0.041
1022	0.042
1022	0.041
1023	0.042
1023	0.041
1023	0.041
1024	0.041
1024	0.04
1025	0.04
1025	0.04
1026	0.039
1026	0.039
1026	0.039
1027	0.039
1027	0.039
1028	0.039
1028	0.039
1028	0.04
1029	0.04
1029	0.04
1030	0.041
1030	0.041
1031	0.041
1031	0.042
1031	0.042
1032	0.042
1032	0.041
1033	0.041
1033	0.041
1033	0.04
1034	0.039
1034	0.038
1035	0.038
1035	0.037
1036	0.036
1036	0.036
1036	0.036
1037	0.036
1037	0.036
1038	0.037
1038	0.038
1039	0.039
1039	0.04
1039	0.041
1040	0.042
1040	0.043
1041	0.043
1041	0.044
1041	0.044
1042	0.044
1042	0.044
1043	0.044
1043	0.044
1044	0.044
1044	0.045
1044	0.045
1045	0.046
1045	0.047
1046	0.047
1046	0.048
1046	0.05
1047	0.052
1047	0.054
1048	0.055
1048	0.056
1049	0.057
1049	0.058
1049	0.058
1050	0.059
1050	0.059
1051	0.06
1051	0.06
1051	0.061
1052	0.061
1052	0.062
1053	0.062
1053	0.063
1053	0.064
1054	0.064
1054	0.065
1055	0.066
1055	0.066
1056	0.066
1056	0.066
1056	0.065
1057	0.065
1057	0.066
1058	0.066
1058	0.066
1058	0.067
1059	0.068
1059	0.069
1060	0.07
1060	0.072
1061	0.074
1061	0.076
1061	0.078
1062	0.079
1062	0.08
1063	0.081
1063	0.082
1063	0.083
1064	0.084
1064	0.086
1065	0.087
1065	0.087
1066	0.089
1066	0.089
1066	0.091
1067	0.092
1067	0.093
1068	0.094
1068	0.094
1068	0.095
1069	0.095
1069	0.095
1070	0.096
1070	0.097
1071	0.098
1071	0.1
1071	0.101
1072	0.104
1072	0.106
1073	0.109
1073	0.112
1073	0.115
1074	0.119
1074	0.122
1075	0.123
1075	0.125
1076	0.127
1076	0.13
1076	0.131
1077	0.133
1077	0.136
1078	0.138
1078	0.141
1078	0.145
1079	0.147
1079	0.152
1080	0.155
1080	0.159
1080	0.162
1081	0.167
1081	0.171
1082	0.176
1082	0.18
1083	0.184
1083	0.188
1083	0.194
1084	0.2
1084	0.206
1085	0.213
1085	0.22
1085	0.226
1086	0.232
1086	0.237
1087	0.244
1087	0.251
1088	0.257
1088	0.264
1088	0.272
1089	0.28
1089	0.289
1090	0.3
1090	0.313
1090	0.327
1091	0.341
1091	0.359
1092	0.378
1092	0.4
1092	0.422
1093	0.443
1093	0.472
1094	0.5
1094	0.531
1095	0.564
1095	0.602
1095	0.657
1096	0.711
1096	0.776
1097	0.865
1097	0.966
1097	1.124
1098	1.36
1098	2.028
1099	-0
1099	-0
1100	-0
1100	-0
1100	-0
1101	-0
1101	-0
1102	-0
1102	-0
1102	-0
1103	-0
1103	-0
1104	-0
1104	-0
1104	-0
1105	-0
1105	-0
1106	-0
1106	-0
1107	-0
1107	-0
1107	-0
1108	-0
1108	-0
1109	-0
1109	-0
1109	-0
1110	-0
1110	-0
1111	-0
1111	-0
