Data from 15c-2-5a_Absorbance__1087__05363.txt Node

Date: Wed Jan 17 15:06:45 CET 2024
User: Marek
Spectrometer: MAYP115816
Trigger mode: 0
Integration Time (sec): 2.000000E-1
Scans to average: 10
Electric dark correction enabled: true
Nonlinearity correction enabled: true
Boxcar width: 5
XAxis mode: Wavelengths
Number of Pixels in Spectrum: 2068
>>>>>Begin Spectral Data<<<<<
199	-2.267
199	-2.12
200	-1.953
200	-1.824
201	-1.743
201	-1.692
202	-1.614
202	-1.554
203	-1.501
203	-1.454
204	-1.427
204	-1.401
205	-1.376
205	-1.366
205	-1.363
206	-1.362
206	-1.357
207	-1.355
207	-1.35
208	-1.347
208	-1.346
209	-1.341
209	-1.338
210	-1.337
210	-1.337
211	-1.335
211	-1.334
212	-1.334
212	-1.332
213	-1.331
213	-1.33
213	-1.329
214	-1.328
214	-1.327
215	-1.325
215	-1.323
216	-1.323
216	-1.319
217	-1.315
217	-1.313
218	-1.312
218	-1.308
219	-1.306
219	-1.304
220	-1.3
220	-1.296
221	-1.29
221	-1.286
221	-1.282
222	-1.279
222	-1.273
223	-1.267
223	-1.263
224	-1.257
224	-1.249
225	-1.241
225	-1.233
226	-1.223
226	-1.211
227	-1.197
227	-1.183
228	-1.166
228	-1.146
229	-1.124
229	-1.099
229	-1.07
230	-1.038
230	-1.005
231	-0.967
231	-0.927
232	-0.885
232	-0.839
233	-0.791
233	-0.741
234	-0.689
234	-0.638
235	-0.586
235	-0.535
236	-0.484
236	-0.434
236	-0.384
237	-0.336
237	-0.29
238	-0.247
238	-0.205
239	-0.165
239	-0.127
240	-0.091
240	-0.058
241	-0.026
241	0.004
242	0.031
242	0.056
243	0.08
243	0.102
243	0.122
244	0.141
244	0.159
245	0.175
245	0.19
246	0.204
246	0.217
247	0.229
247	0.241
248	0.252
248	0.262
249	0.271
249	0.279
250	0.287
250	0.295
250	0.302
251	0.308
251	0.314
252	0.32
252	0.325
253	0.331
253	0.335
254	0.339
254	0.344
255	0.348
255	0.351
256	0.354
256	0.357
257	0.36
257	0.363
258	0.365
258	0.367
258	0.369
259	0.371
259	0.372
260	0.374
260	0.375
261	0.376
261	0.377
262	0.378
262	0.378
263	0.379
263	0.38
264	0.381
264	0.381
265	0.382
265	0.382
265	0.382
266	0.382
266	0.382
267	0.382
267	0.381
268	0.381
268	0.381
269	0.38
269	0.379
270	0.378
270	0.377
271	0.376
271	0.375
272	0.374
272	0.373
272	0.372
273	0.371
273	0.37
274	0.369
274	0.368
275	0.367
275	0.366
276	0.365
276	0.364
277	0.362
277	0.361
278	0.359
278	0.357
278	0.355
279	0.352
279	0.351
280	0.35
280	0.349
281	0.347
281	0.346
282	0.345
282	0.345
283	0.344
283	0.344
284	0.344
284	0.344
285	0.343
285	0.343
285	0.342
286	0.341
286	0.34
287	0.34
287	0.339
288	0.338
288	0.337
289	0.336
289	0.335
290	0.334
290	0.334
291	0.333
291	0.332
292	0.331
292	0.33
292	0.329
293	0.328
293	0.328
294	0.327
294	0.326
295	0.326
295	0.325
296	0.324
296	0.323
297	0.323
297	0.322
298	0.321
298	0.32
298	0.32
299	0.319
299	0.318
300	0.317
300	0.317
301	0.316
301	0.315
302	0.314
302	0.314
303	0.313
303	0.313
304	0.312
304	0.311
305	0.31
305	0.309
305	0.308
306	0.308
306	0.307
307	0.306
307	0.305
308	0.304
308	0.303
309	0.302
309	0.302
310	0.301
310	0.3
311	0.299
311	0.298
311	0.297
312	0.297
312	0.296
313	0.295
313	0.294
314	0.292
314	0.291
315	0.291
315	0.289
316	0.288
316	0.287
317	0.286
317	0.285
318	0.284
318	0.283
318	0.282
319	0.281
319	0.28
320	0.279
320	0.278
321	0.277
321	0.276
322	0.275
322	0.273
323	0.272
323	0.271
324	0.27
324	0.27
324	0.268
325	0.267
325	0.266
326	0.266
326	0.265
327	0.264
327	0.263
328	0.262
328	0.261
329	0.26
329	0.259
330	0.258
330	0.257
330	0.256
331	0.255
331	0.254
332	0.253
332	0.252
333	0.251
333	0.25
334	0.249
334	0.248
335	0.247
335	0.246
336	0.245
336	0.244
336	0.243
337	0.242
337	0.241
338	0.241
338	0.24
339	0.239
339	0.238
340	0.237
340	0.236
341	0.235
341	0.235
342	0.234
342	0.233
342	0.232
343	0.232
343	0.231
344	0.23
344	0.229
345	0.228
345	0.227
346	0.227
346	0.226
347	0.225
347	0.224
348	0.223
348	0.222
348	0.221
349	0.22
349	0.219
350	0.218
350	0.217
351	0.216
351	0.215
352	0.214
352	0.213
353	0.212
353	0.211
354	0.21
354	0.208
354	0.207
355	0.206
355	0.204
356	0.203
356	0.202
357	0.202
357	0.201
358	0.201
358	0.201
359	0.202
359	0.203
360	0.203
360	0.204
360	0.205
361	0.206
361	0.207
362	0.207
362	0.207
363	0.207
363	0.207
364	0.206
364	0.205
365	0.205
365	0.204
366	0.203
366	0.202
366	0.202
367	0.201
367	0.201
368	0.2
368	0.2
369	0.199
369	0.199
370	0.198
370	0.198
371	0.198
371	0.197
372	0.197
372	0.196
372	0.196
373	0.195
373	0.195
374	0.195
374	0.195
375	0.195
375	0.194
376	0.194
376	0.195
377	0.195
377	0.195
378	0.195
378	0.196
378	0.196
379	0.196
379	0.196
380	0.196
380	0.196
381	0.196
381	0.196
382	0.195
382	0.195
383	0.194
383	0.194
383	0.193
384	0.193
384	0.192
385	0.192
385	0.192
386	0.192
386	0.192
387	0.192
387	0.191
388	0.191
388	0.191
389	0.191
389	0.191
389	0.191
390	0.191
390	0.192
391	0.192
391	0.192
392	0.192
392	0.192
393	0.192
393	0.192
394	0.192
394	0.192
394	0.192
395	0.191
395	0.19
396	0.19
396	0.19
397	0.19
397	0.191
398	0.191
398	0.191
399	0.191
399	0.191
400	0.19
400	0.19
400	0.189
401	0.189
401	0.187
402	0.186
402	0.185
403	0.184
403	0.184
404	0.184
404	0.183
405	0.183
405	0.183
405	0.182
406	0.182
406	0.182
407	0.182
407	0.181
408	0.181
408	0.18
409	0.179
409	0.179
410	0.178
410	0.178
411	0.178
411	0.178
411	0.178
412	0.178
412	0.177
413	0.177
413	0.177
414	0.176
414	0.176
415	0.176
415	0.176
416	0.175
416	0.174
416	0.174
417	0.173
417	0.173
418	0.173
418	0.173
419	0.174
419	0.174
420	0.175
420	0.176
421	0.177
421	0.177
421	0.178
422	0.178
422	0.179
423	0.179
423	0.178
424	0.178
424	0.177
425	0.176
425	0.175
426	0.174
426	0.173
427	0.173
427	0.173
427	0.173
428	0.174
428	0.175
429	0.175
429	0.176
430	0.176
430	0.176
431	0.175
431	0.175
432	0.175
432	0.174
432	0.173
433	0.171
433	0.17
434	0.169
434	0.169
435	0.169
435	0.169
436	0.169
436	0.169
437	0.17
437	0.17
437	0.17
438	0.17
438	0.17
439	0.17
439	0.169
440	0.169
440	0.169
441	0.169
441	0.169
442	0.169
442	0.169
442	0.169
443	0.17
443	0.17
444	0.171
444	0.171
445	0.171
445	0.172
446	0.171
446	0.171
447	0.171
447	0.171
447	0.17
448	0.17
448	0.17
449	0.169
449	0.169
450	0.169
450	0.168
451	0.168
451	0.167
452	0.167
452	0.166
452	0.165
453	0.165
453	0.164
454	0.164
454	0.163
455	0.162
455	0.162
456	0.162
456	0.161
457	0.161
457	0.161
458	0.161
458	0.161
458	0.161
459	0.161
459	0.161
460	0.16
460	0.159
461	0.158
461	0.158
462	0.157
462	0.157
463	0.158
463	0.158
463	0.159
464	0.159
464	0.159
465	0.159
465	0.16
466	0.16
466	0.16
467	0.16
467	0.16
467	0.159
468	0.157
468	0.155
469	0.153
469	0.151
470	0.15
470	0.149
471	0.149
471	0.148
472	0.148
472	0.148
472	0.149
473	0.15
473	0.151
474	0.152
474	0.154
475	0.155
475	0.155
476	0.156
476	0.156
477	0.156
477	0.156
477	0.156
478	0.156
478	0.156
479	0.156
479	0.157
480	0.157
480	0.158
481	0.16
481	0.16
482	0.161
482	0.163
482	0.165
483	0.167
483	0.171
484	0.175
484	0.178
485	0.18
485	0.181
486	0.183
486	0.184
487	0.184
487	0.185
487	0.184
488	0.183
488	0.181
489	0.178
489	0.176
490	0.175
490	0.173
491	0.172
491	0.173
492	0.173
492	0.173
492	0.173
493	0.173
493	0.174
494	0.176
494	0.178
495	0.18
495	0.182
496	0.183
496	0.184
496	0.185
497	0.186
497	0.188
498	0.188
498	0.189
499	0.189
499	0.188
500	0.189
500	0.19
501	0.191
501	0.193
501	0.194
502	0.196
502	0.197
503	0.199
503	0.2
504	0.201
504	0.202
505	0.202
505	0.202
506	0.202
506	0.203
506	0.202
507	0.202
507	0.202
508	0.202
508	0.203
509	0.204
509	0.205
510	0.205
510	0.205
511	0.205
511	0.205
511	0.205
512	0.205
512	0.205
513	0.204
513	0.202
514	0.2
514	0.198
515	0.197
515	0.197
515	0.196
516	0.196
516	0.196
517	0.196
517	0.196
518	0.196
518	0.195
519	0.193
519	0.191
520	0.188
520	0.185
520	0.181
521	0.178
521	0.175
522	0.172
522	0.17
523	0.169
523	0.17
524	0.172
524	0.175
524	0.178
525	0.181
525	0.185
526	0.188
526	0.191
527	0.194
527	0.197
528	0.198
528	0.2
529	0.2
529	0.201
529	0.201
530	0.201
530	0.201
531	0.201
531	0.201
532	0.201
532	0.201
533	0.201
533	0.201
533	0.201
534	0.201
534	0.2
535	0.199
535	0.199
536	0.199
536	0.198
537	0.197
537	0.197
538	0.196
538	0.195
538	0.193
539	0.193
539	0.192
540	0.191
540	0.19
541	0.188
541	0.186
542	0.184
542	0.182
542	0.181
543	0.18
543	0.178
544	0.177
544	0.175
545	0.174
545	0.174
546	0.174
546	0.174
547	0.172
547	0.17
547	0.167
548	0.165
548	0.162
549	0.16
549	0.158
550	0.156
550	0.153
551	0.15
551	0.147
551	0.146
552	0.144
552	0.143
553	0.143
553	0.143
554	0.142
554	0.141
555	0.139
555	0.135
556	0.132
556	0.129
556	0.125
557	0.122
557	0.12
558	0.117
558	0.115
559	0.113
559	0.112
560	0.112
560	0.111
560	0.111
561	0.111
561	0.112
562	0.112
562	0.111
563	0.109
563	0.107
564	0.104
564	0.101
564	0.098
565	0.096
565	0.095
566	0.094
566	0.093
567	0.093
567	0.094
568	0.096
568	0.098
568	0.1
569	0.104
569	0.107
570	0.109
570	0.109
571	0.11
571	0.112
572	0.113
572	0.113
573	0.113
573	0.113
573	0.111
574	0.111
574	0.11
575	0.109
575	0.111
576	0.112
576	0.112
577	0.11
577	0.109
577	0.108
578	0.107
578	0.107
579	0.108
579	0.109
580	0.108
580	0.105
581	0.101
581	0.098
581	0.097
582	0.096
582	0.096
583	0.096
583	0.096
584	0.093
584	0.088
585	0.085
585	0.085
585	0.084
586	0.084
586	0.084
587	0.082
587	0.079
588	0.075
588	0.072
589	0.07
589	0.069
590	0.068
590	0.067
590	0.067
591	0.069
591	0.069
592	0.069
592	0.068
593	0.068
593	0.068
594	0.067
594	0.066
594	0.064
595	0.064
595	0.062
596	0.06
596	0.06
597	0.063
597	0.065
598	0.067
598	0.069
598	0.071
599	0.072
599	0.072
600	0.071
600	0.07
601	0.069
601	0.067
602	0.065
602	0.064
602	0.062
603	0.061
603	0.062
604	0.063
604	0.064
605	0.066
605	0.069
606	0.07
606	0.069
606	0.068
607	0.067
607	0.067
608	0.066
608	0.064
609	0.062
609	0.061
610	0.059
610	0.057
610	0.056
611	0.057
611	0.058
612	0.06
612	0.062
613	0.064
613	0.066
614	0.066
614	0.065
614	0.065
615	0.064
615	0.063
616	0.062
616	0.06
617	0.059
617	0.056
618	0.053
618	0.051
618	0.05
619	0.049
619	0.05
620	0.052
620	0.053
621	0.054
621	0.055
622	0.056
622	0.057
622	0.058
623	0.058
623	0.059
624	0.06
624	0.06
625	0.06
625	0.06
626	0.06
626	0.06
626	0.06
627	0.061
627	0.061
628	0.061
628	0.062
629	0.062
629	0.062
630	0.061
630	0.059
630	0.059
631	0.06
631	0.06
632	0.059
632	0.059
633	0.06
633	0.061
634	0.063
634	0.065
634	0.068
635	0.07
635	0.072
636	0.074
636	0.075
637	0.077
637	0.077
638	0.078
638	0.08
638	0.081
639	0.081
639	0.081
640	0.081
640	0.082
641	0.084
641	0.085
642	0.087
642	0.089
642	0.091
643	0.092
643	0.094
644	0.096
644	0.099
645	0.101
645	0.103
646	0.106
646	0.11
646	0.114
647	0.119
647	0.123
648	0.126
648	0.128
649	0.131
649	0.134
650	0.138
650	0.141
650	0.144
651	0.146
651	0.149
652	0.15
652	0.152
653	0.155
653	0.165
653	0.191
654	0.155
654	0.129
655	0.133
655	0.135
656	0.137
656	0.138
657	0.14
657	0.142
657	0.143
658	0.14
658	0.121
659	0.151
659	0.193
660	0.195
660	0.197
661	0.199
661	0.201
661	0.203
662	0.207
662	0.211
663	0.215
663	0.219
664	0.222
664	0.225
665	0.228
665	0.231
665	0.234
666	0.236
666	0.239
667	0.24
667	0.242
668	0.245
668	0.248
669	0.251
669	0.255
669	0.26
670	0.265
670	0.269
671	0.272
671	0.274
672	0.276
672	0.277
672	0.279
673	0.28
673	0.281
674	0.281
674	0.28
675	0.279
675	0.279
676	0.28
676	0.282
676	0.283
677	0.286
677	0.288
678	0.29
678	0.292
679	0.293
679	0.295
680	0.297
680	0.299
680	0.3
681	0.3
681	0.301
682	0.302
682	0.303
683	0.305
683	0.308
684	0.311
684	0.312
684	0.312
685	0.313
685	0.314
686	0.316
686	0.316
687	0.316
687	0.316
687	0.315
688	0.314
688	0.313
689	0.313
689	0.315
690	0.315
690	0.315
691	0.314
691	0.314
691	0.314
692	0.313
692	0.312
693	0.311
693	0.312
694	0.31
694	0.307
695	0.306
695	0.308
695	0.309
696	0.308
696	0.307
697	0.306
697	0.305
698	0.304
698	0.302
698	0.3
699	0.299
699	0.296
700	0.292
700	0.29
701	0.289
701	0.287
702	0.286
702	0.284
702	0.283
703	0.281
703	0.28
704	0.278
704	0.278
705	0.278
705	0.277
705	0.276
706	0.276
706	0.275
707	0.274
707	0.272
708	0.269
708	0.267
709	0.265
709	0.262
709	0.258
710	0.253
710	0.249
711	0.246
711	0.243
712	0.24
712	0.238
713	0.236
713	0.234
713	0.232
714	0.229
714	0.226
715	0.224
715	0.222
716	0.219
716	0.217
716	0.215
717	0.212
717	0.21
718	0.207
718	0.203
719	0.201
719	0.199
720	0.197
720	0.194
720	0.192
721	0.188
721	0.185
722	0.182
722	0.179
723	0.176
723	0.175
723	0.173
724	0.171
724	0.169
725	0.167
725	0.165
726	0.163
726	0.161
727	0.159
727	0.158
727	0.156
728	0.153
728	0.151
729	0.15
729	0.149
730	0.147
730	0.145
730	0.143
731	0.141
731	0.139
732	0.138
732	0.136
733	0.134
733	0.131
734	0.128
734	0.125
734	0.122
735	0.121
735	0.118
736	0.116
736	0.114
737	0.112
737	0.112
737	0.111
738	0.108
738	0.105
739	0.102
739	0.1
740	0.096
740	0.094
741	0.092
741	0.089
741	0.084
742	0.078
742	0.073
743	0.069
743	0.065
744	0.062
744	0.059
744	0.056
745	0.053
745	0.05
746	0.047
746	0.045
747	0.044
747	0.044
748	0.044
748	0.044
748	0.043
749	0.041
749	0.041
750	0.04
750	0.04
751	0.039
751	0.04
751	0.041
752	0.04
752	0.039
753	0.038
753	0.038
754	0.039
754	0.038
754	0.039
755	0.041
755	0.042
756	0.042
756	0.039
757	0.038
757	0.038
758	0.037
758	0.036
758	0.036
759	0.035
759	0.032
760	0.029
760	0.026
761	0.023
761	0.022
761	0.021
762	0.018
762	0.017
763	0.016
763	0.013
764	0.01
764	0.006
764	0.003
765	-0
765	-0.003
766	-0.006
766	-0.007
767	-0.008
767	-0.012
768	-0.017
768	-0.02
768	-0.021
769	-0.023
769	-0.023
770	-0.024
770	-0.026
771	-0.029
771	-0.033
771	-0.036
772	-0.039
772	-0.042
773	-0.045
773	-0.049
774	-0.053
774	-0.057
775	-0.061
775	-0.064
775	-0.068
776	-0.073
776	-0.077
777	-0.08
777	-0.084
778	-0.089
778	-0.094
778	-0.099
779	-0.103
779	-0.106
780	-0.11
780	-0.116
781	-0.121
781	-0.126
781	-0.131
782	-0.136
782	-0.141
783	-0.145
783	-0.147
784	-0.149
784	-0.152
784	-0.153
785	-0.154
785	-0.156
786	-0.155
786	-0.152
787	-0.147
787	-0.142
788	-0.141
788	-0.142
788	-0.143
789	-0.145
789	-0.145
790	-0.142
790	-0.14
791	-0.141
791	-0.143
791	-0.145
792	-0.14
792	-0.129
793	-0.123
793	-0.119
794	-0.118
794	-0.12
794	-0.124
795	-0.127
795	-0.127
796	-0.128
796	-0.131
797	-0.139
797	-0.15
797	-0.157
798	-0.162
798	-0.165
799	-0.165
799	-0.164
800	-0.164
800	-0.165
801	-0.168
801	-0.169
801	-0.169
802	-0.171
802	-0.172
803	-0.173
803	-0.173
804	-0.172
804	-0.167
804	-0.161
805	-0.157
805	-0.155
806	-0.153
806	-0.151
807	-0.15
807	-0.15
807	-0.15
808	-0.15
808	-0.151
809	-0.156
809	-0.162
810	-0.165
810	-0.168
810	-0.172
811	-0.175
811	-0.176
812	-0.172
812	-0.169
813	-0.169
813	-0.169
813	-0.17
814	-0.17
814	-0.169
815	-0.166
815	-0.163
816	-0.16
816	-0.16
817	-0.163
817	-0.166
817	-0.166
818	-0.165
818	-0.161
819	-0.156
819	-0.153
820	-0.155
820	-0.157
820	-0.159
821	-0.159
821	-0.158
822	-0.158
822	-0.156
823	-0.154
823	-0.154
823	-0.155
824	-0.153
824	-0.147
825	-0.139
825	-0.13
826	-0.121
826	-0.113
826	-0.105
827	-0.097
827	-0.09
828	-0.084
828	-0.079
829	-0.073
829	-0.069
829	-0.066
830	-0.063
830	-0.06
831	-0.056
831	-0.052
832	-0.048
832	-0.044
832	-0.04
833	-0.037
833	-0.033
834	-0.03
834	-0.026
835	-0.023
835	-0.02
835	-0.018
836	-0.016
836	-0.014
837	-0.012
837	-0.011
838	-0.01
838	-0.01
839	-0.009
839	-0.009
839	-0.009
840	-0.009
840	-0.009
841	-0.008
841	-0.008
842	-0.007
842	-0.006
842	-0.005
843	-0.003
843	-0.002
844	-0
844	0.002
845	0.003
845	0.005
845	0.007
846	0.008
846	0.009
847	0.009
847	0.01
848	0.011
848	0.011
848	0.011
849	0.012
849	0.012
850	0.012
850	0.012
851	0.013
851	0.014
851	0.015
852	0.015
852	0.017
853	0.018
853	0.018
854	0.02
854	0.02
854	0.021
855	0.022
855	0.022
856	0.022
856	0.022
857	0.022
857	0.022
857	0.022
858	0.022
858	0.022
859	0.022
859	0.022
860	0.022
860	0.023
860	0.023
861	0.024
861	0.024
862	0.024
862	0.024
863	0.024
863	0.025
863	0.025
864	0.026
864	0.026
865	0.027
865	0.027
866	0.027
866	0.026
866	0.027
867	0.027
867	0.028
868	0.028
868	0.028
869	0.029
869	0.029
869	0.029
870	0.029
870	0.029
871	0.029
871	0.029
872	0.029
872	0.028
872	0.027
873	0.026
873	0.025
874	0.025
874	0.024
875	0.024
875	0.025
875	0.025
876	0.026
876	0.026
877	0.028
877	0.029
878	0.031
878	0.033
878	0.034
879	0.036
879	0.036
880	0.037
880	0.037
881	0.038
881	0.037
881	0.037
882	0.036
882	0.035
883	0.034
883	0.034
884	0.034
884	0.033
884	0.033
885	0.034
885	0.034
886	0.035
886	0.036
887	0.036
887	0.036
887	0.037
888	0.037
888	0.036
889	0.036
889	0.036
890	0.036
890	0.035
890	0.035
891	0.034
891	0.033
892	0.032
892	0.032
893	0.031
893	0.031
893	0.031
894	0.031
894	0.03
895	0.03
895	0.031
895	0.031
896	0.031
896	0.031
897	0.031
897	0.032
898	0.032
898	0.032
898	0.032
899	0.033
899	0.034
900	0.034
900	0.035
901	0.036
901	0.037
901	0.038
902	0.038
902	0.039
903	0.039
903	0.039
904	0.039
904	0.039
904	0.039
905	0.039
905	0.039
906	0.039
906	0.039
907	0.039
907	0.039
907	0.039
908	0.039
908	0.04
909	0.04
909	0.041
910	0.042
910	0.043
910	0.044
911	0.045
911	0.046
912	0.047
912	0.048
913	0.049
913	0.049
913	0.049
914	0.048
914	0.048
915	0.047
915	0.045
916	0.044
916	0.043
916	0.041
917	0.04
917	0.039
918	0.038
918	0.037
918	0.037
919	0.037
919	0.037
920	0.038
920	0.039
921	0.039
921	0.04
921	0.04
922	0.041
922	0.042
923	0.042
923	0.041
924	0.041
924	0.041
924	0.04
925	0.039
925	0.038
926	0.037
926	0.037
927	0.036
927	0.035
927	0.035
928	0.035
928	0.035
929	0.035
929	0.035
930	0.035
930	0.035
930	0.035
931	0.035
931	0.035
932	0.035
932	0.035
933	0.035
933	0.035
933	0.036
934	0.036
934	0.036
935	0.037
935	0.037
935	0.038
936	0.039
936	0.039
937	0.04
937	0.041
938	0.042
938	0.043
938	0.044
939	0.045
939	0.046
940	0.046
940	0.047
941	0.048
941	0.049
941	0.05
942	0.051
942	0.052
943	0.052
943	0.052
944	0.053
944	0.053
944	0.053
945	0.054
945	0.054
946	0.055
946	0.054
946	0.054
947	0.055
947	0.055
948	0.054
948	0.054
949	0.054
949	0.055
949	0.055
950	0.055
950	0.055
951	0.055
951	0.055
952	0.056
952	0.056
952	0.057
953	0.058
953	0.058
954	0.058
954	0.058
955	0.058
955	0.058
955	0.057
956	0.057
956	0.057
957	0.056
957	0.055
957	0.053
958	0.052
958	0.051
959	0.05
959	0.048
960	0.047
960	0.045
960	0.044
961	0.043
961	0.042
962	0.042
962	0.042
963	0.042
963	0.042
963	0.042
964	0.043
964	0.044
965	0.045
965	0.045
966	0.046
966	0.047
966	0.048
967	0.049
967	0.049
968	0.049
968	0.05
968	0.051
969	0.052
969	0.052
970	0.053
970	0.053
971	0.054
971	0.054
971	0.054
972	0.054
972	0.055
973	0.055
973	0.055
974	0.054
974	0.054
974	0.054
975	0.054
975	0.055
976	0.055
976	0.055
976	0.054
977	0.054
977	0.052
978	0.051
978	0.05
979	0.049
979	0.048
979	0.047
980	0.046
980	0.045
981	0.044
981	0.043
982	0.043
982	0.043
982	0.043
983	0.043
983	0.043
984	0.043
984	0.043
984	0.044
985	0.045
985	0.046
986	0.046
986	0.046
987	0.047
987	0.048
987	0.049
988	0.049
988	0.05
989	0.051
989	0.052
990	0.052
990	0.053
990	0.055
991	0.056
991	0.057
992	0.058
992	0.058
992	0.059
993	0.059
993	0.06
994	0.06
994	0.059
995	0.059
995	0.059
995	0.058
996	0.057
996	0.056
997	0.056
997	0.055
997	0.055
998	0.055
998	0.055
999	0.056
999	0.056
1000	0.056
1000	0.056
1000	0.057
1001	0.057
1001	0.057
1002	0.057
1002	0.057
1003	0.056
1003	0.056
1003	0.055
1004	0.055
1004	0.054
1005	0.053
1005	0.052
1005	0.051
1006	0.05
1006	0.049
1007	0.048
1007	0.047
1008	0.046
1008	0.045
1008	0.045
1009	0.044
1009	0.044
1010	0.044
1010	0.045
1010	0.045
1011	0.044
1011	0.045
1012	0.045
1012	0.045
1013	0.045
1013	0.045
1013	0.045
1014	0.044
1014	0.044
1015	0.043
1015	0.043
1016	0.043
1016	0.042
1016	0.042
1017	0.041
1017	0.041
1018	0.042
1018	0.042
1018	0.043
1019	0.043
1019	0.043
1020	0.043
1020	0.044
1021	0.044
1021	0.044
1021	0.044
1022	0.044
1022	0.044
1023	0.043
1023	0.043
1023	0.042
1024	0.042
1024	0.042
1025	0.041
1025	0.041
1026	0.041
1026	0.04
1026	0.04
1027	0.04
1027	0.04
1028	0.041
1028	0.041
1028	0.041
1029	0.041
1029	0.042
1030	0.042
1030	0.043
1031	0.043
1031	0.043
1031	0.044
1032	0.044
1032	0.044
1033	0.044
1033	0.043
1033	0.043
1034	0.042
1034	0.041
1035	0.04
1035	0.04
1036	0.039
1036	0.039
1036	0.039
1037	0.039
1037	0.039
1038	0.039
1038	0.04
1039	0.042
1039	0.043
1039	0.044
1040	0.045
1040	0.046
1041	0.046
1041	0.047
1041	0.047
1042	0.047
1042	0.048
1043	0.047
1043	0.047
1044	0.047
1044	0.047
1044	0.048
1045	0.048
1045	0.048
1046	0.049
1046	0.05
1046	0.051
1047	0.052
1047	0.054
1048	0.055
1048	0.056
1049	0.057
1049	0.058
1049	0.059
1050	0.06
1050	0.061
1051	0.061
1051	0.062
1051	0.063
1052	0.064
1052	0.064
1053	0.065
1053	0.066
1053	0.067
1054	0.068
1054	0.069
1055	0.069
1055	0.07
1056	0.07
1056	0.07
1056	0.069
1057	0.069
1057	0.07
1058	0.07
1058	0.07
1058	0.071
1059	0.072
1059	0.072
1060	0.074
1060	0.075
1061	0.078
1061	0.079
1061	0.081
1062	0.082
1062	0.083
1063	0.084
1063	0.085
1063	0.087
1064	0.088
1064	0.089
1065	0.09
1065	0.09
1066	0.092
1066	0.092
1066	0.094
1067	0.095
1067	0.096
1068	0.096
1068	0.097
1068	0.097
1069	0.098
1069	0.098
1070	0.099
1070	0.1
1071	0.101
1071	0.103
1071	0.104
1072	0.106
1072	0.109
1073	0.111
1073	0.115
1073	0.117
1074	0.121
1074	0.123
1075	0.125
1075	0.127
1076	0.129
1076	0.132
1076	0.134
1077	0.136
1077	0.138
1078	0.14
1078	0.144
1078	0.147
1079	0.15
1079	0.155
1080	0.158
1080	0.162
1080	0.165
1081	0.169
1081	0.174
1082	0.178
1082	0.182
1083	0.187
1083	0.192
1083	0.198
1084	0.203
1084	0.21
1085	0.217
1085	0.224
1085	0.232
1086	0.238
1086	0.244
1087	0.251
1087	0.258
1088	0.263
1088	0.27
1088	0.278
1089	0.285
1089	0.295
1090	0.305
1090	0.317
1090	0.329
1091	0.344
1091	0.363
1092	0.381
1092	0.404
1092	0.427
1093	0.451
1093	0.479
1094	0.507
1094	0.537
1095	0.571
1095	0.614
1095	0.665
1096	0.717
1096	0.786
1097	0.875
1097	0.98
1097	1.138
1098	1.405
1098	2.472
1099	-0
1099	-0
1100	-0
1100	-0
1100	-0
1101	-0
1101	-0
1102	-0
1102	-0
1102	-0
1103	-0
1103	-0
1104	-0
1104	-0
1104	-0
1105	-0
1105	-0
1106	-0
1106	-0
1107	-0
1107	-0
1107	-0
1108	-0
1108	-0
1109	-0
1109	-0
1109	-0
1110	-0
1110	-0
1111	-0
1111	-0
