Data from 15c-2-5a_Absorbance__400__04676.txt Node

Date: Wed Jan 17 14:43:51 CET 2024
User: Marek
Spectrometer: MAYP115816
Trigger mode: 0
Integration Time (sec): 2.000000E-1
Scans to average: 10
Electric dark correction enabled: true
Nonlinearity correction enabled: true
Boxcar width: 5
XAxis mode: Wavelengths
Number of Pixels in Spectrum: 2068
>>>>>Begin Spectral Data<<<<<
199	-2.254
199	-2.106
200	-1.94
200	-1.811
201	-1.73
201	-1.678
202	-1.601
202	-1.541
203	-1.488
203	-1.441
204	-1.413
204	-1.388
205	-1.364
205	-1.353
205	-1.35
206	-1.349
206	-1.344
207	-1.342
207	-1.337
208	-1.335
208	-1.334
209	-1.329
209	-1.326
210	-1.325
210	-1.325
211	-1.323
211	-1.322
212	-1.322
212	-1.321
213	-1.32
213	-1.319
213	-1.317
214	-1.316
214	-1.315
215	-1.314
215	-1.312
216	-1.312
216	-1.308
217	-1.303
217	-1.301
218	-1.3
218	-1.297
219	-1.294
219	-1.293
220	-1.288
220	-1.284
221	-1.279
221	-1.275
221	-1.271
222	-1.268
222	-1.263
223	-1.256
223	-1.252
224	-1.246
224	-1.238
225	-1.23
225	-1.222
226	-1.212
226	-1.199
227	-1.186
227	-1.171
228	-1.154
228	-1.134
229	-1.112
229	-1.087
229	-1.058
230	-1.027
230	-0.994
231	-0.956
231	-0.916
232	-0.874
232	-0.829
233	-0.781
233	-0.731
234	-0.681
234	-0.629
235	-0.578
235	-0.527
236	-0.477
236	-0.427
236	-0.379
237	-0.332
237	-0.288
238	-0.245
238	-0.204
239	-0.165
239	-0.128
240	-0.093
240	-0.061
241	-0.031
241	-0.002
242	0.024
242	0.048
243	0.071
243	0.092
243	0.111
244	0.129
244	0.146
245	0.16
245	0.174
246	0.188
246	0.2
247	0.211
247	0.221
248	0.231
248	0.24
249	0.249
249	0.256
250	0.263
250	0.27
250	0.277
251	0.283
251	0.288
252	0.294
252	0.298
253	0.303
253	0.308
254	0.312
254	0.316
255	0.319
255	0.322
256	0.325
256	0.328
257	0.33
257	0.333
258	0.335
258	0.336
258	0.338
259	0.339
259	0.34
260	0.342
260	0.343
261	0.343
261	0.344
262	0.345
262	0.346
263	0.347
263	0.347
264	0.347
264	0.348
265	0.348
265	0.348
265	0.348
266	0.348
266	0.348
267	0.348
267	0.348
268	0.347
268	0.347
269	0.346
269	0.345
270	0.344
270	0.344
271	0.342
271	0.341
272	0.34
272	0.339
272	0.339
273	0.338
273	0.337
274	0.336
274	0.335
275	0.334
275	0.333
276	0.332
276	0.331
277	0.33
277	0.328
278	0.326
278	0.325
278	0.322
279	0.32
279	0.318
280	0.318
280	0.316
281	0.315
281	0.314
282	0.313
282	0.313
283	0.312
283	0.312
284	0.312
284	0.312
285	0.312
285	0.311
285	0.31
286	0.31
286	0.309
287	0.308
287	0.308
288	0.307
288	0.306
289	0.305
289	0.305
290	0.304
290	0.303
291	0.302
291	0.301
292	0.301
292	0.3
292	0.299
293	0.298
293	0.297
294	0.297
294	0.296
295	0.295
295	0.295
296	0.294
296	0.293
297	0.293
297	0.292
298	0.291
298	0.291
298	0.29
299	0.29
299	0.289
300	0.288
300	0.288
301	0.287
301	0.286
302	0.286
302	0.285
303	0.284
303	0.284
304	0.283
304	0.282
305	0.282
305	0.281
305	0.28
306	0.279
306	0.279
307	0.278
307	0.277
308	0.276
308	0.275
309	0.275
309	0.274
310	0.273
310	0.272
311	0.272
311	0.271
311	0.27
312	0.269
312	0.268
313	0.267
313	0.266
314	0.265
314	0.264
315	0.264
315	0.263
316	0.261
316	0.26
317	0.26
317	0.259
318	0.258
318	0.257
318	0.256
319	0.255
319	0.254
320	0.253
320	0.252
321	0.251
321	0.25
322	0.249
322	0.248
323	0.247
323	0.246
324	0.245
324	0.244
324	0.243
325	0.242
325	0.241
326	0.241
326	0.24
327	0.239
327	0.238
328	0.237
328	0.236
329	0.236
329	0.235
330	0.234
330	0.233
330	0.232
331	0.231
331	0.23
332	0.229
332	0.228
333	0.227
333	0.226
334	0.225
334	0.224
335	0.224
335	0.223
336	0.222
336	0.221
336	0.22
337	0.219
337	0.218
338	0.217
338	0.216
339	0.216
339	0.215
340	0.214
340	0.213
341	0.212
341	0.212
342	0.211
342	0.21
342	0.21
343	0.209
343	0.208
344	0.207
344	0.207
345	0.206
345	0.205
346	0.205
346	0.204
347	0.203
347	0.202
348	0.201
348	0.2
348	0.199
349	0.198
349	0.197
350	0.196
350	0.195
351	0.194
351	0.193
352	0.192
352	0.192
353	0.191
353	0.189
354	0.188
354	0.187
354	0.186
355	0.185
355	0.184
356	0.183
356	0.182
357	0.181
357	0.181
358	0.18
358	0.181
359	0.181
359	0.182
360	0.183
360	0.183
360	0.184
361	0.184
361	0.185
362	0.185
362	0.185
363	0.185
363	0.185
364	0.184
364	0.184
365	0.183
365	0.182
366	0.182
366	0.181
366	0.181
367	0.181
367	0.18
368	0.18
368	0.179
369	0.179
369	0.179
370	0.178
370	0.178
371	0.177
371	0.177
372	0.176
372	0.176
372	0.175
373	0.175
373	0.175
374	0.175
374	0.175
375	0.175
375	0.175
376	0.175
376	0.175
377	0.175
377	0.176
378	0.176
378	0.176
378	0.177
379	0.176
379	0.176
380	0.176
380	0.177
381	0.177
381	0.176
382	0.176
382	0.175
383	0.175
383	0.174
383	0.174
384	0.173
384	0.173
385	0.173
385	0.172
386	0.172
386	0.172
387	0.172
387	0.172
388	0.172
388	0.172
389	0.172
389	0.172
389	0.172
390	0.172
390	0.172
391	0.172
391	0.173
392	0.173
392	0.173
393	0.173
393	0.173
394	0.172
394	0.172
394	0.172
395	0.172
395	0.171
396	0.171
396	0.171
397	0.171
397	0.171
398	0.171
398	0.171
399	0.171
399	0.171
400	0.17
400	0.17
400	0.17
401	0.169
401	0.167
402	0.166
402	0.166
403	0.165
403	0.165
404	0.165
404	0.165
405	0.165
405	0.164
405	0.164
406	0.164
406	0.163
407	0.163
407	0.163
408	0.162
408	0.161
409	0.16
409	0.16
410	0.16
410	0.16
411	0.16
411	0.16
411	0.159
412	0.159
412	0.159
413	0.158
413	0.158
414	0.158
414	0.157
415	0.157
415	0.156
416	0.156
416	0.155
416	0.155
417	0.154
417	0.154
418	0.154
418	0.155
419	0.155
419	0.156
420	0.157
420	0.158
421	0.159
421	0.16
421	0.16
422	0.16
422	0.161
423	0.161
423	0.161
424	0.16
424	0.159
425	0.158
425	0.157
426	0.156
426	0.156
427	0.155
427	0.155
427	0.155
428	0.156
428	0.157
429	0.157
429	0.158
430	0.158
430	0.158
431	0.158
431	0.158
432	0.157
432	0.156
432	0.156
433	0.154
433	0.153
434	0.152
434	0.151
435	0.152
435	0.152
436	0.152
436	0.152
437	0.152
437	0.152
437	0.152
438	0.152
438	0.152
439	0.151
439	0.151
440	0.15
440	0.15
441	0.15
441	0.15
442	0.15
442	0.15
442	0.151
443	0.151
443	0.152
444	0.152
444	0.153
445	0.153
445	0.153
446	0.153
446	0.153
447	0.153
447	0.152
447	0.152
448	0.152
448	0.151
449	0.151
449	0.15
450	0.15
450	0.15
451	0.149
451	0.149
452	0.149
452	0.148
452	0.147
453	0.147
453	0.146
454	0.146
454	0.146
455	0.145
455	0.145
456	0.145
456	0.144
457	0.144
457	0.144
458	0.143
458	0.143
458	0.143
459	0.143
459	0.143
460	0.142
460	0.141
461	0.14
461	0.14
462	0.14
462	0.14
463	0.14
463	0.141
463	0.142
464	0.142
464	0.142
465	0.142
465	0.142
466	0.142
466	0.143
467	0.143
467	0.142
467	0.141
468	0.14
468	0.138
469	0.136
469	0.134
470	0.133
470	0.133
471	0.132
471	0.132
472	0.132
472	0.132
472	0.132
473	0.134
473	0.135
474	0.136
474	0.137
475	0.138
475	0.139
476	0.139
476	0.139
477	0.139
477	0.139
477	0.139
478	0.139
478	0.139
479	0.14
479	0.14
480	0.14
480	0.141
481	0.142
481	0.143
482	0.144
482	0.146
482	0.147
483	0.15
483	0.153
484	0.157
484	0.159
485	0.161
485	0.163
486	0.164
486	0.165
487	0.165
487	0.165
487	0.165
488	0.164
488	0.162
489	0.159
489	0.157
490	0.156
490	0.154
491	0.153
491	0.153
492	0.154
492	0.154
492	0.154
493	0.155
493	0.156
494	0.157
494	0.159
495	0.161
495	0.163
496	0.164
496	0.165
496	0.166
497	0.167
497	0.168
498	0.168
498	0.169
499	0.169
499	0.169
500	0.169
500	0.17
501	0.171
501	0.173
501	0.174
502	0.176
502	0.177
503	0.179
503	0.18
504	0.181
504	0.181
505	0.182
505	0.181
506	0.182
506	0.182
506	0.182
507	0.182
507	0.182
508	0.182
508	0.182
509	0.183
509	0.184
510	0.185
510	0.185
511	0.185
511	0.185
511	0.184
512	0.185
512	0.185
513	0.184
513	0.183
514	0.181
514	0.18
515	0.179
515	0.178
515	0.177
516	0.177
516	0.177
517	0.178
517	0.178
518	0.177
518	0.176
519	0.175
519	0.173
520	0.171
520	0.168
520	0.165
521	0.162
521	0.159
522	0.156
522	0.154
523	0.152
523	0.152
524	0.154
524	0.156
524	0.158
525	0.161
525	0.164
526	0.167
526	0.17
527	0.173
527	0.176
528	0.177
528	0.179
529	0.18
529	0.181
529	0.181
530	0.181
530	0.181
531	0.181
531	0.182
532	0.182
532	0.181
533	0.181
533	0.182
533	0.182
534	0.181
534	0.18
535	0.179
535	0.179
536	0.178
536	0.178
537	0.177
537	0.177
538	0.176
538	0.175
538	0.173
539	0.173
539	0.172
540	0.171
540	0.17
541	0.168
541	0.166
542	0.164
542	0.163
542	0.161
543	0.16
543	0.159
544	0.157
544	0.156
545	0.155
545	0.155
546	0.155
546	0.155
547	0.153
547	0.151
547	0.149
548	0.147
548	0.144
549	0.142
549	0.14
550	0.138
550	0.136
551	0.134
551	0.131
551	0.13
552	0.129
552	0.128
553	0.127
553	0.127
554	0.127
554	0.125
555	0.123
555	0.12
556	0.117
556	0.114
556	0.11
557	0.108
557	0.105
558	0.103
558	0.101
559	0.099
559	0.099
560	0.098
560	0.098
560	0.098
561	0.098
561	0.099
562	0.099
562	0.098
563	0.096
563	0.094
564	0.091
564	0.088
564	0.085
565	0.083
565	0.082
566	0.08
566	0.079
567	0.079
567	0.08
568	0.082
568	0.084
568	0.086
569	0.089
569	0.092
570	0.094
570	0.095
571	0.096
571	0.098
572	0.098
572	0.099
573	0.099
573	0.099
573	0.098
574	0.097
574	0.096
575	0.096
575	0.097
576	0.098
576	0.098
577	0.096
577	0.095
577	0.095
578	0.094
578	0.093
579	0.094
579	0.096
580	0.095
580	0.092
581	0.089
581	0.086
581	0.085
582	0.084
582	0.084
583	0.084
583	0.084
584	0.081
584	0.076
585	0.073
585	0.073
585	0.073
586	0.072
586	0.072
587	0.07
587	0.067
588	0.064
588	0.061
589	0.059
589	0.058
590	0.057
590	0.056
590	0.057
591	0.058
591	0.059
592	0.058
592	0.058
593	0.057
593	0.058
594	0.057
594	0.056
594	0.054
595	0.054
595	0.052
596	0.05
596	0.05
597	0.053
597	0.054
598	0.056
598	0.057
598	0.059
599	0.06
599	0.06
600	0.059
600	0.058
601	0.057
601	0.056
602	0.054
602	0.053
602	0.052
603	0.051
603	0.052
604	0.053
604	0.055
605	0.058
605	0.06
606	0.062
606	0.061
606	0.06
607	0.059
607	0.059
608	0.058
608	0.056
609	0.054
609	0.053
610	0.051
610	0.049
610	0.049
611	0.05
611	0.051
612	0.053
612	0.055
613	0.056
613	0.058
614	0.058
614	0.057
614	0.057
615	0.056
615	0.055
616	0.054
616	0.053
617	0.051
617	0.049
618	0.047
618	0.045
618	0.044
619	0.043
619	0.044
620	0.046
620	0.047
621	0.047
621	0.048
622	0.048
622	0.048
622	0.048
623	0.048
623	0.049
624	0.049
624	0.048
625	0.047
625	0.047
626	0.047
626	0.047
626	0.047
627	0.048
627	0.048
628	0.048
628	0.048
629	0.048
629	0.048
630	0.047
630	0.046
630	0.045
631	0.046
631	0.046
632	0.045
632	0.045
633	0.045
633	0.046
634	0.048
634	0.05
634	0.053
635	0.055
635	0.057
636	0.059
636	0.06
637	0.062
637	0.063
638	0.064
638	0.066
638	0.067
639	0.068
639	0.068
640	0.069
640	0.071
641	0.072
641	0.074
642	0.076
642	0.079
642	0.081
643	0.082
643	0.083
644	0.085
644	0.087
645	0.088
645	0.09
646	0.093
646	0.095
646	0.099
647	0.102
647	0.106
648	0.108
648	0.111
649	0.114
649	0.117
650	0.12
650	0.123
650	0.126
651	0.129
651	0.131
652	0.133
652	0.134
653	0.138
653	0.148
653	0.172
654	0.141
654	0.118
655	0.122
655	0.124
656	0.126
656	0.127
657	0.129
657	0.13
657	0.131
658	0.127
658	0.11
659	0.136
659	0.173
660	0.175
660	0.176
661	0.177
661	0.178
661	0.181
662	0.184
662	0.188
663	0.192
663	0.195
664	0.198
664	0.201
665	0.203
665	0.206
665	0.208
666	0.21
666	0.212
667	0.214
667	0.215
668	0.218
668	0.22
669	0.223
669	0.226
669	0.231
670	0.236
670	0.24
671	0.243
671	0.245
672	0.248
672	0.25
672	0.251
673	0.253
673	0.254
674	0.255
674	0.254
675	0.253
675	0.253
676	0.255
676	0.257
676	0.258
677	0.26
677	0.262
678	0.265
678	0.266
679	0.268
679	0.269
680	0.272
680	0.274
680	0.275
681	0.275
681	0.276
682	0.277
682	0.279
683	0.281
683	0.283
684	0.286
684	0.287
684	0.287
685	0.288
685	0.289
686	0.29
686	0.29
687	0.29
687	0.29
687	0.289
688	0.288
688	0.286
689	0.286
689	0.288
690	0.288
690	0.287
691	0.286
691	0.286
691	0.286
692	0.285
692	0.284
693	0.283
693	0.283
694	0.283
694	0.28
695	0.28
695	0.282
695	0.283
696	0.282
696	0.281
697	0.28
697	0.279
698	0.277
698	0.275
698	0.273
699	0.272
699	0.269
700	0.265
700	0.263
701	0.262
701	0.261
702	0.26
702	0.258
702	0.257
703	0.256
703	0.254
704	0.252
704	0.251
705	0.251
705	0.25
705	0.249
706	0.248
706	0.248
707	0.246
707	0.244
708	0.242
708	0.241
709	0.239
709	0.237
709	0.233
710	0.23
710	0.227
711	0.224
711	0.222
712	0.22
712	0.219
713	0.217
713	0.215
713	0.213
714	0.21
714	0.208
715	0.205
715	0.203
716	0.199
716	0.197
716	0.195
717	0.192
717	0.19
718	0.187
718	0.184
719	0.183
719	0.181
720	0.179
720	0.177
720	0.174
721	0.17
721	0.167
722	0.164
722	0.161
723	0.159
723	0.157
723	0.156
724	0.154
724	0.152
725	0.15
725	0.148
726	0.147
726	0.146
727	0.145
727	0.143
727	0.141
728	0.139
728	0.137
729	0.136
729	0.136
730	0.134
730	0.133
730	0.131
731	0.13
731	0.128
732	0.127
732	0.126
733	0.123
733	0.121
734	0.118
734	0.115
734	0.112
735	0.111
735	0.108
736	0.105
736	0.102
737	0.1
737	0.098
737	0.097
738	0.093
738	0.09
739	0.086
739	0.083
740	0.08
740	0.077
741	0.075
741	0.072
741	0.067
742	0.061
742	0.056
743	0.053
743	0.05
744	0.047
744	0.045
744	0.043
745	0.04
745	0.037
746	0.035
746	0.034
747	0.033
747	0.033
748	0.033
748	0.033
748	0.033
749	0.032
749	0.032
750	0.032
750	0.032
751	0.031
751	0.032
751	0.033
752	0.032
752	0.031
753	0.03
753	0.03
754	0.029
754	0.029
754	0.029
755	0.029
755	0.03
756	0.029
756	0.027
757	0.025
757	0.025
758	0.024
758	0.023
758	0.022
759	0.021
759	0.018
760	0.015
760	0.011
761	0.008
761	0.007
761	0.005
762	0.003
762	0.002
763	0.001
763	-0.002
764	-0.005
764	-0.008
764	-0.01
765	-0.013
765	-0.015
766	-0.016
766	-0.017
767	-0.017
767	-0.02
768	-0.024
768	-0.026
768	-0.027
769	-0.028
769	-0.028
770	-0.029
770	-0.031
771	-0.033
771	-0.037
771	-0.04
772	-0.043
772	-0.045
773	-0.048
773	-0.051
774	-0.055
774	-0.059
775	-0.063
775	-0.066
775	-0.071
776	-0.075
776	-0.08
777	-0.084
777	-0.088
778	-0.093
778	-0.099
778	-0.104
779	-0.108
779	-0.11
780	-0.114
780	-0.12
781	-0.124
781	-0.129
781	-0.133
782	-0.137
782	-0.142
783	-0.146
783	-0.147
784	-0.149
784	-0.152
784	-0.153
785	-0.154
785	-0.156
786	-0.156
786	-0.153
787	-0.147
787	-0.143
788	-0.142
788	-0.142
788	-0.143
789	-0.146
789	-0.145
790	-0.142
790	-0.141
791	-0.141
791	-0.143
791	-0.146
792	-0.14
792	-0.13
793	-0.124
793	-0.12
794	-0.118
794	-0.12
794	-0.125
795	-0.127
795	-0.127
796	-0.128
796	-0.131
797	-0.14
797	-0.151
797	-0.157
798	-0.163
798	-0.165
799	-0.166
799	-0.165
800	-0.164
800	-0.166
801	-0.168
801	-0.169
801	-0.17
802	-0.171
802	-0.172
803	-0.173
803	-0.173
804	-0.172
804	-0.167
804	-0.161
805	-0.157
805	-0.155
806	-0.153
806	-0.152
807	-0.151
807	-0.15
807	-0.15
808	-0.15
808	-0.151
809	-0.156
809	-0.162
810	-0.166
810	-0.169
810	-0.172
811	-0.175
811	-0.176
812	-0.172
812	-0.169
813	-0.169
813	-0.169
813	-0.17
814	-0.17
814	-0.17
815	-0.166
815	-0.163
816	-0.16
816	-0.16
817	-0.164
817	-0.166
817	-0.166
818	-0.165
818	-0.162
819	-0.156
819	-0.154
820	-0.155
820	-0.158
820	-0.159
821	-0.159
821	-0.159
822	-0.157
822	-0.155
823	-0.152
823	-0.151
823	-0.152
824	-0.149
824	-0.143
825	-0.135
825	-0.125
826	-0.116
826	-0.108
826	-0.101
827	-0.094
827	-0.087
828	-0.081
828	-0.076
829	-0.071
829	-0.067
829	-0.064
830	-0.063
830	-0.06
831	-0.055
831	-0.052
832	-0.049
832	-0.045
832	-0.042
833	-0.039
833	-0.036
834	-0.033
834	-0.03
835	-0.027
835	-0.025
835	-0.023
836	-0.021
836	-0.02
837	-0.018
837	-0.017
838	-0.017
838	-0.016
839	-0.016
839	-0.016
839	-0.017
840	-0.017
840	-0.017
841	-0.016
841	-0.016
842	-0.015
842	-0.014
842	-0.013
843	-0.012
843	-0.011
844	-0.01
844	-0.008
845	-0.006
845	-0.005
845	-0.003
846	-0.001
846	-0
847	0.001
847	0.002
848	0.003
848	0.004
848	0.005
849	0.006
849	0.006
850	0.006
850	0.006
851	0.006
851	0.006
851	0.006
852	0.006
852	0.006
853	0.006
853	0.007
854	0.007
854	0.007
854	0.008
855	0.008
855	0.008
856	0.008
856	0.009
857	0.009
857	0.009
857	0.009
858	0.009
858	0.008
859	0.007
859	0.007
860	0.007
860	0.006
860	0.006
861	0.006
861	0.006
862	0.006
862	0.006
863	0.006
863	0.006
863	0.007
864	0.007
864	0.008
865	0.008
865	0.009
866	0.009
866	0.01
866	0.011
867	0.013
867	0.014
868	0.016
868	0.018
869	0.02
869	0.022
869	0.023
870	0.025
870	0.026
871	0.027
871	0.027
872	0.027
872	0.027
872	0.026
873	0.026
873	0.024
874	0.024
874	0.023
875	0.024
875	0.024
875	0.024
876	0.025
876	0.026
877	0.027
877	0.028
878	0.029
878	0.03
878	0.031
879	0.032
879	0.032
880	0.032
880	0.032
881	0.031
881	0.03
881	0.03
882	0.028
882	0.028
883	0.026
883	0.025
884	0.025
884	0.024
884	0.024
885	0.024
885	0.025
886	0.025
886	0.026
887	0.027
887	0.027
887	0.028
888	0.029
888	0.03
889	0.031
889	0.032
890	0.033
890	0.033
890	0.033
891	0.033
891	0.032
892	0.032
892	0.031
893	0.03
893	0.029
893	0.028
894	0.028
894	0.026
895	0.025
895	0.025
895	0.024
896	0.023
896	0.023
897	0.023
897	0.023
898	0.023
898	0.023
898	0.023
899	0.024
899	0.025
900	0.026
900	0.027
901	0.029
901	0.031
901	0.032
902	0.034
902	0.035
903	0.036
903	0.036
904	0.037
904	0.037
904	0.037
905	0.037
905	0.037
906	0.037
906	0.037
907	0.037
907	0.037
907	0.038
908	0.038
908	0.039
909	0.039
909	0.04
910	0.04
910	0.04
910	0.041
911	0.041
911	0.041
912	0.041
912	0.042
913	0.041
913	0.041
913	0.04
914	0.04
914	0.039
915	0.038
915	0.038
916	0.037
916	0.036
916	0.036
917	0.035
917	0.034
918	0.034
918	0.034
918	0.033
919	0.033
919	0.033
920	0.033
920	0.034
921	0.034
921	0.034
921	0.034
922	0.035
922	0.036
923	0.037
923	0.038
924	0.039
924	0.04
924	0.04
925	0.041
925	0.041
926	0.041
926	0.04
927	0.04
927	0.039
927	0.038
928	0.037
928	0.036
929	0.035
929	0.034
930	0.033
930	0.033
930	0.032
931	0.032
931	0.031
932	0.031
932	0.03
933	0.03
933	0.03
933	0.03
934	0.029
934	0.029
935	0.028
935	0.028
935	0.028
936	0.029
936	0.029
937	0.03
937	0.031
938	0.032
938	0.032
938	0.034
939	0.035
939	0.036
940	0.038
940	0.039
941	0.04
941	0.042
941	0.043
942	0.045
942	0.046
943	0.047
943	0.048
944	0.049
944	0.049
944	0.049
945	0.05
945	0.05
946	0.05
946	0.05
946	0.049
947	0.049
947	0.048
948	0.048
948	0.048
949	0.048
949	0.048
949	0.048
950	0.047
950	0.047
951	0.047
951	0.046
952	0.045
952	0.045
952	0.044
953	0.044
953	0.043
954	0.042
954	0.041
955	0.04
955	0.04
955	0.04
956	0.04
956	0.04
957	0.04
957	0.041
957	0.041
958	0.04
958	0.041
959	0.04
959	0.04
960	0.039
960	0.038
960	0.037
961	0.036
961	0.035
962	0.034
962	0.034
963	0.034
963	0.034
963	0.035
964	0.036
964	0.037
965	0.038
965	0.04
966	0.041
966	0.043
966	0.044
967	0.045
967	0.045
968	0.045
968	0.045
968	0.044
969	0.044
969	0.043
970	0.042
970	0.041
971	0.04
971	0.039
971	0.039
972	0.039
972	0.039
973	0.039
973	0.039
974	0.039
974	0.039
974	0.039
975	0.039
975	0.04
976	0.04
976	0.04
976	0.04
977	0.039
977	0.038
978	0.037
978	0.036
979	0.035
979	0.034
979	0.033
980	0.032
980	0.031
981	0.03
981	0.03
982	0.03
982	0.03
982	0.03
983	0.031
983	0.031
984	0.032
984	0.032
984	0.033
985	0.034
985	0.034
986	0.034
986	0.035
987	0.035
987	0.036
987	0.038
988	0.039
988	0.04
989	0.041
989	0.042
990	0.044
990	0.045
990	0.047
991	0.049
991	0.05
992	0.051
992	0.052
992	0.052
993	0.052
993	0.052
994	0.052
994	0.052
995	0.051
995	0.05
995	0.049
996	0.048
996	0.047
997	0.046
997	0.045
997	0.045
998	0.044
998	0.044
999	0.044
999	0.044
1000	0.044
1000	0.043
1000	0.043
1001	0.044
1001	0.044
1002	0.044
1002	0.044
1003	0.045
1003	0.045
1003	0.045
1004	0.045
1004	0.044
1005	0.044
1005	0.043
1005	0.042
1006	0.041
1006	0.04
1007	0.038
1007	0.037
1008	0.035
1008	0.034
1008	0.033
1009	0.033
1009	0.032
1010	0.032
1010	0.032
1010	0.032
1011	0.032
1011	0.032
1012	0.031
1012	0.031
1013	0.031
1013	0.03
1013	0.029
1014	0.028
1014	0.027
1015	0.027
1015	0.026
1016	0.026
1016	0.025
1016	0.025
1017	0.025
1017	0.025
1018	0.025
1018	0.026
1018	0.027
1019	0.027
1019	0.028
1020	0.029
1020	0.03
1021	0.03
1021	0.031
1021	0.032
1022	0.032
1022	0.033
1023	0.034
1023	0.034
1023	0.034
1024	0.033
1024	0.033
1025	0.032
1025	0.032
1026	0.031
1026	0.03
1026	0.03
1027	0.029
1027	0.029
1028	0.028
1028	0.028
1028	0.028
1029	0.028
1029	0.028
1030	0.028
1030	0.027
1031	0.028
1031	0.028
1031	0.028
1032	0.028
1032	0.028
1033	0.028
1033	0.028
1033	0.028
1034	0.028
1034	0.028
1035	0.028
1035	0.028
1036	0.027
1036	0.027
1036	0.027
1037	0.028
1037	0.028
1038	0.027
1038	0.027
1039	0.028
1039	0.028
1039	0.028
1040	0.027
1040	0.027
1041	0.026
1041	0.026
1041	0.026
1042	0.025
1042	0.026
1043	0.025
1043	0.026
1044	0.026
1044	0.027
1044	0.028
1045	0.028
1045	0.029
1046	0.03
1046	0.031
1046	0.032
1047	0.033
1047	0.034
1048	0.036
1048	0.036
1049	0.037
1049	0.037
1049	0.038
1050	0.038
1050	0.038
1051	0.038
1051	0.039
1051	0.039
1052	0.039
1052	0.04
1053	0.04
1053	0.041
1053	0.042
1054	0.043
1054	0.044
1055	0.046
1055	0.046
1056	0.046
1056	0.047
1056	0.047
1057	0.047
1057	0.048
1058	0.049
1058	0.049
1058	0.05
1059	0.051
1059	0.052
1060	0.053
1060	0.055
1061	0.057
1061	0.06
1061	0.061
1062	0.062
1062	0.064
1063	0.065
1063	0.066
1063	0.068
1064	0.069
1064	0.071
1065	0.072
1065	0.073
1066	0.074
1066	0.075
1066	0.077
1067	0.078
1067	0.079
1068	0.08
1068	0.081
1068	0.081
1069	0.082
1069	0.082
1070	0.083
1070	0.084
1071	0.086
1071	0.087
1071	0.088
1072	0.091
1072	0.093
1073	0.096
1073	0.099
1073	0.101
1074	0.104
1074	0.107
1075	0.108
1075	0.111
1076	0.112
1076	0.116
1076	0.117
1077	0.119
1077	0.122
1078	0.124
1078	0.127
1078	0.131
1079	0.135
1079	0.139
1080	0.142
1080	0.145
1080	0.148
1081	0.152
1081	0.156
1082	0.16
1082	0.163
1083	0.166
1083	0.17
1083	0.174
1084	0.178
1084	0.184
1085	0.19
1085	0.196
1085	0.202
1086	0.207
1086	0.211
1087	0.218
1087	0.224
1088	0.228
1088	0.235
1088	0.242
1089	0.248
1089	0.256
1090	0.266
1090	0.277
1090	0.289
1091	0.303
1091	0.319
1092	0.335
1092	0.355
1092	0.375
1093	0.396
1093	0.422
1094	0.448
1094	0.474
1095	0.503
1095	0.536
1095	0.579
1096	0.626
1096	0.68
1097	0.748
1097	0.825
1097	0.93
1098	1.065
1098	1.281
1099	1.847
1099	-0
1100	-0
1100	-0
1100	-0
1101	-0
1101	-0
1102	-0
1102	-0
1102	-0
1103	-0
1103	-0
1104	-0
1104	-0
1104	-0
1105	-0
1105	-0
1106	-0
1106	-0
1107	-0
1107	-0
1107	-0
1108	-0
1108	-0
1109	-0
1109	-0
1109	-0
1110	-0
1110	-0
1111	-0
1111	-0
