Data from 15c-2-5a_Absorbance__1025__05301.txt Node

Date: Wed Jan 17 15:04:41 CET 2024
User: Marek
Spectrometer: MAYP115816
Trigger mode: 0
Integration Time (sec): 2.000000E-1
Scans to average: 10
Electric dark correction enabled: true
Nonlinearity correction enabled: true
Boxcar width: 5
XAxis mode: Wavelengths
Number of Pixels in Spectrum: 2068
>>>>>Begin Spectral Data<<<<<
199	-2.263
199	-2.115
200	-1.949
200	-1.82
201	-1.738
201	-1.687
202	-1.609
202	-1.549
203	-1.496
203	-1.449
204	-1.421
204	-1.396
205	-1.371
205	-1.36
205	-1.358
206	-1.356
206	-1.352
207	-1.349
207	-1.345
208	-1.342
208	-1.341
209	-1.336
209	-1.333
210	-1.332
210	-1.333
211	-1.331
211	-1.329
212	-1.33
212	-1.328
213	-1.327
213	-1.326
213	-1.324
214	-1.323
214	-1.323
215	-1.321
215	-1.319
216	-1.319
216	-1.315
217	-1.311
217	-1.309
218	-1.308
218	-1.304
219	-1.301
219	-1.301
220	-1.296
220	-1.292
221	-1.287
221	-1.283
221	-1.279
222	-1.275
222	-1.27
223	-1.264
223	-1.26
224	-1.253
224	-1.246
225	-1.237
225	-1.229
226	-1.219
226	-1.207
227	-1.193
227	-1.178
228	-1.162
228	-1.142
229	-1.119
229	-1.094
229	-1.065
230	-1.034
230	-1.001
231	-0.963
231	-0.923
232	-0.882
232	-0.837
233	-0.788
233	-0.738
234	-0.687
234	-0.635
235	-0.584
235	-0.532
236	-0.481
236	-0.431
236	-0.382
237	-0.334
237	-0.288
238	-0.245
238	-0.203
239	-0.163
239	-0.125
240	-0.089
240	-0.056
241	-0.024
241	0.005
242	0.032
242	0.057
243	0.081
243	0.103
243	0.123
244	0.142
244	0.159
245	0.175
245	0.19
246	0.204
246	0.217
247	0.229
247	0.241
248	0.251
248	0.261
249	0.27
249	0.278
250	0.286
250	0.293
250	0.3
251	0.307
251	0.313
252	0.319
252	0.324
253	0.329
253	0.334
254	0.338
254	0.342
255	0.346
255	0.35
256	0.353
256	0.356
257	0.358
257	0.361
258	0.363
258	0.365
258	0.367
259	0.368
259	0.37
260	0.371
260	0.373
261	0.374
261	0.375
262	0.376
262	0.376
263	0.377
263	0.378
264	0.379
264	0.379
265	0.38
265	0.38
265	0.38
266	0.38
266	0.38
267	0.379
267	0.379
268	0.379
268	0.378
269	0.377
269	0.376
270	0.375
270	0.374
271	0.373
271	0.372
272	0.371
272	0.37
272	0.37
273	0.369
273	0.368
274	0.367
274	0.366
275	0.365
275	0.364
276	0.363
276	0.362
277	0.361
277	0.359
278	0.357
278	0.355
278	0.353
279	0.351
279	0.349
280	0.348
280	0.347
281	0.346
281	0.345
282	0.344
282	0.343
283	0.343
283	0.343
284	0.342
284	0.342
285	0.342
285	0.341
285	0.34
286	0.339
286	0.339
287	0.338
287	0.337
288	0.336
288	0.335
289	0.334
289	0.333
290	0.332
290	0.331
291	0.33
291	0.329
292	0.328
292	0.327
292	0.327
293	0.326
293	0.325
294	0.324
294	0.324
295	0.323
295	0.322
296	0.321
296	0.321
297	0.32
297	0.319
298	0.319
298	0.318
298	0.317
299	0.316
299	0.316
300	0.315
300	0.314
301	0.314
301	0.313
302	0.312
302	0.311
303	0.31
303	0.31
304	0.309
304	0.308
305	0.307
305	0.307
305	0.306
306	0.305
306	0.304
307	0.304
307	0.303
308	0.302
308	0.301
309	0.3
309	0.3
310	0.299
310	0.298
311	0.297
311	0.296
311	0.295
312	0.294
312	0.293
313	0.292
313	0.291
314	0.29
314	0.289
315	0.288
315	0.287
316	0.286
316	0.285
317	0.284
317	0.283
318	0.282
318	0.281
318	0.28
319	0.279
319	0.278
320	0.277
320	0.276
321	0.275
321	0.274
322	0.272
322	0.271
323	0.27
323	0.269
324	0.268
324	0.267
324	0.266
325	0.265
325	0.264
326	0.263
326	0.262
327	0.261
327	0.261
328	0.26
328	0.259
329	0.258
329	0.257
330	0.256
330	0.255
330	0.254
331	0.253
331	0.252
332	0.251
332	0.25
333	0.249
333	0.248
334	0.247
334	0.246
335	0.245
335	0.244
336	0.243
336	0.242
336	0.241
337	0.24
337	0.239
338	0.239
338	0.238
339	0.237
339	0.236
340	0.236
340	0.235
341	0.234
341	0.233
342	0.233
342	0.232
342	0.231
343	0.23
343	0.229
344	0.228
344	0.227
345	0.227
345	0.226
346	0.225
346	0.224
347	0.223
347	0.222
348	0.221
348	0.22
348	0.22
349	0.219
349	0.218
350	0.217
350	0.216
351	0.215
351	0.214
352	0.213
352	0.212
353	0.211
353	0.21
354	0.208
354	0.207
354	0.206
355	0.204
355	0.203
356	0.202
356	0.201
357	0.2
357	0.199
358	0.199
358	0.199
359	0.2
359	0.2
360	0.201
360	0.202
360	0.203
361	0.203
361	0.204
362	0.204
362	0.205
363	0.205
363	0.204
364	0.204
364	0.203
365	0.203
365	0.202
366	0.201
366	0.201
366	0.2
367	0.2
367	0.2
368	0.199
368	0.198
369	0.198
369	0.197
370	0.197
370	0.196
371	0.196
371	0.195
372	0.195
372	0.194
372	0.194
373	0.194
373	0.193
374	0.193
374	0.193
375	0.193
375	0.193
376	0.193
376	0.193
377	0.193
377	0.194
378	0.194
378	0.194
378	0.194
379	0.195
379	0.195
380	0.195
380	0.195
381	0.195
381	0.195
382	0.194
382	0.194
383	0.193
383	0.192
383	0.192
384	0.191
384	0.191
385	0.19
385	0.19
386	0.19
386	0.19
387	0.191
387	0.19
388	0.19
388	0.19
389	0.19
389	0.19
389	0.19
390	0.19
390	0.19
391	0.191
391	0.191
392	0.191
392	0.191
393	0.191
393	0.191
394	0.191
394	0.191
394	0.191
395	0.19
395	0.19
396	0.189
396	0.189
397	0.19
397	0.19
398	0.19
398	0.19
399	0.19
399	0.189
400	0.189
400	0.189
400	0.188
401	0.187
401	0.186
402	0.185
402	0.184
403	0.183
403	0.183
404	0.183
404	0.183
405	0.182
405	0.181
405	0.181
406	0.181
406	0.18
407	0.18
407	0.18
408	0.179
408	0.178
409	0.178
409	0.177
410	0.177
410	0.177
411	0.177
411	0.177
411	0.177
412	0.176
412	0.176
413	0.176
413	0.176
414	0.175
414	0.175
415	0.175
415	0.174
416	0.174
416	0.173
416	0.172
417	0.172
417	0.172
418	0.172
418	0.172
419	0.173
419	0.173
420	0.174
420	0.175
421	0.176
421	0.176
421	0.177
422	0.177
422	0.177
423	0.178
423	0.177
424	0.177
424	0.176
425	0.174
425	0.173
426	0.172
426	0.172
427	0.172
427	0.172
427	0.172
428	0.172
428	0.173
429	0.174
429	0.175
430	0.175
430	0.175
431	0.174
431	0.174
432	0.174
432	0.173
432	0.172
433	0.17
433	0.169
434	0.168
434	0.167
435	0.167
435	0.167
436	0.167
436	0.168
437	0.168
437	0.168
437	0.168
438	0.168
438	0.168
439	0.168
439	0.167
440	0.167
440	0.167
441	0.167
441	0.167
442	0.167
442	0.167
442	0.168
443	0.168
443	0.169
444	0.169
444	0.17
445	0.17
445	0.17
446	0.17
446	0.17
447	0.17
447	0.169
447	0.169
448	0.169
448	0.168
449	0.168
449	0.168
450	0.167
450	0.167
451	0.166
451	0.166
452	0.165
452	0.164
452	0.164
453	0.163
453	0.163
454	0.162
454	0.161
455	0.161
455	0.161
456	0.16
456	0.16
457	0.16
457	0.159
458	0.159
458	0.159
458	0.159
459	0.159
459	0.16
460	0.159
460	0.158
461	0.157
461	0.157
462	0.156
462	0.156
463	0.157
463	0.157
463	0.158
464	0.158
464	0.159
465	0.159
465	0.159
466	0.159
466	0.159
467	0.159
467	0.159
467	0.158
468	0.156
468	0.154
469	0.152
469	0.15
470	0.149
470	0.148
471	0.148
471	0.147
472	0.147
472	0.147
472	0.148
473	0.149
473	0.15
474	0.152
474	0.153
475	0.154
475	0.155
476	0.155
476	0.155
477	0.155
477	0.156
477	0.156
478	0.156
478	0.155
479	0.155
479	0.156
480	0.157
480	0.158
481	0.159
481	0.159
482	0.16
482	0.162
482	0.163
483	0.166
483	0.169
484	0.173
484	0.176
485	0.178
485	0.18
486	0.181
486	0.182
487	0.183
487	0.183
487	0.183
488	0.182
488	0.18
489	0.177
489	0.175
490	0.173
490	0.172
491	0.171
491	0.171
492	0.172
492	0.172
492	0.172
493	0.172
493	0.173
494	0.175
494	0.177
495	0.18
495	0.181
496	0.182
496	0.183
496	0.185
497	0.186
497	0.187
498	0.188
498	0.188
499	0.188
499	0.188
500	0.188
500	0.189
501	0.191
501	0.192
501	0.194
502	0.195
502	0.197
503	0.198
503	0.2
504	0.2
504	0.2
505	0.201
505	0.201
506	0.201
506	0.201
506	0.201
507	0.201
507	0.201
508	0.201
508	0.202
509	0.202
509	0.203
510	0.204
510	0.204
511	0.204
511	0.204
511	0.204
512	0.204
512	0.204
513	0.202
513	0.2
514	0.198
514	0.196
515	0.196
515	0.196
515	0.195
516	0.195
516	0.194
517	0.195
517	0.194
518	0.194
518	0.193
519	0.191
519	0.188
520	0.185
520	0.181
520	0.178
521	0.175
521	0.172
522	0.17
522	0.169
523	0.169
523	0.171
524	0.173
524	0.176
524	0.179
525	0.183
525	0.186
526	0.189
526	0.192
527	0.194
527	0.196
528	0.197
528	0.199
529	0.199
529	0.199
529	0.2
530	0.199
530	0.199
531	0.199
531	0.2
532	0.199
532	0.199
533	0.199
533	0.2
533	0.2
534	0.199
534	0.199
535	0.198
535	0.198
536	0.197
536	0.197
537	0.196
537	0.196
538	0.195
538	0.193
538	0.192
539	0.191
539	0.19
540	0.19
540	0.188
541	0.186
541	0.185
542	0.182
542	0.181
542	0.179
543	0.178
543	0.177
544	0.175
544	0.174
545	0.173
545	0.173
546	0.173
546	0.172
547	0.171
547	0.169
547	0.166
548	0.164
548	0.161
549	0.159
549	0.157
550	0.154
550	0.152
551	0.149
551	0.146
551	0.144
552	0.143
552	0.142
553	0.141
553	0.141
554	0.141
554	0.139
555	0.137
555	0.134
556	0.131
556	0.128
556	0.124
557	0.121
557	0.119
558	0.116
558	0.114
559	0.112
559	0.111
560	0.111
560	0.111
560	0.11
561	0.11
561	0.111
562	0.111
562	0.11
563	0.108
563	0.106
564	0.103
564	0.1
564	0.097
565	0.095
565	0.094
566	0.093
566	0.092
567	0.092
567	0.093
568	0.095
568	0.097
568	0.099
569	0.103
569	0.106
570	0.108
570	0.108
571	0.109
571	0.111
572	0.112
572	0.112
573	0.112
573	0.112
573	0.111
574	0.11
574	0.109
575	0.108
575	0.11
576	0.111
576	0.111
577	0.109
577	0.108
577	0.107
578	0.106
578	0.106
579	0.107
579	0.108
580	0.107
580	0.105
581	0.101
581	0.098
581	0.096
582	0.095
582	0.095
583	0.095
583	0.095
584	0.091
584	0.087
585	0.084
585	0.084
585	0.083
586	0.083
586	0.083
587	0.081
587	0.078
588	0.075
588	0.071
589	0.069
589	0.068
590	0.067
590	0.066
590	0.067
591	0.068
591	0.068
592	0.068
592	0.067
593	0.067
593	0.067
594	0.066
594	0.065
594	0.064
595	0.063
595	0.061
596	0.059
596	0.06
597	0.063
597	0.065
598	0.067
598	0.069
598	0.07
599	0.071
599	0.072
600	0.071
600	0.07
601	0.069
601	0.067
602	0.065
602	0.064
602	0.062
603	0.061
603	0.062
604	0.063
604	0.064
605	0.066
605	0.069
606	0.07
606	0.069
606	0.068
607	0.067
607	0.066
608	0.066
608	0.063
609	0.061
609	0.06
610	0.059
610	0.057
610	0.056
611	0.057
611	0.058
612	0.06
612	0.062
613	0.064
613	0.066
614	0.066
614	0.065
614	0.065
615	0.064
615	0.063
616	0.062
616	0.06
617	0.059
617	0.056
618	0.054
618	0.051
618	0.05
619	0.049
619	0.05
620	0.052
620	0.054
621	0.054
621	0.055
622	0.056
622	0.057
622	0.058
623	0.058
623	0.059
624	0.06
624	0.06
625	0.06
625	0.06
626	0.06
626	0.06
626	0.06
627	0.061
627	0.061
628	0.061
628	0.062
629	0.062
629	0.062
630	0.061
630	0.059
630	0.059
631	0.059
631	0.06
632	0.059
632	0.059
633	0.06
633	0.061
634	0.063
634	0.065
634	0.068
635	0.07
635	0.072
636	0.073
636	0.075
637	0.076
637	0.077
638	0.078
638	0.079
638	0.08
639	0.081
639	0.081
640	0.081
640	0.082
641	0.083
641	0.085
642	0.086
642	0.088
642	0.09
643	0.092
643	0.094
644	0.096
644	0.098
645	0.1
645	0.103
646	0.105
646	0.109
646	0.113
647	0.117
647	0.121
648	0.124
648	0.127
649	0.13
649	0.133
650	0.136
650	0.14
650	0.143
651	0.145
651	0.147
652	0.149
652	0.151
653	0.154
653	0.164
653	0.189
654	0.154
654	0.128
655	0.132
655	0.134
656	0.136
656	0.138
657	0.139
657	0.141
657	0.142
658	0.139
658	0.12
659	0.15
659	0.191
660	0.194
660	0.196
661	0.197
661	0.199
661	0.202
662	0.206
662	0.21
663	0.214
663	0.218
664	0.221
664	0.224
665	0.227
665	0.229
665	0.232
666	0.235
666	0.237
667	0.239
667	0.241
668	0.244
668	0.246
669	0.249
669	0.253
669	0.258
670	0.263
670	0.267
671	0.27
671	0.272
672	0.274
672	0.276
672	0.277
673	0.278
673	0.279
674	0.28
674	0.279
675	0.278
675	0.277
676	0.279
676	0.281
676	0.282
677	0.284
677	0.286
678	0.289
678	0.29
679	0.292
679	0.293
680	0.296
680	0.298
680	0.298
681	0.298
681	0.299
682	0.3
682	0.301
683	0.303
683	0.306
684	0.309
684	0.31
684	0.31
685	0.311
685	0.313
686	0.314
686	0.315
687	0.315
687	0.314
687	0.314
688	0.313
688	0.311
689	0.312
689	0.313
690	0.314
690	0.313
691	0.313
691	0.313
691	0.312
692	0.312
692	0.31
693	0.31
693	0.31
694	0.308
694	0.306
695	0.305
695	0.307
695	0.307
696	0.307
696	0.305
697	0.304
697	0.303
698	0.302
698	0.3
698	0.298
699	0.297
699	0.295
700	0.291
700	0.288
701	0.287
701	0.286
702	0.284
702	0.283
702	0.281
703	0.28
703	0.278
704	0.277
704	0.276
705	0.277
705	0.276
705	0.275
706	0.275
706	0.274
707	0.273
707	0.271
708	0.268
708	0.266
709	0.264
709	0.261
709	0.257
710	0.252
710	0.248
711	0.245
711	0.242
712	0.239
712	0.237
713	0.234
713	0.233
713	0.23
714	0.228
714	0.225
715	0.223
715	0.221
716	0.218
716	0.216
716	0.214
717	0.211
717	0.209
718	0.206
718	0.202
719	0.2
719	0.198
720	0.196
720	0.193
720	0.191
721	0.187
721	0.184
722	0.182
722	0.178
723	0.176
723	0.175
723	0.173
724	0.171
724	0.169
725	0.166
725	0.164
726	0.163
726	0.161
727	0.159
727	0.157
727	0.155
728	0.152
728	0.15
729	0.15
729	0.149
730	0.147
730	0.145
730	0.143
731	0.141
731	0.139
732	0.138
732	0.136
733	0.133
733	0.131
734	0.128
734	0.125
734	0.122
735	0.12
735	0.118
736	0.116
736	0.114
737	0.112
737	0.112
737	0.111
738	0.108
738	0.105
739	0.102
739	0.099
740	0.096
740	0.094
741	0.092
741	0.088
741	0.084
742	0.078
742	0.073
743	0.069
743	0.065
744	0.062
744	0.059
744	0.056
745	0.053
745	0.05
746	0.047
746	0.045
747	0.044
747	0.043
748	0.043
748	0.043
748	0.042
749	0.041
749	0.04
750	0.04
750	0.039
751	0.039
751	0.039
751	0.04
752	0.04
752	0.039
753	0.038
753	0.038
754	0.038
754	0.038
754	0.039
755	0.04
755	0.041
756	0.041
756	0.039
757	0.038
757	0.037
758	0.037
758	0.036
758	0.036
759	0.035
759	0.032
760	0.029
760	0.025
761	0.023
761	0.022
761	0.021
762	0.018
762	0.017
763	0.016
763	0.013
764	0.01
764	0.006
764	0.003
765	-0.001
765	-0.004
766	-0.006
766	-0.007
767	-0.009
767	-0.013
768	-0.017
768	-0.02
768	-0.022
769	-0.023
769	-0.023
770	-0.025
770	-0.026
771	-0.029
771	-0.033
771	-0.036
772	-0.039
772	-0.041
773	-0.044
773	-0.048
774	-0.052
774	-0.056
775	-0.06
775	-0.063
775	-0.067
776	-0.071
776	-0.075
777	-0.079
777	-0.083
778	-0.087
778	-0.092
778	-0.097
779	-0.101
779	-0.104
780	-0.108
780	-0.115
781	-0.12
781	-0.125
781	-0.13
782	-0.134
782	-0.14
783	-0.144
783	-0.147
784	-0.149
784	-0.152
784	-0.153
785	-0.154
785	-0.156
786	-0.155
786	-0.152
787	-0.147
787	-0.143
788	-0.141
788	-0.142
788	-0.143
789	-0.145
789	-0.145
790	-0.142
790	-0.14
791	-0.141
791	-0.143
791	-0.146
792	-0.14
792	-0.129
793	-0.123
793	-0.12
794	-0.118
794	-0.12
794	-0.124
795	-0.127
795	-0.127
796	-0.128
796	-0.131
797	-0.14
797	-0.151
797	-0.157
798	-0.162
798	-0.165
799	-0.165
799	-0.165
800	-0.164
800	-0.165
801	-0.168
801	-0.169
801	-0.169
802	-0.171
802	-0.172
803	-0.173
803	-0.173
804	-0.172
804	-0.167
804	-0.161
805	-0.157
805	-0.155
806	-0.153
806	-0.151
807	-0.15
807	-0.15
807	-0.15
808	-0.15
808	-0.151
809	-0.156
809	-0.162
810	-0.165
810	-0.168
810	-0.172
811	-0.175
811	-0.176
812	-0.172
812	-0.169
813	-0.169
813	-0.169
813	-0.17
814	-0.17
814	-0.17
815	-0.166
815	-0.163
816	-0.16
816	-0.16
817	-0.163
817	-0.166
817	-0.166
818	-0.165
818	-0.161
819	-0.156
819	-0.153
820	-0.155
820	-0.157
820	-0.159
821	-0.159
821	-0.158
822	-0.158
822	-0.157
823	-0.155
823	-0.155
823	-0.156
824	-0.154
824	-0.149
825	-0.141
825	-0.132
826	-0.123
826	-0.116
826	-0.108
827	-0.099
827	-0.092
828	-0.086
828	-0.081
829	-0.075
829	-0.071
829	-0.067
830	-0.065
830	-0.062
831	-0.057
831	-0.053
832	-0.05
832	-0.046
832	-0.041
833	-0.038
833	-0.034
834	-0.03
834	-0.027
835	-0.023
835	-0.021
835	-0.019
836	-0.016
836	-0.014
837	-0.013
837	-0.012
838	-0.011
838	-0.01
839	-0.009
839	-0.009
839	-0.009
840	-0.009
840	-0.009
841	-0.009
841	-0.008
842	-0.007
842	-0.006
842	-0.006
843	-0.004
843	-0.003
844	-0.001
844	0.001
845	0.003
845	0.004
845	0.006
846	0.007
846	0.008
847	0.009
847	0.01
848	0.01
848	0.011
848	0.011
849	0.011
849	0.012
850	0.012
850	0.012
851	0.013
851	0.013
851	0.014
852	0.015
852	0.016
853	0.017
853	0.018
854	0.019
854	0.02
854	0.02
855	0.021
855	0.021
856	0.021
856	0.021
857	0.021
857	0.021
857	0.021
858	0.021
858	0.021
859	0.02
859	0.021
860	0.021
860	0.021
860	0.022
861	0.022
861	0.023
862	0.023
862	0.023
863	0.023
863	0.024
863	0.024
864	0.025
864	0.025
865	0.026
865	0.026
866	0.026
866	0.026
866	0.026
867	0.026
867	0.027
868	0.027
868	0.028
869	0.028
869	0.029
869	0.028
870	0.029
870	0.029
871	0.029
871	0.029
872	0.029
872	0.028
872	0.027
873	0.026
873	0.025
874	0.025
874	0.024
875	0.024
875	0.024
875	0.025
876	0.025
876	0.026
877	0.027
877	0.029
878	0.03
878	0.032
878	0.034
879	0.035
879	0.036
880	0.036
880	0.037
881	0.037
881	0.037
881	0.036
882	0.035
882	0.035
883	0.034
883	0.033
884	0.033
884	0.033
884	0.033
885	0.034
885	0.034
886	0.035
886	0.035
887	0.036
887	0.036
887	0.036
888	0.036
888	0.036
889	0.036
889	0.036
890	0.035
890	0.035
890	0.034
891	0.033
891	0.032
892	0.031
892	0.031
893	0.031
893	0.03
893	0.03
894	0.03
894	0.03
895	0.03
895	0.03
895	0.03
896	0.03
896	0.031
897	0.031
897	0.031
898	0.031
898	0.031
898	0.032
899	0.032
899	0.033
900	0.033
900	0.034
901	0.035
901	0.036
901	0.037
902	0.037
902	0.038
903	0.038
903	0.038
904	0.038
904	0.038
904	0.038
905	0.038
905	0.038
906	0.038
906	0.038
907	0.037
907	0.037
907	0.038
908	0.038
908	0.038
909	0.039
909	0.04
910	0.041
910	0.042
910	0.043
911	0.044
911	0.045
912	0.046
912	0.047
913	0.048
913	0.048
913	0.048
914	0.047
914	0.047
915	0.046
915	0.045
916	0.043
916	0.042
916	0.04
917	0.039
917	0.038
918	0.037
918	0.037
918	0.036
919	0.036
919	0.036
920	0.037
920	0.038
921	0.038
921	0.039
921	0.04
922	0.04
922	0.041
923	0.041
923	0.041
924	0.041
924	0.04
924	0.04
925	0.039
925	0.038
926	0.038
926	0.037
927	0.036
927	0.035
927	0.035
928	0.035
928	0.034
929	0.034
929	0.034
930	0.034
930	0.034
930	0.034
931	0.034
931	0.035
932	0.035
932	0.035
933	0.035
933	0.035
933	0.035
934	0.035
934	0.036
935	0.036
935	0.037
935	0.037
936	0.038
936	0.039
937	0.04
937	0.04
938	0.041
938	0.042
938	0.043
939	0.043
939	0.044
940	0.045
940	0.045
941	0.046
941	0.047
941	0.048
942	0.049
942	0.05
943	0.051
943	0.051
944	0.052
944	0.052
944	0.052
945	0.053
945	0.053
946	0.053
946	0.053
946	0.053
947	0.054
947	0.053
948	0.053
948	0.053
949	0.053
949	0.053
949	0.053
950	0.053
950	0.054
951	0.054
951	0.054
952	0.054
952	0.055
952	0.056
953	0.056
953	0.057
954	0.057
954	0.057
955	0.057
955	0.056
955	0.056
956	0.056
956	0.056
957	0.055
957	0.054
957	0.052
958	0.051
958	0.049
959	0.048
959	0.047
960	0.046
960	0.045
960	0.044
961	0.043
961	0.042
962	0.042
962	0.042
963	0.042
963	0.042
963	0.043
964	0.043
964	0.044
965	0.045
965	0.045
966	0.046
966	0.047
966	0.048
967	0.048
967	0.049
968	0.049
968	0.05
968	0.051
969	0.051
969	0.052
970	0.052
970	0.053
971	0.053
971	0.054
971	0.054
972	0.054
972	0.055
973	0.055
973	0.055
974	0.054
974	0.054
974	0.054
975	0.054
975	0.055
976	0.054
976	0.054
976	0.054
977	0.053
977	0.052
978	0.051
978	0.05
979	0.049
979	0.048
979	0.047
980	0.046
980	0.044
981	0.043
981	0.043
982	0.042
982	0.042
982	0.042
983	0.042
983	0.042
984	0.043
984	0.043
984	0.044
985	0.045
985	0.045
986	0.045
986	0.046
987	0.046
987	0.047
987	0.048
988	0.049
988	0.05
989	0.05
989	0.051
990	0.052
990	0.052
990	0.054
991	0.055
991	0.056
992	0.057
992	0.057
992	0.057
993	0.058
993	0.058
994	0.058
994	0.057
995	0.057
995	0.057
995	0.056
996	0.055
996	0.054
997	0.054
997	0.054
997	0.054
998	0.053
998	0.054
999	0.054
999	0.054
1000	0.055
1000	0.055
1000	0.055
1001	0.055
1001	0.056
1002	0.056
1002	0.055
1003	0.055
1003	0.055
1003	0.054
1004	0.054
1004	0.053
1005	0.052
1005	0.051
1005	0.05
1006	0.048
1006	0.047
1007	0.046
1007	0.045
1008	0.044
1008	0.044
1008	0.043
1009	0.043
1009	0.043
1010	0.043
1010	0.043
1010	0.043
1011	0.043
1011	0.044
1012	0.044
1012	0.044
1013	0.044
1013	0.044
1013	0.044
1014	0.043
1014	0.043
1015	0.042
1015	0.042
1016	0.041
1016	0.041
1016	0.041
1017	0.04
1017	0.041
1018	0.041
1018	0.041
1018	0.041
1019	0.042
1019	0.042
1020	0.042
1020	0.043
1021	0.043
1021	0.043
1021	0.043
1022	0.042
1022	0.042
1023	0.042
1023	0.042
1023	0.041
1024	0.041
1024	0.04
1025	0.04
1025	0.039
1026	0.039
1026	0.039
1026	0.039
1027	0.039
1027	0.039
1028	0.039
1028	0.04
1028	0.04
1029	0.04
1029	0.041
1030	0.041
1030	0.042
1031	0.042
1031	0.042
1031	0.043
1032	0.043
1032	0.043
1033	0.043
1033	0.042
1033	0.041
1034	0.04
1034	0.039
1035	0.039
1035	0.038
1036	0.037
1036	0.037
1036	0.037
1037	0.037
1037	0.038
1038	0.038
1038	0.039
1039	0.041
1039	0.042
1039	0.043
1040	0.044
1040	0.045
1041	0.046
1041	0.046
1041	0.046
1042	0.046
1042	0.047
1043	0.046
1043	0.046
1044	0.046
1044	0.046
1044	0.047
1045	0.047
1045	0.047
1046	0.048
1046	0.049
1046	0.05
1047	0.051
1047	0.052
1048	0.054
1048	0.055
1049	0.056
1049	0.057
1049	0.057
1050	0.058
1050	0.059
1051	0.06
1051	0.061
1051	0.061
1052	0.062
1052	0.063
1053	0.063
1053	0.064
1053	0.065
1054	0.066
1054	0.067
1055	0.068
1055	0.068
1056	0.067
1056	0.067
1056	0.067
1057	0.067
1057	0.067
1058	0.067
1058	0.067
1058	0.068
1059	0.069
1059	0.07
1060	0.071
1060	0.072
1061	0.074
1061	0.076
1061	0.078
1062	0.079
1062	0.08
1063	0.081
1063	0.082
1063	0.083
1064	0.085
1064	0.086
1065	0.087
1065	0.088
1066	0.089
1066	0.09
1066	0.092
1067	0.093
1067	0.094
1068	0.095
1068	0.095
1068	0.096
1069	0.096
1069	0.096
1070	0.096
1070	0.097
1071	0.099
1071	0.1
1071	0.102
1072	0.104
1072	0.107
1073	0.109
1073	0.112
1073	0.115
1074	0.118
1074	0.121
1075	0.123
1075	0.126
1076	0.127
1076	0.131
1076	0.132
1077	0.134
1077	0.137
1078	0.139
1078	0.141
1078	0.145
1079	0.149
1079	0.153
1080	0.155
1080	0.159
1080	0.162
1081	0.165
1081	0.17
1082	0.174
1082	0.178
1083	0.183
1083	0.187
1083	0.193
1084	0.198
1084	0.205
1085	0.212
1085	0.219
1085	0.227
1086	0.232
1086	0.238
1087	0.245
1087	0.252
1088	0.257
1088	0.263
1088	0.27
1089	0.277
1089	0.286
1090	0.296
1090	0.308
1090	0.321
1091	0.335
1091	0.353
1092	0.371
1092	0.394
1092	0.416
1093	0.44
1093	0.469
1094	0.498
1094	0.527
1095	0.561
1095	0.599
1095	0.651
1096	0.703
1096	0.767
1097	0.851
1097	0.949
1097	1.102
1098	1.327
1098	1.897
1099	-0
1099	-0
1100	-0
1100	-0
1100	-0
1101	-0
1101	-0
1102	-0
1102	-0
1102	-0
1103	-0
1103	-0
1104	-0
1104	-0
1104	-0
1105	-0
1105	-0
1106	-0
1106	-0
1107	-0
1107	-0
1107	-0
1108	-0
1108	-0
1109	-0
1109	-0
1109	-0
1110	-0
1110	-0
1111	-0
1111	-0
