Data from 15c-2-5a_Absorbance__942__05218.txt Node

Date: Wed Jan 17 15:01:55 CET 2024
User: Marek
Spectrometer: MAYP115816
Trigger mode: 0
Integration Time (sec): 2.000000E-1
Scans to average: 10
Electric dark correction enabled: true
Nonlinearity correction enabled: true
Boxcar width: 5
XAxis mode: Wavelengths
Number of Pixels in Spectrum: 2068
>>>>>Begin Spectral Data<<<<<
199	-2.265
199	-2.117
200	-1.951
200	-1.822
201	-1.74
201	-1.689
202	-1.611
202	-1.551
203	-1.498
203	-1.451
204	-1.424
204	-1.398
205	-1.374
205	-1.363
205	-1.36
206	-1.359
206	-1.354
207	-1.352
207	-1.347
208	-1.345
208	-1.344
209	-1.339
209	-1.336
210	-1.335
210	-1.335
211	-1.333
211	-1.332
212	-1.332
212	-1.33
213	-1.329
213	-1.328
213	-1.326
214	-1.325
214	-1.325
215	-1.323
215	-1.321
216	-1.321
216	-1.317
217	-1.312
217	-1.31
218	-1.309
218	-1.306
219	-1.303
219	-1.302
220	-1.298
220	-1.294
221	-1.288
221	-1.284
221	-1.28
222	-1.277
222	-1.272
223	-1.265
223	-1.261
224	-1.255
224	-1.247
225	-1.238
225	-1.23
226	-1.221
226	-1.208
227	-1.194
227	-1.179
228	-1.163
228	-1.143
229	-1.121
229	-1.095
229	-1.066
230	-1.035
230	-1.002
231	-0.964
231	-0.924
232	-0.882
232	-0.837
233	-0.788
233	-0.738
234	-0.687
234	-0.636
235	-0.584
235	-0.533
236	-0.482
236	-0.432
236	-0.383
237	-0.335
237	-0.29
238	-0.246
238	-0.204
239	-0.165
239	-0.127
240	-0.091
240	-0.058
241	-0.027
241	0.003
242	0.03
242	0.055
243	0.078
243	0.1
243	0.12
244	0.139
244	0.156
245	0.172
245	0.187
246	0.201
246	0.214
247	0.225
247	0.237
248	0.247
248	0.257
249	0.266
249	0.274
250	0.282
250	0.289
250	0.297
251	0.303
251	0.309
252	0.314
252	0.32
253	0.325
253	0.329
254	0.334
254	0.338
255	0.342
255	0.345
256	0.349
256	0.352
257	0.354
257	0.357
258	0.359
258	0.361
258	0.363
259	0.365
259	0.366
260	0.367
260	0.368
261	0.369
261	0.37
262	0.371
262	0.372
263	0.373
263	0.373
264	0.374
264	0.374
265	0.375
265	0.375
265	0.374
266	0.374
266	0.374
267	0.374
267	0.374
268	0.373
268	0.373
269	0.372
269	0.371
270	0.37
270	0.369
271	0.368
271	0.367
272	0.367
272	0.366
272	0.365
273	0.364
273	0.363
274	0.363
274	0.362
275	0.361
275	0.36
276	0.359
276	0.358
277	0.356
277	0.354
278	0.353
278	0.35
278	0.348
279	0.346
279	0.344
280	0.343
280	0.342
281	0.341
281	0.34
282	0.339
282	0.338
283	0.338
283	0.338
284	0.338
284	0.338
285	0.337
285	0.336
285	0.336
286	0.335
286	0.334
287	0.333
287	0.333
288	0.332
288	0.331
289	0.33
289	0.329
290	0.328
290	0.327
291	0.327
291	0.326
292	0.325
292	0.324
292	0.323
293	0.322
293	0.322
294	0.321
294	0.32
295	0.319
295	0.319
296	0.318
296	0.317
297	0.317
297	0.316
298	0.315
298	0.314
298	0.314
299	0.313
299	0.312
300	0.312
300	0.311
301	0.31
301	0.309
302	0.309
302	0.308
303	0.307
303	0.307
304	0.306
304	0.305
305	0.304
305	0.303
305	0.302
306	0.302
306	0.301
307	0.3
307	0.299
308	0.298
308	0.298
309	0.297
309	0.296
310	0.295
310	0.294
311	0.294
311	0.293
311	0.292
312	0.29
312	0.29
313	0.289
313	0.288
314	0.287
314	0.286
315	0.285
315	0.284
316	0.283
316	0.282
317	0.281
317	0.28
318	0.279
318	0.278
318	0.277
319	0.275
319	0.275
320	0.274
320	0.273
321	0.272
321	0.27
322	0.269
322	0.268
323	0.267
323	0.266
324	0.265
324	0.264
324	0.263
325	0.262
325	0.261
326	0.26
326	0.26
327	0.259
327	0.258
328	0.257
328	0.256
329	0.255
329	0.254
330	0.253
330	0.252
330	0.251
331	0.25
331	0.249
332	0.248
332	0.247
333	0.246
333	0.245
334	0.244
334	0.243
335	0.242
335	0.241
336	0.24
336	0.239
336	0.238
337	0.237
337	0.236
338	0.235
338	0.235
339	0.234
339	0.233
340	0.232
340	0.231
341	0.23
341	0.23
342	0.229
342	0.228
342	0.227
343	0.226
343	0.226
344	0.225
344	0.224
345	0.223
345	0.222
346	0.221
346	0.221
347	0.22
347	0.219
348	0.218
348	0.217
348	0.216
349	0.215
349	0.214
350	0.213
350	0.212
351	0.211
351	0.21
352	0.209
352	0.208
353	0.207
353	0.206
354	0.205
354	0.204
354	0.203
355	0.201
355	0.2
356	0.199
356	0.198
357	0.197
357	0.197
358	0.196
358	0.197
359	0.197
359	0.198
360	0.199
360	0.2
360	0.201
361	0.201
361	0.202
362	0.202
362	0.202
363	0.202
363	0.202
364	0.201
364	0.2
365	0.2
365	0.199
366	0.198
366	0.198
366	0.197
367	0.197
367	0.196
368	0.196
368	0.195
369	0.195
369	0.195
370	0.194
370	0.194
371	0.193
371	0.193
372	0.192
372	0.191
372	0.191
373	0.191
373	0.191
374	0.191
374	0.19
375	0.19
375	0.19
376	0.19
376	0.19
377	0.19
377	0.191
378	0.191
378	0.191
378	0.192
379	0.192
379	0.192
380	0.192
380	0.192
381	0.192
381	0.192
382	0.191
382	0.191
383	0.19
383	0.189
383	0.189
384	0.188
384	0.188
385	0.188
385	0.187
386	0.187
386	0.188
387	0.188
387	0.187
388	0.187
388	0.187
389	0.187
389	0.187
389	0.187
390	0.187
390	0.187
391	0.188
391	0.188
392	0.188
392	0.188
393	0.189
393	0.188
394	0.188
394	0.188
394	0.188
395	0.187
395	0.187
396	0.186
396	0.186
397	0.186
397	0.187
398	0.187
398	0.186
399	0.186
399	0.186
400	0.186
400	0.186
400	0.185
401	0.184
401	0.183
402	0.182
402	0.181
403	0.18
403	0.18
404	0.18
404	0.18
405	0.179
405	0.179
405	0.178
406	0.178
406	0.178
407	0.178
407	0.177
408	0.177
408	0.176
409	0.175
409	0.175
410	0.174
410	0.174
411	0.175
411	0.175
411	0.174
412	0.174
412	0.174
413	0.174
413	0.173
414	0.173
414	0.172
415	0.172
415	0.172
416	0.171
416	0.17
416	0.17
417	0.169
417	0.169
418	0.169
418	0.169
419	0.17
419	0.171
420	0.172
420	0.173
421	0.173
421	0.174
421	0.174
422	0.175
422	0.175
423	0.175
423	0.175
424	0.174
424	0.173
425	0.171
425	0.17
426	0.17
426	0.169
427	0.169
427	0.168
427	0.169
428	0.17
428	0.171
429	0.171
429	0.172
430	0.172
430	0.172
431	0.172
431	0.171
432	0.171
432	0.17
432	0.169
433	0.168
433	0.166
434	0.165
434	0.165
435	0.165
435	0.165
436	0.165
436	0.166
437	0.166
437	0.166
437	0.166
438	0.166
438	0.166
439	0.166
439	0.165
440	0.165
440	0.165
441	0.165
441	0.165
442	0.165
442	0.165
442	0.165
443	0.166
443	0.166
444	0.166
444	0.167
445	0.167
445	0.167
446	0.167
446	0.167
447	0.167
447	0.167
447	0.167
448	0.166
448	0.166
449	0.166
449	0.165
450	0.165
450	0.165
451	0.164
451	0.164
452	0.163
452	0.163
452	0.162
453	0.161
453	0.161
454	0.16
454	0.159
455	0.159
455	0.158
456	0.158
456	0.158
457	0.158
457	0.158
458	0.158
458	0.157
458	0.157
459	0.158
459	0.158
460	0.157
460	0.156
461	0.155
461	0.155
462	0.154
462	0.154
463	0.154
463	0.155
463	0.156
464	0.156
464	0.156
465	0.156
465	0.156
466	0.156
466	0.157
467	0.156
467	0.156
467	0.155
468	0.153
468	0.151
469	0.149
469	0.147
470	0.146
470	0.145
471	0.145
471	0.144
472	0.144
472	0.144
472	0.145
473	0.146
473	0.148
474	0.149
474	0.15
475	0.151
475	0.152
476	0.152
476	0.153
477	0.153
477	0.153
477	0.153
478	0.153
478	0.153
479	0.153
479	0.153
480	0.154
480	0.155
481	0.156
481	0.157
482	0.158
482	0.159
482	0.161
483	0.164
483	0.167
484	0.171
484	0.174
485	0.176
485	0.177
486	0.179
486	0.18
487	0.18
487	0.18
487	0.18
488	0.179
488	0.177
489	0.174
489	0.172
490	0.171
490	0.169
491	0.168
491	0.168
492	0.169
492	0.169
492	0.169
493	0.169
493	0.17
494	0.172
494	0.174
495	0.176
495	0.178
496	0.179
496	0.18
496	0.181
497	0.182
497	0.183
498	0.184
498	0.184
499	0.184
499	0.184
500	0.184
500	0.186
501	0.187
501	0.189
501	0.19
502	0.191
502	0.193
503	0.195
503	0.196
504	0.197
504	0.197
505	0.197
505	0.197
506	0.197
506	0.198
506	0.198
507	0.198
507	0.197
508	0.198
508	0.198
509	0.199
509	0.2
510	0.201
510	0.201
511	0.2
511	0.2
511	0.2
512	0.2
512	0.2
513	0.199
513	0.197
514	0.195
514	0.194
515	0.193
515	0.193
515	0.192
516	0.192
516	0.192
517	0.192
517	0.192
518	0.192
518	0.191
519	0.189
519	0.187
520	0.184
520	0.181
520	0.178
521	0.174
521	0.172
522	0.169
522	0.167
523	0.167
523	0.167
524	0.169
524	0.172
524	0.174
525	0.178
525	0.181
526	0.184
526	0.186
527	0.189
527	0.192
528	0.193
528	0.195
529	0.195
529	0.196
529	0.196
530	0.196
530	0.196
531	0.196
531	0.197
532	0.197
532	0.196
533	0.197
533	0.197
533	0.197
534	0.197
534	0.196
535	0.195
535	0.195
536	0.194
536	0.194
537	0.194
537	0.193
538	0.192
538	0.19
538	0.189
539	0.188
539	0.187
540	0.187
540	0.185
541	0.183
541	0.181
542	0.179
542	0.178
542	0.176
543	0.175
543	0.174
544	0.172
544	0.171
545	0.17
545	0.17
546	0.17
546	0.17
547	0.168
547	0.166
547	0.163
548	0.161
548	0.158
549	0.156
549	0.154
550	0.152
550	0.15
551	0.147
551	0.144
551	0.142
552	0.141
552	0.14
553	0.139
553	0.139
554	0.138
554	0.137
555	0.135
555	0.131
556	0.128
556	0.125
556	0.121
557	0.118
557	0.116
558	0.113
558	0.111
559	0.11
559	0.109
560	0.109
560	0.108
560	0.108
561	0.108
561	0.109
562	0.109
562	0.108
563	0.106
563	0.104
564	0.101
564	0.098
564	0.095
565	0.093
565	0.092
566	0.091
566	0.089
567	0.09
567	0.091
568	0.092
568	0.094
568	0.097
569	0.1
569	0.104
570	0.106
570	0.106
571	0.108
571	0.109
572	0.11
572	0.11
573	0.11
573	0.11
573	0.109
574	0.108
574	0.107
575	0.106
575	0.108
576	0.109
576	0.108
577	0.107
577	0.106
577	0.105
578	0.104
578	0.104
579	0.105
579	0.106
580	0.106
580	0.103
581	0.099
581	0.096
581	0.095
582	0.094
582	0.093
583	0.094
583	0.093
584	0.09
584	0.085
585	0.082
585	0.082
585	0.082
586	0.081
586	0.081
587	0.079
587	0.076
588	0.073
588	0.07
589	0.068
589	0.067
590	0.066
590	0.065
590	0.066
591	0.067
591	0.067
592	0.067
592	0.066
593	0.066
593	0.066
594	0.065
594	0.064
594	0.063
595	0.062
595	0.06
596	0.058
596	0.059
597	0.061
597	0.063
598	0.065
598	0.067
598	0.069
599	0.07
599	0.07
600	0.069
600	0.068
601	0.067
601	0.066
602	0.063
602	0.062
602	0.061
603	0.059
603	0.06
604	0.061
604	0.063
605	0.065
605	0.067
606	0.068
606	0.068
606	0.067
607	0.066
607	0.065
608	0.064
608	0.062
609	0.061
609	0.06
610	0.058
610	0.056
610	0.055
611	0.057
611	0.058
612	0.059
612	0.061
613	0.063
613	0.065
614	0.065
614	0.064
614	0.063
615	0.062
615	0.061
616	0.06
616	0.058
617	0.057
617	0.055
618	0.052
618	0.05
618	0.048
619	0.048
619	0.048
620	0.05
620	0.052
621	0.052
621	0.053
622	0.054
622	0.055
622	0.056
623	0.056
623	0.057
624	0.059
624	0.058
625	0.058
625	0.058
626	0.058
626	0.058
626	0.058
627	0.059
627	0.059
628	0.059
628	0.059
629	0.059
629	0.059
630	0.058
630	0.057
630	0.057
631	0.057
631	0.057
632	0.057
632	0.057
633	0.058
633	0.059
634	0.061
634	0.064
634	0.066
635	0.069
635	0.07
636	0.072
636	0.074
637	0.075
637	0.075
638	0.076
638	0.078
638	0.079
639	0.079
639	0.079
640	0.079
640	0.08
641	0.081
641	0.083
642	0.084
642	0.086
642	0.088
643	0.09
643	0.091
644	0.093
644	0.095
645	0.098
645	0.1
646	0.103
646	0.107
646	0.111
647	0.115
647	0.119
648	0.122
648	0.125
649	0.127
649	0.131
650	0.134
650	0.137
650	0.14
651	0.143
651	0.145
652	0.147
652	0.148
653	0.151
653	0.161
653	0.187
654	0.153
654	0.127
655	0.131
655	0.133
656	0.134
656	0.136
657	0.138
657	0.139
657	0.14
658	0.137
658	0.118
659	0.147
659	0.188
660	0.19
660	0.192
661	0.193
661	0.196
661	0.198
662	0.202
662	0.207
663	0.211
663	0.214
664	0.218
664	0.221
665	0.224
665	0.227
665	0.229
666	0.232
666	0.234
667	0.236
667	0.238
668	0.241
668	0.244
669	0.247
669	0.25
669	0.255
670	0.26
670	0.264
671	0.266
671	0.268
672	0.27
672	0.272
672	0.273
673	0.274
673	0.275
674	0.275
674	0.275
675	0.274
675	0.273
676	0.275
676	0.277
676	0.278
677	0.28
677	0.282
678	0.285
678	0.286
679	0.287
679	0.289
680	0.291
680	0.293
680	0.294
681	0.294
681	0.295
682	0.296
682	0.298
683	0.3
683	0.303
684	0.306
684	0.307
684	0.307
685	0.308
685	0.309
686	0.311
686	0.312
687	0.311
687	0.311
687	0.311
688	0.309
688	0.308
689	0.308
689	0.31
690	0.31
690	0.31
691	0.309
691	0.309
691	0.308
692	0.308
692	0.307
693	0.306
693	0.306
694	0.305
694	0.302
695	0.301
695	0.303
695	0.304
696	0.303
696	0.302
697	0.301
697	0.3
698	0.299
698	0.296
698	0.295
699	0.294
699	0.291
700	0.287
700	0.285
701	0.284
701	0.283
702	0.281
702	0.28
702	0.278
703	0.277
703	0.276
704	0.274
704	0.274
705	0.274
705	0.273
705	0.272
706	0.271
706	0.271
707	0.269
707	0.267
708	0.265
708	0.262
709	0.26
709	0.257
709	0.253
710	0.248
710	0.244
711	0.241
711	0.238
712	0.235
712	0.233
713	0.231
713	0.229
713	0.227
714	0.224
714	0.222
715	0.22
715	0.218
716	0.215
716	0.213
716	0.211
717	0.209
717	0.206
718	0.203
718	0.2
719	0.198
719	0.197
720	0.194
720	0.192
720	0.189
721	0.186
721	0.183
722	0.18
722	0.177
723	0.174
723	0.173
723	0.171
724	0.169
724	0.167
725	0.164
725	0.162
726	0.16
726	0.159
727	0.157
727	0.155
727	0.153
728	0.15
728	0.148
729	0.148
729	0.147
730	0.145
730	0.143
730	0.141
731	0.139
731	0.137
732	0.136
732	0.135
733	0.132
733	0.13
734	0.127
734	0.123
734	0.121
735	0.119
735	0.117
736	0.114
736	0.112
737	0.111
737	0.11
737	0.109
738	0.106
738	0.102
739	0.1
739	0.097
740	0.094
740	0.091
741	0.089
741	0.086
741	0.081
742	0.075
742	0.07
743	0.066
743	0.063
744	0.06
744	0.057
744	0.054
745	0.051
745	0.048
746	0.046
746	0.044
747	0.043
747	0.043
748	0.043
748	0.042
748	0.041
749	0.04
749	0.039
750	0.039
750	0.038
751	0.038
751	0.038
751	0.039
752	0.039
752	0.038
753	0.037
753	0.037
754	0.038
754	0.038
754	0.039
755	0.04
755	0.041
756	0.041
756	0.039
757	0.037
757	0.037
758	0.036
758	0.035
758	0.034
759	0.033
759	0.031
760	0.027
760	0.024
761	0.021
761	0.02
761	0.019
762	0.016
762	0.015
763	0.014
763	0.011
764	0.007
764	0.004
764	0.001
765	-0.003
765	-0.006
766	-0.008
766	-0.009
767	-0.01
767	-0.014
768	-0.018
768	-0.021
768	-0.023
769	-0.023
769	-0.024
770	-0.025
770	-0.026
771	-0.029
771	-0.033
771	-0.036
772	-0.039
772	-0.042
773	-0.045
773	-0.048
774	-0.052
774	-0.057
775	-0.06
775	-0.064
775	-0.068
776	-0.072
776	-0.076
777	-0.08
777	-0.084
778	-0.089
778	-0.094
778	-0.099
779	-0.103
779	-0.106
780	-0.111
780	-0.117
781	-0.121
781	-0.126
781	-0.131
782	-0.136
782	-0.141
783	-0.145
783	-0.147
784	-0.149
784	-0.152
784	-0.153
785	-0.154
785	-0.156
786	-0.155
786	-0.152
787	-0.147
787	-0.143
788	-0.141
788	-0.142
788	-0.143
789	-0.145
789	-0.145
790	-0.142
790	-0.14
791	-0.141
791	-0.143
791	-0.146
792	-0.14
792	-0.129
793	-0.123
793	-0.12
794	-0.118
794	-0.12
794	-0.124
795	-0.127
795	-0.127
796	-0.128
796	-0.131
797	-0.14
797	-0.151
797	-0.157
798	-0.162
798	-0.165
799	-0.165
799	-0.165
800	-0.164
800	-0.165
801	-0.168
801	-0.169
801	-0.169
802	-0.171
802	-0.172
803	-0.173
803	-0.173
804	-0.172
804	-0.167
804	-0.161
805	-0.157
805	-0.155
806	-0.153
806	-0.151
807	-0.15
807	-0.15
807	-0.15
808	-0.15
808	-0.151
809	-0.156
809	-0.162
810	-0.165
810	-0.168
810	-0.172
811	-0.175
811	-0.176
812	-0.172
812	-0.169
813	-0.169
813	-0.169
813	-0.17
814	-0.17
814	-0.17
815	-0.166
815	-0.163
816	-0.16
816	-0.16
817	-0.163
817	-0.166
817	-0.166
818	-0.165
818	-0.161
819	-0.156
819	-0.153
820	-0.155
820	-0.157
820	-0.159
821	-0.159
821	-0.158
822	-0.158
822	-0.156
823	-0.154
823	-0.154
823	-0.155
824	-0.153
824	-0.147
825	-0.139
825	-0.13
826	-0.121
826	-0.114
826	-0.106
827	-0.098
827	-0.091
828	-0.084
828	-0.079
829	-0.073
829	-0.069
829	-0.066
830	-0.064
830	-0.06
831	-0.056
831	-0.052
832	-0.048
832	-0.045
832	-0.041
833	-0.037
833	-0.034
834	-0.031
834	-0.028
835	-0.025
835	-0.022
835	-0.021
836	-0.018
836	-0.017
837	-0.015
837	-0.014
838	-0.013
838	-0.012
839	-0.012
839	-0.011
839	-0.011
840	-0.011
840	-0.01
841	-0.009
841	-0.008
842	-0.008
842	-0.006
842	-0.005
843	-0.004
843	-0.003
844	-0.001
844	0.001
845	0.003
845	0.005
845	0.007
846	0.008
846	0.009
847	0.009
847	0.01
848	0.011
848	0.011
848	0.012
849	0.012
849	0.012
850	0.012
850	0.012
851	0.013
851	0.013
851	0.014
852	0.014
852	0.015
853	0.016
853	0.017
854	0.017
854	0.018
854	0.019
855	0.019
855	0.019
856	0.018
856	0.019
857	0.019
857	0.019
857	0.019
858	0.019
858	0.019
859	0.019
859	0.019
860	0.02
860	0.02
860	0.021
861	0.022
861	0.022
862	0.022
862	0.023
863	0.023
863	0.024
863	0.024
864	0.025
864	0.025
865	0.025
865	0.025
866	0.025
866	0.025
866	0.025
867	0.025
867	0.026
868	0.026
868	0.027
869	0.028
869	0.028
869	0.027
870	0.028
870	0.028
871	0.028
871	0.028
872	0.027
872	0.026
872	0.026
873	0.025
873	0.024
874	0.023
874	0.023
875	0.023
875	0.023
875	0.023
876	0.023
876	0.024
877	0.025
877	0.027
878	0.028
878	0.03
878	0.032
879	0.033
879	0.034
880	0.035
880	0.036
881	0.036
881	0.036
881	0.035
882	0.035
882	0.034
883	0.033
883	0.033
884	0.033
884	0.033
884	0.033
885	0.034
885	0.034
886	0.035
886	0.036
887	0.037
887	0.037
887	0.037
888	0.037
888	0.037
889	0.038
889	0.037
890	0.037
890	0.037
890	0.036
891	0.035
891	0.034
892	0.033
892	0.033
893	0.032
893	0.032
893	0.032
894	0.032
894	0.032
895	0.032
895	0.033
895	0.033
896	0.033
896	0.033
897	0.033
897	0.033
898	0.033
898	0.033
898	0.033
899	0.033
899	0.034
900	0.034
900	0.035
901	0.036
901	0.036
901	0.037
902	0.038
902	0.038
903	0.038
903	0.038
904	0.038
904	0.038
904	0.038
905	0.038
905	0.038
906	0.038
906	0.038
907	0.037
907	0.038
907	0.038
908	0.038
908	0.038
909	0.039
909	0.04
910	0.041
910	0.042
910	0.043
911	0.044
911	0.045
912	0.046
912	0.047
913	0.048
913	0.048
913	0.048
914	0.048
914	0.047
915	0.046
915	0.045
916	0.044
916	0.042
916	0.041
917	0.04
917	0.038
918	0.037
918	0.037
918	0.036
919	0.036
919	0.036
920	0.037
920	0.037
921	0.038
921	0.038
921	0.039
922	0.039
922	0.04
923	0.04
923	0.04
924	0.04
924	0.04
924	0.039
925	0.039
925	0.038
926	0.038
926	0.037
927	0.037
927	0.037
927	0.036
928	0.036
928	0.036
929	0.036
929	0.036
930	0.036
930	0.036
930	0.036
931	0.035
931	0.035
932	0.035
932	0.035
933	0.034
933	0.034
933	0.035
934	0.035
934	0.035
935	0.035
935	0.036
935	0.037
936	0.038
936	0.038
937	0.039
937	0.04
938	0.041
938	0.042
938	0.042
939	0.043
939	0.044
940	0.045
940	0.046
941	0.047
941	0.048
941	0.049
942	0.05
942	0.051
943	0.052
943	0.052
944	0.053
944	0.053
944	0.053
945	0.054
945	0.054
946	0.054
946	0.054
946	0.054
947	0.055
947	0.054
948	0.054
948	0.054
949	0.054
949	0.054
949	0.054
950	0.054
950	0.055
951	0.055
951	0.055
952	0.055
952	0.055
952	0.056
953	0.056
953	0.057
954	0.056
954	0.056
955	0.056
955	0.056
955	0.055
956	0.055
956	0.055
957	0.054
957	0.053
957	0.051
958	0.05
958	0.049
959	0.048
959	0.047
960	0.046
960	0.045
960	0.044
961	0.043
961	0.042
962	0.042
962	0.042
963	0.042
963	0.042
963	0.042
964	0.043
964	0.043
965	0.044
965	0.045
966	0.046
966	0.047
966	0.048
967	0.048
967	0.049
968	0.05
968	0.05
968	0.051
969	0.052
969	0.052
970	0.052
970	0.053
971	0.053
971	0.053
971	0.053
972	0.054
972	0.054
973	0.054
973	0.054
974	0.054
974	0.054
974	0.054
975	0.055
975	0.055
976	0.055
976	0.055
976	0.055
977	0.054
977	0.053
978	0.052
978	0.051
979	0.05
979	0.048
979	0.047
980	0.045
980	0.044
981	0.043
981	0.042
982	0.042
982	0.042
982	0.042
983	0.042
983	0.043
984	0.043
984	0.044
984	0.045
985	0.046
985	0.047
986	0.047
986	0.047
987	0.048
987	0.048
987	0.049
988	0.05
988	0.05
989	0.051
989	0.051
990	0.052
990	0.052
990	0.054
991	0.055
991	0.055
992	0.056
992	0.057
992	0.057
993	0.058
993	0.058
994	0.058
994	0.058
995	0.058
995	0.057
995	0.057
996	0.056
996	0.056
997	0.055
997	0.055
997	0.055
998	0.054
998	0.054
999	0.055
999	0.054
1000	0.055
1000	0.055
1000	0.055
1001	0.055
1001	0.055
1002	0.054
1002	0.054
1003	0.054
1003	0.053
1003	0.053
1004	0.052
1004	0.051
1005	0.05
1005	0.049
1005	0.048
1006	0.047
1006	0.046
1007	0.045
1007	0.044
1008	0.044
1008	0.043
1008	0.042
1009	0.042
1009	0.042
1010	0.042
1010	0.042
1010	0.042
1011	0.042
1011	0.042
1012	0.043
1012	0.043
1013	0.043
1013	0.043
1013	0.042
1014	0.041
1014	0.041
1015	0.04
1015	0.04
1016	0.039
1016	0.039
1016	0.038
1017	0.038
1017	0.038
1018	0.038
1018	0.039
1018	0.039
1019	0.04
1019	0.04
1020	0.04
1020	0.04
1021	0.041
1021	0.041
1021	0.041
1022	0.041
1022	0.041
1023	0.041
1023	0.041
1023	0.041
1024	0.041
1024	0.04
1025	0.04
1025	0.04
1026	0.039
1026	0.039
1026	0.038
1027	0.038
1027	0.038
1028	0.038
1028	0.039
1028	0.039
1029	0.04
1029	0.04
1030	0.04
1030	0.041
1031	0.041
1031	0.041
1031	0.042
1032	0.042
1032	0.041
1033	0.041
1033	0.041
1033	0.04
1034	0.039
1034	0.038
1035	0.037
1035	0.037
1036	0.036
1036	0.036
1036	0.036
1037	0.036
1037	0.036
1038	0.037
1038	0.038
1039	0.039
1039	0.04
1039	0.041
1040	0.042
1040	0.043
1041	0.043
1041	0.044
1041	0.044
1042	0.044
1042	0.044
1043	0.044
1043	0.044
1044	0.044
1044	0.045
1044	0.045
1045	0.046
1045	0.046
1046	0.047
1046	0.048
1046	0.05
1047	0.051
1047	0.053
1048	0.055
1048	0.056
1049	0.057
1049	0.057
1049	0.058
1050	0.058
1050	0.059
1051	0.059
1051	0.06
1051	0.06
1052	0.061
1052	0.061
1053	0.062
1053	0.062
1053	0.063
1054	0.063
1054	0.065
1055	0.065
1055	0.066
1056	0.065
1056	0.065
1056	0.064
1057	0.064
1057	0.065
1058	0.065
1058	0.065
1058	0.066
1059	0.067
1059	0.067
1060	0.068
1060	0.07
1061	0.072
1061	0.074
1061	0.076
1062	0.077
1062	0.078
1063	0.079
1063	0.08
1063	0.081
1064	0.082
1064	0.084
1065	0.085
1065	0.086
1066	0.087
1066	0.088
1066	0.089
1067	0.09
1067	0.091
1068	0.092
1068	0.093
1068	0.093
1069	0.093
1069	0.093
1070	0.094
1070	0.095
1071	0.097
1071	0.099
1071	0.1
1072	0.102
1072	0.105
1073	0.107
1073	0.11
1073	0.113
1074	0.116
1074	0.119
1075	0.12
1075	0.123
1076	0.124
1076	0.128
1076	0.129
1077	0.131
1077	0.134
1078	0.136
1078	0.139
1078	0.143
1079	0.146
1079	0.15
1080	0.153
1080	0.157
1080	0.16
1081	0.164
1081	0.168
1082	0.173
1082	0.177
1083	0.182
1083	0.186
1083	0.191
1084	0.197
1084	0.204
1085	0.211
1085	0.218
1085	0.225
1086	0.231
1086	0.236
1087	0.243
1087	0.25
1088	0.256
1088	0.263
1088	0.271
1089	0.277
1089	0.287
1090	0.297
1090	0.31
1090	0.323
1091	0.339
1091	0.357
1092	0.374
1092	0.397
1092	0.418
1093	0.441
1093	0.468
1094	0.497
1094	0.526
1095	0.558
1095	0.597
1095	0.644
1096	0.696
1096	0.759
1097	0.842
1097	0.937
1097	1.075
1098	1.287
1098	1.732
1099	-0
1099	-0
1100	-0
1100	-0
1100	-0
1101	-0
1101	-0
1102	-0
1102	-0
1102	-0
1103	-0
1103	-0
1104	-0
1104	-0
1104	-0
1105	-0
1105	-0
1106	-0
1106	-0
1107	-0
1107	-0
1107	-0
1108	-0
1108	-0
1109	-0
1109	-0
1109	-0
1110	-0
1110	-0
1111	-0
1111	-0
