Data from 15c-2-5a_Absorbance__900__05176.txt Node

Date: Wed Jan 17 15:00:31 CET 2024
User: Marek
Spectrometer: MAYP115816
Trigger mode: 0
Integration Time (sec): 2.000000E-1
Scans to average: 10
Electric dark correction enabled: true
Nonlinearity correction enabled: true
Boxcar width: 5
XAxis mode: Wavelengths
Number of Pixels in Spectrum: 2068
>>>>>Begin Spectral Data<<<<<
199	-2.261
199	-2.113
200	-1.946
200	-1.817
201	-1.736
201	-1.685
202	-1.607
202	-1.547
203	-1.494
203	-1.447
204	-1.42
204	-1.394
205	-1.369
205	-1.359
205	-1.356
206	-1.355
206	-1.35
207	-1.348
207	-1.343
208	-1.341
208	-1.34
209	-1.335
209	-1.332
210	-1.331
210	-1.331
211	-1.329
211	-1.327
212	-1.328
212	-1.326
213	-1.326
213	-1.324
213	-1.323
214	-1.322
214	-1.321
215	-1.32
215	-1.318
216	-1.318
216	-1.315
217	-1.31
217	-1.308
218	-1.307
218	-1.303
219	-1.3
219	-1.299
220	-1.295
220	-1.291
221	-1.285
221	-1.281
221	-1.277
222	-1.274
222	-1.268
223	-1.262
223	-1.258
224	-1.252
224	-1.244
225	-1.236
225	-1.227
226	-1.218
226	-1.205
227	-1.192
227	-1.177
228	-1.161
228	-1.141
229	-1.119
229	-1.093
229	-1.064
230	-1.033
230	-0.999
231	-0.961
231	-0.922
232	-0.88
232	-0.834
233	-0.786
233	-0.736
234	-0.685
234	-0.634
235	-0.583
235	-0.531
236	-0.48
236	-0.431
236	-0.382
237	-0.334
237	-0.289
238	-0.246
238	-0.203
239	-0.164
239	-0.126
240	-0.09
240	-0.058
241	-0.026
241	0.003
242	0.03
242	0.056
243	0.079
243	0.101
243	0.121
244	0.14
244	0.157
245	0.173
245	0.188
246	0.201
246	0.214
247	0.226
247	0.237
248	0.247
248	0.257
249	0.265
249	0.274
250	0.281
250	0.289
250	0.296
251	0.302
251	0.308
252	0.314
252	0.319
253	0.324
253	0.329
254	0.333
254	0.337
255	0.341
255	0.345
256	0.348
256	0.35
257	0.353
257	0.356
258	0.358
258	0.36
258	0.361
259	0.363
259	0.365
260	0.366
260	0.367
261	0.368
261	0.369
262	0.37
262	0.37
263	0.371
263	0.372
264	0.372
264	0.373
265	0.373
265	0.373
265	0.373
266	0.373
266	0.373
267	0.373
267	0.373
268	0.372
268	0.372
269	0.371
269	0.37
270	0.369
270	0.368
271	0.367
271	0.366
272	0.366
272	0.365
272	0.364
273	0.363
273	0.362
274	0.361
274	0.36
275	0.359
275	0.358
276	0.357
276	0.356
277	0.354
277	0.353
278	0.351
278	0.349
278	0.347
279	0.345
279	0.343
280	0.342
280	0.341
281	0.34
281	0.339
282	0.338
282	0.337
283	0.337
283	0.336
284	0.336
284	0.336
285	0.336
285	0.335
285	0.334
286	0.333
286	0.333
287	0.332
287	0.331
288	0.33
288	0.329
289	0.329
289	0.328
290	0.327
290	0.326
291	0.325
291	0.324
292	0.324
292	0.323
292	0.322
293	0.321
293	0.32
294	0.319
294	0.318
295	0.318
295	0.317
296	0.316
296	0.315
297	0.315
297	0.314
298	0.314
298	0.313
298	0.312
299	0.311
299	0.311
300	0.31
300	0.309
301	0.309
301	0.308
302	0.307
302	0.306
303	0.305
303	0.305
304	0.304
304	0.303
305	0.303
305	0.302
305	0.301
306	0.3
306	0.299
307	0.299
307	0.298
308	0.297
308	0.296
309	0.295
309	0.294
310	0.293
310	0.293
311	0.292
311	0.291
311	0.29
312	0.289
312	0.288
313	0.287
313	0.286
314	0.285
314	0.284
315	0.283
315	0.282
316	0.281
316	0.28
317	0.279
317	0.278
318	0.277
318	0.276
318	0.275
319	0.274
319	0.273
320	0.272
320	0.271
321	0.27
321	0.269
322	0.268
322	0.267
323	0.265
323	0.264
324	0.263
324	0.262
324	0.261
325	0.261
325	0.26
326	0.259
326	0.258
327	0.257
327	0.256
328	0.255
328	0.254
329	0.254
329	0.253
330	0.252
330	0.251
330	0.25
331	0.249
331	0.248
332	0.247
332	0.246
333	0.245
333	0.244
334	0.243
334	0.242
335	0.241
335	0.24
336	0.239
336	0.238
336	0.237
337	0.236
337	0.235
338	0.234
338	0.234
339	0.233
339	0.232
340	0.231
340	0.23
341	0.23
341	0.229
342	0.228
342	0.227
342	0.227
343	0.226
343	0.225
344	0.224
344	0.224
345	0.223
345	0.222
346	0.221
346	0.22
347	0.219
347	0.218
348	0.217
348	0.217
348	0.216
349	0.215
349	0.214
350	0.213
350	0.212
351	0.211
351	0.21
352	0.209
352	0.208
353	0.207
353	0.206
354	0.204
354	0.203
354	0.202
355	0.2
355	0.199
356	0.198
356	0.197
357	0.197
357	0.196
358	0.196
358	0.196
359	0.197
359	0.198
360	0.198
360	0.199
360	0.2
361	0.201
361	0.201
362	0.201
362	0.201
363	0.201
363	0.201
364	0.2
364	0.199
365	0.199
365	0.198
366	0.198
366	0.197
366	0.197
367	0.196
367	0.196
368	0.196
368	0.195
369	0.194
369	0.194
370	0.193
370	0.193
371	0.192
371	0.192
372	0.191
372	0.191
372	0.19
373	0.19
373	0.19
374	0.19
374	0.189
375	0.189
375	0.189
376	0.189
376	0.189
377	0.19
377	0.19
378	0.19
378	0.191
378	0.191
379	0.191
379	0.191
380	0.192
380	0.192
381	0.192
381	0.191
382	0.191
382	0.19
383	0.19
383	0.189
383	0.189
384	0.188
384	0.188
385	0.188
385	0.187
386	0.187
386	0.187
387	0.187
387	0.187
388	0.187
388	0.187
389	0.186
389	0.186
389	0.186
390	0.186
390	0.187
391	0.187
391	0.188
392	0.188
392	0.188
393	0.188
393	0.188
394	0.188
394	0.187
394	0.187
395	0.187
395	0.186
396	0.186
396	0.186
397	0.186
397	0.186
398	0.186
398	0.186
399	0.186
399	0.186
400	0.186
400	0.185
400	0.185
401	0.184
401	0.182
402	0.181
402	0.18
403	0.18
403	0.18
404	0.18
404	0.179
405	0.179
405	0.178
405	0.178
406	0.177
406	0.177
407	0.177
407	0.177
408	0.176
408	0.175
409	0.174
409	0.174
410	0.174
410	0.174
411	0.174
411	0.174
411	0.174
412	0.174
412	0.173
413	0.173
413	0.173
414	0.172
414	0.172
415	0.171
415	0.171
416	0.17
416	0.169
416	0.169
417	0.168
417	0.168
418	0.168
418	0.168
419	0.169
419	0.17
420	0.171
420	0.172
421	0.173
421	0.173
421	0.174
422	0.174
422	0.174
423	0.175
423	0.174
424	0.174
424	0.173
425	0.171
425	0.17
426	0.17
426	0.169
427	0.169
427	0.169
427	0.169
428	0.17
428	0.17
429	0.171
429	0.172
430	0.172
430	0.172
431	0.172
431	0.171
432	0.171
432	0.17
432	0.169
433	0.167
433	0.166
434	0.165
434	0.165
435	0.165
435	0.165
436	0.165
436	0.165
437	0.165
437	0.166
437	0.166
438	0.165
438	0.165
439	0.165
439	0.165
440	0.164
440	0.164
441	0.164
441	0.164
442	0.164
442	0.164
442	0.165
443	0.165
443	0.165
444	0.166
444	0.166
445	0.167
445	0.167
446	0.167
446	0.167
447	0.166
447	0.166
447	0.166
448	0.166
448	0.166
449	0.165
449	0.165
450	0.165
450	0.164
451	0.164
451	0.163
452	0.163
452	0.162
452	0.161
453	0.16
453	0.16
454	0.159
454	0.158
455	0.158
455	0.158
456	0.157
456	0.157
457	0.157
457	0.157
458	0.157
458	0.156
458	0.156
459	0.157
459	0.157
460	0.156
460	0.155
461	0.155
461	0.154
462	0.154
462	0.154
463	0.154
463	0.155
463	0.156
464	0.156
464	0.156
465	0.156
465	0.156
466	0.157
466	0.157
467	0.157
467	0.156
467	0.155
468	0.153
468	0.151
469	0.149
469	0.147
470	0.146
470	0.146
471	0.145
471	0.145
472	0.144
472	0.144
472	0.145
473	0.146
473	0.148
474	0.149
474	0.15
475	0.151
475	0.152
476	0.152
476	0.152
477	0.152
477	0.153
477	0.153
478	0.153
478	0.152
479	0.153
479	0.153
480	0.154
480	0.155
481	0.156
481	0.157
482	0.158
482	0.159
482	0.161
483	0.163
483	0.167
484	0.17
484	0.173
485	0.175
485	0.177
486	0.178
486	0.179
487	0.179
487	0.18
487	0.179
488	0.178
488	0.176
489	0.174
489	0.171
490	0.17
490	0.168
491	0.167
491	0.167
492	0.168
492	0.168
492	0.168
493	0.169
493	0.17
494	0.172
494	0.174
495	0.176
495	0.178
496	0.179
496	0.18
496	0.181
497	0.183
497	0.184
498	0.184
498	0.185
499	0.185
499	0.185
500	0.185
500	0.186
501	0.187
501	0.189
501	0.19
502	0.192
502	0.194
503	0.195
503	0.197
504	0.198
504	0.198
505	0.198
505	0.198
506	0.199
506	0.199
506	0.199
507	0.198
507	0.198
508	0.199
508	0.2
509	0.2
509	0.201
510	0.201
510	0.201
511	0.201
511	0.201
511	0.201
512	0.201
512	0.201
513	0.2
513	0.198
514	0.196
514	0.195
515	0.194
515	0.193
515	0.193
516	0.193
516	0.193
517	0.193
517	0.192
518	0.192
518	0.191
519	0.189
519	0.187
520	0.184
520	0.18
520	0.177
521	0.174
521	0.171
522	0.168
522	0.167
523	0.167
523	0.168
524	0.17
524	0.173
524	0.176
525	0.18
525	0.183
526	0.186
526	0.189
527	0.191
527	0.193
528	0.195
528	0.196
529	0.197
529	0.197
529	0.198
530	0.198
530	0.198
531	0.198
531	0.199
532	0.198
532	0.198
533	0.198
533	0.198
533	0.198
534	0.198
534	0.197
535	0.196
535	0.195
536	0.195
536	0.194
537	0.194
537	0.193
538	0.193
538	0.191
538	0.19
539	0.189
539	0.188
540	0.187
540	0.186
541	0.184
541	0.182
542	0.18
542	0.178
542	0.176
543	0.175
543	0.174
544	0.172
544	0.171
545	0.17
545	0.17
546	0.171
546	0.17
547	0.169
547	0.166
547	0.164
548	0.162
548	0.16
549	0.157
549	0.155
550	0.153
550	0.15
551	0.147
551	0.145
551	0.143
552	0.142
552	0.141
553	0.14
553	0.14
554	0.139
554	0.138
555	0.135
555	0.132
556	0.129
556	0.126
556	0.122
557	0.119
557	0.117
558	0.114
558	0.112
559	0.11
559	0.11
560	0.109
560	0.109
560	0.108
561	0.109
561	0.11
562	0.11
562	0.109
563	0.107
563	0.105
564	0.102
564	0.099
564	0.096
565	0.094
565	0.093
566	0.091
566	0.09
567	0.09
567	0.091
568	0.093
568	0.095
568	0.098
569	0.101
569	0.104
570	0.106
570	0.107
571	0.108
571	0.109
572	0.11
572	0.11
573	0.11
573	0.11
573	0.109
574	0.108
574	0.107
575	0.106
575	0.107
576	0.109
576	0.108
577	0.107
577	0.105
577	0.105
578	0.104
578	0.103
579	0.104
579	0.106
580	0.105
580	0.103
581	0.099
581	0.096
581	0.094
582	0.094
582	0.093
583	0.094
583	0.093
584	0.09
584	0.084
585	0.082
585	0.081
585	0.081
586	0.081
586	0.081
587	0.079
587	0.076
588	0.073
588	0.07
589	0.068
589	0.067
590	0.066
590	0.065
590	0.066
591	0.067
591	0.067
592	0.067
592	0.066
593	0.066
593	0.066
594	0.065
594	0.064
594	0.063
595	0.062
595	0.06
596	0.058
596	0.059
597	0.061
597	0.063
598	0.065
598	0.067
598	0.069
599	0.07
599	0.07
600	0.069
600	0.068
601	0.066
601	0.065
602	0.063
602	0.062
602	0.06
603	0.059
603	0.06
604	0.061
604	0.062
605	0.064
605	0.067
606	0.068
606	0.067
606	0.066
607	0.066
607	0.065
608	0.064
608	0.062
609	0.06
609	0.06
610	0.058
610	0.056
610	0.056
611	0.057
611	0.058
612	0.059
612	0.061
613	0.063
613	0.065
614	0.065
614	0.063
614	0.063
615	0.062
615	0.061
616	0.06
616	0.058
617	0.057
617	0.055
618	0.052
618	0.05
618	0.048
619	0.048
619	0.048
620	0.05
620	0.052
621	0.052
621	0.053
622	0.054
622	0.055
622	0.056
623	0.056
623	0.058
624	0.059
624	0.059
625	0.058
625	0.058
626	0.058
626	0.058
626	0.058
627	0.059
627	0.059
628	0.059
628	0.059
629	0.059
629	0.059
630	0.058
630	0.057
630	0.057
631	0.057
631	0.058
632	0.057
632	0.057
633	0.058
633	0.059
634	0.062
634	0.064
634	0.067
635	0.069
635	0.071
636	0.072
636	0.074
637	0.075
637	0.076
638	0.077
638	0.078
638	0.079
639	0.079
639	0.079
640	0.08
640	0.081
641	0.082
641	0.083
642	0.085
642	0.087
642	0.089
643	0.09
643	0.092
644	0.094
644	0.096
645	0.098
645	0.101
646	0.104
646	0.107
646	0.111
647	0.115
647	0.119
648	0.122
648	0.125
649	0.127
649	0.13
650	0.134
650	0.137
650	0.14
651	0.142
651	0.144
652	0.146
652	0.148
653	0.151
653	0.161
653	0.187
654	0.152
654	0.126
655	0.13
655	0.132
656	0.134
656	0.136
657	0.138
657	0.139
657	0.14
658	0.136
658	0.117
659	0.146
659	0.187
660	0.19
660	0.191
661	0.193
661	0.195
661	0.198
662	0.202
662	0.206
663	0.21
663	0.214
664	0.217
664	0.22
665	0.223
665	0.226
665	0.229
666	0.232
666	0.234
667	0.236
667	0.238
668	0.241
668	0.243
669	0.246
669	0.249
669	0.254
670	0.259
670	0.263
671	0.265
671	0.267
672	0.269
672	0.271
672	0.272
673	0.273
673	0.275
674	0.275
674	0.274
675	0.273
675	0.273
676	0.274
676	0.276
676	0.277
677	0.279
677	0.281
678	0.283
678	0.284
679	0.286
679	0.287
680	0.29
680	0.292
680	0.293
681	0.293
681	0.294
682	0.296
682	0.297
683	0.299
683	0.302
684	0.305
684	0.307
684	0.307
685	0.307
685	0.309
686	0.31
686	0.311
687	0.311
687	0.31
687	0.31
688	0.309
688	0.307
689	0.307
689	0.309
690	0.31
690	0.309
691	0.308
691	0.308
691	0.307
692	0.307
692	0.305
693	0.305
693	0.305
694	0.303
694	0.3
695	0.3
695	0.301
695	0.302
696	0.302
696	0.301
697	0.3
697	0.298
698	0.297
698	0.295
698	0.293
699	0.292
699	0.29
700	0.286
700	0.284
701	0.283
701	0.282
702	0.28
702	0.279
702	0.278
703	0.276
703	0.275
704	0.274
704	0.273
705	0.273
705	0.272
705	0.271
706	0.27
706	0.27
707	0.268
707	0.266
708	0.264
708	0.262
709	0.26
709	0.257
709	0.252
710	0.248
710	0.244
711	0.241
711	0.238
712	0.235
712	0.233
713	0.231
713	0.229
713	0.227
714	0.224
714	0.222
715	0.22
715	0.218
716	0.215
716	0.213
716	0.211
717	0.208
717	0.206
718	0.203
718	0.2
719	0.198
719	0.196
720	0.194
720	0.192
720	0.189
721	0.186
721	0.183
722	0.18
722	0.177
723	0.174
723	0.173
723	0.17
724	0.168
724	0.166
725	0.164
725	0.161
726	0.16
726	0.158
727	0.156
727	0.154
727	0.152
728	0.15
728	0.148
729	0.147
729	0.146
730	0.145
730	0.143
730	0.141
731	0.139
731	0.137
732	0.136
732	0.134
733	0.132
733	0.13
734	0.127
734	0.124
734	0.121
735	0.12
735	0.117
736	0.115
736	0.113
737	0.111
737	0.11
737	0.109
738	0.106
738	0.102
739	0.1
739	0.097
740	0.094
740	0.091
741	0.089
741	0.086
741	0.081
742	0.075
742	0.07
743	0.067
743	0.063
744	0.06
744	0.057
744	0.055
745	0.051
745	0.048
746	0.045
746	0.044
747	0.042
747	0.042
748	0.042
748	0.042
748	0.041
749	0.039
749	0.039
750	0.038
750	0.037
751	0.037
751	0.037
751	0.038
752	0.038
752	0.037
753	0.037
753	0.037
754	0.037
754	0.037
754	0.038
755	0.04
755	0.041
756	0.041
756	0.039
757	0.037
757	0.037
758	0.036
758	0.035
758	0.034
759	0.033
759	0.031
760	0.027
760	0.024
761	0.021
761	0.02
761	0.019
762	0.016
762	0.015
763	0.014
763	0.011
764	0.007
764	0.004
764	0
765	-0.003
765	-0.006
766	-0.008
766	-0.009
767	-0.01
767	-0.014
768	-0.018
768	-0.021
768	-0.022
769	-0.023
769	-0.023
770	-0.024
770	-0.026
771	-0.028
771	-0.032
771	-0.036
772	-0.039
772	-0.041
773	-0.044
773	-0.048
774	-0.052
774	-0.056
775	-0.059
775	-0.063
775	-0.067
776	-0.071
776	-0.075
777	-0.079
777	-0.083
778	-0.088
778	-0.093
778	-0.098
779	-0.101
779	-0.104
780	-0.109
780	-0.115
781	-0.12
781	-0.125
781	-0.13
782	-0.135
782	-0.14
783	-0.144
783	-0.147
784	-0.149
784	-0.152
784	-0.153
785	-0.154
785	-0.156
786	-0.155
786	-0.152
787	-0.147
787	-0.143
788	-0.141
788	-0.142
788	-0.143
789	-0.146
789	-0.145
790	-0.142
790	-0.141
791	-0.141
791	-0.143
791	-0.146
792	-0.14
792	-0.13
793	-0.124
793	-0.12
794	-0.118
794	-0.12
794	-0.124
795	-0.127
795	-0.127
796	-0.128
796	-0.131
797	-0.14
797	-0.151
797	-0.157
798	-0.162
798	-0.165
799	-0.165
799	-0.165
800	-0.164
800	-0.166
801	-0.168
801	-0.169
801	-0.169
802	-0.171
802	-0.172
803	-0.173
803	-0.173
804	-0.172
804	-0.167
804	-0.161
805	-0.157
805	-0.155
806	-0.153
806	-0.151
807	-0.151
807	-0.15
807	-0.15
808	-0.15
808	-0.151
809	-0.156
809	-0.162
810	-0.166
810	-0.169
810	-0.172
811	-0.175
811	-0.176
812	-0.172
812	-0.169
813	-0.169
813	-0.169
813	-0.17
814	-0.17
814	-0.17
815	-0.166
815	-0.163
816	-0.16
816	-0.16
817	-0.163
817	-0.166
817	-0.166
818	-0.165
818	-0.162
819	-0.156
819	-0.154
820	-0.155
820	-0.158
820	-0.159
821	-0.159
821	-0.158
822	-0.158
822	-0.157
823	-0.154
823	-0.154
823	-0.155
824	-0.154
824	-0.148
825	-0.14
825	-0.131
826	-0.122
826	-0.115
826	-0.107
827	-0.099
827	-0.092
828	-0.085
828	-0.08
829	-0.075
829	-0.07
829	-0.066
830	-0.064
830	-0.061
831	-0.056
831	-0.052
832	-0.049
832	-0.045
832	-0.041
833	-0.037
833	-0.034
834	-0.031
834	-0.028
835	-0.025
835	-0.023
835	-0.021
836	-0.019
836	-0.018
837	-0.016
837	-0.015
838	-0.014
838	-0.013
839	-0.012
839	-0.012
839	-0.012
840	-0.011
840	-0.011
841	-0.01
841	-0.009
842	-0.008
842	-0.007
842	-0.005
843	-0.004
843	-0.003
844	-0.001
844	0.001
845	0.003
845	0.005
845	0.007
846	0.008
846	0.009
847	0.01
847	0.011
848	0.011
848	0.011
848	0.012
849	0.012
849	0.012
850	0.012
850	0.012
851	0.012
851	0.013
851	0.013
852	0.014
852	0.014
853	0.015
853	0.016
854	0.017
854	0.017
854	0.018
855	0.018
855	0.018
856	0.018
856	0.018
857	0.018
857	0.018
857	0.018
858	0.018
858	0.018
859	0.018
859	0.018
860	0.019
860	0.02
860	0.02
861	0.021
861	0.022
862	0.022
862	0.022
863	0.023
863	0.023
863	0.024
864	0.024
864	0.024
865	0.024
865	0.024
866	0.024
866	0.024
866	0.024
867	0.024
867	0.025
868	0.026
868	0.026
869	0.027
869	0.027
869	0.027
870	0.027
870	0.027
871	0.027
871	0.027
872	0.027
872	0.026
872	0.025
873	0.024
873	0.023
874	0.022
874	0.022
875	0.022
875	0.022
875	0.022
876	0.022
876	0.023
877	0.024
877	0.026
878	0.027
878	0.029
878	0.031
879	0.033
879	0.034
880	0.035
880	0.035
881	0.035
881	0.035
881	0.035
882	0.034
882	0.034
883	0.033
883	0.033
884	0.033
884	0.033
884	0.033
885	0.034
885	0.034
886	0.035
886	0.036
887	0.037
887	0.037
887	0.038
888	0.038
888	0.038
889	0.038
889	0.038
890	0.037
890	0.036
890	0.035
891	0.034
891	0.034
892	0.033
892	0.032
893	0.032
893	0.032
893	0.032
894	0.032
894	0.032
895	0.032
895	0.032
895	0.032
896	0.032
896	0.033
897	0.033
897	0.033
898	0.033
898	0.033
898	0.033
899	0.033
899	0.033
900	0.034
900	0.035
901	0.036
901	0.036
901	0.037
902	0.038
902	0.039
903	0.039
903	0.039
904	0.039
904	0.039
904	0.039
905	0.039
905	0.038
906	0.038
906	0.038
907	0.038
907	0.038
907	0.038
908	0.038
908	0.038
909	0.039
909	0.04
910	0.04
910	0.041
910	0.042
911	0.043
911	0.045
912	0.046
912	0.047
913	0.048
913	0.048
913	0.048
914	0.048
914	0.047
915	0.046
915	0.045
916	0.044
916	0.043
916	0.041
917	0.04
917	0.039
918	0.037
918	0.037
918	0.036
919	0.036
919	0.036
920	0.037
920	0.037
921	0.037
921	0.038
921	0.038
922	0.039
922	0.039
923	0.039
923	0.039
924	0.039
924	0.039
924	0.039
925	0.038
925	0.038
926	0.038
926	0.037
927	0.037
927	0.036
927	0.036
928	0.036
928	0.036
929	0.036
929	0.036
930	0.036
930	0.036
930	0.035
931	0.035
931	0.035
932	0.035
932	0.034
933	0.034
933	0.034
933	0.034
934	0.034
934	0.035
935	0.035
935	0.036
935	0.036
936	0.037
936	0.038
937	0.039
937	0.04
938	0.041
938	0.041
938	0.042
939	0.043
939	0.044
940	0.045
940	0.046
941	0.047
941	0.048
941	0.049
942	0.05
942	0.051
943	0.051
943	0.051
944	0.052
944	0.052
944	0.052
945	0.053
945	0.053
946	0.053
946	0.053
946	0.053
947	0.054
947	0.053
948	0.053
948	0.053
949	0.053
949	0.053
949	0.053
950	0.053
950	0.053
951	0.054
951	0.054
952	0.054
952	0.054
952	0.055
953	0.056
953	0.056
954	0.056
954	0.056
955	0.056
955	0.055
955	0.055
956	0.055
956	0.054
957	0.053
957	0.052
957	0.051
958	0.05
958	0.049
959	0.048
959	0.047
960	0.046
960	0.045
960	0.044
961	0.043
961	0.042
962	0.042
962	0.042
963	0.042
963	0.042
963	0.042
964	0.043
964	0.043
965	0.044
965	0.045
966	0.045
966	0.046
966	0.047
967	0.048
967	0.049
968	0.049
968	0.05
968	0.05
969	0.051
969	0.051
970	0.052
970	0.052
971	0.052
971	0.052
971	0.053
972	0.053
972	0.053
973	0.053
973	0.053
974	0.053
974	0.053
974	0.053
975	0.054
975	0.054
976	0.054
976	0.054
976	0.054
977	0.053
977	0.052
978	0.051
978	0.049
979	0.048
979	0.047
979	0.046
980	0.044
980	0.043
981	0.042
981	0.041
982	0.041
982	0.041
982	0.041
983	0.042
983	0.042
984	0.043
984	0.044
984	0.045
985	0.046
985	0.047
986	0.047
986	0.047
987	0.048
987	0.049
987	0.049
988	0.05
988	0.05
989	0.051
989	0.051
990	0.051
990	0.052
990	0.053
991	0.054
991	0.055
992	0.055
992	0.056
992	0.056
993	0.057
993	0.057
994	0.057
994	0.057
995	0.057
995	0.056
995	0.056
996	0.055
996	0.055
997	0.054
997	0.054
997	0.054
998	0.053
998	0.054
999	0.054
999	0.054
1000	0.054
1000	0.054
1000	0.054
1001	0.053
1001	0.053
1002	0.053
1002	0.053
1003	0.053
1003	0.052
1003	0.052
1004	0.051
1004	0.05
1005	0.049
1005	0.049
1005	0.048
1006	0.046
1006	0.046
1007	0.044
1007	0.043
1008	0.043
1008	0.042
1008	0.041
1009	0.041
1009	0.041
1010	0.041
1010	0.041
1010	0.042
1011	0.042
1011	0.042
1012	0.042
1012	0.042
1013	0.042
1013	0.041
1013	0.041
1014	0.04
1014	0.039
1015	0.039
1015	0.038
1016	0.037
1016	0.037
1016	0.036
1017	0.036
1017	0.036
1018	0.037
1018	0.037
1018	0.037
1019	0.038
1019	0.039
1020	0.039
1020	0.039
1021	0.04
1021	0.04
1021	0.04
1022	0.04
1022	0.04
1023	0.04
1023	0.04
1023	0.04
1024	0.04
1024	0.039
1025	0.039
1025	0.039
1026	0.038
1026	0.038
1026	0.038
1027	0.038
1027	0.038
1028	0.038
1028	0.038
1028	0.038
1029	0.039
1029	0.039
1030	0.039
1030	0.039
1031	0.039
1031	0.04
1031	0.04
1032	0.04
1032	0.04
1033	0.039
1033	0.039
1033	0.038
1034	0.037
1034	0.036
1035	0.036
1035	0.035
1036	0.034
1036	0.034
1036	0.034
1037	0.034
1037	0.035
1038	0.035
1038	0.036
1039	0.037
1039	0.038
1039	0.039
1040	0.04
1040	0.041
1041	0.041
1041	0.042
1041	0.042
1042	0.042
1042	0.043
1043	0.043
1043	0.043
1044	0.043
1044	0.043
1044	0.044
1045	0.045
1045	0.045
1046	0.046
1046	0.047
1046	0.048
1047	0.05
1047	0.052
1048	0.053
1048	0.055
1049	0.055
1049	0.056
1049	0.057
1050	0.057
1050	0.057
1051	0.058
1051	0.059
1051	0.059
1052	0.06
1052	0.06
1053	0.06
1053	0.061
1053	0.061
1054	0.062
1054	0.063
1055	0.063
1055	0.064
1056	0.063
1056	0.063
1056	0.063
1057	0.063
1057	0.063
1058	0.064
1058	0.064
1058	0.065
1059	0.066
1059	0.067
1060	0.068
1060	0.07
1061	0.072
1061	0.074
1061	0.076
1062	0.077
1062	0.077
1063	0.079
1063	0.079
1063	0.08
1064	0.082
1064	0.083
1065	0.084
1065	0.085
1066	0.086
1066	0.086
1066	0.087
1067	0.088
1067	0.09
1068	0.09
1068	0.091
1068	0.091
1069	0.091
1069	0.091
1070	0.092
1070	0.092
1071	0.094
1071	0.096
1071	0.097
1072	0.1
1072	0.102
1073	0.105
1073	0.108
1073	0.11
1074	0.113
1074	0.116
1075	0.117
1075	0.119
1076	0.12
1076	0.123
1076	0.124
1077	0.127
1077	0.129
1078	0.131
1078	0.134
1078	0.138
1079	0.141
1079	0.146
1080	0.149
1080	0.153
1080	0.156
1081	0.16
1081	0.164
1082	0.169
1082	0.172
1083	0.176
1083	0.181
1083	0.187
1084	0.192
1084	0.198
1085	0.204
1085	0.211
1085	0.217
1086	0.223
1086	0.228
1087	0.235
1087	0.241
1088	0.247
1088	0.253
1088	0.261
1089	0.267
1089	0.276
1090	0.286
1090	0.298
1090	0.311
1091	0.325
1091	0.343
1092	0.36
1092	0.381
1092	0.401
1093	0.424
1093	0.451
1094	0.478
1094	0.506
1095	0.536
1095	0.572
1095	0.621
1096	0.669
1096	0.727
1097	0.8
1097	0.884
1097	1.005
1098	1.173
1098	1.474
1099	-0
1099	-0
1100	-0
1100	-0
1100	-0
1101	-0
1101	-0
1102	-0
1102	-0
1102	-0
1103	-0
1103	-0
1104	-0
1104	-0
1104	-0
1105	-0
1105	-0
1106	-0
1106	-0
1107	-0
1107	-0
1107	-0
1108	-0
1108	-0
1109	-0
1109	-0
1109	-0
1110	-0
1110	-0
1111	-0
1111	-0
