Data from 15c-2-5a_Absorbance__829__05105.txt Node

Date: Wed Jan 17 14:58:09 CET 2024
User: Marek
Spectrometer: MAYP115816
Trigger mode: 0
Integration Time (sec): 2.000000E-1
Scans to average: 10
Electric dark correction enabled: true
Nonlinearity correction enabled: true
Boxcar width: 5
XAxis mode: Wavelengths
Number of Pixels in Spectrum: 2068
>>>>>Begin Spectral Data<<<<<
199	-2.262
199	-2.114
200	-1.948
200	-1.819
201	-1.738
201	-1.686
202	-1.609
202	-1.549
203	-1.496
203	-1.449
204	-1.421
204	-1.396
205	-1.371
205	-1.361
205	-1.358
206	-1.357
206	-1.352
207	-1.35
207	-1.345
208	-1.343
208	-1.342
209	-1.337
209	-1.334
210	-1.333
210	-1.333
211	-1.331
211	-1.33
212	-1.33
212	-1.328
213	-1.327
213	-1.326
213	-1.324
214	-1.323
214	-1.322
215	-1.321
215	-1.319
216	-1.319
216	-1.315
217	-1.311
217	-1.309
218	-1.308
218	-1.304
219	-1.302
219	-1.301
220	-1.297
220	-1.293
221	-1.287
221	-1.283
221	-1.279
222	-1.275
222	-1.27
223	-1.264
223	-1.26
224	-1.254
224	-1.246
225	-1.237
225	-1.229
226	-1.22
226	-1.207
227	-1.193
227	-1.178
228	-1.162
228	-1.142
229	-1.119
229	-1.094
229	-1.065
230	-1.034
230	-1.001
231	-0.963
231	-0.923
232	-0.881
232	-0.836
233	-0.788
233	-0.738
234	-0.687
234	-0.635
235	-0.584
235	-0.532
236	-0.481
236	-0.431
236	-0.382
237	-0.335
237	-0.29
238	-0.247
238	-0.205
239	-0.165
239	-0.128
240	-0.092
240	-0.059
241	-0.028
241	0.001
242	0.028
242	0.053
243	0.077
243	0.098
243	0.118
244	0.137
244	0.154
245	0.169
245	0.184
246	0.198
246	0.211
247	0.222
247	0.233
248	0.244
248	0.253
249	0.262
249	0.27
250	0.278
250	0.285
250	0.292
251	0.298
251	0.304
252	0.31
252	0.315
253	0.32
253	0.325
254	0.329
254	0.333
255	0.337
255	0.34
256	0.343
256	0.346
257	0.349
257	0.352
258	0.354
258	0.356
258	0.358
259	0.359
259	0.361
260	0.362
260	0.363
261	0.364
261	0.365
262	0.365
262	0.366
263	0.367
263	0.367
264	0.368
264	0.368
265	0.369
265	0.369
265	0.369
266	0.369
266	0.369
267	0.369
267	0.368
268	0.368
268	0.368
269	0.367
269	0.366
270	0.365
270	0.364
271	0.363
271	0.362
272	0.361
272	0.36
272	0.359
273	0.358
273	0.357
274	0.356
274	0.355
275	0.354
275	0.353
276	0.352
276	0.351
277	0.35
277	0.348
278	0.346
278	0.345
278	0.343
279	0.34
279	0.339
280	0.337
280	0.336
281	0.335
281	0.334
282	0.333
282	0.333
283	0.332
283	0.332
284	0.332
284	0.332
285	0.332
285	0.331
285	0.33
286	0.329
286	0.329
287	0.328
287	0.327
288	0.326
288	0.326
289	0.325
289	0.324
290	0.323
290	0.322
291	0.322
291	0.321
292	0.32
292	0.319
292	0.318
293	0.317
293	0.316
294	0.316
294	0.315
295	0.314
295	0.314
296	0.313
296	0.312
297	0.311
297	0.311
298	0.31
298	0.31
298	0.309
299	0.308
299	0.308
300	0.307
300	0.306
301	0.305
301	0.305
302	0.304
302	0.303
303	0.302
303	0.302
304	0.301
304	0.3
305	0.299
305	0.298
305	0.297
306	0.297
306	0.296
307	0.295
307	0.294
308	0.294
308	0.293
309	0.292
309	0.291
310	0.29
310	0.289
311	0.289
311	0.288
311	0.287
312	0.286
312	0.285
313	0.284
313	0.283
314	0.282
314	0.281
315	0.28
315	0.279
316	0.278
316	0.277
317	0.276
317	0.275
318	0.274
318	0.273
318	0.272
319	0.271
319	0.27
320	0.269
320	0.268
321	0.267
321	0.266
322	0.265
322	0.264
323	0.262
323	0.261
324	0.26
324	0.259
324	0.258
325	0.258
325	0.257
326	0.256
326	0.255
327	0.254
327	0.253
328	0.252
328	0.251
329	0.251
329	0.249
330	0.248
330	0.247
330	0.246
331	0.245
331	0.244
332	0.243
332	0.242
333	0.241
333	0.241
334	0.24
334	0.239
335	0.238
335	0.237
336	0.236
336	0.235
336	0.234
337	0.233
337	0.233
338	0.232
338	0.231
339	0.23
339	0.229
340	0.229
340	0.228
341	0.227
341	0.226
342	0.225
342	0.225
342	0.224
343	0.223
343	0.222
344	0.222
344	0.221
345	0.22
345	0.219
346	0.218
346	0.218
347	0.217
347	0.216
348	0.215
348	0.214
348	0.213
349	0.212
349	0.211
350	0.21
350	0.209
351	0.208
351	0.207
352	0.206
352	0.205
353	0.204
353	0.203
354	0.202
354	0.2
354	0.199
355	0.198
355	0.197
356	0.195
356	0.194
357	0.194
357	0.193
358	0.193
358	0.193
359	0.194
359	0.195
360	0.195
360	0.196
360	0.197
361	0.197
361	0.198
362	0.198
362	0.198
363	0.198
363	0.198
364	0.198
364	0.197
365	0.196
365	0.196
366	0.195
366	0.195
366	0.194
367	0.194
367	0.194
368	0.193
368	0.192
369	0.192
369	0.192
370	0.191
370	0.19
371	0.19
371	0.189
372	0.189
372	0.188
372	0.188
373	0.188
373	0.187
374	0.187
374	0.187
375	0.187
375	0.187
376	0.187
376	0.187
377	0.187
377	0.188
378	0.188
378	0.188
378	0.189
379	0.189
379	0.189
380	0.189
380	0.189
381	0.189
381	0.189
382	0.188
382	0.188
383	0.187
383	0.187
383	0.186
384	0.186
384	0.185
385	0.185
385	0.185
386	0.185
386	0.185
387	0.185
387	0.185
388	0.184
388	0.184
389	0.184
389	0.184
389	0.184
390	0.184
390	0.185
391	0.185
391	0.185
392	0.185
392	0.185
393	0.185
393	0.186
394	0.185
394	0.185
394	0.185
395	0.184
395	0.183
396	0.183
396	0.183
397	0.183
397	0.184
398	0.184
398	0.183
399	0.183
399	0.183
400	0.183
400	0.182
400	0.182
401	0.181
401	0.18
402	0.178
402	0.177
403	0.177
403	0.177
404	0.177
404	0.176
405	0.176
405	0.176
405	0.175
406	0.175
406	0.175
407	0.175
407	0.174
408	0.174
408	0.173
409	0.172
409	0.172
410	0.172
410	0.172
411	0.172
411	0.172
411	0.172
412	0.171
412	0.171
413	0.17
413	0.17
414	0.17
414	0.169
415	0.169
415	0.168
416	0.168
416	0.167
416	0.166
417	0.166
417	0.166
418	0.166
418	0.166
419	0.167
419	0.168
420	0.169
420	0.17
421	0.171
421	0.171
421	0.171
422	0.172
422	0.172
423	0.172
423	0.172
424	0.171
424	0.17
425	0.169
425	0.168
426	0.167
426	0.166
427	0.166
427	0.166
427	0.167
428	0.167
428	0.168
429	0.169
429	0.17
430	0.17
430	0.17
431	0.169
431	0.169
432	0.169
432	0.168
432	0.167
433	0.165
433	0.164
434	0.163
434	0.162
435	0.163
435	0.163
436	0.163
436	0.163
437	0.164
437	0.164
437	0.164
438	0.164
438	0.163
439	0.163
439	0.163
440	0.162
440	0.162
441	0.161
441	0.162
442	0.162
442	0.162
442	0.162
443	0.162
443	0.163
444	0.163
444	0.164
445	0.164
445	0.165
446	0.165
446	0.165
447	0.164
447	0.164
447	0.164
448	0.164
448	0.163
449	0.163
449	0.162
450	0.162
450	0.162
451	0.161
451	0.161
452	0.16
452	0.16
452	0.159
453	0.158
453	0.157
454	0.157
454	0.156
455	0.155
455	0.155
456	0.155
456	0.154
457	0.154
457	0.154
458	0.154
458	0.154
458	0.154
459	0.154
459	0.155
460	0.154
460	0.153
461	0.152
461	0.152
462	0.152
462	0.152
463	0.152
463	0.153
463	0.153
464	0.154
464	0.154
465	0.154
465	0.154
466	0.154
466	0.155
467	0.155
467	0.154
467	0.153
468	0.151
468	0.149
469	0.146
469	0.145
470	0.144
470	0.143
471	0.142
471	0.141
472	0.141
472	0.141
472	0.142
473	0.143
473	0.145
474	0.146
474	0.148
475	0.149
475	0.149
476	0.15
476	0.15
477	0.15
477	0.15
477	0.151
478	0.15
478	0.15
479	0.151
479	0.151
480	0.152
480	0.153
481	0.154
481	0.154
482	0.155
482	0.156
482	0.158
483	0.16
483	0.164
484	0.168
484	0.171
485	0.172
485	0.174
486	0.175
486	0.176
487	0.177
487	0.177
487	0.177
488	0.176
488	0.174
489	0.171
489	0.168
490	0.167
490	0.165
491	0.165
491	0.165
492	0.165
492	0.165
492	0.165
493	0.166
493	0.167
494	0.169
494	0.171
495	0.173
495	0.175
496	0.176
496	0.177
496	0.178
497	0.179
497	0.18
498	0.181
498	0.181
499	0.181
499	0.181
500	0.181
500	0.182
501	0.184
501	0.186
501	0.187
502	0.188
502	0.19
503	0.192
503	0.193
504	0.194
504	0.194
505	0.194
505	0.194
506	0.195
506	0.195
506	0.195
507	0.195
507	0.195
508	0.195
508	0.195
509	0.196
509	0.197
510	0.198
510	0.198
511	0.197
511	0.197
511	0.197
512	0.197
512	0.197
513	0.196
513	0.194
514	0.192
514	0.19
515	0.189
515	0.189
515	0.188
516	0.188
516	0.188
517	0.189
517	0.188
518	0.188
518	0.188
519	0.186
519	0.184
520	0.181
520	0.178
520	0.174
521	0.171
521	0.168
522	0.165
522	0.163
523	0.162
523	0.163
524	0.165
524	0.168
524	0.171
525	0.174
525	0.177
526	0.18
526	0.183
527	0.186
527	0.189
528	0.19
528	0.192
529	0.193
529	0.193
529	0.194
530	0.194
530	0.194
531	0.194
531	0.195
532	0.194
532	0.194
533	0.194
533	0.194
533	0.194
534	0.194
534	0.193
535	0.192
535	0.192
536	0.191
536	0.191
537	0.19
537	0.19
538	0.189
538	0.188
538	0.186
539	0.186
539	0.185
540	0.184
540	0.183
541	0.181
541	0.179
542	0.177
542	0.175
542	0.173
543	0.172
543	0.171
544	0.169
544	0.168
545	0.167
545	0.167
546	0.167
546	0.167
547	0.166
547	0.163
547	0.161
548	0.159
548	0.156
549	0.154
549	0.152
550	0.15
550	0.147
551	0.144
551	0.142
551	0.14
552	0.139
552	0.138
553	0.137
553	0.137
554	0.136
554	0.134
555	0.132
555	0.129
556	0.126
556	0.123
556	0.12
557	0.117
557	0.114
558	0.112
558	0.11
559	0.108
559	0.108
560	0.107
560	0.107
560	0.106
561	0.107
561	0.107
562	0.107
562	0.106
563	0.105
563	0.103
564	0.1
564	0.097
564	0.094
565	0.092
565	0.09
566	0.089
566	0.088
567	0.088
567	0.089
568	0.091
568	0.093
568	0.095
569	0.099
569	0.102
570	0.104
570	0.105
571	0.106
571	0.107
572	0.108
572	0.108
573	0.108
573	0.107
573	0.106
574	0.105
574	0.104
575	0.103
575	0.104
576	0.106
576	0.105
577	0.104
577	0.103
577	0.102
578	0.101
578	0.101
579	0.102
579	0.104
580	0.103
580	0.101
581	0.097
581	0.094
581	0.093
582	0.092
582	0.092
583	0.092
583	0.091
584	0.088
584	0.083
585	0.081
585	0.08
585	0.08
586	0.08
586	0.08
587	0.078
587	0.075
588	0.072
588	0.069
589	0.067
589	0.066
590	0.065
590	0.064
590	0.065
591	0.066
591	0.066
592	0.066
592	0.065
593	0.065
593	0.065
594	0.064
594	0.063
594	0.061
595	0.06
595	0.059
596	0.057
596	0.057
597	0.06
597	0.062
598	0.063
598	0.065
598	0.067
599	0.068
599	0.068
600	0.067
600	0.066
601	0.065
601	0.063
602	0.061
602	0.06
602	0.058
603	0.057
603	0.058
604	0.058
604	0.06
605	0.062
605	0.064
606	0.066
606	0.065
606	0.064
607	0.063
607	0.063
608	0.062
608	0.06
609	0.059
609	0.058
610	0.056
610	0.054
610	0.054
611	0.055
611	0.056
612	0.057
612	0.059
613	0.061
613	0.063
614	0.063
614	0.061
614	0.061
615	0.06
615	0.059
616	0.058
616	0.057
617	0.055
617	0.053
618	0.05
618	0.048
618	0.047
619	0.046
619	0.047
620	0.049
620	0.05
621	0.051
621	0.052
622	0.052
622	0.054
622	0.054
623	0.054
623	0.056
624	0.057
624	0.057
625	0.056
625	0.056
626	0.056
626	0.056
626	0.056
627	0.057
627	0.057
628	0.057
628	0.057
629	0.057
629	0.057
630	0.056
630	0.055
630	0.055
631	0.055
631	0.055
632	0.055
632	0.056
633	0.057
633	0.058
634	0.06
634	0.062
634	0.065
635	0.067
635	0.069
636	0.07
636	0.071
637	0.072
637	0.073
638	0.074
638	0.075
638	0.076
639	0.076
639	0.076
640	0.077
640	0.078
641	0.079
641	0.081
642	0.083
642	0.085
642	0.087
643	0.088
643	0.09
644	0.092
644	0.094
645	0.096
645	0.099
646	0.101
646	0.105
646	0.109
647	0.113
647	0.117
648	0.119
648	0.122
649	0.125
649	0.128
650	0.131
650	0.134
650	0.137
651	0.139
651	0.141
652	0.143
652	0.145
653	0.148
653	0.158
653	0.183
654	0.15
654	0.124
655	0.128
655	0.13
656	0.132
656	0.133
657	0.135
657	0.137
657	0.138
658	0.134
658	0.116
659	0.144
659	0.184
660	0.187
660	0.188
661	0.19
661	0.192
661	0.195
662	0.199
662	0.203
663	0.207
663	0.211
664	0.215
664	0.218
665	0.221
665	0.224
665	0.226
666	0.229
666	0.231
667	0.233
667	0.235
668	0.238
668	0.24
669	0.243
669	0.246
669	0.25
670	0.255
670	0.259
671	0.261
671	0.263
672	0.265
672	0.267
672	0.268
673	0.269
673	0.271
674	0.271
674	0.27
675	0.269
675	0.268
676	0.27
676	0.271
676	0.272
677	0.274
677	0.276
678	0.278
678	0.28
679	0.281
679	0.283
680	0.285
680	0.288
680	0.288
681	0.289
681	0.29
682	0.292
682	0.293
683	0.295
683	0.298
684	0.302
684	0.303
684	0.303
685	0.304
685	0.306
686	0.307
686	0.308
687	0.308
687	0.307
687	0.307
688	0.306
688	0.304
689	0.304
689	0.305
690	0.306
690	0.305
691	0.304
691	0.303
691	0.303
692	0.302
692	0.301
693	0.3
693	0.3
694	0.299
694	0.296
695	0.296
695	0.298
695	0.299
696	0.299
696	0.297
697	0.296
697	0.295
698	0.294
698	0.292
698	0.29
699	0.289
699	0.286
700	0.282
700	0.28
701	0.279
701	0.278
702	0.277
702	0.276
702	0.275
703	0.273
703	0.272
704	0.27
704	0.269
705	0.269
705	0.268
705	0.267
706	0.266
706	0.266
707	0.264
707	0.262
708	0.26
708	0.258
709	0.256
709	0.254
709	0.249
710	0.245
710	0.241
711	0.238
711	0.235
712	0.233
712	0.231
713	0.229
713	0.227
713	0.225
714	0.223
714	0.22
715	0.218
715	0.216
716	0.213
716	0.211
716	0.209
717	0.206
717	0.204
718	0.201
718	0.198
719	0.196
719	0.194
720	0.192
720	0.19
720	0.187
721	0.184
721	0.181
722	0.178
722	0.174
723	0.172
723	0.17
723	0.168
724	0.166
724	0.163
725	0.161
725	0.158
726	0.156
726	0.155
727	0.153
727	0.151
727	0.149
728	0.147
728	0.145
729	0.145
729	0.144
730	0.143
730	0.141
730	0.14
731	0.138
731	0.136
732	0.135
732	0.134
733	0.131
733	0.129
734	0.126
734	0.123
734	0.12
735	0.119
735	0.116
736	0.113
736	0.111
737	0.109
737	0.108
737	0.107
738	0.104
738	0.1
739	0.097
739	0.094
740	0.091
740	0.088
741	0.086
741	0.083
741	0.079
742	0.073
742	0.068
743	0.064
743	0.061
744	0.058
744	0.056
744	0.053
745	0.05
745	0.046
746	0.044
746	0.042
747	0.041
747	0.04
748	0.04
748	0.04
748	0.039
749	0.038
749	0.038
750	0.037
750	0.036
751	0.036
751	0.036
751	0.037
752	0.037
752	0.036
753	0.036
753	0.036
754	0.036
754	0.036
754	0.037
755	0.038
755	0.039
756	0.038
756	0.036
757	0.034
757	0.034
758	0.033
758	0.032
758	0.031
759	0.031
759	0.028
760	0.024
760	0.021
761	0.018
761	0.017
761	0.015
762	0.013
762	0.012
763	0.01
763	0.007
764	0.003
764	-0
764	-0.003
765	-0.006
765	-0.009
766	-0.011
766	-0.011
767	-0.012
767	-0.015
768	-0.019
768	-0.022
768	-0.023
769	-0.024
769	-0.024
770	-0.025
770	-0.027
771	-0.03
771	-0.033
771	-0.037
772	-0.04
772	-0.042
773	-0.045
773	-0.049
774	-0.053
774	-0.057
775	-0.06
775	-0.064
775	-0.068
776	-0.072
776	-0.076
777	-0.08
777	-0.085
778	-0.089
778	-0.095
778	-0.1
779	-0.104
779	-0.107
780	-0.112
780	-0.118
781	-0.122
781	-0.127
781	-0.132
782	-0.136
782	-0.141
783	-0.145
783	-0.147
784	-0.149
784	-0.152
784	-0.153
785	-0.154
785	-0.156
786	-0.155
786	-0.152
787	-0.147
787	-0.143
788	-0.141
788	-0.142
788	-0.143
789	-0.145
789	-0.145
790	-0.142
790	-0.14
791	-0.141
791	-0.143
791	-0.146
792	-0.14
792	-0.13
793	-0.124
793	-0.12
794	-0.118
794	-0.12
794	-0.124
795	-0.127
795	-0.127
796	-0.128
796	-0.131
797	-0.14
797	-0.151
797	-0.157
798	-0.162
798	-0.165
799	-0.165
799	-0.165
800	-0.164
800	-0.166
801	-0.168
801	-0.169
801	-0.169
802	-0.171
802	-0.172
803	-0.173
803	-0.173
804	-0.172
804	-0.167
804	-0.161
805	-0.157
805	-0.155
806	-0.153
806	-0.151
807	-0.15
807	-0.15
807	-0.15
808	-0.15
808	-0.151
809	-0.156
809	-0.162
810	-0.166
810	-0.169
810	-0.172
811	-0.175
811	-0.176
812	-0.172
812	-0.169
813	-0.169
813	-0.169
813	-0.17
814	-0.17
814	-0.17
815	-0.166
815	-0.163
816	-0.16
816	-0.16
817	-0.163
817	-0.166
817	-0.166
818	-0.165
818	-0.161
819	-0.156
819	-0.154
820	-0.155
820	-0.158
820	-0.159
821	-0.159
821	-0.158
822	-0.158
822	-0.156
823	-0.154
823	-0.154
823	-0.155
824	-0.153
824	-0.147
825	-0.14
825	-0.13
826	-0.122
826	-0.114
826	-0.106
827	-0.098
827	-0.091
828	-0.085
828	-0.08
829	-0.074
829	-0.069
829	-0.066
830	-0.064
830	-0.061
831	-0.056
831	-0.052
832	-0.049
832	-0.046
832	-0.042
833	-0.039
833	-0.036
834	-0.034
834	-0.031
835	-0.029
835	-0.027
835	-0.026
836	-0.024
836	-0.022
837	-0.021
837	-0.02
838	-0.018
838	-0.017
839	-0.016
839	-0.015
839	-0.015
840	-0.014
840	-0.013
841	-0.012
841	-0.01
842	-0.009
842	-0.008
842	-0.006
843	-0.005
843	-0.003
844	-0.001
844	0.001
845	0.003
845	0.005
845	0.007
846	0.009
846	0.009
847	0.01
847	0.011
848	0.011
848	0.011
848	0.011
849	0.012
849	0.012
850	0.011
850	0.01
851	0.011
851	0.011
851	0.011
852	0.011
852	0.011
853	0.012
853	0.012
854	0.013
854	0.013
854	0.014
855	0.014
855	0.014
856	0.014
856	0.015
857	0.015
857	0.015
857	0.015
858	0.016
858	0.016
859	0.016
859	0.016
860	0.017
860	0.018
860	0.019
861	0.02
861	0.021
862	0.021
862	0.022
863	0.022
863	0.022
863	0.022
864	0.022
864	0.022
865	0.023
865	0.023
866	0.022
866	0.022
866	0.023
867	0.023
867	0.024
868	0.025
868	0.026
869	0.027
869	0.027
869	0.027
870	0.027
870	0.027
871	0.027
871	0.026
872	0.026
872	0.025
872	0.024
873	0.023
873	0.022
874	0.022
874	0.022
875	0.022
875	0.022
875	0.022
876	0.023
876	0.024
877	0.025
877	0.026
878	0.028
878	0.029
878	0.031
879	0.032
879	0.033
880	0.033
880	0.034
881	0.034
881	0.034
881	0.033
882	0.033
882	0.032
883	0.032
883	0.032
884	0.032
884	0.033
884	0.034
885	0.035
885	0.036
886	0.037
886	0.039
887	0.039
887	0.04
887	0.04
888	0.04
888	0.039
889	0.039
889	0.039
890	0.038
890	0.037
890	0.036
891	0.035
891	0.034
892	0.034
892	0.033
893	0.033
893	0.032
893	0.032
894	0.033
894	0.032
895	0.033
895	0.033
895	0.033
896	0.033
896	0.033
897	0.033
897	0.032
898	0.032
898	0.032
898	0.032
899	0.033
899	0.033
900	0.034
900	0.035
901	0.036
901	0.037
901	0.038
902	0.039
902	0.039
903	0.04
903	0.04
904	0.04
904	0.041
904	0.041
905	0.041
905	0.041
906	0.041
906	0.04
907	0.04
907	0.04
907	0.04
908	0.04
908	0.041
909	0.041
909	0.042
910	0.043
910	0.043
910	0.044
911	0.045
911	0.046
912	0.048
912	0.049
913	0.049
913	0.05
913	0.05
914	0.05
914	0.049
915	0.049
915	0.048
916	0.047
916	0.046
916	0.044
917	0.043
917	0.042
918	0.041
918	0.04
918	0.04
919	0.039
919	0.039
920	0.039
920	0.039
921	0.039
921	0.039
921	0.039
922	0.039
922	0.04
923	0.04
923	0.04
924	0.04
924	0.04
924	0.04
925	0.039
925	0.039
926	0.039
926	0.039
927	0.039
927	0.039
927	0.039
928	0.039
928	0.038
929	0.038
929	0.038
930	0.037
930	0.037
930	0.036
931	0.036
931	0.035
932	0.035
932	0.034
933	0.034
933	0.034
933	0.034
934	0.035
934	0.035
935	0.036
935	0.036
935	0.037
936	0.038
936	0.039
937	0.04
937	0.041
938	0.042
938	0.043
938	0.044
939	0.045
939	0.046
940	0.047
940	0.048
941	0.049
941	0.05
941	0.052
942	0.053
942	0.054
943	0.054
943	0.054
944	0.055
944	0.055
944	0.055
945	0.055
945	0.055
946	0.056
946	0.055
946	0.055
947	0.055
947	0.055
948	0.054
948	0.054
949	0.054
949	0.054
949	0.053
950	0.053
950	0.053
951	0.053
951	0.053
952	0.053
952	0.053
952	0.054
953	0.054
953	0.055
954	0.054
954	0.054
955	0.054
955	0.053
955	0.053
956	0.054
956	0.053
957	0.052
957	0.051
957	0.05
958	0.049
958	0.049
959	0.048
959	0.047
960	0.046
960	0.045
960	0.044
961	0.044
961	0.043
962	0.043
962	0.042
963	0.042
963	0.042
963	0.043
964	0.043
964	0.044
965	0.045
965	0.046
966	0.047
966	0.048
966	0.049
967	0.05
967	0.051
968	0.051
968	0.052
968	0.053
969	0.053
969	0.054
970	0.054
970	0.054
971	0.054
971	0.054
971	0.053
972	0.053
972	0.054
973	0.054
973	0.054
974	0.053
974	0.054
974	0.054
975	0.054
975	0.055
976	0.055
976	0.055
976	0.054
977	0.053
977	0.052
978	0.05
978	0.049
979	0.047
979	0.046
979	0.045
980	0.043
980	0.042
981	0.042
981	0.041
982	0.042
982	0.043
982	0.044
983	0.044
983	0.045
984	0.046
984	0.047
984	0.048
985	0.049
985	0.05
986	0.05
986	0.05
987	0.05
987	0.05
987	0.05
988	0.051
988	0.051
989	0.051
989	0.05
990	0.051
990	0.051
990	0.052
991	0.052
991	0.053
992	0.054
992	0.055
992	0.055
993	0.056
993	0.056
994	0.057
994	0.057
995	0.057
995	0.056
995	0.056
996	0.056
996	0.055
997	0.055
997	0.054
997	0.054
998	0.054
998	0.054
999	0.054
999	0.054
1000	0.054
1000	0.054
1000	0.054
1001	0.053
1001	0.053
1002	0.053
1002	0.053
1003	0.052
1003	0.051
1003	0.051
1004	0.05
1004	0.049
1005	0.048
1005	0.047
1005	0.046
1006	0.045
1006	0.044
1007	0.043
1007	0.042
1008	0.042
1008	0.041
1008	0.041
1009	0.041
1009	0.041
1010	0.041
1010	0.041
1010	0.041
1011	0.041
1011	0.041
1012	0.041
1012	0.041
1013	0.041
1013	0.04
1013	0.039
1014	0.039
1014	0.038
1015	0.037
1015	0.036
1016	0.036
1016	0.035
1016	0.035
1017	0.034
1017	0.034
1018	0.034
1018	0.035
1018	0.035
1019	0.036
1019	0.036
1020	0.037
1020	0.037
1021	0.037
1021	0.037
1021	0.038
1022	0.038
1022	0.038
1023	0.038
1023	0.038
1023	0.038
1024	0.038
1024	0.037
1025	0.037
1025	0.037
1026	0.036
1026	0.036
1026	0.035
1027	0.035
1027	0.035
1028	0.036
1028	0.036
1028	0.036
1029	0.036
1029	0.037
1030	0.037
1030	0.037
1031	0.038
1031	0.038
1031	0.038
1032	0.038
1032	0.038
1033	0.038
1033	0.037
1033	0.037
1034	0.036
1034	0.035
1035	0.034
1035	0.034
1036	0.033
1036	0.033
1036	0.033
1037	0.033
1037	0.034
1038	0.034
1038	0.034
1039	0.035
1039	0.036
1039	0.037
1040	0.038
1040	0.039
1041	0.04
1041	0.04
1041	0.041
1042	0.041
1042	0.042
1043	0.042
1043	0.042
1044	0.043
1044	0.044
1044	0.045
1045	0.045
1045	0.046
1046	0.047
1046	0.048
1046	0.049
1047	0.051
1047	0.053
1048	0.054
1048	0.055
1049	0.056
1049	0.056
1049	0.056
1050	0.057
1050	0.057
1051	0.057
1051	0.057
1051	0.057
1052	0.058
1052	0.058
1053	0.058
1053	0.059
1053	0.06
1054	0.06
1054	0.061
1055	0.062
1055	0.063
1056	0.062
1056	0.062
1056	0.062
1057	0.062
1057	0.062
1058	0.063
1058	0.063
1058	0.064
1059	0.064
1059	0.065
1060	0.066
1060	0.068
1061	0.07
1061	0.072
1061	0.074
1062	0.075
1062	0.076
1063	0.077
1063	0.078
1063	0.079
1064	0.08
1064	0.081
1065	0.082
1065	0.083
1066	0.083
1066	0.084
1066	0.085
1067	0.086
1067	0.087
1068	0.088
1068	0.088
1068	0.088
1069	0.089
1069	0.088
1070	0.089
1070	0.09
1071	0.092
1071	0.093
1071	0.095
1072	0.097
1072	0.1
1073	0.102
1073	0.105
1073	0.108
1074	0.111
1074	0.114
1075	0.115
1075	0.117
1076	0.119
1076	0.122
1076	0.123
1077	0.125
1077	0.128
1078	0.13
1078	0.134
1078	0.138
1079	0.141
1079	0.146
1080	0.149
1080	0.153
1080	0.156
1081	0.16
1081	0.164
1082	0.168
1082	0.172
1083	0.176
1083	0.18
1083	0.185
1084	0.19
1084	0.196
1085	0.201
1085	0.208
1085	0.214
1086	0.219
1086	0.223
1087	0.231
1087	0.237
1088	0.242
1088	0.248
1088	0.256
1089	0.263
1089	0.272
1090	0.283
1090	0.296
1090	0.309
1091	0.323
1091	0.34
1092	0.357
1092	0.381
1092	0.402
1093	0.424
1093	0.452
1094	0.479
1094	0.508
1095	0.538
1095	0.576
1095	0.625
1096	0.676
1096	0.736
1097	0.814
1097	0.906
1097	1.038
1098	1.219
1098	1.595
1099	-0
1099	-0
1100	-0
1100	-0
1100	-0
1101	-0
1101	-0
1102	-0
1102	-0
1102	-0
1103	-0
1103	-0
1104	-0
1104	-0
1104	-0
1105	-0
1105	-0
1106	-0
1106	-0
1107	-0
1107	-0
1107	-0
1108	-0
1108	-0
1109	-0
1109	-0
1109	-0
1110	-0
1110	-0
1111	-0
1111	-0
