Data from 15c-2-5a_Absorbance__70__04346.txt Node

Date: Wed Jan 17 14:32:51 CET 2024
User: Marek
Spectrometer: MAYP115816
Trigger mode: 0
Integration Time (sec): 2.000000E-1
Scans to average: 10
Electric dark correction enabled: true
Nonlinearity correction enabled: true
Boxcar width: 5
XAxis mode: Wavelengths
Number of Pixels in Spectrum: 2068
>>>>>Begin Spectral Data<<<<<
199	-2.242
199	-2.094
200	-1.928
200	-1.799
201	-1.718
201	-1.666
202	-1.589
202	-1.53
203	-1.476
203	-1.429
204	-1.402
204	-1.376
205	-1.352
205	-1.341
205	-1.338
206	-1.337
206	-1.332
207	-1.33
207	-1.325
208	-1.323
208	-1.322
209	-1.318
209	-1.315
210	-1.314
210	-1.314
211	-1.312
211	-1.311
212	-1.311
212	-1.31
213	-1.309
213	-1.307
213	-1.306
214	-1.304
214	-1.304
215	-1.302
215	-1.3
216	-1.3
216	-1.296
217	-1.291
217	-1.289
218	-1.288
218	-1.284
219	-1.282
219	-1.281
220	-1.277
220	-1.273
221	-1.268
221	-1.264
221	-1.26
222	-1.256
222	-1.25
223	-1.245
223	-1.241
224	-1.235
224	-1.227
225	-1.218
225	-1.211
226	-1.201
226	-1.189
227	-1.175
227	-1.16
228	-1.144
228	-1.124
229	-1.102
229	-1.077
229	-1.048
230	-1.017
230	-0.984
231	-0.946
231	-0.907
232	-0.865
232	-0.82
233	-0.772
233	-0.722
234	-0.672
234	-0.621
235	-0.571
235	-0.521
236	-0.471
236	-0.423
236	-0.375
237	-0.33
237	-0.286
238	-0.244
238	-0.205
239	-0.167
239	-0.131
240	-0.098
240	-0.067
241	-0.037
241	-0.011
242	0.014
242	0.038
243	0.059
243	0.078
243	0.097
244	0.114
244	0.129
245	0.143
245	0.156
246	0.168
246	0.18
247	0.19
247	0.2
248	0.209
248	0.217
249	0.225
249	0.232
250	0.239
250	0.245
250	0.251
251	0.257
251	0.262
252	0.267
252	0.271
253	0.276
253	0.279
254	0.283
254	0.286
255	0.289
255	0.292
256	0.295
256	0.297
257	0.299
257	0.301
258	0.303
258	0.304
258	0.306
259	0.307
259	0.308
260	0.31
260	0.31
261	0.311
261	0.312
262	0.312
262	0.313
263	0.313
263	0.313
264	0.314
264	0.314
265	0.314
265	0.314
265	0.313
266	0.313
266	0.313
267	0.313
267	0.313
268	0.312
268	0.311
269	0.31
269	0.309
270	0.308
270	0.308
271	0.306
271	0.305
272	0.304
272	0.304
272	0.303
273	0.302
273	0.301
274	0.3
274	0.299
275	0.298
275	0.297
276	0.297
276	0.296
277	0.294
277	0.293
278	0.291
278	0.29
278	0.288
279	0.285
279	0.284
280	0.283
280	0.282
281	0.28
281	0.279
282	0.279
282	0.278
283	0.277
283	0.277
284	0.277
284	0.277
285	0.277
285	0.276
285	0.275
286	0.275
286	0.274
287	0.273
287	0.273
288	0.272
288	0.271
289	0.27
289	0.27
290	0.269
290	0.268
291	0.267
291	0.267
292	0.266
292	0.265
292	0.264
293	0.264
293	0.263
294	0.262
294	0.262
295	0.261
295	0.261
296	0.26
296	0.259
297	0.259
297	0.259
298	0.258
298	0.257
298	0.257
299	0.256
299	0.256
300	0.255
300	0.255
301	0.254
301	0.254
302	0.253
302	0.252
303	0.252
303	0.252
304	0.251
304	0.25
305	0.25
305	0.249
305	0.248
306	0.247
306	0.247
307	0.246
307	0.245
308	0.245
308	0.244
309	0.243
309	0.243
310	0.242
310	0.241
311	0.241
311	0.24
311	0.239
312	0.238
312	0.238
313	0.237
313	0.236
314	0.235
314	0.234
315	0.234
315	0.233
316	0.232
316	0.231
317	0.23
317	0.229
318	0.229
318	0.228
318	0.227
319	0.226
319	0.225
320	0.224
320	0.223
321	0.222
321	0.221
322	0.221
322	0.22
323	0.219
323	0.218
324	0.217
324	0.216
324	0.215
325	0.214
325	0.214
326	0.213
326	0.212
327	0.211
327	0.211
328	0.21
328	0.209
329	0.208
329	0.207
330	0.207
330	0.206
330	0.205
331	0.204
331	0.203
332	0.202
332	0.201
333	0.2
333	0.2
334	0.199
334	0.198
335	0.197
335	0.196
336	0.195
336	0.195
336	0.194
337	0.193
337	0.192
338	0.192
338	0.191
339	0.19
339	0.19
340	0.189
340	0.188
341	0.188
341	0.187
342	0.186
342	0.186
342	0.185
343	0.184
343	0.184
344	0.183
344	0.182
345	0.181
345	0.181
346	0.18
346	0.179
347	0.178
347	0.178
348	0.177
348	0.176
348	0.175
349	0.175
349	0.174
350	0.173
350	0.172
351	0.171
351	0.17
352	0.169
352	0.168
353	0.167
353	0.166
354	0.165
354	0.164
354	0.163
355	0.162
355	0.161
356	0.16
356	0.159
357	0.158
357	0.158
358	0.158
358	0.158
359	0.159
359	0.159
360	0.16
360	0.16
360	0.161
361	0.161
361	0.162
362	0.163
362	0.163
363	0.163
363	0.162
364	0.162
364	0.161
365	0.161
365	0.16
366	0.16
366	0.159
366	0.159
367	0.159
367	0.158
368	0.158
368	0.157
369	0.157
369	0.157
370	0.156
370	0.156
371	0.155
371	0.155
372	0.154
372	0.154
372	0.153
373	0.153
373	0.153
374	0.153
374	0.153
375	0.153
375	0.153
376	0.153
376	0.153
377	0.153
377	0.154
378	0.154
378	0.154
378	0.155
379	0.155
379	0.155
380	0.155
380	0.155
381	0.155
381	0.154
382	0.154
382	0.154
383	0.153
383	0.153
383	0.152
384	0.152
384	0.151
385	0.151
385	0.151
386	0.151
386	0.151
387	0.151
387	0.151
388	0.151
388	0.151
389	0.151
389	0.151
389	0.151
390	0.151
390	0.151
391	0.152
391	0.152
392	0.152
392	0.152
393	0.152
393	0.152
394	0.152
394	0.152
394	0.152
395	0.152
395	0.151
396	0.151
396	0.151
397	0.151
397	0.152
398	0.151
398	0.151
399	0.151
399	0.151
400	0.151
400	0.151
400	0.15
401	0.149
401	0.148
402	0.147
402	0.146
403	0.146
403	0.146
404	0.146
404	0.146
405	0.146
405	0.145
405	0.145
406	0.144
406	0.144
407	0.144
407	0.144
408	0.143
408	0.142
409	0.141
409	0.141
410	0.141
410	0.141
411	0.141
411	0.141
411	0.141
412	0.141
412	0.14
413	0.14
413	0.14
414	0.14
414	0.14
415	0.139
415	0.138
416	0.138
416	0.137
416	0.137
417	0.137
417	0.136
418	0.137
418	0.137
419	0.138
419	0.138
420	0.14
420	0.14
421	0.141
421	0.142
421	0.142
422	0.142
422	0.143
423	0.143
423	0.143
424	0.142
424	0.141
425	0.14
425	0.139
426	0.138
426	0.138
427	0.138
427	0.138
427	0.138
428	0.139
428	0.139
429	0.14
429	0.141
430	0.141
430	0.141
431	0.14
431	0.14
432	0.14
432	0.139
432	0.138
433	0.136
433	0.135
434	0.134
434	0.134
435	0.134
435	0.134
436	0.134
436	0.135
437	0.135
437	0.135
437	0.135
438	0.135
438	0.135
439	0.135
439	0.135
440	0.134
440	0.134
441	0.134
441	0.134
442	0.134
442	0.134
442	0.135
443	0.135
443	0.136
444	0.136
444	0.136
445	0.137
445	0.137
446	0.137
446	0.137
447	0.137
447	0.137
447	0.136
448	0.136
448	0.136
449	0.136
449	0.135
450	0.135
450	0.135
451	0.135
451	0.134
452	0.134
452	0.133
452	0.133
453	0.132
453	0.131
454	0.131
454	0.13
455	0.13
455	0.129
456	0.129
456	0.129
457	0.129
457	0.128
458	0.128
458	0.128
458	0.128
459	0.129
459	0.129
460	0.128
460	0.127
461	0.126
461	0.126
462	0.125
462	0.126
463	0.126
463	0.126
463	0.127
464	0.127
464	0.127
465	0.127
465	0.127
466	0.127
466	0.128
467	0.127
467	0.127
467	0.126
468	0.124
468	0.122
469	0.121
469	0.119
470	0.119
470	0.118
471	0.118
471	0.117
472	0.117
472	0.117
472	0.117
473	0.119
473	0.12
474	0.121
474	0.122
475	0.123
475	0.123
476	0.124
476	0.124
477	0.124
477	0.124
477	0.124
478	0.124
478	0.124
479	0.124
479	0.124
480	0.125
480	0.126
481	0.126
481	0.127
482	0.128
482	0.129
482	0.131
483	0.133
483	0.136
484	0.14
484	0.142
485	0.144
485	0.145
486	0.146
486	0.147
487	0.148
487	0.148
487	0.148
488	0.147
488	0.145
489	0.142
489	0.14
490	0.139
490	0.138
491	0.137
491	0.137
492	0.137
492	0.137
492	0.137
493	0.137
493	0.138
494	0.14
494	0.142
495	0.144
495	0.145
496	0.146
496	0.147
496	0.148
497	0.15
497	0.15
498	0.151
498	0.152
499	0.151
499	0.151
500	0.151
500	0.153
501	0.154
501	0.155
501	0.156
502	0.158
502	0.159
503	0.16
503	0.162
504	0.162
504	0.163
505	0.163
505	0.163
506	0.163
506	0.164
506	0.164
507	0.164
507	0.164
508	0.164
508	0.164
509	0.165
509	0.166
510	0.166
510	0.167
511	0.167
511	0.167
511	0.166
512	0.166
512	0.166
513	0.165
513	0.164
514	0.163
514	0.162
515	0.162
515	0.161
515	0.16
516	0.159
516	0.159
517	0.159
517	0.159
518	0.16
518	0.159
519	0.159
519	0.158
520	0.156
520	0.154
520	0.152
521	0.149
521	0.146
522	0.143
522	0.14
523	0.138
523	0.136
524	0.136
524	0.136
524	0.136
525	0.138
525	0.14
526	0.142
526	0.145
527	0.148
527	0.151
528	0.154
528	0.156
529	0.158
529	0.159
529	0.161
530	0.162
530	0.162
531	0.163
531	0.163
532	0.163
532	0.163
533	0.163
533	0.164
533	0.164
534	0.163
534	0.163
535	0.162
535	0.162
536	0.161
536	0.161
537	0.161
537	0.16
538	0.16
538	0.158
538	0.157
539	0.157
539	0.156
540	0.156
540	0.155
541	0.153
541	0.151
542	0.15
542	0.148
542	0.147
543	0.146
543	0.144
544	0.143
544	0.142
545	0.141
545	0.141
546	0.142
546	0.141
547	0.14
547	0.138
547	0.135
548	0.134
548	0.132
549	0.13
549	0.128
550	0.126
550	0.124
551	0.122
551	0.12
551	0.118
552	0.117
552	0.117
553	0.116
553	0.116
554	0.116
554	0.115
555	0.112
555	0.11
556	0.107
556	0.104
556	0.101
557	0.098
557	0.096
558	0.094
558	0.093
559	0.091
559	0.09
560	0.09
560	0.089
560	0.089
561	0.09
561	0.09
562	0.09
562	0.089
563	0.087
563	0.085
564	0.083
564	0.08
564	0.078
565	0.077
565	0.076
566	0.075
566	0.074
567	0.074
567	0.076
568	0.077
568	0.08
568	0.082
569	0.085
569	0.089
570	0.091
570	0.091
571	0.092
571	0.094
572	0.095
572	0.095
573	0.095
573	0.095
573	0.094
574	0.093
574	0.092
575	0.092
575	0.093
576	0.095
576	0.094
577	0.092
577	0.091
577	0.091
578	0.09
578	0.09
579	0.091
579	0.093
580	0.092
580	0.089
581	0.085
581	0.083
581	0.081
582	0.081
582	0.081
583	0.082
583	0.082
584	0.079
584	0.074
585	0.072
585	0.072
585	0.072
586	0.072
586	0.072
587	0.07
587	0.067
588	0.063
588	0.061
589	0.059
589	0.058
590	0.057
590	0.056
590	0.057
591	0.059
591	0.059
592	0.059
592	0.058
593	0.058
593	0.058
594	0.058
594	0.056
594	0.055
595	0.054
595	0.053
596	0.051
596	0.051
597	0.054
597	0.056
598	0.057
598	0.059
598	0.06
599	0.061
599	0.061
600	0.061
600	0.059
601	0.058
601	0.057
602	0.055
602	0.053
602	0.052
603	0.051
603	0.052
604	0.053
604	0.054
605	0.056
605	0.059
606	0.06
606	0.059
606	0.058
607	0.058
607	0.057
608	0.057
608	0.054
609	0.053
609	0.052
610	0.051
610	0.049
610	0.049
611	0.05
611	0.052
612	0.053
612	0.056
613	0.058
613	0.059
614	0.059
614	0.058
614	0.057
615	0.056
615	0.055
616	0.054
616	0.052
617	0.051
617	0.048
618	0.045
618	0.043
618	0.042
619	0.042
619	0.042
620	0.044
620	0.045
621	0.045
621	0.046
622	0.046
622	0.047
622	0.047
623	0.047
623	0.048
624	0.049
624	0.048
625	0.048
625	0.048
626	0.047
626	0.047
626	0.047
627	0.048
627	0.048
628	0.048
628	0.048
629	0.048
629	0.048
630	0.047
630	0.045
630	0.045
631	0.045
631	0.045
632	0.045
632	0.045
633	0.046
633	0.047
634	0.048
634	0.05
634	0.053
635	0.055
635	0.056
636	0.057
636	0.058
637	0.059
637	0.059
638	0.06
638	0.061
638	0.062
639	0.062
639	0.062
640	0.063
640	0.063
641	0.064
641	0.065
642	0.067
642	0.068
642	0.07
643	0.071
643	0.072
644	0.074
644	0.075
645	0.077
645	0.079
646	0.081
646	0.085
646	0.088
647	0.092
647	0.095
648	0.098
648	0.101
649	0.103
649	0.106
650	0.109
650	0.112
650	0.115
651	0.117
651	0.119
652	0.12
652	0.122
653	0.124
653	0.134
653	0.157
654	0.13
654	0.109
655	0.11
655	0.112
656	0.113
656	0.115
657	0.116
657	0.117
657	0.118
658	0.115
658	0.097
659	0.12
659	0.151
660	0.155
660	0.157
661	0.158
661	0.16
661	0.163
662	0.166
662	0.17
663	0.174
663	0.178
664	0.181
664	0.184
665	0.186
665	0.189
665	0.191
666	0.193
666	0.195
667	0.196
667	0.198
668	0.2
668	0.202
669	0.204
669	0.207
669	0.212
670	0.216
670	0.22
671	0.223
671	0.225
672	0.227
672	0.229
672	0.23
673	0.231
673	0.232
674	0.233
674	0.232
675	0.231
675	0.231
676	0.233
676	0.234
676	0.235
677	0.237
677	0.239
678	0.241
678	0.243
679	0.244
679	0.245
680	0.247
680	0.249
680	0.25
681	0.25
681	0.251
682	0.252
682	0.254
683	0.256
683	0.259
684	0.262
684	0.263
684	0.263
685	0.264
685	0.266
686	0.267
686	0.268
687	0.268
687	0.268
687	0.267
688	0.267
688	0.265
689	0.266
689	0.267
690	0.268
690	0.267
691	0.267
691	0.267
691	0.267
692	0.266
692	0.265
693	0.264
693	0.264
694	0.263
694	0.26
695	0.26
695	0.262
695	0.263
696	0.262
696	0.261
697	0.26
697	0.259
698	0.257
698	0.255
698	0.254
699	0.253
699	0.251
700	0.247
700	0.246
701	0.245
701	0.245
702	0.244
702	0.243
702	0.242
703	0.241
703	0.24
704	0.238
704	0.238
705	0.238
705	0.238
705	0.237
706	0.237
706	0.237
707	0.236
707	0.234
708	0.232
708	0.231
709	0.23
709	0.228
709	0.224
710	0.22
710	0.217
711	0.215
711	0.213
712	0.211
712	0.209
713	0.208
713	0.206
713	0.205
714	0.202
714	0.2
715	0.198
715	0.196
716	0.193
716	0.191
716	0.189
717	0.187
717	0.185
718	0.182
718	0.18
719	0.178
719	0.177
720	0.175
720	0.172
720	0.17
721	0.167
721	0.164
722	0.161
722	0.158
723	0.156
723	0.154
723	0.152
724	0.149
724	0.147
725	0.144
725	0.142
726	0.14
726	0.138
727	0.136
727	0.134
727	0.133
728	0.13
728	0.128
729	0.128
729	0.128
730	0.126
730	0.125
730	0.123
731	0.122
731	0.121
732	0.12
732	0.119
733	0.117
733	0.115
734	0.113
734	0.11
734	0.108
735	0.107
735	0.105
736	0.103
736	0.101
737	0.099
737	0.099
737	0.097
738	0.095
738	0.091
739	0.089
739	0.086
740	0.083
740	0.081
741	0.079
741	0.076
741	0.072
742	0.066
742	0.062
743	0.059
743	0.056
744	0.053
744	0.051
744	0.049
745	0.046
745	0.043
746	0.04
746	0.039
747	0.038
747	0.038
748	0.037
748	0.037
748	0.036
749	0.034
749	0.034
750	0.033
750	0.033
751	0.033
751	0.033
751	0.035
752	0.035
752	0.034
753	0.034
753	0.034
754	0.034
754	0.034
754	0.035
755	0.036
755	0.037
756	0.037
756	0.034
757	0.033
757	0.032
758	0.031
758	0.03
758	0.029
759	0.028
759	0.025
760	0.022
760	0.018
761	0.015
761	0.014
761	0.013
762	0.011
762	0.011
763	0.01
763	0.008
764	0.005
764	0.002
764	-0
765	-0.003
765	-0.005
766	-0.007
766	-0.007
767	-0.008
767	-0.012
768	-0.016
768	-0.019
768	-0.021
769	-0.021
769	-0.022
770	-0.023
770	-0.025
771	-0.028
771	-0.031
771	-0.034
772	-0.037
772	-0.04
773	-0.043
773	-0.046
774	-0.051
774	-0.055
775	-0.058
775	-0.062
775	-0.067
776	-0.071
776	-0.076
777	-0.081
777	-0.086
778	-0.091
778	-0.097
778	-0.102
779	-0.106
779	-0.109
780	-0.113
780	-0.119
781	-0.124
781	-0.128
781	-0.132
782	-0.137
782	-0.141
783	-0.145
783	-0.147
784	-0.15
784	-0.152
784	-0.154
785	-0.155
785	-0.156
786	-0.156
786	-0.153
787	-0.148
787	-0.143
788	-0.142
788	-0.143
788	-0.144
789	-0.146
789	-0.145
790	-0.142
790	-0.141
791	-0.142
791	-0.144
791	-0.146
792	-0.141
792	-0.13
793	-0.124
793	-0.12
794	-0.119
794	-0.121
794	-0.125
795	-0.127
795	-0.128
796	-0.128
796	-0.131
797	-0.14
797	-0.151
797	-0.158
798	-0.163
798	-0.166
799	-0.166
799	-0.165
800	-0.165
800	-0.166
801	-0.169
801	-0.17
801	-0.17
802	-0.171
802	-0.173
803	-0.173
803	-0.174
804	-0.173
804	-0.168
804	-0.161
805	-0.158
805	-0.155
806	-0.153
806	-0.152
807	-0.151
807	-0.15
807	-0.15
808	-0.15
808	-0.152
809	-0.157
809	-0.162
810	-0.166
810	-0.169
810	-0.173
811	-0.176
811	-0.176
812	-0.172
812	-0.169
813	-0.169
813	-0.17
813	-0.17
814	-0.171
814	-0.17
815	-0.167
815	-0.163
816	-0.161
816	-0.16
817	-0.164
817	-0.167
817	-0.167
818	-0.166
818	-0.162
819	-0.157
819	-0.154
820	-0.156
820	-0.158
820	-0.16
821	-0.159
821	-0.157
822	-0.154
822	-0.15
823	-0.146
823	-0.144
823	-0.143
824	-0.139
824	-0.131
825	-0.121
825	-0.11
826	-0.101
826	-0.093
826	-0.086
827	-0.08
827	-0.074
828	-0.068
828	-0.064
829	-0.06
829	-0.056
829	-0.054
830	-0.053
830	-0.051
831	-0.046
831	-0.043
832	-0.04
832	-0.036
832	-0.033
833	-0.029
833	-0.025
834	-0.022
834	-0.019
835	-0.016
835	-0.014
835	-0.012
836	-0.01
836	-0.009
837	-0.008
837	-0.007
838	-0.007
838	-0.007
839	-0.007
839	-0.007
839	-0.008
840	-0.007
840	-0.007
841	-0.006
841	-0.006
842	-0.005
842	-0.003
842	-0.002
843	-0.001
843	-0
844	0.001
844	0.002
845	0.003
845	0.004
845	0.005
846	0.006
846	0.006
847	0.006
847	0.007
848	0.008
848	0.009
848	0.01
849	0.011
849	0.012
850	0.013
850	0.013
851	0.014
851	0.015
851	0.016
852	0.016
852	0.017
853	0.018
853	0.019
854	0.019
854	0.02
854	0.02
855	0.021
855	0.021
856	0.021
856	0.021
857	0.022
857	0.022
857	0.022
858	0.022
858	0.022
859	0.022
859	0.023
860	0.024
860	0.024
860	0.025
861	0.025
861	0.026
862	0.026
862	0.026
863	0.026
863	0.026
863	0.026
864	0.026
864	0.026
865	0.027
865	0.027
866	0.027
866	0.027
866	0.027
867	0.028
867	0.029
868	0.03
868	0.031
869	0.032
869	0.033
869	0.034
870	0.035
870	0.035
871	0.036
871	0.036
872	0.036
872	0.035
872	0.034
873	0.033
873	0.032
874	0.031
874	0.031
875	0.03
875	0.03
875	0.03
876	0.03
876	0.03
877	0.031
877	0.032
878	0.033
878	0.035
878	0.036
879	0.037
879	0.038
880	0.039
880	0.039
881	0.039
881	0.039
881	0.039
882	0.039
882	0.039
883	0.039
883	0.038
884	0.039
884	0.039
884	0.039
885	0.04
885	0.041
886	0.042
886	0.043
887	0.043
887	0.044
887	0.044
888	0.044
888	0.044
889	0.044
889	0.044
890	0.043
890	0.042
890	0.041
891	0.039
891	0.038
892	0.036
892	0.035
893	0.033
893	0.032
893	0.031
894	0.031
894	0.03
895	0.029
895	0.029
895	0.028
896	0.028
896	0.029
897	0.029
897	0.03
898	0.031
898	0.031
898	0.032
899	0.033
899	0.035
900	0.036
900	0.037
901	0.039
901	0.041
901	0.042
902	0.043
902	0.044
903	0.045
903	0.046
904	0.047
904	0.047
904	0.048
905	0.048
905	0.049
906	0.049
906	0.049
907	0.049
907	0.049
907	0.049
908	0.049
908	0.049
909	0.049
909	0.049
910	0.049
910	0.049
910	0.05
911	0.05
911	0.051
912	0.052
912	0.052
913	0.052
913	0.052
913	0.052
914	0.052
914	0.051
915	0.05
915	0.049
916	0.048
916	0.046
916	0.045
917	0.043
917	0.042
918	0.041
918	0.041
918	0.041
919	0.041
919	0.041
920	0.041
920	0.042
921	0.042
921	0.042
921	0.043
922	0.043
922	0.044
923	0.044
923	0.044
924	0.044
924	0.043
924	0.043
925	0.042
925	0.042
926	0.042
926	0.042
927	0.042
927	0.042
927	0.042
928	0.042
928	0.041
929	0.042
929	0.042
930	0.041
930	0.041
930	0.041
931	0.04
931	0.04
932	0.039
932	0.039
933	0.038
933	0.038
933	0.039
934	0.039
934	0.039
935	0.039
935	0.04
935	0.04
936	0.041
936	0.041
937	0.042
937	0.042
938	0.042
938	0.042
938	0.043
939	0.043
939	0.044
940	0.044
940	0.045
941	0.046
941	0.047
941	0.049
942	0.05
942	0.052
943	0.053
943	0.053
944	0.054
944	0.054
944	0.054
945	0.055
945	0.055
946	0.055
946	0.054
946	0.054
947	0.054
947	0.053
948	0.053
948	0.053
949	0.052
949	0.052
949	0.052
950	0.052
950	0.051
951	0.051
951	0.05
952	0.05
952	0.05
952	0.05
953	0.05
953	0.05
954	0.049
954	0.049
955	0.049
955	0.049
955	0.05
956	0.051
956	0.051
957	0.051
957	0.05
957	0.05
958	0.049
958	0.049
959	0.049
959	0.048
960	0.047
960	0.046
960	0.045
961	0.044
961	0.044
962	0.043
962	0.043
963	0.043
963	0.043
963	0.043
964	0.043
964	0.044
965	0.044
965	0.045
966	0.045
966	0.046
966	0.047
967	0.047
967	0.048
968	0.048
968	0.048
968	0.048
969	0.048
969	0.048
970	0.047
970	0.047
971	0.047
971	0.047
971	0.047
972	0.047
972	0.048
973	0.049
973	0.049
974	0.05
974	0.05
974	0.051
975	0.051
975	0.052
976	0.052
976	0.052
976	0.052
977	0.051
977	0.05
978	0.049
978	0.048
979	0.047
979	0.046
979	0.045
980	0.044
980	0.044
981	0.043
981	0.043
982	0.043
982	0.044
982	0.045
983	0.045
983	0.046
984	0.046
984	0.047
984	0.048
985	0.049
985	0.05
986	0.05
986	0.05
987	0.051
987	0.051
987	0.052
988	0.052
988	0.053
989	0.053
989	0.053
990	0.054
990	0.054
990	0.056
991	0.057
991	0.058
992	0.059
992	0.059
992	0.06
993	0.06
993	0.06
994	0.059
994	0.059
995	0.058
995	0.057
995	0.056
996	0.055
996	0.054
997	0.053
997	0.052
997	0.052
998	0.052
998	0.052
999	0.052
999	0.052
1000	0.052
1000	0.052
1000	0.053
1001	0.053
1001	0.053
1002	0.053
1002	0.053
1003	0.053
1003	0.053
1003	0.053
1004	0.053
1004	0.052
1005	0.052
1005	0.052
1005	0.051
1006	0.05
1006	0.049
1007	0.049
1007	0.048
1008	0.047
1008	0.047
1008	0.046
1009	0.046
1009	0.045
1010	0.045
1010	0.045
1010	0.045
1011	0.044
1011	0.044
1012	0.044
1012	0.043
1013	0.043
1013	0.042
1013	0.041
1014	0.04
1014	0.04
1015	0.039
1015	0.039
1016	0.038
1016	0.038
1016	0.037
1017	0.037
1017	0.038
1018	0.038
1018	0.039
1018	0.04
1019	0.041
1019	0.041
1020	0.042
1020	0.043
1021	0.043
1021	0.044
1021	0.044
1022	0.044
1022	0.044
1023	0.044
1023	0.043
1023	0.043
1024	0.042
1024	0.041
1025	0.04
1025	0.04
1026	0.039
1026	0.038
1026	0.038
1027	0.038
1027	0.038
1028	0.038
1028	0.038
1028	0.039
1029	0.039
1029	0.04
1030	0.04
1030	0.04
1031	0.04
1031	0.041
1031	0.041
1032	0.041
1032	0.041
1033	0.041
1033	0.041
1033	0.041
1034	0.04
1034	0.039
1035	0.039
1035	0.039
1036	0.039
1036	0.039
1036	0.039
1037	0.039
1037	0.04
1038	0.04
1038	0.041
1039	0.042
1039	0.043
1039	0.044
1040	0.045
1040	0.046
1041	0.047
1041	0.047
1041	0.048
1042	0.048
1042	0.048
1043	0.048
1043	0.048
1044	0.048
1044	0.049
1044	0.049
1045	0.05
1045	0.05
1046	0.051
1046	0.052
1046	0.053
1047	0.054
1047	0.056
1048	0.057
1048	0.058
1049	0.058
1049	0.058
1049	0.058
1050	0.058
1050	0.058
1051	0.059
1051	0.059
1051	0.059
1052	0.059
1052	0.059
1053	0.059
1053	0.059
1053	0.059
1054	0.059
1054	0.06
1055	0.06
1055	0.059
1056	0.058
1056	0.057
1056	0.057
1057	0.056
1057	0.057
1058	0.057
1058	0.057
1058	0.058
1059	0.059
1059	0.059
1060	0.06
1060	0.062
1061	0.064
1061	0.066
1061	0.068
1062	0.069
1062	0.07
1063	0.071
1063	0.072
1063	0.073
1064	0.075
1064	0.076
1065	0.078
1065	0.078
1066	0.079
1066	0.08
1066	0.081
1067	0.082
1067	0.083
1068	0.083
1068	0.083
1068	0.083
1069	0.083
1069	0.083
1070	0.084
1070	0.084
1071	0.086
1071	0.087
1071	0.089
1072	0.091
1072	0.094
1073	0.096
1073	0.098
1073	0.101
1074	0.103
1074	0.106
1075	0.107
1075	0.109
1076	0.111
1076	0.114
1076	0.115
1077	0.117
1077	0.12
1078	0.122
1078	0.125
1078	0.129
1079	0.131
1079	0.136
1080	0.138
1080	0.141
1080	0.143
1081	0.147
1081	0.15
1082	0.154
1082	0.157
1083	0.16
1083	0.164
1083	0.169
1084	0.174
1084	0.18
1085	0.186
1085	0.193
1085	0.2
1086	0.206
1086	0.211
1087	0.219
1087	0.226
1088	0.232
1088	0.238
1088	0.246
1089	0.253
1089	0.262
1090	0.271
1090	0.282
1090	0.294
1091	0.308
1091	0.324
1092	0.34
1092	0.359
1092	0.378
1093	0.399
1093	0.423
1094	0.447
1094	0.474
1095	0.502
1095	0.535
1095	0.576
1096	0.619
1096	0.671
1097	0.738
1097	0.81
1097	0.903
1098	1.03
1098	1.216
1099	1.598
1099	-0
1100	-0
1100	-0
1100	-0
1101	-0
1101	-0
1102	-0
1102	-0
1102	-0
1103	-0
1103	-0
1104	-0
1104	-0
1104	-0
1105	-0
1105	-0
1106	-0
1106	-0
1107	-0
1107	-0
1107	-0
1108	-0
1108	-0
1109	-0
1109	-0
1109	-0
1110	-0
1110	-0
1111	-0
1111	-0
