Data from 15c-2a-1h-fridge_Absorbance__739__06107.txt Node

Date: Wed Jan 17 16:34:57 CET 2024
User: Marek
Spectrometer: MAYP115816
Trigger mode: 0
Integration Time (sec): 2.000000E-1
Scans to average: 10
Electric dark correction enabled: true
Nonlinearity correction enabled: true
Boxcar width: 5
XAxis mode: Wavelengths
Number of Pixels in Spectrum: 2068
>>>>>Begin Spectral Data<<<<<
199	-1.622
199	-1.484
200	-1.326
200	-1.203
201	-1.128
201	-1.08
202	-1.011
202	-0.96
203	-0.915
203	-0.875
204	-0.851
204	-0.827
205	-0.804
205	-0.794
205	-0.793
206	-0.792
206	-0.788
207	-0.786
207	-0.782
208	-0.78
208	-0.781
209	-0.776
209	-0.775
210	-0.774
210	-0.774
211	-0.772
211	-0.772
212	-0.773
212	-0.773
213	-0.773
213	-0.772
213	-0.771
214	-0.77
214	-0.769
215	-0.768
215	-0.767
216	-0.768
216	-0.766
217	-0.761
217	-0.758
218	-0.758
218	-0.754
219	-0.752
219	-0.751
220	-0.748
220	-0.745
221	-0.74
221	-0.736
221	-0.732
222	-0.729
222	-0.725
223	-0.719
223	-0.716
224	-0.71
224	-0.702
225	-0.693
225	-0.686
226	-0.677
226	-0.664
227	-0.651
227	-0.638
228	-0.621
228	-0.603
229	-0.581
229	-0.557
229	-0.53
230	-0.501
230	-0.469
231	-0.434
231	-0.397
232	-0.359
232	-0.317
233	-0.274
233	-0.229
234	-0.185
234	-0.141
235	-0.098
235	-0.056
236	-0.015
236	0.024
236	0.061
237	0.096
237	0.127
238	0.157
238	0.185
239	0.212
239	0.235
240	0.257
240	0.276
241	0.294
241	0.31
242	0.324
242	0.338
243	0.35
243	0.361
243	0.37
244	0.379
244	0.387
245	0.394
245	0.401
246	0.407
246	0.413
247	0.418
247	0.423
248	0.427
248	0.432
249	0.436
249	0.439
250	0.442
250	0.445
250	0.448
251	0.451
251	0.453
252	0.456
252	0.458
253	0.46
253	0.461
254	0.462
254	0.464
255	0.466
255	0.468
256	0.469
256	0.469
257	0.47
257	0.471
258	0.472
258	0.472
258	0.472
259	0.473
259	0.472
260	0.472
260	0.472
261	0.471
261	0.471
262	0.471
262	0.47
263	0.47
263	0.469
264	0.468
264	0.468
265	0.467
265	0.466
265	0.465
266	0.463
266	0.462
267	0.461
267	0.459
268	0.457
268	0.456
269	0.454
269	0.452
270	0.45
270	0.448
271	0.446
271	0.444
272	0.442
272	0.44
272	0.438
273	0.436
273	0.433
274	0.431
274	0.429
275	0.427
275	0.425
276	0.424
276	0.421
277	0.419
277	0.417
278	0.415
278	0.412
278	0.41
279	0.406
279	0.403
280	0.4
280	0.398
281	0.395
281	0.392
282	0.39
282	0.387
283	0.385
283	0.383
284	0.382
284	0.38
285	0.379
285	0.377
285	0.375
286	0.374
286	0.372
287	0.37
287	0.368
288	0.367
288	0.365
289	0.363
289	0.361
290	0.36
290	0.358
291	0.356
291	0.355
292	0.354
292	0.352
292	0.35
293	0.349
293	0.347
294	0.346
294	0.345
295	0.344
295	0.342
296	0.341
296	0.34
297	0.339
297	0.338
298	0.337
298	0.336
298	0.335
299	0.334
299	0.333
300	0.332
300	0.331
301	0.33
301	0.329
302	0.328
302	0.327
303	0.326
303	0.326
304	0.325
304	0.324
305	0.323
305	0.322
305	0.321
306	0.32
306	0.319
307	0.318
307	0.317
308	0.316
308	0.316
309	0.315
309	0.314
310	0.313
310	0.312
311	0.312
311	0.311
311	0.31
312	0.309
312	0.308
313	0.307
313	0.306
314	0.305
314	0.304
315	0.303
315	0.302
316	0.301
316	0.3
317	0.3
317	0.299
318	0.298
318	0.297
318	0.296
319	0.295
319	0.294
320	0.293
320	0.292
321	0.291
321	0.29
322	0.289
322	0.288
323	0.287
323	0.287
324	0.286
324	0.285
324	0.284
325	0.283
325	0.282
326	0.281
326	0.28
327	0.279
327	0.279
328	0.278
328	0.277
329	0.277
329	0.276
330	0.275
330	0.274
330	0.273
331	0.273
331	0.272
332	0.271
332	0.27
333	0.269
333	0.268
334	0.268
334	0.267
335	0.266
335	0.265
336	0.264
336	0.264
336	0.263
337	0.262
337	0.261
338	0.261
338	0.26
339	0.259
339	0.259
340	0.258
340	0.258
341	0.257
341	0.256
342	0.256
342	0.255
342	0.255
343	0.254
343	0.254
344	0.253
344	0.253
345	0.252
345	0.251
346	0.251
346	0.25
347	0.25
347	0.249
348	0.249
348	0.249
348	0.248
349	0.248
349	0.247
350	0.247
350	0.246
351	0.246
351	0.245
352	0.245
352	0.244
353	0.244
353	0.243
354	0.243
354	0.242
354	0.242
355	0.241
355	0.241
356	0.24
356	0.24
357	0.239
357	0.239
358	0.238
358	0.238
359	0.238
359	0.238
360	0.239
360	0.239
360	0.239
361	0.239
361	0.239
362	0.24
362	0.239
363	0.239
363	0.239
364	0.239
364	0.239
365	0.238
365	0.238
366	0.237
366	0.237
366	0.237
367	0.236
367	0.236
368	0.236
368	0.236
369	0.235
369	0.235
370	0.235
370	0.235
371	0.234
371	0.234
372	0.234
372	0.234
372	0.234
373	0.234
373	0.234
374	0.234
374	0.233
375	0.233
375	0.233
376	0.233
376	0.233
377	0.233
377	0.233
378	0.233
378	0.233
378	0.233
379	0.233
379	0.232
380	0.232
380	0.232
381	0.232
381	0.232
382	0.232
382	0.231
383	0.231
383	0.231
383	0.23
384	0.23
384	0.229
385	0.229
385	0.229
386	0.229
386	0.229
387	0.229
387	0.228
388	0.228
388	0.228
389	0.228
389	0.228
389	0.228
390	0.228
390	0.228
391	0.228
391	0.228
392	0.228
392	0.228
393	0.228
393	0.228
394	0.227
394	0.227
394	0.227
395	0.227
395	0.226
396	0.226
396	0.226
397	0.226
397	0.226
398	0.226
398	0.226
399	0.225
399	0.225
400	0.225
400	0.225
400	0.224
401	0.224
401	0.223
402	0.222
402	0.222
403	0.222
403	0.222
404	0.222
404	0.221
405	0.221
405	0.221
405	0.22
406	0.22
406	0.22
407	0.22
407	0.22
408	0.219
408	0.219
409	0.219
409	0.218
410	0.218
410	0.219
411	0.219
411	0.219
411	0.219
412	0.218
412	0.218
413	0.218
413	0.218
414	0.217
414	0.217
415	0.217
415	0.216
416	0.216
416	0.216
416	0.216
417	0.215
417	0.215
418	0.215
418	0.216
419	0.216
419	0.216
420	0.217
420	0.217
421	0.217
421	0.217
421	0.217
422	0.218
422	0.218
423	0.218
423	0.217
424	0.216
424	0.216
425	0.215
425	0.215
426	0.215
426	0.215
427	0.214
427	0.214
427	0.215
428	0.215
428	0.215
429	0.216
429	0.216
430	0.215
430	0.215
431	0.215
431	0.215
432	0.215
432	0.214
432	0.214
433	0.213
433	0.213
434	0.213
434	0.213
435	0.213
435	0.213
436	0.213
436	0.214
437	0.214
437	0.214
437	0.214
438	0.214
438	0.214
439	0.214
439	0.214
440	0.213
440	0.213
441	0.213
441	0.213
442	0.213
442	0.213
442	0.213
443	0.213
443	0.214
444	0.214
444	0.214
445	0.214
445	0.215
446	0.215
446	0.214
447	0.214
447	0.214
447	0.214
448	0.214
448	0.214
449	0.214
449	0.214
450	0.214
450	0.214
451	0.214
451	0.214
452	0.214
452	0.214
452	0.214
453	0.214
453	0.214
454	0.213
454	0.213
455	0.213
455	0.214
456	0.214
456	0.214
457	0.214
457	0.214
458	0.214
458	0.214
458	0.214
459	0.215
459	0.214
460	0.214
460	0.214
461	0.213
461	0.214
462	0.214
462	0.214
463	0.214
463	0.215
463	0.215
464	0.215
464	0.215
465	0.215
465	0.216
466	0.216
466	0.216
467	0.216
467	0.216
467	0.216
468	0.216
468	0.215
469	0.215
469	0.215
470	0.216
470	0.216
471	0.216
471	0.216
472	0.216
472	0.217
472	0.218
473	0.219
473	0.22
474	0.22
474	0.221
475	0.222
475	0.223
476	0.223
476	0.223
477	0.224
477	0.224
477	0.224
478	0.224
478	0.224
479	0.225
479	0.225
480	0.226
480	0.227
481	0.228
481	0.228
482	0.23
482	0.231
482	0.232
483	0.235
483	0.237
484	0.239
484	0.24
485	0.241
485	0.243
486	0.244
486	0.245
487	0.246
487	0.247
487	0.247
488	0.247
488	0.247
489	0.247
489	0.249
490	0.25
490	0.25
491	0.251
491	0.253
492	0.254
492	0.255
492	0.256
493	0.257
493	0.259
494	0.261
494	0.263
495	0.265
495	0.267
496	0.269
496	0.271
496	0.273
497	0.275
497	0.276
498	0.278
498	0.279
499	0.28
499	0.282
500	0.283
500	0.286
501	0.287
501	0.289
501	0.291
502	0.292
502	0.295
503	0.297
503	0.298
504	0.3
504	0.301
505	0.303
505	0.304
506	0.305
506	0.307
506	0.309
507	0.31
507	0.311
508	0.313
508	0.315
509	0.316
509	0.318
510	0.32
510	0.322
511	0.323
511	0.324
511	0.325
512	0.326
512	0.327
513	0.327
513	0.328
514	0.328
514	0.329
515	0.329
515	0.33
515	0.33
516	0.331
516	0.332
517	0.333
517	0.334
518	0.335
518	0.335
519	0.335
519	0.334
520	0.334
520	0.334
520	0.333
521	0.332
521	0.331
522	0.33
522	0.33
523	0.329
523	0.33
524	0.33
524	0.33
524	0.33
525	0.331
525	0.332
526	0.333
526	0.333
527	0.334
527	0.334
528	0.334
528	0.334
529	0.334
529	0.334
529	0.334
530	0.333
530	0.333
531	0.332
531	0.332
532	0.33
532	0.329
533	0.329
533	0.328
533	0.327
534	0.325
534	0.323
535	0.322
535	0.321
536	0.319
536	0.318
537	0.316
537	0.315
538	0.313
538	0.31
538	0.309
539	0.307
539	0.306
540	0.304
540	0.302
541	0.299
541	0.297
542	0.295
542	0.292
542	0.29
543	0.288
543	0.286
544	0.284
544	0.282
545	0.281
545	0.279
546	0.278
546	0.275
547	0.272
547	0.269
547	0.266
548	0.264
548	0.261
549	0.258
549	0.255
550	0.252
550	0.249
551	0.245
551	0.243
551	0.24
552	0.238
552	0.236
553	0.234
553	0.233
554	0.23
554	0.227
555	0.224
555	0.222
556	0.218
556	0.216
556	0.213
557	0.21
557	0.208
558	0.205
558	0.203
559	0.201
559	0.199
560	0.197
560	0.195
560	0.193
561	0.192
561	0.191
562	0.189
562	0.187
563	0.184
563	0.181
564	0.178
564	0.175
564	0.173
565	0.171
565	0.169
566	0.167
566	0.165
567	0.164
567	0.163
568	0.162
568	0.161
568	0.161
569	0.161
569	0.161
570	0.16
570	0.157
571	0.157
571	0.156
572	0.154
572	0.153
573	0.151
573	0.149
573	0.146
574	0.145
574	0.143
575	0.142
575	0.143
576	0.142
576	0.14
577	0.137
577	0.136
577	0.135
578	0.134
578	0.134
579	0.134
579	0.134
580	0.132
580	0.128
581	0.124
581	0.122
581	0.122
582	0.121
582	0.121
583	0.122
583	0.12
584	0.116
584	0.112
585	0.111
585	0.112
585	0.112
586	0.112
586	0.111
587	0.108
587	0.105
588	0.102
588	0.101
589	0.1
589	0.1
590	0.1
590	0.1
590	0.101
591	0.102
591	0.101
592	0.1
592	0.099
593	0.099
593	0.099
594	0.097
594	0.096
594	0.095
595	0.094
595	0.092
596	0.091
596	0.092
597	0.095
597	0.096
598	0.096
598	0.097
598	0.098
599	0.098
599	0.097
600	0.096
600	0.095
601	0.094
601	0.093
602	0.091
602	0.091
602	0.09
603	0.09
603	0.091
604	0.092
604	0.093
605	0.095
605	0.097
606	0.097
606	0.095
606	0.095
607	0.094
607	0.093
608	0.093
608	0.091
609	0.09
609	0.09
610	0.089
610	0.087
610	0.088
611	0.09
611	0.092
612	0.094
612	0.096
613	0.097
613	0.099
614	0.098
614	0.097
614	0.097
615	0.096
615	0.095
616	0.095
616	0.094
617	0.093
617	0.091
618	0.089
618	0.089
618	0.088
619	0.089
619	0.09
620	0.093
620	0.094
621	0.094
621	0.095
622	0.095
622	0.096
622	0.097
623	0.097
623	0.098
624	0.099
624	0.099
625	0.098
625	0.099
626	0.1
626	0.1
626	0.102
627	0.103
627	0.104
628	0.105
628	0.106
629	0.107
629	0.108
630	0.107
630	0.107
630	0.108
631	0.109
631	0.11
632	0.11
632	0.111
633	0.112
633	0.113
634	0.115
634	0.118
634	0.12
635	0.121
635	0.123
636	0.124
636	0.126
637	0.126
637	0.127
638	0.129
638	0.13
638	0.131
639	0.132
639	0.133
640	0.135
640	0.137
641	0.138
641	0.14
642	0.142
642	0.144
642	0.145
643	0.147
643	0.149
644	0.151
644	0.153
645	0.155
645	0.157
646	0.16
646	0.163
646	0.167
647	0.17
647	0.174
648	0.176
648	0.179
649	0.182
649	0.185
650	0.188
650	0.191
650	0.193
651	0.196
651	0.198
652	0.2
652	0.203
653	0.206
653	0.215
653	0.233
654	0.183
654	0.147
655	0.148
655	0.15
656	0.152
656	0.153
657	0.155
657	0.157
657	0.158
658	0.155
658	0.139
659	0.18
659	0.238
660	0.249
660	0.252
661	0.255
661	0.259
661	0.263
662	0.268
662	0.273
663	0.277
663	0.281
664	0.284
664	0.287
665	0.291
665	0.294
665	0.297
666	0.3
666	0.303
667	0.305
667	0.307
668	0.31
668	0.314
669	0.317
669	0.321
669	0.326
670	0.33
670	0.333
671	0.336
671	0.338
672	0.341
672	0.343
672	0.345
673	0.347
673	0.349
674	0.35
674	0.351
675	0.352
675	0.354
676	0.356
676	0.358
676	0.359
677	0.361
677	0.363
678	0.365
678	0.366
679	0.367
679	0.369
680	0.371
680	0.372
680	0.373
681	0.374
681	0.376
682	0.377
682	0.379
683	0.38
683	0.382
684	0.384
684	0.384
684	0.384
685	0.384
685	0.385
686	0.385
686	0.385
687	0.385
687	0.385
687	0.385
688	0.384
688	0.384
689	0.385
689	0.386
690	0.385
690	0.384
691	0.383
691	0.383
691	0.382
692	0.38
692	0.379
693	0.378
693	0.378
694	0.376
694	0.373
695	0.373
695	0.374
695	0.373
696	0.371
696	0.37
697	0.368
697	0.366
698	0.365
698	0.362
698	0.361
699	0.359
699	0.357
700	0.354
700	0.353
701	0.352
701	0.35
702	0.349
702	0.347
702	0.345
703	0.343
703	0.341
704	0.339
704	0.337
705	0.336
705	0.333
705	0.331
706	0.328
706	0.326
707	0.324
707	0.321
708	0.319
708	0.317
709	0.314
709	0.311
709	0.308
710	0.304
710	0.301
711	0.299
711	0.296
712	0.293
712	0.29
713	0.287
713	0.284
713	0.281
714	0.278
714	0.276
715	0.273
715	0.271
716	0.268
716	0.266
716	0.263
717	0.261
717	0.259
718	0.256
718	0.254
719	0.252
719	0.25
720	0.247
720	0.244
720	0.24
721	0.237
721	0.234
722	0.231
722	0.227
723	0.225
723	0.223
723	0.22
724	0.218
724	0.216
725	0.214
725	0.212
726	0.21
726	0.209
727	0.207
727	0.205
727	0.202
728	0.2
728	0.197
729	0.196
729	0.193
730	0.191
730	0.188
730	0.185
731	0.183
731	0.18
732	0.178
732	0.176
733	0.173
733	0.171
734	0.169
734	0.167
734	0.165
735	0.164
735	0.162
736	0.16
736	0.159
737	0.159
737	0.159
737	0.157
738	0.155
738	0.152
739	0.15
739	0.148
740	0.146
740	0.144
741	0.143
741	0.14
741	0.136
742	0.132
742	0.13
743	0.128
743	0.126
744	0.124
744	0.122
744	0.119
745	0.116
745	0.113
746	0.111
746	0.109
747	0.107
747	0.106
748	0.105
748	0.104
748	0.102
749	0.1
749	0.099
750	0.098
750	0.096
751	0.095
751	0.095
751	0.095
752	0.094
752	0.092
753	0.091
753	0.091
754	0.091
754	0.09
754	0.09
755	0.09
755	0.09
756	0.088
756	0.086
757	0.084
757	0.084
758	0.083
758	0.081
758	0.081
759	0.08
759	0.077
760	0.074
760	0.072
761	0.071
761	0.07
761	0.069
762	0.067
762	0.067
763	0.066
763	0.063
764	0.061
764	0.059
764	0.057
765	0.054
765	0.052
766	0.05
766	0.049
767	0.048
767	0.044
768	0.041
768	0.039
768	0.038
769	0.037
769	0.036
770	0.034
770	0.032
771	0.029
771	0.026
771	0.024
772	0.022
772	0.02
773	0.018
773	0.015
774	0.012
774	0.01
775	0.008
775	0.005
775	0.002
776	-0
776	-0.003
777	-0.006
777	-0.008
778	-0.011
778	-0.014
778	-0.017
779	-0.019
779	-0.022
780	-0.026
780	-0.029
781	-0.033
781	-0.037
781	-0.042
782	-0.047
782	-0.053
783	-0.059
783	-0.064
784	-0.071
784	-0.078
784	-0.085
785	-0.091
785	-0.098
786	-0.104
786	-0.109
787	-0.111
787	-0.115
788	-0.121
788	-0.128
788	-0.134
789	-0.14
789	-0.143
790	-0.145
790	-0.147
791	-0.15
791	-0.152
791	-0.155
792	-0.149
792	-0.139
793	-0.133
793	-0.129
794	-0.127
794	-0.129
794	-0.134
795	-0.136
795	-0.136
796	-0.137
796	-0.14
797	-0.149
797	-0.16
797	-0.166
798	-0.172
798	-0.174
799	-0.175
799	-0.174
800	-0.173
800	-0.175
801	-0.178
801	-0.178
801	-0.179
802	-0.18
802	-0.181
803	-0.182
803	-0.183
804	-0.181
804	-0.176
804	-0.17
805	-0.166
805	-0.164
806	-0.162
806	-0.161
807	-0.16
807	-0.159
807	-0.159
808	-0.159
808	-0.16
809	-0.165
809	-0.171
810	-0.175
810	-0.178
810	-0.181
811	-0.185
811	-0.185
812	-0.181
812	-0.178
813	-0.178
813	-0.179
813	-0.179
814	-0.18
814	-0.179
815	-0.176
815	-0.172
816	-0.167
816	-0.163
817	-0.161
817	-0.158
817	-0.15
818	-0.141
818	-0.13
819	-0.118
819	-0.108
820	-0.099
820	-0.09
820	-0.082
821	-0.073
821	-0.065
822	-0.059
822	-0.053
823	-0.048
823	-0.045
823	-0.041
824	-0.037
824	-0.033
825	-0.029
825	-0.025
826	-0.022
826	-0.021
826	-0.019
827	-0.018
827	-0.016
828	-0.015
828	-0.014
829	-0.013
829	-0.012
829	-0.012
830	-0.012
830	-0.011
831	-0.008
831	-0.006
832	-0.005
832	-0.003
832	-0.001
833	0.001
833	0.003
834	0.004
834	0.006
835	0.007
835	0.008
835	0.009
836	0.011
836	0.012
837	0.013
837	0.014
838	0.014
838	0.015
839	0.016
839	0.016
839	0.016
840	0.017
840	0.017
841	0.017
841	0.017
842	0.017
842	0.017
842	0.017
843	0.017
843	0.017
844	0.017
844	0.018
845	0.018
845	0.018
845	0.018
846	0.018
846	0.018
847	0.017
847	0.017
848	0.017
848	0.016
848	0.016
849	0.016
849	0.016
850	0.015
850	0.015
851	0.015
851	0.016
851	0.016
852	0.016
852	0.017
853	0.017
853	0.018
854	0.018
854	0.019
854	0.019
855	0.02
855	0.02
856	0.02
856	0.02
857	0.02
857	0.02
857	0.02
858	0.02
858	0.019
859	0.019
859	0.019
860	0.019
860	0.019
860	0.019
861	0.019
861	0.019
862	0.019
862	0.019
863	0.019
863	0.019
863	0.019
864	0.018
864	0.018
865	0.018
865	0.018
866	0.017
866	0.017
866	0.017
867	0.017
867	0.018
868	0.018
868	0.019
869	0.019
869	0.019
869	0.019
870	0.019
870	0.019
871	0.018
871	0.018
872	0.017
872	0.015
872	0.014
873	0.012
873	0.011
874	0.009
874	0.008
875	0.008
875	0.008
875	0.008
876	0.008
876	0.009
877	0.01
877	0.012
878	0.014
878	0.016
878	0.018
879	0.019
879	0.02
880	0.021
880	0.021
881	0.022
881	0.022
881	0.022
882	0.021
882	0.021
883	0.02
883	0.019
884	0.019
884	0.019
884	0.019
885	0.019
885	0.019
886	0.019
886	0.02
887	0.02
887	0.02
887	0.02
888	0.02
888	0.02
889	0.02
889	0.02
890	0.02
890	0.019
890	0.018
891	0.017
891	0.016
892	0.015
892	0.014
893	0.013
893	0.012
893	0.011
894	0.011
894	0.01
895	0.01
895	0.01
895	0.01
896	0.01
896	0.01
897	0.01
897	0.011
898	0.012
898	0.012
898	0.013
899	0.014
899	0.015
900	0.015
900	0.016
901	0.017
901	0.018
901	0.018
902	0.019
902	0.019
903	0.018
903	0.018
904	0.017
904	0.016
904	0.016
905	0.015
905	0.015
906	0.015
906	0.015
907	0.015
907	0.015
907	0.015
908	0.015
908	0.016
909	0.016
909	0.017
910	0.018
910	0.019
910	0.02
911	0.021
911	0.022
912	0.023
912	0.025
913	0.026
913	0.026
913	0.027
914	0.026
914	0.026
915	0.025
915	0.024
916	0.023
916	0.021
916	0.019
917	0.018
917	0.016
918	0.015
918	0.013
918	0.013
919	0.012
919	0.012
920	0.012
920	0.013
921	0.013
921	0.013
921	0.014
922	0.015
922	0.016
923	0.017
923	0.017
924	0.018
924	0.018
924	0.018
925	0.017
925	0.017
926	0.017
926	0.016
927	0.015
927	0.014
927	0.014
928	0.013
928	0.013
929	0.012
929	0.012
930	0.012
930	0.011
930	0.011
931	0.011
931	0.011
932	0.011
932	0.011
933	0.011
933	0.011
933	0.011
934	0.011
934	0.011
935	0.011
935	0.011
935	0.011
936	0.011
936	0.011
937	0.011
937	0.011
938	0.01
938	0.01
938	0.01
939	0.01
939	0.01
940	0.01
940	0.011
941	0.011
941	0.012
941	0.012
942	0.013
942	0.014
943	0.014
943	0.014
944	0.014
944	0.014
944	0.014
945	0.014
945	0.014
946	0.014
946	0.013
946	0.013
947	0.014
947	0.014
948	0.014
948	0.014
949	0.014
949	0.015
949	0.015
950	0.016
950	0.017
951	0.017
951	0.017
952	0.018
952	0.018
952	0.019
953	0.019
953	0.02
954	0.019
954	0.019
955	0.019
955	0.019
955	0.018
956	0.019
956	0.018
957	0.018
957	0.017
957	0.016
958	0.015
958	0.015
959	0.014
959	0.014
960	0.013
960	0.012
960	0.011
961	0.01
961	0.009
962	0.009
962	0.008
963	0.008
963	0.008
963	0.009
964	0.009
964	0.01
965	0.011
965	0.012
966	0.013
966	0.014
966	0.015
967	0.016
967	0.016
968	0.016
968	0.017
968	0.017
969	0.017
969	0.018
970	0.018
970	0.018
971	0.017
971	0.017
971	0.017
972	0.017
972	0.018
973	0.018
973	0.018
974	0.017
974	0.017
974	0.017
975	0.017
975	0.017
976	0.017
976	0.017
976	0.016
977	0.015
977	0.014
978	0.013
978	0.011
979	0.01
979	0.009
979	0.008
980	0.007
980	0.006
981	0.005
981	0.004
982	0.004
982	0.004
982	0.005
983	0.005
983	0.006
984	0.006
984	0.007
984	0.008
985	0.009
985	0.01
986	0.01
986	0.01
987	0.01
987	0.011
987	0.012
988	0.013
988	0.013
989	0.014
989	0.014
990	0.015
990	0.016
990	0.018
991	0.019
991	0.02
992	0.021
992	0.021
992	0.022
993	0.022
993	0.022
994	0.022
994	0.021
995	0.02
995	0.02
995	0.019
996	0.018
996	0.017
997	0.016
997	0.015
997	0.015
998	0.014
998	0.015
999	0.015
999	0.015
1000	0.015
1000	0.016
1000	0.016
1001	0.016
1001	0.017
1002	0.017
1002	0.017
1003	0.017
1003	0.016
1003	0.016
1004	0.015
1004	0.014
1005	0.013
1005	0.012
1005	0.011
1006	0.01
1006	0.009
1007	0.008
1007	0.007
1008	0.005
1008	0.004
1008	0.004
1009	0.003
1009	0.003
1010	0.003
1010	0.002
1010	0.002
1011	0.002
1011	0.001
1012	0.001
1012	0.001
1013	0.001
1013	0.001
1013	-0
1014	-0.001
1014	-0.001
1015	-0.002
1015	-0.002
1016	-0.002
1016	-0.003
1016	-0.003
1017	-0.003
1017	-0.003
1018	-0.003
1018	-0.002
1018	-0.001
1019	-0.001
1019	0
1020	0.001
1020	0.001
1021	0.002
1021	0.002
1021	0.002
1022	0.002
1022	0.002
1023	0.002
1023	0.001
1023	0
1024	-0
1024	-0.002
1025	-0.003
1025	-0.004
1026	-0.005
1026	-0.006
1026	-0.006
1027	-0.007
1027	-0.007
1028	-0.007
1028	-0.007
1028	-0.007
1029	-0.007
1029	-0.006
1030	-0.006
1030	-0.006
1031	-0.005
1031	-0.005
1031	-0.004
1032	-0.004
1032	-0.004
1033	-0.003
1033	-0.004
1033	-0.004
1034	-0.005
1034	-0.006
1035	-0.007
1035	-0.008
1036	-0.01
1036	-0.011
1036	-0.011
1037	-0.012
1037	-0.013
1038	-0.013
1038	-0.014
1039	-0.014
1039	-0.013
1039	-0.013
1040	-0.013
1040	-0.013
1041	-0.013
1041	-0.013
1041	-0.013
1042	-0.013
1042	-0.014
1043	-0.014
1043	-0.014
1044	-0.015
1044	-0.015
1044	-0.015
1045	-0.015
1045	-0.016
1046	-0.016
1046	-0.016
1046	-0.016
1047	-0.016
1047	-0.015
1048	-0.015
1048	-0.015
1049	-0.014
1049	-0.015
1049	-0.015
1050	-0.015
1050	-0.015
1051	-0.016
1051	-0.016
1051	-0.016
1052	-0.016
1052	-0.017
1053	-0.018
1053	-0.018
1053	-0.019
1054	-0.019
1054	-0.019
1055	-0.019
1055	-0.02
1056	-0.021
1056	-0.022
1056	-0.023
1057	-0.024
1057	-0.025
1058	-0.025
1058	-0.026
1058	-0.026
1059	-0.027
1059	-0.027
1060	-0.027
1060	-0.027
1061	-0.026
1061	-0.026
1061	-0.025
1062	-0.025
1062	-0.025
1063	-0.024
1063	-0.024
1063	-0.023
1064	-0.022
1064	-0.022
1065	-0.022
1065	-0.022
1066	-0.022
1066	-0.022
1066	-0.022
1067	-0.022
1067	-0.022
1068	-0.022
1068	-0.023
1068	-0.023
1069	-0.023
1069	-0.024
1070	-0.025
1070	-0.025
1071	-0.025
1071	-0.025
1071	-0.025
1072	-0.025
1072	-0.025
1073	-0.025
1073	-0.025
1073	-0.025
1074	-0.024
1074	-0.024
1075	-0.024
1075	-0.024
1076	-0.025
1076	-0.025
1076	-0.026
1077	-0.027
1077	-0.027
1078	-0.028
1078	-0.027
1078	-0.027
1079	-0.027
1079	-0.026
1080	-0.026
1080	-0.024
1080	-0.024
1081	-0.023
1081	-0.022
1082	-0.021
1082	-0.02
1083	-0.02
1083	-0.019
1083	-0.019
1084	-0.019
1084	-0.018
1085	-0.017
1085	-0.016
1085	-0.015
1086	-0.015
1086	-0.015
1087	-0.015
1087	-0.014
1088	-0.015
1088	-0.014
1088	-0.015
1089	-0.016
1089	-0.016
1090	-0.017
1090	-0.016
1090	-0.016
1091	-0.016
1091	-0.015
1092	-0.014
1092	-0.012
1092	-0.01
1093	-0.008
1093	-0.004
1094	-0.002
1094	-0
1095	0.001
1095	0.003
1095	0.006
1096	0.008
1096	0.009
1097	0.01
1097	0.011
1097	0.012
1098	0.012
1098	0.013
1099	0.016
1099	0.018
1100	0.02
1100	0.022
1100	0.023
1101	0.026
1101	0.029
1102	0.033
1102	0.037
1102	0.041
1103	0.045
1103	0.051
1104	0.055
1104	0.062
1104	0.07
1105	0.076
1105	0.082
1106	0.086
1106	0.094
1107	0.101
1107	0.114
1107	0.127
1108	0.179
1108	0.254
1109	0.367
1109	0.579
1109	0.802
1110	-0
1110	-0
1111	-0
1111	-0
