Data from 15c-2a-1h-fridge_Absorbance__59__05427.txt Node

Date: Wed Jan 17 16:12:17 CET 2024
User: Marek
Spectrometer: MAYP115816
Trigger mode: 0
Integration Time (sec): 2.000000E-1
Scans to average: 10
Electric dark correction enabled: true
Nonlinearity correction enabled: true
Boxcar width: 5
XAxis mode: Wavelengths
Number of Pixels in Spectrum: 2068
>>>>>Begin Spectral Data<<<<<
199	-1.869
199	-1.724
200	-1.561
200	-1.434
201	-1.356
201	-1.306
202	-1.232
202	-1.177
203	-1.127
203	-1.083
204	-1.057
204	-1.033
205	-1.009
205	-0.999
205	-0.997
206	-0.996
206	-0.992
207	-0.99
207	-0.986
208	-0.984
208	-0.983
209	-0.979
209	-0.976
210	-0.976
210	-0.976
211	-0.974
211	-0.973
212	-0.974
212	-0.972
213	-0.971
213	-0.97
213	-0.968
214	-0.968
214	-0.967
215	-0.965
215	-0.964
216	-0.964
216	-0.961
217	-0.957
217	-0.955
218	-0.954
218	-0.951
219	-0.948
219	-0.947
220	-0.944
220	-0.94
221	-0.935
221	-0.931
221	-0.926
222	-0.923
222	-0.918
223	-0.912
223	-0.908
224	-0.903
224	-0.895
225	-0.887
225	-0.879
226	-0.87
226	-0.858
227	-0.845
227	-0.831
228	-0.816
228	-0.797
229	-0.775
229	-0.75
229	-0.722
230	-0.692
230	-0.66
231	-0.624
231	-0.586
232	-0.547
232	-0.504
233	-0.459
233	-0.412
234	-0.366
234	-0.32
235	-0.275
235	-0.23
236	-0.187
236	-0.145
236	-0.105
237	-0.067
237	-0.031
238	0.002
238	0.034
239	0.063
239	0.09
240	0.115
240	0.137
241	0.158
241	0.177
242	0.194
242	0.209
243	0.224
243	0.237
243	0.248
244	0.259
244	0.268
245	0.277
245	0.285
246	0.292
246	0.299
247	0.305
247	0.311
248	0.316
248	0.322
249	0.326
249	0.33
250	0.335
250	0.338
250	0.342
251	0.345
251	0.348
252	0.351
252	0.354
253	0.357
253	0.359
254	0.361
254	0.363
255	0.364
255	0.366
256	0.367
256	0.368
257	0.37
257	0.371
258	0.371
258	0.372
258	0.372
259	0.373
259	0.373
260	0.373
260	0.374
261	0.373
261	0.374
262	0.374
262	0.373
263	0.373
263	0.373
264	0.372
264	0.372
265	0.372
265	0.371
265	0.37
266	0.369
266	0.368
267	0.367
267	0.366
268	0.365
268	0.364
269	0.363
269	0.361
270	0.36
270	0.358
271	0.356
271	0.355
272	0.353
272	0.352
272	0.35
273	0.349
273	0.347
274	0.346
274	0.344
275	0.343
275	0.341
276	0.34
276	0.338
277	0.337
277	0.335
278	0.333
278	0.331
278	0.329
279	0.326
279	0.323
280	0.321
280	0.319
281	0.317
281	0.315
282	0.313
282	0.312
283	0.31
283	0.309
284	0.308
284	0.308
285	0.307
285	0.305
285	0.304
286	0.303
286	0.302
287	0.301
287	0.3
288	0.298
288	0.297
289	0.296
289	0.294
290	0.293
290	0.292
291	0.291
291	0.29
292	0.289
292	0.288
292	0.286
293	0.285
293	0.284
294	0.283
294	0.283
295	0.282
295	0.281
296	0.28
296	0.279
297	0.279
297	0.278
298	0.277
298	0.276
298	0.276
299	0.275
299	0.275
300	0.274
300	0.273
301	0.273
301	0.272
302	0.271
302	0.271
303	0.27
303	0.27
304	0.269
304	0.269
305	0.268
305	0.267
305	0.266
306	0.266
306	0.265
307	0.264
307	0.264
308	0.263
308	0.262
309	0.262
309	0.261
310	0.26
310	0.259
311	0.259
311	0.258
311	0.258
312	0.257
312	0.256
313	0.255
313	0.255
314	0.254
314	0.253
315	0.253
315	0.252
316	0.251
316	0.25
317	0.25
317	0.249
318	0.248
318	0.247
318	0.246
319	0.245
319	0.245
320	0.244
320	0.243
321	0.243
321	0.242
322	0.241
322	0.24
323	0.239
323	0.239
324	0.238
324	0.237
324	0.236
325	0.236
325	0.235
326	0.234
326	0.234
327	0.233
327	0.232
328	0.232
328	0.231
329	0.23
329	0.229
330	0.229
330	0.228
330	0.228
331	0.227
331	0.226
332	0.226
332	0.225
333	0.224
333	0.223
334	0.222
334	0.222
335	0.221
335	0.22
336	0.22
336	0.219
336	0.218
337	0.217
337	0.216
338	0.216
338	0.215
339	0.215
339	0.214
340	0.213
340	0.213
341	0.212
341	0.212
342	0.211
342	0.211
342	0.211
343	0.21
343	0.209
344	0.209
344	0.208
345	0.208
345	0.207
346	0.207
346	0.206
347	0.206
347	0.205
348	0.205
348	0.204
348	0.204
349	0.203
349	0.203
350	0.202
350	0.202
351	0.201
351	0.201
352	0.2
352	0.2
353	0.199
353	0.199
354	0.198
354	0.197
354	0.197
355	0.196
355	0.195
356	0.195
356	0.194
357	0.194
357	0.194
358	0.193
358	0.193
359	0.194
359	0.194
360	0.194
360	0.194
360	0.194
361	0.194
361	0.194
362	0.195
362	0.194
363	0.194
363	0.194
364	0.194
364	0.193
365	0.193
365	0.193
366	0.193
366	0.192
366	0.192
367	0.192
367	0.192
368	0.191
368	0.191
369	0.191
369	0.191
370	0.191
370	0.19
371	0.19
371	0.19
372	0.19
372	0.19
372	0.19
373	0.19
373	0.189
374	0.189
374	0.189
375	0.189
375	0.189
376	0.189
376	0.189
377	0.189
377	0.189
378	0.189
378	0.19
378	0.19
379	0.19
379	0.19
380	0.19
380	0.189
381	0.189
381	0.189
382	0.189
382	0.189
383	0.188
383	0.188
383	0.188
384	0.187
384	0.187
385	0.187
385	0.187
386	0.187
386	0.187
387	0.187
387	0.187
388	0.186
388	0.186
389	0.186
389	0.186
389	0.186
390	0.187
390	0.187
391	0.187
391	0.187
392	0.187
392	0.187
393	0.187
393	0.187
394	0.186
394	0.186
394	0.186
395	0.186
395	0.185
396	0.185
396	0.185
397	0.186
397	0.186
398	0.186
398	0.185
399	0.185
399	0.185
400	0.185
400	0.185
400	0.184
401	0.184
401	0.183
402	0.182
402	0.182
403	0.182
403	0.182
404	0.182
404	0.182
405	0.181
405	0.181
405	0.181
406	0.181
406	0.181
407	0.181
407	0.18
408	0.18
408	0.18
409	0.179
409	0.179
410	0.179
410	0.179
411	0.179
411	0.179
411	0.179
412	0.179
412	0.179
413	0.179
413	0.178
414	0.178
414	0.178
415	0.178
415	0.177
416	0.177
416	0.176
416	0.176
417	0.176
417	0.175
418	0.176
418	0.176
419	0.176
419	0.177
420	0.177
420	0.178
421	0.178
421	0.179
421	0.179
422	0.179
422	0.179
423	0.179
423	0.179
424	0.179
424	0.178
425	0.177
425	0.177
426	0.177
426	0.176
427	0.176
427	0.176
427	0.176
428	0.177
428	0.177
429	0.178
429	0.178
430	0.178
430	0.178
431	0.177
431	0.177
432	0.177
432	0.176
432	0.175
433	0.174
433	0.174
434	0.173
434	0.173
435	0.174
435	0.173
436	0.173
436	0.174
437	0.174
437	0.174
437	0.174
438	0.174
438	0.174
439	0.174
439	0.174
440	0.174
440	0.174
441	0.174
441	0.174
442	0.174
442	0.174
442	0.175
443	0.175
443	0.175
444	0.175
444	0.175
445	0.176
445	0.176
446	0.176
446	0.176
447	0.176
447	0.175
447	0.175
448	0.175
448	0.175
449	0.175
449	0.174
450	0.174
450	0.174
451	0.174
451	0.173
452	0.173
452	0.173
452	0.173
453	0.173
453	0.172
454	0.172
454	0.172
455	0.172
455	0.172
456	0.172
456	0.172
457	0.172
457	0.172
458	0.172
458	0.172
458	0.172
459	0.172
459	0.172
460	0.171
460	0.171
461	0.171
461	0.171
462	0.171
462	0.171
463	0.171
463	0.172
463	0.172
464	0.172
464	0.172
465	0.173
465	0.173
466	0.173
466	0.173
467	0.173
467	0.173
467	0.173
468	0.172
468	0.171
469	0.17
469	0.169
470	0.169
470	0.169
471	0.168
471	0.168
472	0.168
472	0.169
472	0.169
473	0.17
473	0.171
474	0.171
474	0.172
475	0.173
475	0.174
476	0.174
476	0.174
477	0.174
477	0.175
477	0.175
478	0.175
478	0.175
479	0.176
479	0.176
480	0.177
480	0.177
481	0.178
481	0.179
482	0.18
482	0.181
482	0.182
483	0.184
483	0.187
484	0.189
484	0.189
485	0.19
485	0.192
486	0.192
486	0.193
487	0.193
487	0.194
487	0.194
488	0.194
488	0.193
489	0.192
489	0.192
490	0.193
490	0.193
491	0.193
491	0.194
492	0.195
492	0.195
492	0.196
493	0.196
493	0.198
494	0.199
494	0.201
495	0.203
495	0.204
496	0.205
496	0.207
496	0.208
497	0.21
497	0.211
498	0.213
498	0.214
499	0.214
499	0.215
500	0.217
500	0.219
501	0.22
501	0.222
501	0.223
502	0.224
502	0.226
503	0.227
503	0.228
504	0.229
504	0.23
505	0.231
505	0.231
506	0.232
506	0.233
506	0.234
507	0.235
507	0.235
508	0.237
508	0.238
509	0.239
509	0.24
510	0.241
510	0.243
511	0.243
511	0.244
511	0.245
512	0.245
512	0.245
513	0.245
513	0.245
514	0.245
514	0.245
515	0.245
515	0.245
515	0.245
516	0.245
516	0.245
517	0.246
517	0.247
518	0.247
518	0.247
519	0.248
519	0.247
520	0.247
520	0.247
520	0.246
521	0.245
521	0.243
522	0.241
522	0.24
523	0.238
523	0.238
524	0.237
524	0.236
524	0.236
525	0.236
525	0.237
526	0.239
526	0.24
527	0.242
527	0.244
528	0.245
528	0.247
529	0.248
529	0.248
529	0.249
530	0.249
530	0.249
531	0.249
531	0.25
532	0.249
532	0.248
533	0.249
533	0.248
533	0.248
534	0.247
534	0.246
535	0.245
535	0.245
536	0.245
536	0.244
537	0.243
537	0.243
538	0.242
538	0.24
538	0.239
539	0.239
539	0.238
540	0.237
540	0.236
541	0.234
541	0.232
542	0.231
542	0.23
542	0.228
543	0.227
543	0.226
544	0.224
544	0.223
545	0.223
545	0.222
546	0.222
546	0.22
547	0.218
547	0.216
547	0.214
548	0.212
548	0.211
549	0.209
549	0.207
550	0.206
550	0.204
551	0.201
551	0.2
551	0.199
552	0.197
552	0.197
553	0.196
553	0.195
554	0.194
554	0.192
555	0.19
555	0.188
556	0.186
556	0.183
556	0.181
557	0.179
557	0.178
558	0.176
558	0.174
559	0.173
559	0.172
560	0.171
560	0.17
560	0.169
561	0.169
561	0.169
562	0.168
562	0.166
563	0.165
563	0.163
564	0.16
564	0.158
564	0.156
565	0.155
565	0.154
566	0.152
566	0.151
567	0.151
567	0.151
568	0.152
568	0.152
568	0.153
569	0.154
569	0.156
570	0.156
570	0.154
571	0.155
571	0.155
572	0.155
572	0.154
573	0.153
573	0.152
573	0.151
574	0.15
574	0.149
575	0.149
575	0.15
576	0.15
576	0.149
577	0.147
577	0.146
577	0.146
578	0.145
578	0.145
579	0.146
579	0.147
580	0.145
580	0.141
581	0.137
581	0.136
581	0.135
582	0.134
582	0.134
583	0.134
583	0.133
584	0.129
584	0.125
585	0.124
585	0.125
585	0.125
586	0.125
586	0.124
587	0.122
587	0.12
588	0.118
588	0.117
589	0.116
589	0.116
590	0.116
590	0.116
590	0.117
591	0.118
591	0.118
592	0.117
592	0.116
593	0.115
593	0.115
594	0.114
594	0.113
594	0.111
595	0.111
595	0.109
596	0.107
596	0.108
597	0.111
597	0.112
598	0.113
598	0.114
598	0.114
599	0.115
599	0.115
600	0.114
600	0.112
601	0.111
601	0.11
602	0.108
602	0.107
602	0.106
603	0.106
603	0.107
604	0.108
604	0.109
605	0.111
605	0.113
606	0.113
606	0.112
606	0.112
607	0.111
607	0.111
608	0.11
608	0.108
609	0.106
609	0.106
610	0.105
610	0.103
610	0.103
611	0.105
611	0.106
612	0.108
612	0.109
613	0.111
613	0.112
614	0.112
614	0.11
614	0.11
615	0.109
615	0.108
616	0.107
616	0.106
617	0.104
617	0.103
618	0.101
618	0.1
618	0.099
619	0.1
619	0.101
620	0.103
620	0.104
621	0.104
621	0.104
622	0.104
622	0.105
622	0.105
623	0.104
623	0.105
624	0.106
624	0.105
625	0.104
625	0.104
626	0.104
626	0.104
626	0.105
627	0.105
627	0.106
628	0.106
628	0.107
629	0.107
629	0.107
630	0.106
630	0.105
630	0.105
631	0.106
631	0.106
632	0.105
632	0.106
633	0.106
633	0.107
634	0.109
634	0.111
634	0.113
635	0.115
635	0.116
636	0.118
636	0.119
637	0.12
637	0.121
638	0.122
638	0.123
638	0.125
639	0.125
639	0.125
640	0.126
640	0.128
641	0.129
641	0.131
642	0.133
642	0.135
642	0.136
643	0.137
643	0.139
644	0.141
644	0.143
645	0.144
645	0.146
646	0.148
646	0.151
646	0.154
647	0.157
647	0.159
648	0.161
648	0.164
649	0.166
649	0.168
650	0.171
650	0.173
650	0.176
651	0.178
651	0.18
652	0.181
652	0.184
653	0.187
653	0.196
653	0.215
654	0.171
654	0.139
655	0.14
655	0.141
656	0.143
656	0.144
657	0.145
657	0.147
657	0.147
658	0.144
658	0.127
659	0.162
659	0.212
660	0.22
660	0.222
661	0.224
661	0.227
661	0.229
662	0.233
662	0.237
663	0.24
663	0.243
664	0.246
664	0.249
665	0.251
665	0.254
665	0.256
666	0.259
666	0.26
667	0.262
667	0.264
668	0.267
668	0.269
669	0.272
669	0.275
669	0.279
670	0.283
670	0.286
671	0.288
671	0.29
672	0.292
672	0.294
672	0.296
673	0.297
673	0.299
674	0.3
674	0.3
675	0.3
675	0.301
676	0.304
676	0.306
676	0.307
677	0.308
677	0.31
678	0.311
678	0.312
679	0.313
679	0.314
680	0.316
680	0.317
680	0.318
681	0.318
681	0.319
682	0.32
682	0.321
683	0.322
683	0.324
684	0.325
684	0.325
684	0.325
685	0.326
685	0.327
686	0.327
686	0.328
687	0.327
687	0.327
687	0.327
688	0.327
688	0.326
689	0.327
689	0.327
690	0.327
690	0.326
691	0.325
691	0.325
691	0.324
692	0.323
692	0.322
693	0.321
693	0.321
694	0.32
694	0.318
695	0.318
695	0.32
695	0.319
696	0.318
696	0.317
697	0.316
697	0.314
698	0.313
698	0.311
698	0.309
699	0.308
699	0.305
700	0.302
700	0.301
701	0.3
701	0.299
702	0.298
702	0.297
702	0.296
703	0.294
703	0.293
704	0.291
704	0.29
705	0.289
705	0.288
705	0.286
706	0.285
706	0.284
707	0.282
707	0.28
708	0.278
708	0.276
709	0.275
709	0.273
709	0.27
710	0.266
710	0.265
711	0.263
711	0.261
712	0.26
712	0.258
713	0.256
713	0.254
713	0.252
714	0.25
714	0.248
715	0.246
715	0.244
716	0.241
716	0.24
716	0.238
717	0.236
717	0.234
718	0.232
718	0.229
719	0.228
719	0.226
720	0.224
720	0.221
720	0.219
721	0.216
721	0.214
722	0.212
722	0.21
723	0.209
723	0.208
723	0.206
724	0.204
724	0.203
725	0.201
725	0.199
726	0.197
726	0.196
727	0.194
727	0.192
727	0.19
728	0.188
728	0.187
729	0.187
729	0.186
730	0.185
730	0.183
730	0.181
731	0.18
731	0.178
732	0.176
732	0.174
733	0.171
733	0.169
734	0.166
734	0.163
734	0.161
735	0.16
735	0.158
736	0.156
736	0.154
737	0.154
737	0.154
737	0.153
738	0.151
738	0.149
739	0.147
739	0.145
740	0.142
740	0.14
741	0.138
741	0.135
741	0.131
742	0.127
742	0.123
743	0.122
743	0.12
744	0.118
744	0.117
744	0.115
745	0.113
745	0.112
746	0.11
746	0.109
747	0.108
747	0.108
748	0.107
748	0.106
748	0.105
749	0.103
749	0.103
750	0.102
750	0.101
751	0.1
751	0.1
751	0.1
752	0.099
752	0.097
753	0.097
753	0.096
754	0.096
754	0.094
754	0.095
755	0.094
755	0.094
756	0.093
756	0.09
757	0.089
757	0.088
758	0.087
758	0.086
758	0.085
759	0.084
759	0.081
760	0.078
760	0.075
761	0.074
761	0.073
761	0.072
762	0.07
762	0.07
763	0.069
763	0.067
764	0.064
764	0.062
764	0.06
765	0.058
765	0.056
766	0.055
766	0.054
767	0.053
767	0.049
768	0.045
768	0.043
768	0.042
769	0.041
769	0.04
770	0.038
770	0.036
771	0.033
771	0.029
771	0.026
772	0.023
772	0.02
773	0.017
773	0.013
774	0.009
774	0.005
775	0.002
775	-0.003
775	-0.007
776	-0.012
776	-0.017
777	-0.021
777	-0.026
778	-0.031
778	-0.035
778	-0.04
779	-0.043
779	-0.046
780	-0.051
780	-0.057
781	-0.063
781	-0.069
781	-0.077
782	-0.085
782	-0.094
783	-0.102
783	-0.111
784	-0.12
784	-0.128
784	-0.135
785	-0.142
785	-0.149
786	-0.152
786	-0.152
787	-0.149
787	-0.147
788	-0.148
788	-0.149
788	-0.15
789	-0.153
789	-0.152
790	-0.149
790	-0.148
791	-0.148
791	-0.15
791	-0.153
792	-0.147
792	-0.137
793	-0.131
793	-0.127
794	-0.125
794	-0.127
794	-0.132
795	-0.134
795	-0.134
796	-0.135
796	-0.138
797	-0.147
797	-0.158
797	-0.164
798	-0.169
798	-0.172
799	-0.173
799	-0.172
800	-0.171
800	-0.173
801	-0.175
801	-0.176
801	-0.176
802	-0.178
802	-0.179
803	-0.18
803	-0.18
804	-0.179
804	-0.174
804	-0.168
805	-0.164
805	-0.162
806	-0.16
806	-0.159
807	-0.158
807	-0.157
807	-0.157
808	-0.157
808	-0.158
809	-0.163
809	-0.169
810	-0.173
810	-0.176
810	-0.179
811	-0.182
811	-0.183
812	-0.179
812	-0.176
813	-0.176
813	-0.176
813	-0.177
814	-0.177
814	-0.177
815	-0.173
815	-0.17
816	-0.167
816	-0.167
817	-0.17
817	-0.17
817	-0.167
818	-0.161
818	-0.153
819	-0.144
819	-0.137
820	-0.131
820	-0.125
820	-0.117
821	-0.106
821	-0.096
822	-0.086
822	-0.077
823	-0.07
823	-0.064
823	-0.058
824	-0.052
824	-0.045
825	-0.038
825	-0.031
826	-0.026
826	-0.023
826	-0.019
827	-0.015
827	-0.012
828	-0.009
828	-0.008
829	-0.005
829	-0.004
829	-0.003
830	-0.002
830	-0.001
831	0.002
831	0.004
832	0.005
832	0.007
832	0.009
833	0.011
833	0.012
834	0.014
834	0.016
835	0.018
835	0.019
835	0.019
836	0.021
836	0.022
837	0.023
837	0.024
838	0.025
838	0.026
839	0.027
839	0.028
839	0.029
840	0.029
840	0.03
841	0.03
841	0.031
842	0.031
842	0.031
842	0.031
843	0.031
843	0.031
844	0.032
844	0.032
845	0.033
845	0.033
845	0.034
846	0.035
846	0.035
847	0.035
847	0.036
848	0.036
848	0.036
848	0.036
849	0.037
849	0.037
850	0.037
850	0.036
851	0.037
851	0.037
851	0.038
852	0.038
852	0.039
853	0.039
853	0.04
854	0.04
854	0.041
854	0.041
855	0.041
855	0.04
856	0.04
856	0.04
857	0.04
857	0.04
857	0.04
858	0.04
858	0.04
859	0.04
859	0.04
860	0.04
860	0.04
860	0.04
861	0.04
861	0.04
862	0.04
862	0.039
863	0.038
863	0.038
863	0.037
864	0.036
864	0.036
865	0.036
865	0.036
866	0.037
866	0.037
866	0.038
867	0.039
867	0.041
868	0.043
868	0.044
869	0.046
869	0.047
869	0.048
870	0.048
870	0.049
871	0.048
871	0.048
872	0.047
872	0.046
872	0.045
873	0.044
873	0.042
874	0.041
874	0.04
875	0.04
875	0.039
875	0.039
876	0.039
876	0.04
877	0.04
877	0.041
878	0.042
878	0.043
878	0.044
879	0.045
879	0.045
880	0.046
880	0.046
881	0.046
881	0.046
881	0.046
882	0.045
882	0.045
883	0.044
883	0.043
884	0.042
884	0.041
884	0.041
885	0.041
885	0.04
886	0.041
886	0.041
887	0.041
887	0.04
887	0.04
888	0.04
888	0.04
889	0.04
889	0.04
890	0.04
890	0.039
890	0.038
891	0.037
891	0.036
892	0.036
892	0.035
893	0.035
893	0.034
893	0.034
894	0.034
894	0.033
895	0.033
895	0.032
895	0.032
896	0.032
896	0.032
897	0.031
897	0.031
898	0.031
898	0.031
898	0.031
899	0.032
899	0.032
900	0.033
900	0.034
901	0.034
901	0.035
901	0.036
902	0.037
902	0.037
903	0.038
903	0.038
904	0.038
904	0.038
904	0.038
905	0.038
905	0.038
906	0.038
906	0.038
907	0.038
907	0.039
907	0.039
908	0.04
908	0.041
909	0.041
909	0.042
910	0.043
910	0.045
910	0.046
911	0.047
911	0.048
912	0.05
912	0.051
913	0.052
913	0.052
913	0.052
914	0.052
914	0.051
915	0.05
915	0.049
916	0.047
916	0.046
916	0.044
917	0.042
917	0.041
918	0.039
918	0.038
918	0.037
919	0.037
919	0.036
920	0.037
920	0.037
921	0.037
921	0.037
921	0.038
922	0.039
922	0.039
923	0.04
923	0.04
924	0.04
924	0.04
924	0.04
925	0.04
925	0.04
926	0.04
926	0.039
927	0.039
927	0.038
927	0.038
928	0.037
928	0.037
929	0.036
929	0.035
930	0.034
930	0.034
930	0.033
931	0.032
931	0.031
932	0.03
932	0.029
933	0.028
933	0.027
933	0.027
934	0.026
934	0.025
935	0.025
935	0.024
935	0.024
936	0.024
936	0.025
937	0.025
937	0.025
938	0.026
938	0.026
938	0.027
939	0.028
939	0.028
940	0.029
940	0.03
941	0.03
941	0.031
941	0.032
942	0.033
942	0.034
943	0.035
943	0.035
944	0.035
944	0.035
944	0.035
945	0.034
945	0.034
946	0.034
946	0.034
946	0.033
947	0.033
947	0.033
948	0.033
948	0.033
949	0.032
949	0.032
949	0.032
950	0.032
950	0.031
951	0.031
951	0.03
952	0.03
952	0.03
952	0.03
953	0.031
953	0.031
954	0.031
954	0.031
955	0.032
955	0.032
955	0.033
956	0.034
956	0.035
957	0.035
957	0.035
957	0.034
958	0.034
958	0.033
959	0.033
959	0.032
960	0.031
960	0.029
960	0.028
961	0.026
961	0.025
962	0.024
962	0.024
963	0.023
963	0.023
963	0.024
964	0.024
964	0.025
965	0.026
965	0.027
966	0.028
966	0.029
966	0.03
967	0.031
967	0.032
968	0.032
968	0.032
968	0.032
969	0.032
969	0.032
970	0.031
970	0.031
971	0.03
971	0.029
971	0.028
972	0.028
972	0.028
973	0.028
973	0.027
974	0.026
974	0.026
974	0.026
975	0.026
975	0.025
976	0.025
976	0.024
976	0.024
977	0.023
977	0.022
978	0.021
978	0.02
979	0.02
979	0.019
979	0.019
980	0.019
980	0.019
981	0.019
981	0.02
982	0.021
982	0.022
982	0.023
983	0.024
983	0.025
984	0.026
984	0.027
984	0.028
985	0.029
985	0.03
986	0.03
986	0.03
987	0.03
987	0.031
987	0.031
988	0.032
988	0.033
989	0.033
989	0.034
990	0.034
990	0.035
990	0.037
991	0.038
991	0.039
992	0.04
992	0.041
992	0.041
993	0.042
993	0.042
994	0.042
994	0.042
995	0.041
995	0.04
995	0.039
996	0.038
996	0.037
997	0.036
997	0.035
997	0.034
998	0.033
998	0.032
999	0.032
999	0.031
1000	0.031
1000	0.03
1000	0.03
1001	0.03
1001	0.03
1002	0.03
1002	0.03
1003	0.03
1003	0.03
1003	0.03
1004	0.03
1004	0.03
1005	0.03
1005	0.029
1005	0.029
1006	0.028
1006	0.028
1007	0.027
1007	0.026
1008	0.025
1008	0.024
1008	0.023
1009	0.023
1009	0.022
1010	0.021
1010	0.021
1010	0.02
1011	0.019
1011	0.019
1012	0.018
1012	0.017
1013	0.017
1013	0.016
1013	0.015
1014	0.014
1014	0.013
1015	0.012
1015	0.012
1016	0.012
1016	0.011
1016	0.011
1017	0.011
1017	0.012
1018	0.012
1018	0.013
1018	0.013
1019	0.014
1019	0.015
1020	0.015
1020	0.015
1021	0.015
1021	0.016
1021	0.016
1022	0.016
1022	0.016
1023	0.016
1023	0.015
1023	0.015
1024	0.014
1024	0.013
1025	0.012
1025	0.011
1026	0.01
1026	0.009
1026	0.008
1027	0.007
1027	0.006
1028	0.006
1028	0.005
1028	0.005
1029	0.005
1029	0.005
1030	0.005
1030	0.005
1031	0.005
1031	0.006
1031	0.006
1032	0.007
1032	0.007
1033	0.007
1033	0.008
1033	0.008
1034	0.007
1034	0.007
1035	0.007
1035	0.006
1036	0.006
1036	0.006
1036	0.006
1037	0.006
1037	0.006
1038	0.006
1038	0.007
1039	0.008
1039	0.008
1039	0.009
1040	0.009
1040	0.01
1041	0.01
1041	0.01
1041	0.009
1042	0.009
1042	0.008
1043	0.008
1043	0.007
1044	0.007
1044	0.006
1044	0.006
1045	0.006
1045	0.005
1046	0.005
1046	0.004
1046	0.005
1047	0.005
1047	0.005
1048	0.005
1048	0.005
1049	0.005
1049	0.005
1049	0.004
1050	0.004
1050	0.003
1051	0.002
1051	0.002
1051	0.001
1052	0
1052	-0
1053	-0.001
1053	-0.001
1053	-0.002
1054	-0.002
1054	-0.001
1055	-0.001
1055	-0.002
1056	-0.002
1056	-0.002
1056	-0.003
1057	-0.004
1057	-0.004
1058	-0.004
1058	-0.004
1058	-0.004
1059	-0.005
1059	-0.005
1060	-0.005
1060	-0.003
1061	-0.002
1061	-0.001
1061	0
1062	0.001
1062	0.001
1063	0.002
1063	0.003
1063	0.004
1064	0.005
1064	0.006
1065	0.007
1065	0.007
1066	0.008
1066	0.009
1066	0.01
1067	0.01
1067	0.011
1068	0.012
1068	0.012
1068	0.012
1069	0.012
1069	0.012
1070	0.011
1070	0.011
1071	0.012
1071	0.011
1071	0.011
1072	0.011
1072	0.011
1073	0.011
1073	0.012
1073	0.012
1074	0.013
1074	0.013
1075	0.013
1075	0.014
1076	0.014
1076	0.015
1076	0.014
1077	0.014
1077	0.014
1078	0.014
1078	0.015
1078	0.016
1079	0.017
1079	0.018
1080	0.018
1080	0.019
1080	0.019
1081	0.021
1081	0.022
1082	0.023
1082	0.023
1083	0.024
1083	0.024
1083	0.025
1084	0.026
1084	0.028
1085	0.03
1085	0.031
1085	0.033
1086	0.034
1086	0.035
1087	0.037
1087	0.038
1088	0.038
1088	0.04
1088	0.041
1089	0.041
1089	0.042
1090	0.043
1090	0.045
1090	0.047
1091	0.049
1091	0.052
1092	0.055
1092	0.059
1092	0.062
1093	0.066
1093	0.072
1094	0.077
1094	0.082
1095	0.086
1095	0.091
1095	0.097
1096	0.102
1096	0.107
1097	0.112
1097	0.119
1097	0.125
1098	0.13
1098	0.136
1099	0.144
1099	0.153
1100	0.162
1100	0.171
1100	0.181
1101	0.192
1101	0.204
1102	0.218
1102	0.234
1102	0.251
1103	0.269
1103	0.29
1104	0.314
1104	0.34
1104	0.375
1105	0.409
1105	0.447
1106	0.483
1106	0.536
1107	0.597
1107	0.696
1107	0.844
1108	-0
1108	-0
1109	-0
1109	-0
1109	-0
1110	-0
1110	-0
1111	-0
1111	-0
