Data from 15c-2a-1h-fridge_Absorbance__420__05788.txt Node

Date: Wed Jan 17 16:24:19 CET 2024
User: Marek
Spectrometer: MAYP115816
Trigger mode: 0
Integration Time (sec): 2.000000E-1
Scans to average: 10
Electric dark correction enabled: true
Nonlinearity correction enabled: true
Boxcar width: 5
XAxis mode: Wavelengths
Number of Pixels in Spectrum: 2068
>>>>>Begin Spectral Data<<<<<
199	-1.654
199	-1.515
200	-1.356
200	-1.232
201	-1.156
201	-1.109
202	-1.039
202	-0.988
203	-0.942
203	-0.903
204	-0.878
204	-0.855
205	-0.832
205	-0.822
205	-0.821
206	-0.82
206	-0.816
207	-0.814
207	-0.81
208	-0.808
208	-0.807
209	-0.803
209	-0.801
210	-0.801
210	-0.801
211	-0.799
211	-0.799
212	-0.8
212	-0.799
213	-0.798
213	-0.798
213	-0.797
214	-0.796
214	-0.795
215	-0.794
215	-0.793
216	-0.794
216	-0.792
217	-0.787
217	-0.786
218	-0.785
218	-0.782
219	-0.778
219	-0.778
220	-0.775
220	-0.772
221	-0.767
221	-0.763
221	-0.758
222	-0.755
222	-0.75
223	-0.744
223	-0.741
224	-0.736
224	-0.728
225	-0.719
225	-0.711
226	-0.702
226	-0.69
227	-0.676
227	-0.663
228	-0.648
228	-0.63
229	-0.608
229	-0.583
229	-0.556
230	-0.526
230	-0.494
231	-0.459
231	-0.421
232	-0.383
232	-0.341
233	-0.297
233	-0.252
234	-0.207
234	-0.163
235	-0.119
235	-0.077
236	-0.036
236	0.004
236	0.041
237	0.078
237	0.111
238	0.142
238	0.171
239	0.198
239	0.222
240	0.245
240	0.265
241	0.283
241	0.3
242	0.315
242	0.329
243	0.341
243	0.352
243	0.362
244	0.371
244	0.379
245	0.387
245	0.394
246	0.4
246	0.406
247	0.412
247	0.417
248	0.422
248	0.426
249	0.43
249	0.434
250	0.437
250	0.441
250	0.444
251	0.446
251	0.449
252	0.451
252	0.454
253	0.456
253	0.457
254	0.459
254	0.461
255	0.462
255	0.464
256	0.465
256	0.466
257	0.467
257	0.467
258	0.468
258	0.468
258	0.468
259	0.469
259	0.469
260	0.469
260	0.469
261	0.468
261	0.468
262	0.468
262	0.467
263	0.467
263	0.466
264	0.465
264	0.465
265	0.464
265	0.463
265	0.461
266	0.461
266	0.459
267	0.458
267	0.456
268	0.455
268	0.453
269	0.452
269	0.45
270	0.448
270	0.446
271	0.444
271	0.442
272	0.44
272	0.438
272	0.436
273	0.434
273	0.432
274	0.43
274	0.428
275	0.426
275	0.424
276	0.422
276	0.42
277	0.418
277	0.416
278	0.413
278	0.411
278	0.408
279	0.405
279	0.402
280	0.399
280	0.396
281	0.394
281	0.391
282	0.388
282	0.386
283	0.384
283	0.382
284	0.381
284	0.379
285	0.378
285	0.376
285	0.375
286	0.373
286	0.371
287	0.37
287	0.368
288	0.366
288	0.365
289	0.363
289	0.361
290	0.36
290	0.358
291	0.357
291	0.355
292	0.353
292	0.352
292	0.35
293	0.349
293	0.348
294	0.346
294	0.345
295	0.344
295	0.343
296	0.341
296	0.34
297	0.339
297	0.338
298	0.337
298	0.336
298	0.335
299	0.334
299	0.333
300	0.332
300	0.331
301	0.33
301	0.329
302	0.328
302	0.327
303	0.327
303	0.326
304	0.325
304	0.324
305	0.323
305	0.322
305	0.321
306	0.32
306	0.319
307	0.318
307	0.317
308	0.317
308	0.316
309	0.315
309	0.314
310	0.313
310	0.312
311	0.312
311	0.311
311	0.31
312	0.309
312	0.308
313	0.307
313	0.307
314	0.306
314	0.305
315	0.304
315	0.303
316	0.302
316	0.301
317	0.3
317	0.299
318	0.298
318	0.297
318	0.296
319	0.295
319	0.294
320	0.293
320	0.292
321	0.291
321	0.291
322	0.29
322	0.289
323	0.288
323	0.287
324	0.286
324	0.285
324	0.284
325	0.283
325	0.283
326	0.282
326	0.281
327	0.28
327	0.279
328	0.278
328	0.278
329	0.277
329	0.276
330	0.275
330	0.275
330	0.274
331	0.273
331	0.272
332	0.271
332	0.271
333	0.27
333	0.269
334	0.268
334	0.267
335	0.266
335	0.266
336	0.265
336	0.264
336	0.263
337	0.262
337	0.262
338	0.261
338	0.261
339	0.26
339	0.26
340	0.259
340	0.258
341	0.257
341	0.257
342	0.256
342	0.256
342	0.255
343	0.255
343	0.254
344	0.253
344	0.253
345	0.252
345	0.252
346	0.251
346	0.251
347	0.25
347	0.25
348	0.249
348	0.249
348	0.248
349	0.247
349	0.247
350	0.246
350	0.246
351	0.246
351	0.245
352	0.245
352	0.244
353	0.244
353	0.243
354	0.243
354	0.242
354	0.241
355	0.241
355	0.24
356	0.24
356	0.239
357	0.239
357	0.238
358	0.238
358	0.238
359	0.238
359	0.238
360	0.238
360	0.239
360	0.239
361	0.239
361	0.239
362	0.239
362	0.239
363	0.239
363	0.238
364	0.238
364	0.238
365	0.237
365	0.237
366	0.237
366	0.236
366	0.236
367	0.236
367	0.236
368	0.236
368	0.235
369	0.235
369	0.235
370	0.235
370	0.235
371	0.234
371	0.234
372	0.234
372	0.233
372	0.233
373	0.233
373	0.233
374	0.233
374	0.233
375	0.233
375	0.232
376	0.233
376	0.233
377	0.233
377	0.233
378	0.232
378	0.232
378	0.233
379	0.232
379	0.232
380	0.232
380	0.232
381	0.232
381	0.231
382	0.231
382	0.231
383	0.23
383	0.23
383	0.229
384	0.229
384	0.229
385	0.229
385	0.229
386	0.229
386	0.228
387	0.228
387	0.228
388	0.228
388	0.228
389	0.228
389	0.228
389	0.228
390	0.228
390	0.228
391	0.228
391	0.228
392	0.228
392	0.228
393	0.227
393	0.227
394	0.227
394	0.227
394	0.227
395	0.226
395	0.226
396	0.225
396	0.225
397	0.225
397	0.225
398	0.225
398	0.225
399	0.225
399	0.225
400	0.224
400	0.224
400	0.224
401	0.223
401	0.222
402	0.222
402	0.221
403	0.221
403	0.221
404	0.221
404	0.221
405	0.221
405	0.221
405	0.22
406	0.22
406	0.22
407	0.22
407	0.22
408	0.219
408	0.219
409	0.219
409	0.219
410	0.218
410	0.218
411	0.219
411	0.219
411	0.218
412	0.218
412	0.218
413	0.218
413	0.217
414	0.217
414	0.217
415	0.216
415	0.216
416	0.215
416	0.215
416	0.214
417	0.214
417	0.214
418	0.214
418	0.215
419	0.215
419	0.216
420	0.216
420	0.217
421	0.217
421	0.217
421	0.217
422	0.218
422	0.218
423	0.218
423	0.217
424	0.217
424	0.216
425	0.216
425	0.216
426	0.215
426	0.215
427	0.215
427	0.215
427	0.215
428	0.215
428	0.216
429	0.216
429	0.216
430	0.216
430	0.215
431	0.215
431	0.215
432	0.215
432	0.215
432	0.214
433	0.213
433	0.213
434	0.213
434	0.213
435	0.213
435	0.213
436	0.213
436	0.213
437	0.214
437	0.213
437	0.213
438	0.213
438	0.213
439	0.213
439	0.213
440	0.212
440	0.212
441	0.212
441	0.212
442	0.212
442	0.212
442	0.212
443	0.212
443	0.213
444	0.213
444	0.213
445	0.213
445	0.214
446	0.214
446	0.214
447	0.214
447	0.214
447	0.214
448	0.214
448	0.214
449	0.213
449	0.213
450	0.213
450	0.213
451	0.213
451	0.213
452	0.213
452	0.213
452	0.213
453	0.213
453	0.213
454	0.213
454	0.213
455	0.213
455	0.213
456	0.213
456	0.213
457	0.213
457	0.212
458	0.213
458	0.213
458	0.213
459	0.213
459	0.213
460	0.212
460	0.212
461	0.212
461	0.212
462	0.212
462	0.213
463	0.213
463	0.213
463	0.214
464	0.214
464	0.214
465	0.214
465	0.215
466	0.215
466	0.215
467	0.215
467	0.216
467	0.215
468	0.215
468	0.214
469	0.214
469	0.214
470	0.214
470	0.214
471	0.214
471	0.214
472	0.215
472	0.215
472	0.216
473	0.217
473	0.218
474	0.218
474	0.219
475	0.22
475	0.22
476	0.221
476	0.221
477	0.222
477	0.222
477	0.223
478	0.223
478	0.223
479	0.224
479	0.225
480	0.225
480	0.226
481	0.227
481	0.228
482	0.229
482	0.23
482	0.232
483	0.234
483	0.236
484	0.239
484	0.239
485	0.241
485	0.242
486	0.243
486	0.244
487	0.245
487	0.246
487	0.246
488	0.246
488	0.246
489	0.246
489	0.248
490	0.248
490	0.249
491	0.25
491	0.252
492	0.253
492	0.254
492	0.255
493	0.256
493	0.258
494	0.26
494	0.262
495	0.264
495	0.266
496	0.267
496	0.269
496	0.271
497	0.273
497	0.275
498	0.277
498	0.278
499	0.279
499	0.281
500	0.283
500	0.285
501	0.287
501	0.288
501	0.29
502	0.291
502	0.293
503	0.295
503	0.297
504	0.298
504	0.299
505	0.3
505	0.302
506	0.303
506	0.305
506	0.306
507	0.308
507	0.31
508	0.311
508	0.313
509	0.315
509	0.317
510	0.319
510	0.321
511	0.321
511	0.323
511	0.323
512	0.324
512	0.325
513	0.326
513	0.327
514	0.327
514	0.327
515	0.328
515	0.328
515	0.328
516	0.329
516	0.33
517	0.331
517	0.331
518	0.332
518	0.332
519	0.332
519	0.331
520	0.331
520	0.331
520	0.33
521	0.329
521	0.328
522	0.327
522	0.326
523	0.326
523	0.326
524	0.326
524	0.327
524	0.327
525	0.328
525	0.328
526	0.329
526	0.33
527	0.331
527	0.331
528	0.331
528	0.332
529	0.332
529	0.331
529	0.331
530	0.331
530	0.33
531	0.33
531	0.329
532	0.328
532	0.327
533	0.326
533	0.325
533	0.323
534	0.322
534	0.32
535	0.319
535	0.318
536	0.317
536	0.315
537	0.314
537	0.312
538	0.311
538	0.308
538	0.307
539	0.305
539	0.304
540	0.302
540	0.3
541	0.297
541	0.295
542	0.293
542	0.29
542	0.288
543	0.286
543	0.283
544	0.281
544	0.279
545	0.277
545	0.275
546	0.274
546	0.272
547	0.269
547	0.266
547	0.263
548	0.261
548	0.259
549	0.256
549	0.254
550	0.252
550	0.249
551	0.246
551	0.243
551	0.241
552	0.239
552	0.237
553	0.235
553	0.233
554	0.231
554	0.228
555	0.225
555	0.222
556	0.219
556	0.216
556	0.213
557	0.21
557	0.207
558	0.204
558	0.201
559	0.199
559	0.197
560	0.195
560	0.192
560	0.191
561	0.19
561	0.188
562	0.186
562	0.184
563	0.181
563	0.179
564	0.176
564	0.173
564	0.171
565	0.169
565	0.167
566	0.164
566	0.162
567	0.161
567	0.16
568	0.159
568	0.159
568	0.158
569	0.159
569	0.158
570	0.157
570	0.155
571	0.155
571	0.154
572	0.153
572	0.152
573	0.15
573	0.148
573	0.146
574	0.144
574	0.143
575	0.142
575	0.142
576	0.142
576	0.139
577	0.136
577	0.135
577	0.134
578	0.133
578	0.133
579	0.133
579	0.133
580	0.131
580	0.126
581	0.123
581	0.121
581	0.12
582	0.12
582	0.12
583	0.12
583	0.119
584	0.115
584	0.111
585	0.11
585	0.111
585	0.111
586	0.111
586	0.11
587	0.107
587	0.105
588	0.102
588	0.101
589	0.1
589	0.1
590	0.1
590	0.099
590	0.101
591	0.101
591	0.1
592	0.099
592	0.098
593	0.098
593	0.097
594	0.096
594	0.094
594	0.093
595	0.092
595	0.091
596	0.089
596	0.091
597	0.093
597	0.094
598	0.094
598	0.095
598	0.095
599	0.096
599	0.095
600	0.094
600	0.092
601	0.092
601	0.09
602	0.088
602	0.088
602	0.087
603	0.087
603	0.089
604	0.09
604	0.091
605	0.093
605	0.095
606	0.096
606	0.095
606	0.094
607	0.094
607	0.093
608	0.093
608	0.091
609	0.09
609	0.09
610	0.089
610	0.088
610	0.088
611	0.09
611	0.091
612	0.093
612	0.094
613	0.096
613	0.097
614	0.097
614	0.096
614	0.096
615	0.095
615	0.095
616	0.094
616	0.094
617	0.093
617	0.092
618	0.09
618	0.09
618	0.09
619	0.091
619	0.092
620	0.095
620	0.095
621	0.096
621	0.096
622	0.097
622	0.098
622	0.097
623	0.097
623	0.099
624	0.099
624	0.098
625	0.098
625	0.098
626	0.098
626	0.098
626	0.099
627	0.1
627	0.101
628	0.102
628	0.102
629	0.102
629	0.103
630	0.102
630	0.102
630	0.103
631	0.104
631	0.104
632	0.105
632	0.106
633	0.107
633	0.109
634	0.112
634	0.114
634	0.116
635	0.118
635	0.119
636	0.121
636	0.122
637	0.123
637	0.124
638	0.125
638	0.126
638	0.127
639	0.128
639	0.129
640	0.131
640	0.133
641	0.135
641	0.137
642	0.139
642	0.142
642	0.144
643	0.147
643	0.149
644	0.151
644	0.154
645	0.156
645	0.159
646	0.162
646	0.165
646	0.168
647	0.172
647	0.175
648	0.177
648	0.179
649	0.182
649	0.184
650	0.187
650	0.19
650	0.192
651	0.194
651	0.196
652	0.198
652	0.201
653	0.205
653	0.214
653	0.233
654	0.183
654	0.148
655	0.149
655	0.151
656	0.152
656	0.154
657	0.156
657	0.157
657	0.158
658	0.155
658	0.139
659	0.18
659	0.238
660	0.248
660	0.252
661	0.255
661	0.258
661	0.262
662	0.267
662	0.271
663	0.275
663	0.279
664	0.282
664	0.285
665	0.288
665	0.291
665	0.294
666	0.297
666	0.299
667	0.302
667	0.305
668	0.307
668	0.311
669	0.314
669	0.318
669	0.322
670	0.326
670	0.329
671	0.332
671	0.334
672	0.337
672	0.34
672	0.342
673	0.344
673	0.346
674	0.348
674	0.349
675	0.35
675	0.352
676	0.355
676	0.357
676	0.359
677	0.361
677	0.363
678	0.365
678	0.366
679	0.367
679	0.368
680	0.37
680	0.371
680	0.372
681	0.373
681	0.375
682	0.376
682	0.377
683	0.379
683	0.381
684	0.383
684	0.383
684	0.383
685	0.384
685	0.385
686	0.386
686	0.386
687	0.386
687	0.385
687	0.385
688	0.385
688	0.384
689	0.384
689	0.385
690	0.385
690	0.384
691	0.383
691	0.382
691	0.382
692	0.38
692	0.379
693	0.378
693	0.377
694	0.375
694	0.372
695	0.372
695	0.373
695	0.371
696	0.369
696	0.367
697	0.365
697	0.364
698	0.362
698	0.359
698	0.358
699	0.357
699	0.354
700	0.351
700	0.35
701	0.349
701	0.347
702	0.346
702	0.345
702	0.343
703	0.341
703	0.339
704	0.337
704	0.335
705	0.334
705	0.332
705	0.33
706	0.328
706	0.326
707	0.323
707	0.321
708	0.318
708	0.316
709	0.314
709	0.311
709	0.307
710	0.303
710	0.3
711	0.298
711	0.295
712	0.293
712	0.29
713	0.287
713	0.284
713	0.281
714	0.278
714	0.275
715	0.273
715	0.27
716	0.266
716	0.263
716	0.26
717	0.258
717	0.255
718	0.252
718	0.249
719	0.247
719	0.245
720	0.242
720	0.24
720	0.237
721	0.234
721	0.232
722	0.229
722	0.226
723	0.224
723	0.222
723	0.22
724	0.217
724	0.214
725	0.212
725	0.209
726	0.207
726	0.205
727	0.203
727	0.201
727	0.2
728	0.197
728	0.196
729	0.196
729	0.194
730	0.192
730	0.19
730	0.189
731	0.186
731	0.184
732	0.183
732	0.18
733	0.177
733	0.175
734	0.172
734	0.169
734	0.167
735	0.166
735	0.163
736	0.161
736	0.16
737	0.158
737	0.158
737	0.157
738	0.154
738	0.151
739	0.149
739	0.146
740	0.144
740	0.142
741	0.139
741	0.136
741	0.132
742	0.127
742	0.124
743	0.122
743	0.119
744	0.118
744	0.116
744	0.114
745	0.112
745	0.11
746	0.108
746	0.108
747	0.107
747	0.106
748	0.106
748	0.105
748	0.103
749	0.101
749	0.101
750	0.099
750	0.098
751	0.097
751	0.096
751	0.096
752	0.094
752	0.092
753	0.091
753	0.09
754	0.089
754	0.088
754	0.087
755	0.086
755	0.086
756	0.085
756	0.082
757	0.08
757	0.079
758	0.078
758	0.076
758	0.075
759	0.074
759	0.071
760	0.068
760	0.065
761	0.063
761	0.063
761	0.062
762	0.06
762	0.059
763	0.059
763	0.056
764	0.054
764	0.053
764	0.051
765	0.049
765	0.048
766	0.047
766	0.046
767	0.045
767	0.042
768	0.039
768	0.038
768	0.037
769	0.036
769	0.036
770	0.034
770	0.032
771	0.03
771	0.027
771	0.024
772	0.022
772	0.02
773	0.017
773	0.015
774	0.012
774	0.009
775	0.007
775	0.004
775	0.001
776	-0.002
776	-0.004
777	-0.007
777	-0.01
778	-0.013
778	-0.017
778	-0.019
779	-0.021
779	-0.024
780	-0.028
780	-0.032
781	-0.035
781	-0.039
781	-0.044
782	-0.05
782	-0.056
783	-0.061
783	-0.067
784	-0.074
784	-0.081
784	-0.088
785	-0.095
785	-0.102
786	-0.109
786	-0.113
787	-0.115
787	-0.118
788	-0.124
788	-0.131
788	-0.137
789	-0.143
789	-0.145
790	-0.146
790	-0.148
791	-0.15
791	-0.152
791	-0.155
792	-0.149
792	-0.139
793	-0.133
793	-0.129
794	-0.127
794	-0.129
794	-0.133
795	-0.136
795	-0.136
796	-0.137
796	-0.14
797	-0.149
797	-0.16
797	-0.166
798	-0.171
798	-0.174
799	-0.174
799	-0.174
800	-0.173
800	-0.175
801	-0.177
801	-0.178
801	-0.178
802	-0.18
802	-0.181
803	-0.182
803	-0.182
804	-0.181
804	-0.176
804	-0.17
805	-0.166
805	-0.164
806	-0.162
806	-0.16
807	-0.159
807	-0.159
807	-0.159
808	-0.159
808	-0.16
809	-0.165
809	-0.171
810	-0.175
810	-0.178
810	-0.181
811	-0.184
811	-0.185
812	-0.181
812	-0.178
813	-0.178
813	-0.178
813	-0.179
814	-0.179
814	-0.179
815	-0.175
815	-0.172
816	-0.168
816	-0.164
817	-0.163
817	-0.16
817	-0.153
818	-0.144
818	-0.133
819	-0.122
819	-0.112
820	-0.104
820	-0.096
820	-0.087
821	-0.079
821	-0.071
822	-0.064
822	-0.059
823	-0.054
823	-0.05
823	-0.047
824	-0.043
824	-0.038
825	-0.033
825	-0.029
826	-0.025
826	-0.023
826	-0.021
827	-0.019
827	-0.017
828	-0.015
828	-0.013
829	-0.011
829	-0.01
829	-0.009
830	-0.009
830	-0.008
831	-0.006
831	-0.005
832	-0.004
832	-0.003
832	-0.002
833	-0.001
833	0
834	0.002
834	0.003
835	0.004
835	0.005
835	0.006
836	0.007
836	0.008
837	0.009
837	0.01
838	0.01
838	0.01
839	0.01
839	0.01
839	0.009
840	0.009
840	0.008
841	0.008
841	0.008
842	0.008
842	0.009
842	0.009
843	0.01
843	0.011
844	0.012
844	0.014
845	0.015
845	0.016
845	0.017
846	0.018
846	0.018
847	0.018
847	0.019
848	0.019
848	0.019
848	0.02
849	0.02
849	0.02
850	0.02
850	0.02
851	0.02
851	0.02
851	0.019
852	0.019
852	0.019
853	0.019
853	0.018
854	0.018
854	0.017
854	0.017
855	0.016
855	0.015
856	0.015
856	0.015
857	0.015
857	0.014
857	0.014
858	0.014
858	0.014
859	0.013
859	0.013
860	0.014
860	0.014
860	0.014
861	0.014
861	0.014
862	0.013
862	0.013
863	0.012
863	0.012
863	0.012
864	0.012
864	0.012
865	0.013
865	0.014
866	0.014
866	0.014
866	0.015
867	0.016
867	0.017
868	0.018
868	0.019
869	0.02
869	0.021
869	0.021
870	0.021
870	0.021
871	0.021
871	0.021
872	0.02
872	0.019
872	0.019
873	0.018
873	0.017
874	0.016
874	0.015
875	0.015
875	0.015
875	0.015
876	0.015
876	0.016
877	0.017
877	0.018
878	0.019
878	0.02
878	0.022
879	0.023
879	0.024
880	0.025
880	0.025
881	0.025
881	0.026
881	0.025
882	0.025
882	0.024
883	0.024
883	0.023
884	0.022
884	0.022
884	0.021
885	0.021
885	0.021
886	0.022
886	0.022
887	0.022
887	0.022
887	0.022
888	0.022
888	0.022
889	0.022
889	0.022
890	0.022
890	0.021
890	0.02
891	0.02
891	0.019
892	0.018
892	0.017
893	0.017
893	0.016
893	0.015
894	0.015
894	0.014
895	0.013
895	0.012
895	0.011
896	0.011
896	0.01
897	0.01
897	0.009
898	0.009
898	0.008
898	0.008
899	0.008
899	0.008
900	0.008
900	0.008
901	0.009
901	0.009
901	0.01
902	0.01
902	0.011
903	0.011
903	0.011
904	0.012
904	0.012
904	0.013
905	0.013
905	0.014
906	0.014
906	0.015
907	0.016
907	0.016
907	0.017
908	0.017
908	0.018
909	0.019
909	0.02
910	0.02
910	0.021
910	0.022
911	0.023
911	0.023
912	0.024
912	0.025
913	0.026
913	0.026
913	0.026
914	0.025
914	0.025
915	0.024
915	0.023
916	0.023
916	0.022
916	0.021
917	0.02
917	0.019
918	0.019
918	0.018
918	0.018
919	0.018
919	0.018
920	0.019
920	0.019
921	0.019
921	0.019
921	0.019
922	0.019
922	0.02
923	0.02
923	0.02
924	0.021
924	0.021
924	0.021
925	0.021
925	0.02
926	0.02
926	0.02
927	0.019
927	0.018
927	0.017
928	0.016
928	0.015
929	0.014
929	0.013
930	0.012
930	0.012
930	0.011
931	0.01
931	0.01
932	0.009
932	0.009
933	0.008
933	0.008
933	0.007
934	0.007
934	0.007
935	0.007
935	0.007
935	0.007
936	0.007
936	0.007
937	0.008
937	0.008
938	0.008
938	0.009
938	0.009
939	0.009
939	0.01
940	0.01
940	0.01
941	0.01
941	0.01
941	0.01
942	0.011
942	0.011
943	0.011
943	0.011
944	0.011
944	0.012
944	0.012
945	0.013
945	0.013
946	0.014
946	0.014
946	0.014
947	0.015
947	0.015
948	0.015
948	0.015
949	0.015
949	0.015
949	0.015
950	0.015
950	0.014
951	0.014
951	0.014
952	0.013
952	0.013
952	0.013
953	0.013
953	0.013
954	0.012
954	0.012
955	0.011
955	0.011
955	0.011
956	0.011
956	0.011
957	0.011
957	0.01
957	0.009
958	0.008
958	0.008
959	0.007
959	0.007
960	0.006
960	0.004
960	0.003
961	0.002
961	0.001
962	0.001
962	0.001
963	0.001
963	0.001
963	0.002
964	0.003
964	0.004
965	0.005
965	0.007
966	0.009
966	0.01
966	0.012
967	0.013
967	0.014
968	0.014
968	0.015
968	0.015
969	0.015
969	0.015
970	0.015
970	0.014
971	0.013
971	0.013
971	0.012
972	0.011
972	0.011
973	0.011
973	0.01
974	0.01
974	0.009
974	0.009
975	0.009
975	0.009
976	0.009
976	0.009
976	0.008
977	0.007
977	0.007
978	0.006
978	0.005
979	0.004
979	0.003
979	0.003
980	0.002
980	0.001
981	0.001
981	0.001
982	0.001
982	0.002
982	0.002
983	0.003
983	0.004
984	0.004
984	0.005
984	0.006
985	0.007
985	0.008
986	0.008
986	0.008
987	0.008
987	0.008
987	0.009
988	0.009
988	0.009
989	0.009
989	0.01
990	0.01
990	0.011
990	0.012
991	0.013
991	0.014
992	0.015
992	0.015
992	0.016
993	0.016
993	0.017
994	0.017
994	0.016
995	0.016
995	0.016
995	0.015
996	0.014
996	0.013
997	0.011
997	0.01
997	0.01
998	0.009
998	0.008
999	0.008
999	0.008
1000	0.007
1000	0.007
1000	0.007
1001	0.007
1001	0.007
1002	0.007
1002	0.007
1003	0.007
1003	0.007
1003	0.007
1004	0.007
1004	0.006
1005	0.006
1005	0.006
1005	0.006
1006	0.005
1006	0.005
1007	0.004
1007	0.004
1008	0.004
1008	0.003
1008	0.003
1009	0.003
1009	0.003
1010	0.003
1010	0.002
1010	0.002
1011	0.002
1011	0.001
1012	0.001
1012	0.001
1013	0
1013	-0
1013	-0.001
1014	-0.001
1014	-0.002
1015	-0.002
1015	-0.002
1016	-0.003
1016	-0.003
1016	-0.004
1017	-0.004
1017	-0.004
1018	-0.004
1018	-0.004
1018	-0.004
1019	-0.004
1019	-0.004
1020	-0.004
1020	-0.004
1021	-0.005
1021	-0.005
1021	-0.005
1022	-0.005
1022	-0.005
1023	-0.006
1023	-0.007
1023	-0.007
1024	-0.008
1024	-0.009
1025	-0.011
1025	-0.012
1026	-0.013
1026	-0.014
1026	-0.015
1027	-0.016
1027	-0.017
1028	-0.017
1028	-0.017
1028	-0.017
1029	-0.017
1029	-0.017
1030	-0.017
1030	-0.017
1031	-0.016
1031	-0.016
1031	-0.015
1032	-0.015
1032	-0.015
1033	-0.015
1033	-0.015
1033	-0.016
1034	-0.016
1034	-0.017
1035	-0.018
1035	-0.018
1036	-0.019
1036	-0.019
1036	-0.019
1037	-0.02
1037	-0.02
1038	-0.02
1038	-0.02
1039	-0.019
1039	-0.019
1039	-0.019
1040	-0.019
1040	-0.018
1041	-0.018
1041	-0.018
1041	-0.019
1042	-0.019
1042	-0.019
1043	-0.02
1043	-0.021
1044	-0.021
1044	-0.021
1044	-0.021
1045	-0.021
1045	-0.021
1046	-0.021
1046	-0.021
1046	-0.02
1047	-0.019
1047	-0.018
1048	-0.017
1048	-0.017
1049	-0.016
1049	-0.017
1049	-0.017
1050	-0.017
1050	-0.018
1051	-0.018
1051	-0.019
1051	-0.02
1052	-0.02
1052	-0.021
1053	-0.022
1053	-0.022
1053	-0.023
1054	-0.023
1054	-0.023
1055	-0.023
1055	-0.023
1056	-0.024
1056	-0.024
1056	-0.025
1057	-0.026
1057	-0.027
1058	-0.028
1058	-0.028
1058	-0.029
1059	-0.03
1059	-0.03
1060	-0.031
1060	-0.03
1061	-0.029
1061	-0.028
1061	-0.028
1062	-0.027
1062	-0.027
1063	-0.027
1063	-0.026
1063	-0.025
1064	-0.025
1064	-0.024
1065	-0.023
1065	-0.023
1066	-0.023
1066	-0.023
1066	-0.022
1067	-0.022
1067	-0.021
1068	-0.022
1068	-0.022
1068	-0.022
1069	-0.023
1069	-0.023
1070	-0.024
1070	-0.024
1071	-0.024
1071	-0.024
1071	-0.025
1072	-0.025
1072	-0.024
1073	-0.024
1073	-0.023
1073	-0.023
1074	-0.022
1074	-0.022
1075	-0.022
1075	-0.022
1076	-0.023
1076	-0.022
1076	-0.023
1077	-0.024
1077	-0.024
1078	-0.025
1078	-0.025
1078	-0.024
1079	-0.024
1079	-0.023
1080	-0.024
1080	-0.023
1080	-0.023
1081	-0.023
1081	-0.023
1082	-0.022
1082	-0.022
1083	-0.022
1083	-0.023
1083	-0.022
1084	-0.022
1084	-0.022
1085	-0.021
1085	-0.02
1085	-0.019
1086	-0.018
1086	-0.018
1087	-0.017
1087	-0.016
1088	-0.016
1088	-0.015
1088	-0.014
1089	-0.015
1089	-0.015
1090	-0.015
1090	-0.014
1090	-0.013
1091	-0.012
1091	-0.01
1092	-0.009
1092	-0.007
1092	-0.006
1093	-0.004
1093	-0
1094	0.002
1094	0.004
1095	0.005
1095	0.006
1095	0.009
1096	0.01
1096	0.012
1097	0.015
1097	0.016
1097	0.017
1098	0.018
1098	0.019
1099	0.021
1099	0.024
1100	0.027
1100	0.029
1100	0.031
1101	0.033
1101	0.036
1102	0.041
1102	0.045
1102	0.05
1103	0.055
1103	0.061
1104	0.067
1104	0.074
1104	0.084
1105	0.092
1105	0.1
1106	0.106
1106	0.118
1107	0.128
1107	0.144
1107	0.16
1108	0.223
1108	0.315
1109	0.461
1109	0.787
1109	1.368
1110	-0
1110	-0
1111	-0
1111	-0
