Data from 15c-2a-1h-fridge_Absorbance__48__05416.txt Node

Date: Wed Jan 17 16:11:55 CET 2024
User: Marek
Spectrometer: MAYP115816
Trigger mode: 0
Integration Time (sec): 2.000000E-1
Scans to average: 10
Electric dark correction enabled: true
Nonlinearity correction enabled: true
Boxcar width: 5
XAxis mode: Wavelengths
Number of Pixels in Spectrum: 2068
>>>>>Begin Spectral Data<<<<<
199	-2.035
199	-1.89
200	-1.725
200	-1.597
201	-1.517
201	-1.467
202	-1.391
202	-1.333
203	-1.282
203	-1.237
204	-1.21
204	-1.186
205	-1.161
205	-1.151
205	-1.149
206	-1.148
206	-1.143
207	-1.141
207	-1.136
208	-1.134
208	-1.133
209	-1.128
209	-1.126
210	-1.125
210	-1.126
211	-1.123
211	-1.122
212	-1.123
212	-1.122
213	-1.121
213	-1.12
213	-1.118
214	-1.117
214	-1.116
215	-1.114
215	-1.112
216	-1.112
216	-1.109
217	-1.104
217	-1.102
218	-1.101
218	-1.098
219	-1.095
219	-1.094
220	-1.09
220	-1.087
221	-1.082
221	-1.078
221	-1.074
222	-1.07
222	-1.065
223	-1.059
223	-1.055
224	-1.049
224	-1.041
225	-1.032
225	-1.025
226	-1.015
226	-1.003
227	-0.99
227	-0.976
228	-0.96
228	-0.94
229	-0.919
229	-0.895
229	-0.867
230	-0.836
230	-0.804
231	-0.767
231	-0.729
232	-0.689
232	-0.646
233	-0.6
233	-0.553
234	-0.505
234	-0.458
235	-0.411
235	-0.365
236	-0.32
236	-0.276
236	-0.234
237	-0.194
237	-0.156
238	-0.121
238	-0.087
239	-0.056
239	-0.027
240	0
240	0.025
241	0.047
241	0.068
242	0.087
242	0.104
243	0.12
243	0.134
243	0.147
244	0.159
244	0.17
245	0.179
245	0.189
246	0.197
246	0.205
247	0.212
247	0.218
248	0.224
248	0.23
249	0.236
249	0.24
250	0.245
250	0.249
250	0.253
251	0.257
251	0.26
252	0.264
252	0.267
253	0.27
253	0.272
254	0.275
254	0.277
255	0.279
255	0.281
256	0.283
256	0.284
257	0.286
257	0.287
258	0.288
258	0.289
258	0.29
259	0.291
259	0.292
260	0.292
260	0.293
261	0.293
261	0.293
262	0.294
262	0.294
263	0.294
263	0.293
264	0.293
264	0.293
265	0.293
265	0.292
265	0.292
266	0.291
266	0.291
267	0.29
267	0.289
268	0.288
268	0.287
269	0.286
269	0.285
270	0.284
270	0.283
271	0.282
271	0.281
272	0.28
272	0.279
272	0.278
273	0.276
273	0.275
274	0.274
274	0.273
275	0.272
275	0.271
276	0.27
276	0.269
277	0.267
277	0.266
278	0.265
278	0.263
278	0.261
279	0.259
279	0.257
280	0.256
280	0.254
281	0.253
281	0.251
282	0.25
282	0.249
283	0.248
283	0.247
284	0.246
284	0.246
285	0.246
285	0.245
285	0.244
286	0.243
286	0.242
287	0.242
287	0.241
288	0.24
288	0.24
289	0.239
289	0.238
290	0.237
290	0.236
291	0.236
291	0.235
292	0.234
292	0.233
292	0.232
293	0.232
293	0.231
294	0.231
294	0.23
295	0.229
295	0.229
296	0.228
296	0.228
297	0.227
297	0.227
298	0.227
298	0.226
298	0.226
299	0.226
299	0.225
300	0.225
300	0.224
301	0.224
301	0.224
302	0.223
302	0.223
303	0.223
303	0.222
304	0.222
304	0.222
305	0.221
305	0.221
305	0.22
306	0.22
306	0.219
307	0.219
307	0.218
308	0.218
308	0.217
309	0.217
309	0.216
310	0.215
310	0.215
311	0.215
311	0.214
311	0.213
312	0.213
312	0.212
313	0.212
313	0.211
314	0.211
314	0.21
315	0.21
315	0.209
316	0.209
316	0.208
317	0.208
317	0.207
318	0.206
318	0.206
318	0.205
319	0.205
319	0.204
320	0.203
320	0.203
321	0.202
321	0.201
322	0.201
322	0.2
323	0.199
323	0.199
324	0.198
324	0.197
324	0.197
325	0.196
325	0.196
326	0.195
326	0.195
327	0.194
327	0.193
328	0.193
328	0.192
329	0.192
329	0.191
330	0.19
330	0.19
330	0.189
331	0.189
331	0.188
332	0.187
332	0.187
333	0.186
333	0.185
334	0.185
334	0.184
335	0.183
335	0.183
336	0.182
336	0.181
336	0.181
337	0.18
337	0.18
338	0.179
338	0.178
339	0.178
339	0.178
340	0.177
340	0.176
341	0.176
341	0.175
342	0.175
342	0.174
342	0.174
343	0.173
343	0.173
344	0.173
344	0.172
345	0.171
345	0.171
346	0.17
346	0.17
347	0.169
347	0.169
348	0.168
348	0.168
348	0.167
349	0.167
349	0.166
350	0.165
350	0.165
351	0.164
351	0.164
352	0.163
352	0.162
353	0.162
353	0.161
354	0.16
354	0.159
354	0.159
355	0.158
355	0.157
356	0.157
356	0.156
357	0.156
357	0.156
358	0.155
358	0.156
359	0.156
359	0.156
360	0.156
360	0.157
360	0.157
361	0.157
361	0.158
362	0.158
362	0.158
363	0.158
363	0.158
364	0.157
364	0.157
365	0.157
365	0.156
366	0.156
366	0.156
366	0.155
367	0.155
367	0.155
368	0.155
368	0.154
369	0.154
369	0.154
370	0.154
370	0.153
371	0.153
371	0.153
372	0.153
372	0.153
372	0.153
373	0.153
373	0.152
374	0.153
374	0.153
375	0.153
375	0.152
376	0.153
376	0.153
377	0.153
377	0.153
378	0.153
378	0.153
378	0.154
379	0.154
379	0.154
380	0.154
380	0.154
381	0.154
381	0.154
382	0.154
382	0.154
383	0.153
383	0.153
383	0.153
384	0.152
384	0.152
385	0.152
385	0.152
386	0.152
386	0.152
387	0.152
387	0.152
388	0.152
388	0.152
389	0.152
389	0.152
389	0.152
390	0.153
390	0.153
391	0.153
391	0.153
392	0.154
392	0.154
393	0.154
393	0.153
394	0.153
394	0.153
394	0.153
395	0.153
395	0.153
396	0.152
396	0.153
397	0.153
397	0.153
398	0.153
398	0.153
399	0.153
399	0.153
400	0.153
400	0.152
400	0.152
401	0.151
401	0.15
402	0.15
402	0.149
403	0.149
403	0.149
404	0.149
404	0.149
405	0.149
405	0.148
405	0.148
406	0.148
406	0.148
407	0.148
407	0.148
408	0.147
408	0.147
409	0.146
409	0.146
410	0.146
410	0.147
411	0.147
411	0.147
411	0.147
412	0.146
412	0.146
413	0.146
413	0.146
414	0.146
414	0.146
415	0.145
415	0.145
416	0.144
416	0.144
416	0.144
417	0.143
417	0.143
418	0.143
418	0.144
419	0.144
419	0.145
420	0.145
420	0.146
421	0.147
421	0.147
421	0.147
422	0.148
422	0.148
423	0.148
423	0.148
424	0.147
424	0.146
425	0.146
425	0.145
426	0.145
426	0.144
427	0.144
427	0.144
427	0.144
428	0.145
428	0.146
429	0.146
429	0.146
430	0.146
430	0.146
431	0.146
431	0.146
432	0.145
432	0.145
432	0.144
433	0.143
433	0.142
434	0.141
434	0.141
435	0.142
435	0.142
436	0.142
436	0.142
437	0.142
437	0.142
437	0.142
438	0.142
438	0.142
439	0.142
439	0.142
440	0.141
440	0.141
441	0.142
441	0.142
442	0.142
442	0.142
442	0.142
443	0.142
443	0.142
444	0.142
444	0.143
445	0.143
445	0.143
446	0.143
446	0.143
447	0.143
447	0.143
447	0.143
448	0.142
448	0.142
449	0.142
449	0.142
450	0.142
450	0.141
451	0.141
451	0.14
452	0.14
452	0.14
452	0.139
453	0.139
453	0.139
454	0.138
454	0.138
455	0.138
455	0.138
456	0.138
456	0.137
457	0.137
457	0.137
458	0.137
458	0.137
458	0.137
459	0.137
459	0.137
460	0.136
460	0.135
461	0.135
461	0.135
462	0.135
462	0.135
463	0.135
463	0.136
463	0.136
464	0.136
464	0.136
465	0.136
465	0.136
466	0.136
466	0.136
467	0.136
467	0.136
467	0.135
468	0.134
468	0.133
469	0.132
469	0.131
470	0.13
470	0.129
471	0.129
471	0.129
472	0.129
472	0.129
472	0.129
473	0.13
473	0.131
474	0.131
474	0.132
475	0.133
475	0.134
476	0.134
476	0.134
477	0.134
477	0.134
477	0.134
478	0.134
478	0.133
479	0.134
479	0.134
480	0.134
480	0.135
481	0.135
481	0.136
482	0.137
482	0.138
482	0.139
483	0.141
483	0.143
484	0.145
484	0.146
485	0.147
485	0.148
486	0.149
486	0.149
487	0.149
487	0.15
487	0.15
488	0.149
488	0.147
489	0.146
489	0.145
490	0.145
490	0.145
491	0.145
491	0.145
492	0.145
492	0.145
492	0.145
493	0.146
493	0.146
494	0.148
494	0.149
495	0.151
495	0.151
496	0.152
496	0.153
496	0.154
497	0.155
497	0.156
498	0.157
498	0.157
499	0.157
499	0.158
500	0.158
500	0.159
501	0.161
501	0.162
501	0.163
502	0.163
502	0.165
503	0.166
503	0.167
504	0.167
504	0.167
505	0.167
505	0.167
506	0.168
506	0.168
506	0.168
507	0.169
507	0.169
508	0.17
508	0.17
509	0.171
509	0.172
510	0.173
510	0.174
511	0.174
511	0.174
511	0.174
512	0.174
512	0.174
513	0.173
513	0.172
514	0.172
514	0.172
515	0.172
515	0.171
515	0.171
516	0.17
516	0.171
517	0.171
517	0.171
518	0.172
518	0.172
519	0.171
519	0.171
520	0.17
520	0.169
520	0.168
521	0.167
521	0.165
522	0.162
522	0.16
523	0.159
523	0.158
524	0.157
524	0.156
524	0.156
525	0.157
525	0.158
526	0.16
526	0.162
527	0.165
527	0.167
528	0.169
528	0.171
529	0.173
529	0.174
529	0.175
530	0.176
530	0.176
531	0.177
531	0.178
532	0.178
532	0.178
533	0.179
533	0.179
533	0.18
534	0.179
534	0.179
535	0.179
535	0.179
536	0.179
536	0.179
537	0.179
537	0.179
538	0.178
538	0.178
538	0.177
539	0.177
539	0.177
540	0.177
540	0.176
541	0.175
541	0.175
542	0.174
542	0.173
542	0.173
543	0.172
543	0.172
544	0.171
544	0.171
545	0.171
545	0.171
546	0.172
546	0.172
547	0.171
547	0.17
547	0.168
548	0.167
548	0.166
549	0.165
549	0.165
550	0.164
550	0.163
551	0.161
551	0.16
551	0.16
552	0.16
552	0.16
553	0.16
553	0.16
554	0.16
554	0.16
555	0.158
555	0.157
556	0.155
556	0.154
556	0.152
557	0.151
557	0.15
558	0.149
558	0.148
559	0.148
559	0.148
560	0.148
560	0.148
560	0.148
561	0.148
561	0.149
562	0.149
562	0.149
563	0.147
563	0.146
564	0.144
564	0.142
564	0.141
565	0.141
565	0.14
566	0.14
566	0.139
567	0.14
567	0.141
568	0.143
568	0.145
568	0.147
569	0.15
569	0.153
570	0.154
570	0.155
571	0.156
571	0.157
572	0.158
572	0.158
573	0.158
573	0.158
573	0.157
574	0.157
574	0.156
575	0.156
575	0.158
576	0.16
576	0.159
577	0.158
577	0.158
577	0.158
578	0.157
578	0.158
579	0.159
579	0.161
580	0.16
580	0.157
581	0.154
581	0.152
581	0.151
582	0.151
582	0.15
583	0.151
583	0.151
584	0.148
584	0.143
585	0.142
585	0.142
585	0.142
586	0.143
586	0.143
587	0.141
587	0.139
588	0.137
588	0.135
589	0.134
589	0.134
590	0.133
590	0.133
590	0.134
591	0.135
591	0.135
592	0.135
592	0.134
593	0.134
593	0.134
594	0.133
594	0.132
594	0.13
595	0.13
595	0.128
596	0.126
596	0.127
597	0.13
597	0.132
598	0.132
598	0.134
598	0.135
599	0.136
599	0.136
600	0.135
600	0.134
601	0.132
601	0.131
602	0.129
602	0.127
602	0.126
603	0.125
603	0.126
604	0.127
604	0.128
605	0.13
605	0.132
606	0.133
606	0.132
606	0.131
607	0.13
607	0.13
608	0.128
608	0.126
609	0.124
609	0.123
610	0.122
610	0.119
610	0.119
611	0.12
611	0.121
612	0.123
612	0.125
613	0.126
613	0.128
614	0.127
614	0.126
614	0.125
615	0.124
615	0.122
616	0.121
616	0.12
617	0.118
617	0.116
618	0.113
618	0.111
618	0.11
619	0.11
619	0.111
620	0.112
620	0.113
621	0.113
621	0.113
622	0.113
622	0.114
622	0.114
623	0.113
623	0.114
624	0.114
624	0.113
625	0.112
625	0.111
626	0.111
626	0.11
626	0.11
627	0.111
627	0.11
628	0.11
628	0.111
629	0.111
629	0.11
630	0.109
630	0.108
630	0.107
631	0.107
631	0.107
632	0.106
632	0.105
633	0.106
633	0.106
634	0.107
634	0.109
634	0.111
635	0.113
635	0.114
636	0.115
636	0.116
637	0.117
637	0.117
638	0.118
638	0.119
638	0.12
639	0.119
639	0.119
640	0.12
640	0.12
641	0.121
641	0.122
642	0.123
642	0.125
642	0.126
643	0.127
643	0.128
644	0.129
644	0.131
645	0.132
645	0.133
646	0.135
646	0.138
646	0.14
647	0.143
647	0.146
648	0.148
648	0.15
649	0.152
649	0.154
650	0.156
650	0.158
650	0.16
651	0.161
651	0.163
652	0.164
652	0.165
653	0.168
653	0.177
653	0.197
654	0.158
654	0.13
655	0.131
655	0.132
656	0.133
656	0.134
657	0.135
657	0.136
657	0.137
658	0.133
658	0.116
659	0.146
659	0.188
660	0.194
660	0.196
661	0.197
661	0.199
661	0.202
662	0.205
662	0.208
663	0.211
663	0.214
664	0.216
664	0.219
665	0.221
665	0.223
665	0.225
666	0.227
666	0.228
667	0.23
667	0.231
668	0.233
668	0.235
669	0.237
669	0.24
669	0.244
670	0.248
670	0.251
671	0.253
671	0.254
672	0.256
672	0.258
672	0.26
673	0.261
673	0.262
674	0.263
674	0.263
675	0.263
675	0.263
676	0.265
676	0.267
676	0.268
677	0.27
677	0.272
678	0.273
678	0.274
679	0.275
679	0.276
680	0.278
680	0.279
680	0.279
681	0.28
681	0.28
682	0.281
682	0.282
683	0.284
683	0.286
684	0.288
684	0.288
684	0.288
685	0.289
685	0.29
686	0.291
686	0.291
687	0.291
687	0.291
687	0.291
688	0.291
688	0.29
689	0.291
689	0.292
690	0.292
690	0.292
691	0.291
691	0.291
691	0.291
692	0.29
692	0.289
693	0.289
693	0.289
694	0.288
694	0.287
695	0.287
695	0.29
695	0.29
696	0.29
696	0.289
697	0.288
697	0.288
698	0.287
698	0.285
698	0.284
699	0.283
699	0.281
700	0.278
700	0.277
701	0.277
701	0.276
702	0.275
702	0.274
702	0.273
703	0.272
703	0.271
704	0.27
704	0.27
705	0.27
705	0.269
705	0.268
706	0.267
706	0.267
707	0.266
707	0.264
708	0.262
708	0.261
709	0.26
709	0.259
709	0.256
710	0.253
710	0.252
711	0.251
711	0.25
712	0.249
712	0.248
713	0.247
713	0.246
713	0.244
714	0.242
714	0.241
715	0.239
715	0.238
716	0.235
716	0.234
716	0.233
717	0.231
717	0.23
718	0.228
718	0.226
719	0.225
719	0.224
720	0.222
720	0.22
720	0.218
721	0.215
721	0.213
722	0.212
722	0.21
723	0.209
723	0.209
723	0.207
724	0.206
724	0.205
725	0.203
725	0.201
726	0.2
726	0.199
727	0.198
727	0.196
727	0.195
728	0.193
728	0.191
729	0.192
729	0.191
730	0.19
730	0.189
730	0.188
731	0.187
731	0.185
732	0.184
732	0.183
733	0.18
733	0.178
734	0.175
734	0.173
734	0.171
735	0.169
735	0.167
736	0.165
736	0.164
737	0.163
737	0.164
737	0.163
738	0.161
738	0.159
739	0.157
739	0.155
740	0.152
740	0.15
741	0.148
741	0.145
741	0.141
742	0.136
742	0.132
743	0.13
743	0.128
744	0.126
744	0.125
744	0.124
745	0.122
745	0.12
746	0.118
746	0.118
747	0.117
747	0.117
748	0.117
748	0.117
748	0.116
749	0.115
749	0.115
750	0.114
750	0.114
751	0.114
751	0.114
751	0.114
752	0.113
752	0.112
753	0.111
753	0.111
754	0.11
754	0.109
754	0.11
755	0.11
755	0.11
756	0.11
756	0.107
757	0.105
757	0.105
758	0.104
758	0.103
758	0.102
759	0.101
759	0.098
760	0.094
760	0.091
761	0.088
761	0.087
761	0.085
762	0.083
762	0.083
763	0.082
763	0.079
764	0.076
764	0.074
764	0.071
765	0.069
765	0.066
766	0.065
766	0.064
767	0.062
767	0.058
768	0.054
768	0.051
768	0.049
769	0.048
769	0.047
770	0.045
770	0.043
771	0.04
771	0.035
771	0.031
772	0.028
772	0.024
773	0.02
773	0.016
774	0.011
774	0.005
775	0
775	-0.005
775	-0.011
776	-0.017
776	-0.023
777	-0.029
777	-0.035
778	-0.041
778	-0.048
778	-0.054
779	-0.058
779	-0.063
780	-0.069
780	-0.077
781	-0.084
781	-0.094
781	-0.102
782	-0.111
782	-0.12
783	-0.129
783	-0.135
784	-0.142
784	-0.148
784	-0.153
785	-0.157
785	-0.16
786	-0.16
786	-0.157
787	-0.152
787	-0.147
788	-0.146
788	-0.147
788	-0.148
789	-0.15
789	-0.15
790	-0.147
790	-0.145
791	-0.146
791	-0.148
791	-0.15
792	-0.145
792	-0.134
793	-0.128
793	-0.125
794	-0.123
794	-0.125
794	-0.129
795	-0.132
795	-0.132
796	-0.133
796	-0.136
797	-0.145
797	-0.156
797	-0.162
798	-0.167
798	-0.17
799	-0.17
799	-0.17
800	-0.169
800	-0.17
801	-0.173
801	-0.174
801	-0.174
802	-0.176
802	-0.177
803	-0.178
803	-0.178
804	-0.177
804	-0.172
804	-0.166
805	-0.162
805	-0.16
806	-0.158
806	-0.156
807	-0.155
807	-0.155
807	-0.155
808	-0.155
808	-0.156
809	-0.161
809	-0.167
810	-0.17
810	-0.173
810	-0.177
811	-0.18
811	-0.181
812	-0.177
812	-0.174
813	-0.174
813	-0.174
813	-0.175
814	-0.175
814	-0.174
815	-0.171
815	-0.168
816	-0.165
816	-0.165
817	-0.168
817	-0.171
817	-0.171
818	-0.17
818	-0.165
819	-0.16
819	-0.155
820	-0.153
820	-0.15
820	-0.144
821	-0.137
821	-0.128
822	-0.118
822	-0.107
823	-0.096
823	-0.088
823	-0.08
824	-0.071
824	-0.061
825	-0.051
825	-0.042
826	-0.034
826	-0.028
826	-0.022
827	-0.016
827	-0.012
828	-0.007
828	-0.003
829	-0
829	0.003
829	0.005
830	0.006
830	0.008
831	0.012
831	0.015
832	0.018
832	0.02
832	0.022
833	0.025
833	0.028
834	0.03
834	0.032
835	0.034
835	0.036
835	0.037
836	0.038
836	0.039
837	0.041
837	0.042
838	0.043
838	0.044
839	0.045
839	0.046
839	0.047
840	0.048
840	0.048
841	0.049
841	0.05
842	0.051
842	0.052
842	0.053
843	0.053
843	0.054
844	0.054
844	0.055
845	0.056
845	0.057
845	0.058
846	0.059
846	0.059
847	0.06
847	0.06
848	0.061
848	0.061
848	0.062
849	0.062
849	0.062
850	0.062
850	0.062
851	0.063
851	0.063
851	0.064
852	0.064
852	0.065
853	0.066
853	0.066
854	0.067
854	0.067
854	0.068
855	0.068
855	0.068
856	0.067
856	0.068
857	0.068
857	0.068
857	0.068
858	0.068
858	0.068
859	0.068
859	0.069
860	0.069
860	0.07
860	0.07
861	0.07
861	0.07
862	0.07
862	0.069
863	0.069
863	0.068
863	0.068
864	0.067
864	0.067
865	0.067
865	0.067
866	0.068
866	0.068
866	0.069
867	0.07
867	0.072
868	0.073
868	0.075
869	0.077
869	0.078
869	0.078
870	0.079
870	0.079
871	0.079
871	0.078
872	0.077
872	0.076
872	0.075
873	0.074
873	0.072
874	0.071
874	0.07
875	0.07
875	0.07
875	0.069
876	0.07
876	0.07
877	0.07
877	0.071
878	0.072
878	0.073
878	0.074
879	0.075
879	0.075
880	0.076
880	0.076
881	0.076
881	0.076
881	0.076
882	0.075
882	0.074
883	0.073
883	0.073
884	0.072
884	0.071
884	0.071
885	0.071
885	0.071
886	0.071
886	0.071
887	0.071
887	0.071
887	0.071
888	0.071
888	0.071
889	0.071
889	0.071
890	0.071
890	0.07
890	0.069
891	0.068
891	0.067
892	0.066
892	0.066
893	0.065
893	0.064
893	0.064
894	0.063
894	0.063
895	0.062
895	0.062
895	0.061
896	0.061
896	0.061
897	0.061
897	0.061
898	0.061
898	0.061
898	0.062
899	0.062
899	0.063
900	0.063
900	0.064
901	0.065
901	0.066
901	0.066
902	0.067
902	0.068
903	0.068
903	0.068
904	0.069
904	0.069
904	0.069
905	0.069
905	0.069
906	0.069
906	0.07
907	0.07
907	0.07
907	0.071
908	0.071
908	0.072
909	0.073
909	0.073
910	0.074
910	0.075
910	0.076
911	0.077
911	0.079
912	0.08
912	0.081
913	0.082
913	0.082
913	0.082
914	0.082
914	0.081
915	0.08
915	0.079
916	0.077
916	0.075
916	0.074
917	0.072
917	0.07
918	0.069
918	0.067
918	0.067
919	0.066
919	0.066
920	0.066
920	0.066
921	0.066
921	0.066
921	0.067
922	0.067
922	0.068
923	0.068
923	0.069
924	0.069
924	0.069
924	0.069
925	0.068
925	0.068
926	0.068
926	0.068
927	0.067
927	0.067
927	0.066
928	0.066
928	0.065
929	0.065
929	0.064
930	0.063
930	0.063
930	0.062
931	0.061
931	0.06
932	0.059
932	0.058
933	0.057
933	0.056
933	0.056
934	0.055
934	0.054
935	0.054
935	0.054
935	0.054
936	0.054
936	0.054
937	0.055
937	0.056
938	0.056
938	0.057
938	0.057
939	0.058
939	0.059
940	0.06
940	0.061
941	0.062
941	0.062
941	0.063
942	0.064
942	0.065
943	0.065
943	0.065
944	0.065
944	0.065
944	0.065
945	0.065
945	0.065
946	0.065
946	0.064
946	0.064
947	0.064
947	0.064
948	0.063
948	0.063
949	0.063
949	0.062
949	0.062
950	0.061
950	0.061
951	0.06
951	0.059
952	0.059
952	0.059
952	0.059
953	0.059
953	0.059
954	0.059
954	0.06
955	0.06
955	0.061
955	0.061
956	0.062
956	0.063
957	0.063
957	0.063
957	0.062
958	0.062
958	0.061
959	0.06
959	0.059
960	0.058
960	0.057
960	0.055
961	0.054
961	0.053
962	0.052
962	0.051
963	0.051
963	0.051
963	0.051
964	0.052
964	0.053
965	0.054
965	0.055
966	0.056
966	0.057
966	0.058
967	0.059
967	0.06
968	0.06
968	0.061
968	0.061
969	0.061
969	0.06
970	0.06
970	0.059
971	0.058
971	0.057
971	0.057
972	0.056
972	0.056
973	0.056
973	0.055
974	0.055
974	0.054
974	0.054
975	0.053
975	0.053
976	0.053
976	0.052
976	0.051
977	0.05
977	0.049
978	0.048
978	0.047
979	0.047
979	0.046
979	0.046
980	0.046
980	0.045
981	0.045
981	0.046
982	0.047
982	0.048
982	0.049
983	0.051
983	0.052
984	0.053
984	0.054
984	0.055
985	0.056
985	0.056
986	0.056
986	0.056
987	0.056
987	0.057
987	0.057
988	0.058
988	0.059
989	0.059
989	0.06
990	0.061
990	0.062
990	0.064
991	0.065
991	0.066
992	0.067
992	0.068
992	0.069
993	0.069
993	0.069
994	0.069
994	0.069
995	0.068
995	0.068
995	0.067
996	0.066
996	0.064
997	0.063
997	0.062
997	0.061
998	0.06
998	0.059
999	0.059
999	0.058
1000	0.057
1000	0.057
1000	0.057
1001	0.056
1001	0.056
1002	0.057
1002	0.057
1003	0.057
1003	0.057
1003	0.057
1004	0.057
1004	0.057
1005	0.056
1005	0.056
1005	0.056
1006	0.055
1006	0.054
1007	0.053
1007	0.052
1008	0.052
1008	0.051
1008	0.05
1009	0.049
1009	0.049
1010	0.048
1010	0.047
1010	0.047
1011	0.046
1011	0.045
1012	0.044
1012	0.043
1013	0.042
1013	0.041
1013	0.04
1014	0.039
1014	0.038
1015	0.038
1015	0.038
1016	0.037
1016	0.037
1016	0.037
1017	0.038
1017	0.038
1018	0.039
1018	0.04
1018	0.04
1019	0.041
1019	0.042
1020	0.042
1020	0.043
1021	0.043
1021	0.043
1021	0.043
1022	0.043
1022	0.043
1023	0.043
1023	0.043
1023	0.042
1024	0.041
1024	0.04
1025	0.039
1025	0.039
1026	0.038
1026	0.037
1026	0.036
1027	0.035
1027	0.034
1028	0.034
1028	0.033
1028	0.033
1029	0.033
1029	0.033
1030	0.033
1030	0.033
1031	0.034
1031	0.034
1031	0.035
1032	0.035
1032	0.036
1033	0.036
1033	0.036
1033	0.036
1034	0.036
1034	0.036
1035	0.035
1035	0.035
1036	0.035
1036	0.034
1036	0.035
1037	0.035
1037	0.035
1038	0.035
1038	0.036
1039	0.037
1039	0.038
1039	0.039
1040	0.039
1040	0.04
1041	0.04
1041	0.04
1041	0.04
1042	0.04
1042	0.04
1043	0.039
1043	0.039
1044	0.038
1044	0.038
1044	0.038
1045	0.038
1045	0.038
1046	0.037
1046	0.037
1046	0.037
1047	0.038
1047	0.038
1048	0.039
1048	0.039
1049	0.039
1049	0.039
1049	0.038
1050	0.038
1050	0.037
1051	0.037
1051	0.036
1051	0.036
1052	0.036
1052	0.035
1053	0.034
1053	0.034
1053	0.034
1054	0.034
1054	0.035
1055	0.035
1055	0.034
1056	0.034
1056	0.033
1056	0.032
1057	0.032
1057	0.032
1058	0.032
1058	0.032
1058	0.033
1059	0.032
1059	0.032
1060	0.033
1060	0.034
1061	0.036
1061	0.037
1061	0.039
1062	0.039
1062	0.04
1063	0.041
1063	0.042
1063	0.043
1064	0.045
1064	0.046
1065	0.047
1065	0.048
1066	0.049
1066	0.05
1066	0.052
1067	0.053
1067	0.054
1068	0.055
1068	0.055
1068	0.055
1069	0.056
1069	0.055
1070	0.056
1070	0.056
1071	0.057
1071	0.057
1071	0.057
1072	0.057
1072	0.059
1073	0.059
1073	0.061
1073	0.061
1074	0.063
1074	0.064
1075	0.064
1075	0.064
1076	0.065
1076	0.067
1076	0.067
1077	0.067
1077	0.068
1078	0.069
1078	0.07
1078	0.072
1079	0.073
1079	0.076
1080	0.076
1080	0.078
1080	0.079
1081	0.08
1081	0.083
1082	0.084
1082	0.085
1083	0.087
1083	0.088
1083	0.089
1084	0.091
1084	0.094
1085	0.097
1085	0.1
1085	0.103
1086	0.105
1086	0.106
1087	0.109
1087	0.113
1088	0.115
1088	0.117
1088	0.12
1089	0.122
1089	0.125
1090	0.128
1090	0.132
1090	0.136
1091	0.141
1091	0.148
1092	0.153
1092	0.161
1092	0.168
1093	0.175
1093	0.185
1094	0.194
1094	0.202
1095	0.21
1095	0.22
1095	0.232
1096	0.243
1096	0.256
1097	0.27
1097	0.282
1097	0.297
1098	0.312
1098	0.328
1099	0.35
1099	0.372
1100	0.399
1100	0.426
1100	0.457
1101	0.491
1101	0.531
1102	0.587
1102	0.646
1102	0.724
1103	0.824
1103	0.957
1104	1.184
1104	1.662
1104	-0
1105	-0
1105	-0
1106	-0
1106	-0
1107	-0
1107	-0
1107	-0
1108	-0
1108	-0
1109	-0
1109	-0
1109	-0
1110	-0
1110	-0
1111	-0
1111	-0
