Data from 15c-2a-1h-fridge_Absorbance__569__05937.txt Node

Date: Wed Jan 17 16:29:17 CET 2024
User: Marek
Spectrometer: MAYP115816
Trigger mode: 0
Integration Time (sec): 2.000000E-1
Scans to average: 10
Electric dark correction enabled: true
Nonlinearity correction enabled: true
Boxcar width: 5
XAxis mode: Wavelengths
Number of Pixels in Spectrum: 2068
>>>>>Begin Spectral Data<<<<<
199	-1.634
199	-1.496
200	-1.337
200	-1.215
201	-1.138
201	-1.091
202	-1.021
202	-0.97
203	-0.925
203	-0.886
204	-0.861
204	-0.838
205	-0.815
205	-0.805
205	-0.803
206	-0.803
206	-0.799
207	-0.797
207	-0.793
208	-0.791
208	-0.791
209	-0.787
209	-0.785
210	-0.785
210	-0.786
211	-0.784
211	-0.783
212	-0.785
212	-0.784
213	-0.783
213	-0.782
213	-0.782
214	-0.781
214	-0.78
215	-0.778
215	-0.777
216	-0.777
216	-0.775
217	-0.77
217	-0.768
218	-0.768
218	-0.764
219	-0.761
219	-0.76
220	-0.757
220	-0.755
221	-0.75
221	-0.747
221	-0.742
222	-0.739
222	-0.734
223	-0.729
223	-0.725
224	-0.72
224	-0.712
225	-0.703
225	-0.695
226	-0.686
226	-0.674
227	-0.661
227	-0.648
228	-0.632
228	-0.614
229	-0.594
229	-0.568
229	-0.541
230	-0.512
230	-0.48
231	-0.444
231	-0.407
232	-0.369
232	-0.328
233	-0.284
233	-0.239
234	-0.195
234	-0.151
235	-0.107
235	-0.065
236	-0.025
236	0.014
236	0.052
237	0.088
237	0.12
238	0.151
238	0.18
239	0.207
239	0.231
240	0.253
240	0.273
241	0.29
241	0.307
242	0.322
242	0.335
243	0.347
243	0.357
243	0.367
244	0.376
244	0.384
245	0.391
245	0.398
246	0.404
246	0.41
247	0.415
247	0.42
248	0.424
248	0.429
249	0.433
249	0.436
250	0.439
250	0.442
250	0.445
251	0.448
251	0.451
252	0.453
252	0.455
253	0.458
253	0.459
254	0.461
254	0.463
255	0.464
255	0.466
256	0.467
256	0.468
257	0.468
257	0.469
258	0.47
258	0.47
258	0.47
259	0.47
259	0.47
260	0.47
260	0.47
261	0.47
261	0.47
262	0.469
262	0.469
263	0.468
263	0.468
264	0.467
264	0.466
265	0.465
265	0.464
265	0.463
266	0.462
266	0.461
267	0.459
267	0.457
268	0.456
268	0.454
269	0.453
269	0.451
270	0.449
270	0.447
271	0.445
271	0.443
272	0.441
272	0.439
272	0.437
273	0.435
273	0.433
274	0.431
274	0.429
275	0.427
275	0.425
276	0.423
276	0.42
277	0.418
277	0.416
278	0.413
278	0.411
278	0.408
279	0.405
279	0.401
280	0.399
280	0.396
281	0.394
281	0.391
282	0.389
282	0.386
283	0.384
283	0.382
284	0.381
284	0.38
285	0.379
285	0.377
285	0.375
286	0.373
286	0.372
287	0.37
287	0.368
288	0.367
288	0.365
289	0.363
289	0.361
290	0.36
290	0.358
291	0.357
291	0.355
292	0.353
292	0.352
292	0.35
293	0.349
293	0.348
294	0.346
294	0.345
295	0.344
295	0.343
296	0.341
296	0.34
297	0.339
297	0.338
298	0.337
298	0.336
298	0.335
299	0.334
299	0.334
300	0.333
300	0.331
301	0.331
301	0.33
302	0.328
302	0.327
303	0.327
303	0.326
304	0.325
304	0.324
305	0.323
305	0.322
305	0.321
306	0.32
306	0.319
307	0.318
307	0.317
308	0.317
308	0.316
309	0.315
309	0.314
310	0.313
310	0.312
311	0.311
311	0.311
311	0.31
312	0.309
312	0.308
313	0.307
313	0.306
314	0.305
314	0.304
315	0.303
315	0.302
316	0.301
316	0.3
317	0.299
317	0.298
318	0.297
318	0.297
318	0.296
319	0.295
319	0.294
320	0.293
320	0.292
321	0.291
321	0.29
322	0.29
322	0.289
323	0.288
323	0.287
324	0.286
324	0.285
324	0.284
325	0.283
325	0.282
326	0.282
326	0.281
327	0.28
327	0.279
328	0.278
328	0.277
329	0.277
329	0.276
330	0.275
330	0.275
330	0.274
331	0.273
331	0.272
332	0.271
332	0.27
333	0.269
333	0.268
334	0.268
334	0.267
335	0.266
335	0.265
336	0.265
336	0.264
336	0.263
337	0.262
337	0.262
338	0.261
338	0.261
339	0.26
339	0.259
340	0.259
340	0.258
341	0.257
341	0.257
342	0.256
342	0.256
342	0.256
343	0.255
343	0.254
344	0.254
344	0.253
345	0.253
345	0.252
346	0.252
346	0.251
347	0.251
347	0.25
348	0.249
348	0.249
348	0.248
349	0.248
349	0.247
350	0.247
350	0.246
351	0.245
351	0.245
352	0.244
352	0.244
353	0.244
353	0.243
354	0.242
354	0.242
354	0.241
355	0.241
355	0.24
356	0.24
356	0.239
357	0.239
357	0.239
358	0.238
358	0.238
359	0.239
359	0.239
360	0.239
360	0.239
360	0.239
361	0.239
361	0.239
362	0.239
362	0.239
363	0.239
363	0.239
364	0.238
364	0.238
365	0.238
365	0.238
366	0.237
366	0.237
366	0.237
367	0.237
367	0.236
368	0.236
368	0.236
369	0.235
369	0.235
370	0.235
370	0.235
371	0.234
371	0.234
372	0.234
372	0.234
372	0.234
373	0.234
373	0.234
374	0.234
374	0.233
375	0.233
375	0.233
376	0.233
376	0.233
377	0.232
377	0.232
378	0.232
378	0.232
378	0.232
379	0.232
379	0.232
380	0.232
380	0.232
381	0.232
381	0.231
382	0.231
382	0.231
383	0.231
383	0.23
383	0.23
384	0.23
384	0.229
385	0.229
385	0.229
386	0.229
386	0.229
387	0.229
387	0.228
388	0.228
388	0.228
389	0.228
389	0.228
389	0.228
390	0.228
390	0.228
391	0.228
391	0.228
392	0.228
392	0.228
393	0.228
393	0.227
394	0.227
394	0.227
394	0.227
395	0.227
395	0.226
396	0.226
396	0.226
397	0.226
397	0.226
398	0.226
398	0.225
399	0.225
399	0.225
400	0.225
400	0.224
400	0.224
401	0.223
401	0.222
402	0.222
402	0.221
403	0.221
403	0.221
404	0.221
404	0.221
405	0.221
405	0.221
405	0.221
406	0.221
406	0.22
407	0.22
407	0.22
408	0.22
408	0.219
409	0.219
409	0.219
410	0.219
410	0.219
411	0.219
411	0.219
411	0.219
412	0.218
412	0.218
413	0.218
413	0.217
414	0.217
414	0.217
415	0.216
415	0.216
416	0.215
416	0.215
416	0.215
417	0.215
417	0.215
418	0.215
418	0.215
419	0.216
419	0.216
420	0.217
420	0.217
421	0.217
421	0.217
421	0.217
422	0.218
422	0.218
423	0.218
423	0.217
424	0.217
424	0.216
425	0.216
425	0.215
426	0.215
426	0.215
427	0.215
427	0.215
427	0.215
428	0.215
428	0.216
429	0.216
429	0.216
430	0.216
430	0.216
431	0.215
431	0.215
432	0.215
432	0.215
432	0.214
433	0.213
433	0.213
434	0.213
434	0.213
435	0.213
435	0.213
436	0.213
436	0.214
437	0.214
437	0.214
437	0.214
438	0.214
438	0.214
439	0.214
439	0.214
440	0.213
440	0.213
441	0.213
441	0.213
442	0.213
442	0.213
442	0.213
443	0.213
443	0.214
444	0.214
444	0.214
445	0.214
445	0.215
446	0.215
446	0.215
447	0.214
447	0.215
447	0.215
448	0.215
448	0.215
449	0.214
449	0.214
450	0.215
450	0.214
451	0.214
451	0.214
452	0.214
452	0.214
452	0.213
453	0.213
453	0.213
454	0.213
454	0.213
455	0.213
455	0.214
456	0.213
456	0.214
457	0.214
457	0.214
458	0.214
458	0.214
458	0.214
459	0.214
459	0.214
460	0.214
460	0.213
461	0.213
461	0.213
462	0.213
462	0.214
463	0.214
463	0.214
463	0.215
464	0.215
464	0.215
465	0.215
465	0.216
466	0.216
466	0.216
467	0.216
467	0.216
467	0.216
468	0.216
468	0.215
469	0.215
469	0.215
470	0.215
470	0.215
471	0.215
471	0.215
472	0.216
472	0.216
472	0.217
473	0.218
473	0.219
474	0.22
474	0.221
475	0.222
475	0.223
476	0.223
476	0.224
477	0.224
477	0.225
477	0.225
478	0.225
478	0.226
479	0.226
479	0.227
480	0.227
480	0.228
481	0.229
481	0.23
482	0.231
482	0.232
482	0.233
483	0.235
483	0.238
484	0.239
484	0.24
485	0.241
485	0.243
486	0.244
486	0.245
487	0.245
487	0.246
487	0.247
488	0.247
488	0.247
489	0.247
489	0.249
490	0.25
490	0.25
491	0.252
491	0.253
492	0.254
492	0.255
492	0.256
493	0.257
493	0.259
494	0.261
494	0.263
495	0.265
495	0.267
496	0.269
496	0.271
496	0.272
497	0.274
497	0.276
498	0.278
498	0.28
499	0.281
499	0.282
500	0.284
500	0.286
501	0.288
501	0.289
501	0.291
502	0.292
502	0.294
503	0.296
503	0.298
504	0.299
504	0.301
505	0.302
505	0.304
506	0.305
506	0.307
506	0.309
507	0.31
507	0.312
508	0.314
508	0.315
509	0.317
509	0.319
510	0.321
510	0.322
511	0.323
511	0.324
511	0.325
512	0.326
512	0.327
513	0.327
513	0.327
514	0.327
514	0.328
515	0.329
515	0.329
515	0.33
516	0.331
516	0.331
517	0.333
517	0.333
518	0.334
518	0.334
519	0.334
519	0.334
520	0.334
520	0.333
520	0.333
521	0.331
521	0.33
522	0.329
522	0.329
523	0.328
523	0.328
524	0.329
524	0.329
524	0.329
525	0.33
525	0.33
526	0.331
526	0.332
527	0.333
527	0.333
528	0.334
528	0.334
529	0.333
529	0.333
529	0.333
530	0.332
530	0.332
531	0.331
531	0.331
532	0.33
532	0.329
533	0.328
533	0.327
533	0.326
534	0.324
534	0.322
535	0.321
535	0.32
536	0.318
536	0.316
537	0.315
537	0.313
538	0.312
538	0.31
538	0.308
539	0.307
539	0.305
540	0.303
540	0.3
541	0.298
541	0.296
542	0.294
542	0.292
542	0.289
543	0.287
543	0.285
544	0.283
544	0.281
545	0.28
545	0.279
546	0.277
546	0.275
547	0.272
547	0.269
547	0.266
548	0.264
548	0.261
549	0.258
549	0.255
550	0.252
550	0.249
551	0.246
551	0.243
551	0.241
552	0.238
552	0.236
553	0.234
553	0.233
554	0.231
554	0.228
555	0.225
555	0.222
556	0.219
556	0.216
556	0.213
557	0.211
557	0.208
558	0.206
558	0.203
559	0.2
559	0.199
560	0.197
560	0.194
560	0.193
561	0.192
561	0.191
562	0.189
562	0.186
563	0.184
563	0.181
564	0.178
564	0.176
564	0.173
565	0.171
565	0.17
566	0.167
566	0.165
567	0.164
567	0.163
568	0.162
568	0.161
568	0.161
569	0.161
569	0.161
570	0.159
570	0.157
571	0.156
571	0.156
572	0.154
572	0.153
573	0.151
573	0.149
573	0.146
574	0.145
574	0.144
575	0.143
575	0.143
576	0.142
576	0.14
577	0.137
577	0.136
577	0.135
578	0.134
578	0.134
579	0.134
579	0.134
580	0.132
580	0.128
581	0.124
581	0.122
581	0.122
582	0.121
582	0.121
583	0.121
583	0.12
584	0.116
584	0.111
585	0.111
585	0.111
585	0.112
586	0.111
586	0.11
587	0.108
587	0.106
588	0.103
588	0.102
589	0.102
589	0.102
590	0.102
590	0.102
590	0.103
591	0.104
591	0.102
592	0.101
592	0.1
593	0.099
593	0.099
594	0.097
594	0.096
594	0.094
595	0.093
595	0.091
596	0.09
596	0.091
597	0.094
597	0.095
598	0.095
598	0.096
598	0.097
599	0.097
599	0.096
600	0.095
600	0.094
601	0.093
601	0.092
602	0.09
602	0.089
602	0.089
603	0.088
603	0.09
604	0.091
604	0.092
605	0.093
605	0.095
606	0.095
606	0.094
606	0.094
607	0.093
607	0.093
608	0.092
608	0.09
609	0.089
609	0.089
610	0.089
610	0.087
610	0.088
611	0.09
611	0.092
612	0.093
612	0.095
613	0.097
613	0.098
614	0.098
614	0.096
614	0.096
615	0.096
615	0.095
616	0.094
616	0.093
617	0.092
617	0.091
618	0.089
618	0.089
618	0.089
619	0.089
619	0.091
620	0.093
620	0.094
621	0.094
621	0.095
622	0.095
622	0.096
622	0.096
623	0.096
623	0.098
624	0.099
624	0.098
625	0.097
625	0.098
626	0.099
626	0.099
626	0.101
627	0.102
627	0.103
628	0.104
628	0.105
629	0.106
629	0.106
630	0.106
630	0.106
630	0.108
631	0.109
631	0.11
632	0.11
632	0.111
633	0.112
633	0.114
634	0.116
634	0.118
634	0.12
635	0.122
635	0.123
636	0.124
636	0.126
637	0.127
637	0.127
638	0.129
638	0.13
638	0.131
639	0.132
639	0.133
640	0.134
640	0.136
641	0.138
641	0.14
642	0.142
642	0.144
642	0.145
643	0.147
643	0.149
644	0.152
644	0.154
645	0.156
645	0.159
646	0.161
646	0.164
646	0.168
647	0.171
647	0.174
648	0.177
648	0.179
649	0.182
649	0.184
650	0.187
650	0.19
650	0.192
651	0.194
651	0.197
652	0.199
652	0.202
653	0.206
653	0.215
653	0.234
654	0.184
654	0.148
655	0.149
655	0.151
656	0.153
656	0.154
657	0.156
657	0.157
657	0.158
658	0.155
658	0.139
659	0.18
659	0.238
660	0.249
660	0.252
661	0.256
661	0.259
661	0.263
662	0.268
662	0.273
663	0.277
663	0.281
664	0.284
664	0.287
665	0.291
665	0.295
665	0.298
666	0.301
666	0.303
667	0.306
667	0.309
668	0.312
668	0.315
669	0.318
669	0.322
669	0.326
670	0.331
670	0.334
671	0.336
671	0.339
672	0.342
672	0.344
672	0.346
673	0.348
673	0.35
674	0.351
674	0.352
675	0.353
675	0.354
676	0.356
676	0.358
676	0.359
677	0.361
677	0.363
678	0.364
678	0.365
679	0.366
679	0.368
680	0.37
680	0.371
680	0.372
681	0.373
681	0.375
682	0.377
682	0.378
683	0.38
683	0.382
684	0.384
684	0.384
684	0.384
685	0.385
685	0.386
686	0.386
686	0.387
687	0.386
687	0.386
687	0.387
688	0.386
688	0.385
689	0.386
689	0.386
690	0.385
690	0.384
691	0.382
691	0.381
691	0.38
692	0.378
692	0.377
693	0.376
693	0.376
694	0.374
694	0.372
695	0.372
695	0.373
695	0.373
696	0.371
696	0.37
697	0.368
697	0.367
698	0.365
698	0.363
698	0.361
699	0.36
699	0.357
700	0.354
700	0.353
701	0.352
701	0.35
702	0.349
702	0.347
702	0.345
703	0.343
703	0.341
704	0.338
704	0.337
705	0.335
705	0.333
705	0.33
706	0.328
706	0.326
707	0.324
707	0.321
708	0.318
708	0.316
709	0.314
709	0.311
709	0.307
710	0.304
710	0.301
711	0.298
711	0.295
712	0.293
712	0.29
713	0.287
713	0.285
713	0.282
714	0.279
714	0.277
715	0.274
715	0.272
716	0.269
716	0.267
716	0.265
717	0.263
717	0.261
718	0.258
718	0.255
719	0.253
719	0.251
720	0.248
720	0.245
720	0.242
721	0.238
721	0.235
722	0.232
722	0.229
723	0.227
723	0.225
723	0.223
724	0.221
724	0.218
725	0.216
725	0.214
726	0.212
726	0.21
727	0.208
727	0.206
727	0.204
728	0.201
728	0.199
729	0.198
729	0.195
730	0.193
730	0.19
730	0.188
731	0.186
731	0.183
732	0.182
732	0.18
733	0.177
733	0.175
734	0.172
734	0.169
734	0.167
735	0.166
735	0.164
736	0.162
736	0.16
737	0.159
737	0.158
737	0.156
738	0.153
738	0.15
739	0.148
739	0.146
740	0.144
740	0.142
741	0.141
741	0.138
741	0.134
742	0.13
742	0.128
743	0.127
743	0.125
744	0.123
744	0.121
744	0.119
745	0.116
745	0.113
746	0.111
746	0.11
747	0.108
747	0.107
748	0.106
748	0.104
748	0.102
749	0.1
749	0.099
750	0.097
750	0.096
751	0.095
751	0.095
751	0.095
752	0.094
752	0.093
753	0.093
753	0.093
754	0.093
754	0.093
754	0.093
755	0.093
755	0.093
756	0.092
756	0.089
757	0.087
757	0.086
758	0.085
758	0.083
758	0.082
759	0.081
759	0.078
760	0.076
760	0.073
761	0.071
761	0.07
761	0.069
762	0.067
762	0.066
763	0.064
763	0.061
764	0.058
764	0.055
764	0.053
765	0.05
765	0.048
766	0.046
766	0.045
767	0.044
767	0.04
768	0.037
768	0.036
768	0.035
769	0.034
769	0.033
770	0.032
770	0.031
771	0.028
771	0.025
771	0.023
772	0.021
772	0.019
773	0.017
773	0.015
774	0.012
774	0.009
775	0.006
775	0.004
775	0.001
776	-0.002
776	-0.005
777	-0.008
777	-0.011
778	-0.014
778	-0.017
778	-0.02
779	-0.021
779	-0.024
780	-0.027
780	-0.031
781	-0.034
781	-0.039
781	-0.043
782	-0.049
782	-0.055
783	-0.06
783	-0.066
784	-0.072
784	-0.079
784	-0.085
785	-0.092
785	-0.099
786	-0.105
786	-0.11
787	-0.112
787	-0.115
788	-0.122
788	-0.129
788	-0.135
789	-0.141
789	-0.144
790	-0.145
790	-0.147
791	-0.15
791	-0.152
791	-0.155
792	-0.149
792	-0.139
793	-0.133
793	-0.129
794	-0.127
794	-0.129
794	-0.134
795	-0.136
795	-0.136
796	-0.137
796	-0.14
797	-0.149
797	-0.16
797	-0.166
798	-0.172
798	-0.174
799	-0.175
799	-0.174
800	-0.173
800	-0.175
801	-0.177
801	-0.178
801	-0.179
802	-0.18
802	-0.181
803	-0.182
803	-0.182
804	-0.181
804	-0.176
804	-0.17
805	-0.166
805	-0.164
806	-0.162
806	-0.161
807	-0.16
807	-0.159
807	-0.159
808	-0.159
808	-0.16
809	-0.165
809	-0.171
810	-0.175
810	-0.178
810	-0.181
811	-0.184
811	-0.185
812	-0.181
812	-0.178
813	-0.178
813	-0.178
813	-0.179
814	-0.179
814	-0.179
815	-0.175
815	-0.172
816	-0.167
816	-0.163
817	-0.161
817	-0.157
817	-0.15
818	-0.141
818	-0.13
819	-0.118
819	-0.108
820	-0.1
820	-0.091
820	-0.083
821	-0.075
821	-0.067
822	-0.061
822	-0.056
823	-0.051
823	-0.048
823	-0.045
824	-0.041
824	-0.037
825	-0.032
825	-0.028
826	-0.025
826	-0.024
826	-0.022
827	-0.019
827	-0.017
828	-0.015
828	-0.014
829	-0.012
829	-0.01
829	-0.01
830	-0.009
830	-0.008
831	-0.005
831	-0.004
832	-0.003
832	-0.002
832	-0.001
833	0
833	0.001
834	0.002
834	0.002
835	0.003
835	0.004
835	0.004
836	0.005
836	0.006
837	0.007
837	0.008
838	0.009
838	0.01
839	0.011
839	0.012
839	0.013
840	0.014
840	0.014
841	0.015
841	0.015
842	0.016
842	0.016
842	0.016
843	0.017
843	0.017
844	0.017
844	0.017
845	0.017
845	0.017
845	0.017
846	0.017
846	0.016
847	0.016
847	0.016
848	0.015
848	0.015
848	0.014
849	0.014
849	0.013
850	0.013
850	0.012
851	0.012
851	0.012
851	0.012
852	0.011
852	0.012
853	0.012
853	0.012
854	0.013
854	0.013
854	0.014
855	0.014
855	0.014
856	0.015
856	0.015
857	0.016
857	0.016
857	0.017
858	0.017
858	0.017
859	0.017
859	0.017
860	0.018
860	0.018
860	0.018
861	0.019
861	0.019
862	0.018
862	0.018
863	0.018
863	0.018
863	0.017
864	0.017
864	0.016
865	0.016
865	0.016
866	0.015
866	0.015
866	0.016
867	0.016
867	0.017
868	0.018
868	0.019
869	0.02
869	0.021
869	0.021
870	0.022
870	0.022
871	0.022
871	0.022
872	0.021
872	0.02
872	0.018
873	0.016
873	0.015
874	0.013
874	0.011
875	0.01
875	0.01
875	0.009
876	0.009
876	0.009
877	0.01
877	0.011
878	0.013
878	0.014
878	0.016
879	0.017
879	0.018
880	0.019
880	0.019
881	0.019
881	0.02
881	0.02
882	0.019
882	0.019
883	0.018
883	0.018
884	0.018
884	0.018
884	0.018
885	0.018
885	0.019
886	0.019
886	0.02
887	0.021
887	0.021
887	0.021
888	0.021
888	0.021
889	0.021
889	0.021
890	0.021
890	0.02
890	0.019
891	0.018
891	0.017
892	0.016
892	0.015
893	0.014
893	0.013
893	0.012
894	0.011
894	0.011
895	0.01
895	0.01
895	0.01
896	0.01
896	0.01
897	0.01
897	0.011
898	0.011
898	0.012
898	0.013
899	0.014
899	0.015
900	0.016
900	0.017
901	0.018
901	0.019
901	0.02
902	0.02
902	0.021
903	0.021
903	0.021
904	0.021
904	0.02
904	0.02
905	0.02
905	0.02
906	0.02
906	0.019
907	0.019
907	0.019
907	0.019
908	0.019
908	0.019
909	0.019
909	0.019
910	0.02
910	0.021
910	0.021
911	0.022
911	0.023
912	0.024
912	0.025
913	0.026
913	0.027
913	0.027
914	0.027
914	0.026
915	0.026
915	0.025
916	0.024
916	0.023
916	0.022
917	0.02
917	0.019
918	0.018
918	0.017
918	0.016
919	0.016
919	0.016
920	0.016
920	0.017
921	0.017
921	0.017
921	0.018
922	0.018
922	0.019
923	0.02
923	0.02
924	0.02
924	0.02
924	0.02
925	0.02
925	0.019
926	0.019
926	0.019
927	0.019
927	0.018
927	0.018
928	0.018
928	0.017
929	0.017
929	0.016
930	0.015
930	0.015
930	0.014
931	0.013
931	0.013
932	0.013
932	0.012
933	0.012
933	0.012
933	0.012
934	0.012
934	0.012
935	0.012
935	0.012
935	0.012
936	0.012
936	0.012
937	0.012
937	0.012
938	0.012
938	0.012
938	0.012
939	0.013
939	0.013
940	0.014
940	0.015
941	0.015
941	0.016
941	0.017
942	0.017
942	0.018
943	0.018
943	0.018
944	0.017
944	0.017
944	0.016
945	0.016
945	0.015
946	0.015
946	0.014
946	0.014
947	0.014
947	0.013
948	0.013
948	0.013
949	0.013
949	0.013
949	0.013
950	0.013
950	0.014
951	0.014
951	0.014
952	0.014
952	0.014
952	0.014
953	0.015
953	0.015
954	0.015
954	0.015
955	0.015
955	0.015
955	0.015
956	0.015
956	0.015
957	0.015
957	0.014
957	0.014
958	0.013
958	0.012
959	0.012
959	0.011
960	0.011
960	0.01
960	0.009
961	0.008
961	0.007
962	0.007
962	0.007
963	0.007
963	0.007
963	0.007
964	0.008
964	0.009
965	0.009
965	0.01
966	0.011
966	0.012
966	0.013
967	0.014
967	0.015
968	0.015
968	0.016
968	0.016
969	0.017
969	0.017
970	0.018
970	0.018
971	0.018
971	0.018
971	0.018
972	0.019
972	0.019
973	0.019
973	0.019
974	0.019
974	0.019
974	0.018
975	0.018
975	0.018
976	0.017
976	0.016
976	0.015
977	0.014
977	0.012
978	0.011
978	0.009
979	0.008
979	0.008
979	0.007
980	0.006
980	0.006
981	0.005
981	0.006
982	0.006
982	0.007
982	0.008
983	0.01
983	0.01
984	0.011
984	0.012
984	0.013
985	0.014
985	0.014
986	0.014
986	0.014
987	0.014
987	0.015
987	0.015
988	0.015
988	0.016
989	0.016
989	0.016
990	0.017
990	0.018
990	0.019
991	0.02
991	0.021
992	0.022
992	0.023
992	0.023
993	0.024
993	0.024
994	0.024
994	0.023
995	0.023
995	0.022
995	0.021
996	0.02
996	0.019
997	0.018
997	0.017
997	0.017
998	0.016
998	0.016
999	0.015
999	0.015
1000	0.015
1000	0.015
1000	0.015
1001	0.015
1001	0.015
1002	0.015
1002	0.015
1003	0.014
1003	0.014
1003	0.013
1004	0.012
1004	0.011
1005	0.01
1005	0.009
1005	0.008
1006	0.007
1006	0.007
1007	0.006
1007	0.005
1008	0.004
1008	0.004
1008	0.003
1009	0.003
1009	0.003
1010	0.003
1010	0.003
1010	0.002
1011	0.002
1011	0.002
1012	0.001
1012	0.001
1013	0.001
1013	0
1013	-0.001
1014	-0.002
1014	-0.002
1015	-0.003
1015	-0.003
1016	-0.004
1016	-0.005
1016	-0.005
1017	-0.006
1017	-0.006
1018	-0.005
1018	-0.005
1018	-0.004
1019	-0.004
1019	-0.003
1020	-0.003
1020	-0.002
1021	-0.002
1021	-0.002
1021	-0.002
1022	-0.002
1022	-0.002
1023	-0.002
1023	-0.003
1023	-0.004
1024	-0.005
1024	-0.006
1025	-0.007
1025	-0.008
1026	-0.009
1026	-0.01
1026	-0.011
1027	-0.011
1027	-0.011
1028	-0.011
1028	-0.011
1028	-0.011
1029	-0.011
1029	-0.01
1030	-0.01
1030	-0.009
1031	-0.009
1031	-0.008
1031	-0.008
1032	-0.008
1032	-0.008
1033	-0.008
1033	-0.008
1033	-0.009
1034	-0.01
1034	-0.011
1035	-0.012
1035	-0.014
1036	-0.015
1036	-0.016
1036	-0.017
1037	-0.017
1037	-0.018
1038	-0.018
1038	-0.018
1039	-0.018
1039	-0.017
1039	-0.017
1040	-0.016
1040	-0.016
1041	-0.015
1041	-0.015
1041	-0.015
1042	-0.015
1042	-0.014
1043	-0.014
1043	-0.014
1044	-0.014
1044	-0.014
1044	-0.014
1045	-0.014
1045	-0.014
1046	-0.014
1046	-0.014
1046	-0.014
1047	-0.013
1047	-0.013
1048	-0.012
1048	-0.012
1049	-0.012
1049	-0.012
1049	-0.012
1050	-0.012
1050	-0.012
1051	-0.013
1051	-0.013
1051	-0.014
1052	-0.014
1052	-0.015
1053	-0.016
1053	-0.017
1053	-0.017
1054	-0.018
1054	-0.018
1055	-0.019
1055	-0.02
1056	-0.021
1056	-0.021
1056	-0.023
1057	-0.024
1057	-0.024
1058	-0.024
1058	-0.025
1058	-0.025
1059	-0.026
1059	-0.026
1060	-0.026
1060	-0.026
1061	-0.025
1061	-0.024
1061	-0.024
1062	-0.024
1062	-0.024
1063	-0.023
1063	-0.023
1063	-0.023
1064	-0.022
1064	-0.022
1065	-0.022
1065	-0.022
1066	-0.022
1066	-0.022
1066	-0.022
1067	-0.022
1067	-0.022
1068	-0.023
1068	-0.023
1068	-0.023
1069	-0.024
1069	-0.025
1070	-0.025
1070	-0.026
1071	-0.026
1071	-0.026
1071	-0.027
1072	-0.027
1072	-0.028
1073	-0.028
1073	-0.028
1073	-0.028
1074	-0.028
1074	-0.027
1075	-0.028
1075	-0.028
1076	-0.029
1076	-0.029
1076	-0.029
1077	-0.03
1077	-0.03
1078	-0.03
1078	-0.03
1078	-0.029
1079	-0.029
1079	-0.028
1080	-0.028
1080	-0.027
1080	-0.026
1081	-0.026
1081	-0.025
1082	-0.024
1082	-0.024
1083	-0.024
1083	-0.024
1083	-0.024
1084	-0.024
1084	-0.023
1085	-0.022
1085	-0.022
1085	-0.021
1086	-0.021
1086	-0.021
1087	-0.02
1087	-0.019
1088	-0.02
1088	-0.02
1088	-0.02
1089	-0.02
1089	-0.021
1090	-0.021
1090	-0.021
1090	-0.02
1091	-0.019
1091	-0.017
1092	-0.016
1092	-0.013
1092	-0.011
1093	-0.009
1093	-0.005
1094	-0.002
1094	0
1095	0.002
1095	0.003
1095	0.006
1096	0.007
1096	0.01
1097	0.012
1097	0.013
1097	0.014
1098	0.014
1098	0.015
1099	0.016
1099	0.019
1100	0.021
1100	0.023
1100	0.024
1101	0.025
1101	0.027
1102	0.03
1102	0.034
1102	0.038
1103	0.042
1103	0.048
1104	0.053
1104	0.059
1104	0.067
1105	0.075
1105	0.083
1106	0.088
1106	0.096
1107	0.103
1107	0.115
1107	0.13
1108	0.184
1108	0.26
1109	0.38
1109	0.608
1109	0.854
1110	-0
1110	-0
1111	-0
1111	-0
