Data from 15c-2a-1h-fridge_Absorbance__12__05380.txt Node

Date: Wed Jan 17 16:10:43 CET 2024
User: Marek
Spectrometer: MAYP115816
Trigger mode: 0
Integration Time (sec): 2.000000E-1
Scans to average: 10
Electric dark correction enabled: true
Nonlinearity correction enabled: true
Boxcar width: 5
XAxis mode: Wavelengths
Number of Pixels in Spectrum: 2068
>>>>>Begin Spectral Data<<<<<
199	-2.2
199	-2.052
200	-1.886
200	-1.757
201	-1.676
201	-1.625
202	-1.548
202	-1.488
203	-1.435
203	-1.389
204	-1.362
204	-1.337
205	-1.312
205	-1.302
205	-1.299
206	-1.298
206	-1.294
207	-1.291
207	-1.287
208	-1.284
208	-1.283
209	-1.278
209	-1.276
210	-1.275
210	-1.275
211	-1.273
211	-1.272
212	-1.272
212	-1.271
213	-1.27
213	-1.269
213	-1.267
214	-1.266
214	-1.265
215	-1.264
215	-1.262
216	-1.261
216	-1.258
217	-1.254
217	-1.252
218	-1.25
218	-1.247
219	-1.245
219	-1.244
220	-1.24
220	-1.236
221	-1.231
221	-1.227
221	-1.223
222	-1.219
222	-1.214
223	-1.208
223	-1.204
224	-1.198
224	-1.191
225	-1.182
225	-1.174
226	-1.165
226	-1.152
227	-1.139
227	-1.124
228	-1.108
228	-1.089
229	-1.068
229	-1.043
229	-1.015
230	-0.984
230	-0.951
231	-0.915
231	-0.877
232	-0.836
232	-0.793
233	-0.746
233	-0.699
234	-0.65
234	-0.602
235	-0.554
235	-0.507
236	-0.461
236	-0.416
236	-0.373
237	-0.331
237	-0.292
238	-0.256
238	-0.22
239	-0.188
239	-0.157
240	-0.129
240	-0.103
241	-0.079
241	-0.057
242	-0.038
242	-0.019
243	-0.002
243	0.013
243	0.027
244	0.04
244	0.051
245	0.062
245	0.072
246	0.082
246	0.09
247	0.098
247	0.105
248	0.112
248	0.118
249	0.124
249	0.13
250	0.135
250	0.139
250	0.144
251	0.147
251	0.151
252	0.155
252	0.158
253	0.161
253	0.164
254	0.167
254	0.169
255	0.172
255	0.174
256	0.176
256	0.178
257	0.18
257	0.181
258	0.183
258	0.184
258	0.185
259	0.186
259	0.186
260	0.187
260	0.188
261	0.188
261	0.188
262	0.189
262	0.189
263	0.19
263	0.19
264	0.19
264	0.19
265	0.19
265	0.19
265	0.189
266	0.189
266	0.189
267	0.189
267	0.188
268	0.188
268	0.187
269	0.186
269	0.186
270	0.185
270	0.184
271	0.184
271	0.183
272	0.182
272	0.181
272	0.181
273	0.18
273	0.179
274	0.179
274	0.178
275	0.178
275	0.177
276	0.176
276	0.176
277	0.175
277	0.174
278	0.173
278	0.172
278	0.171
279	0.169
279	0.168
280	0.167
280	0.166
281	0.166
281	0.165
282	0.164
282	0.164
283	0.163
283	0.163
284	0.163
284	0.164
285	0.164
285	0.163
285	0.163
286	0.163
286	0.162
287	0.162
287	0.162
288	0.162
288	0.161
289	0.161
289	0.16
290	0.16
290	0.16
291	0.159
291	0.159
292	0.159
292	0.158
292	0.158
293	0.158
293	0.158
294	0.157
294	0.157
295	0.157
295	0.157
296	0.157
296	0.157
297	0.157
297	0.157
298	0.157
298	0.157
298	0.157
299	0.157
299	0.157
300	0.157
300	0.157
301	0.156
301	0.156
302	0.156
302	0.156
303	0.156
303	0.156
304	0.156
304	0.156
305	0.155
305	0.155
305	0.155
306	0.155
306	0.155
307	0.154
307	0.154
308	0.154
308	0.154
309	0.154
309	0.153
310	0.153
310	0.153
311	0.153
311	0.153
311	0.152
312	0.152
312	0.152
313	0.151
313	0.151
314	0.151
314	0.15
315	0.15
315	0.149
316	0.149
316	0.149
317	0.148
317	0.148
318	0.147
318	0.147
318	0.147
319	0.146
319	0.146
320	0.145
320	0.145
321	0.145
321	0.144
322	0.144
322	0.143
323	0.142
323	0.142
324	0.141
324	0.141
324	0.141
325	0.14
325	0.14
326	0.139
326	0.139
327	0.138
327	0.138
328	0.137
328	0.137
329	0.136
329	0.136
330	0.135
330	0.135
330	0.135
331	0.134
331	0.134
332	0.133
332	0.133
333	0.132
333	0.132
334	0.131
334	0.131
335	0.13
335	0.13
336	0.129
336	0.128
336	0.128
337	0.127
337	0.127
338	0.127
338	0.126
339	0.126
339	0.125
340	0.125
340	0.125
341	0.124
341	0.124
342	0.123
342	0.123
342	0.123
343	0.122
343	0.121
344	0.121
344	0.12
345	0.12
345	0.119
346	0.119
346	0.118
347	0.117
347	0.117
348	0.116
348	0.116
348	0.115
349	0.114
349	0.114
350	0.113
350	0.112
351	0.111
351	0.111
352	0.11
352	0.109
353	0.109
353	0.108
354	0.107
354	0.106
354	0.105
355	0.104
355	0.104
356	0.103
356	0.102
357	0.102
357	0.102
358	0.102
358	0.102
359	0.102
359	0.103
360	0.103
360	0.104
360	0.104
361	0.105
361	0.105
362	0.106
362	0.106
363	0.106
363	0.105
364	0.105
364	0.105
365	0.105
365	0.104
366	0.104
366	0.104
366	0.103
367	0.103
367	0.103
368	0.103
368	0.103
369	0.102
369	0.102
370	0.102
370	0.102
371	0.101
371	0.101
372	0.101
372	0.101
372	0.101
373	0.101
373	0.101
374	0.101
374	0.101
375	0.101
375	0.101
376	0.101
376	0.102
377	0.102
377	0.102
378	0.103
378	0.103
378	0.103
379	0.104
379	0.104
380	0.104
380	0.104
381	0.104
381	0.104
382	0.104
382	0.104
383	0.104
383	0.104
383	0.103
384	0.103
384	0.103
385	0.103
385	0.103
386	0.103
386	0.103
387	0.103
387	0.103
388	0.103
388	0.103
389	0.103
389	0.103
389	0.104
390	0.104
390	0.105
391	0.105
391	0.106
392	0.106
392	0.106
393	0.106
393	0.106
394	0.106
394	0.106
394	0.106
395	0.106
395	0.105
396	0.105
396	0.105
397	0.105
397	0.106
398	0.106
398	0.106
399	0.106
399	0.106
400	0.106
400	0.106
400	0.105
401	0.105
401	0.104
402	0.103
402	0.103
403	0.102
403	0.102
404	0.102
404	0.102
405	0.102
405	0.102
405	0.102
406	0.101
406	0.101
407	0.101
407	0.101
408	0.101
408	0.1
409	0.099
409	0.099
410	0.099
410	0.099
411	0.099
411	0.099
411	0.1
412	0.099
412	0.099
413	0.099
413	0.099
414	0.099
414	0.098
415	0.098
415	0.098
416	0.097
416	0.097
416	0.096
417	0.096
417	0.096
418	0.097
418	0.097
419	0.098
419	0.099
420	0.1
420	0.101
421	0.101
421	0.102
421	0.102
422	0.102
422	0.103
423	0.103
423	0.103
424	0.102
424	0.101
425	0.1
425	0.099
426	0.099
426	0.098
427	0.098
427	0.098
427	0.099
428	0.099
428	0.1
429	0.101
429	0.102
430	0.102
430	0.101
431	0.101
431	0.101
432	0.1
432	0.1
432	0.099
433	0.098
433	0.097
434	0.096
434	0.096
435	0.096
435	0.096
436	0.096
436	0.097
437	0.097
437	0.097
437	0.097
438	0.097
438	0.097
439	0.097
439	0.096
440	0.095
440	0.095
441	0.095
441	0.096
442	0.096
442	0.096
442	0.096
443	0.096
443	0.097
444	0.097
444	0.097
445	0.098
445	0.098
446	0.098
446	0.098
447	0.098
447	0.097
447	0.097
448	0.097
448	0.097
449	0.097
449	0.097
450	0.096
450	0.096
451	0.096
451	0.095
452	0.094
452	0.094
452	0.093
453	0.093
453	0.092
454	0.091
454	0.091
455	0.091
455	0.09
456	0.09
456	0.09
457	0.09
457	0.089
458	0.089
458	0.089
458	0.089
459	0.089
459	0.089
460	0.088
460	0.087
461	0.086
461	0.085
462	0.085
462	0.085
463	0.085
463	0.086
463	0.086
464	0.086
464	0.086
465	0.086
465	0.086
466	0.086
466	0.087
467	0.086
467	0.086
467	0.084
468	0.083
468	0.081
469	0.079
469	0.078
470	0.077
470	0.076
471	0.075
471	0.075
472	0.074
472	0.074
472	0.074
473	0.075
473	0.076
474	0.077
474	0.077
475	0.078
475	0.078
476	0.078
476	0.078
477	0.078
477	0.078
477	0.078
478	0.077
478	0.077
479	0.077
479	0.077
480	0.077
480	0.077
481	0.078
481	0.078
482	0.078
482	0.079
482	0.08
483	0.082
483	0.084
484	0.086
484	0.088
485	0.088
485	0.089
486	0.089
486	0.09
487	0.09
487	0.09
487	0.089
488	0.088
488	0.086
489	0.083
489	0.082
490	0.08
490	0.079
491	0.078
491	0.078
492	0.078
492	0.077
492	0.076
493	0.076
493	0.077
494	0.078
494	0.079
495	0.08
495	0.08
496	0.081
496	0.081
496	0.082
497	0.082
497	0.082
498	0.082
498	0.082
499	0.082
499	0.081
500	0.081
500	0.082
501	0.082
501	0.083
501	0.083
502	0.084
502	0.084
503	0.085
503	0.085
504	0.085
504	0.085
505	0.085
505	0.084
506	0.084
506	0.084
506	0.083
507	0.083
507	0.083
508	0.083
508	0.083
509	0.083
509	0.083
510	0.083
510	0.083
511	0.083
511	0.083
511	0.083
512	0.082
512	0.081
513	0.08
513	0.079
514	0.078
514	0.078
515	0.078
515	0.077
515	0.076
516	0.075
516	0.075
517	0.075
517	0.075
518	0.075
518	0.075
519	0.075
519	0.074
520	0.073
520	0.072
520	0.071
521	0.069
521	0.068
522	0.066
522	0.063
523	0.061
523	0.06
524	0.059
524	0.058
524	0.058
525	0.059
525	0.06
526	0.062
526	0.064
527	0.067
527	0.07
528	0.073
528	0.076
529	0.078
529	0.08
529	0.082
530	0.083
530	0.085
531	0.086
531	0.088
532	0.088
532	0.089
533	0.09
533	0.091
533	0.092
534	0.093
534	0.093
535	0.093
535	0.094
536	0.094
536	0.095
537	0.096
537	0.097
538	0.097
538	0.097
538	0.098
539	0.098
539	0.099
540	0.1
540	0.1
541	0.1
541	0.1
542	0.1
542	0.1
542	0.1
543	0.1
543	0.101
544	0.101
544	0.102
545	0.103
545	0.105
546	0.107
546	0.108
547	0.108
547	0.108
547	0.108
548	0.107
548	0.107
549	0.107
549	0.107
550	0.107
550	0.107
551	0.107
551	0.107
551	0.107
552	0.108
552	0.109
553	0.11
553	0.112
554	0.113
554	0.113
555	0.113
555	0.112
556	0.111
556	0.11
556	0.109
557	0.108
557	0.108
558	0.108
558	0.108
559	0.108
559	0.109
560	0.111
560	0.112
560	0.113
561	0.115
561	0.118
562	0.119
562	0.119
563	0.119
563	0.119
564	0.117
564	0.116
564	0.115
565	0.115
565	0.115
566	0.115
566	0.116
567	0.118
567	0.121
568	0.124
568	0.127
568	0.131
569	0.136
569	0.141
570	0.144
570	0.146
571	0.148
571	0.151
572	0.153
572	0.154
573	0.156
573	0.157
573	0.157
574	0.157
574	0.157
575	0.158
575	0.16
576	0.163
576	0.164
577	0.163
577	0.163
577	0.163
578	0.163
578	0.163
579	0.165
579	0.168
580	0.168
580	0.166
581	0.163
581	0.161
581	0.161
582	0.161
582	0.161
583	0.163
583	0.163
584	0.16
584	0.156
585	0.154
585	0.155
585	0.155
586	0.156
586	0.156
587	0.155
587	0.152
588	0.149
588	0.147
589	0.146
589	0.145
590	0.144
590	0.144
590	0.145
591	0.147
591	0.147
592	0.147
592	0.147
593	0.146
593	0.146
594	0.146
594	0.144
594	0.143
595	0.142
595	0.14
596	0.138
596	0.138
597	0.141
597	0.143
598	0.145
598	0.147
598	0.149
599	0.15
599	0.15
600	0.149
600	0.148
601	0.146
601	0.145
602	0.143
602	0.141
602	0.139
603	0.138
603	0.138
604	0.139
604	0.14
605	0.142
605	0.144
606	0.145
606	0.144
606	0.144
607	0.142
607	0.142
608	0.141
608	0.138
609	0.136
609	0.135
610	0.133
610	0.131
610	0.13
611	0.131
611	0.132
612	0.133
612	0.134
613	0.136
613	0.137
614	0.137
614	0.135
614	0.134
615	0.132
615	0.13
616	0.129
616	0.127
617	0.124
617	0.121
618	0.117
618	0.114
618	0.112
619	0.111
619	0.11
620	0.111
620	0.112
621	0.112
621	0.112
622	0.111
622	0.112
622	0.112
623	0.111
623	0.111
624	0.112
624	0.111
625	0.109
625	0.109
626	0.108
626	0.106
626	0.106
627	0.106
627	0.105
628	0.104
628	0.104
629	0.103
629	0.102
630	0.1
630	0.098
630	0.097
631	0.096
631	0.096
632	0.094
632	0.093
633	0.093
633	0.093
634	0.094
634	0.095
634	0.097
635	0.098
635	0.098
636	0.099
636	0.099
637	0.099
637	0.099
638	0.099
638	0.1
638	0.1
639	0.099
639	0.098
640	0.098
640	0.098
641	0.098
641	0.099
642	0.099
642	0.1
642	0.1
643	0.1
643	0.1
644	0.101
644	0.102
645	0.102
645	0.103
646	0.104
646	0.106
646	0.108
647	0.11
647	0.112
648	0.114
648	0.115
649	0.116
649	0.118
650	0.12
650	0.122
650	0.123
651	0.124
651	0.125
652	0.125
652	0.126
653	0.127
653	0.135
653	0.156
654	0.128
654	0.107
655	0.107
655	0.108
656	0.109
656	0.109
657	0.11
657	0.111
657	0.111
658	0.107
658	0.089
659	0.11
659	0.138
660	0.142
660	0.142
661	0.143
661	0.144
661	0.146
662	0.148
662	0.151
663	0.154
663	0.156
664	0.158
664	0.16
665	0.161
665	0.163
665	0.165
666	0.166
666	0.166
667	0.167
667	0.168
668	0.169
668	0.17
669	0.172
669	0.174
669	0.178
670	0.181
670	0.184
671	0.185
671	0.187
672	0.188
672	0.189
672	0.189
673	0.189
673	0.19
674	0.19
674	0.189
675	0.188
675	0.188
676	0.189
676	0.191
676	0.192
677	0.193
677	0.195
678	0.197
678	0.198
679	0.199
679	0.2
680	0.202
680	0.203
680	0.204
681	0.204
681	0.204
682	0.205
682	0.206
683	0.208
683	0.21
684	0.213
684	0.214
684	0.214
685	0.216
685	0.217
686	0.219
686	0.22
687	0.22
687	0.221
687	0.221
688	0.221
688	0.22
689	0.221
689	0.223
690	0.223
690	0.223
691	0.222
691	0.222
691	0.223
692	0.222
692	0.222
693	0.222
693	0.223
694	0.222
694	0.221
695	0.222
695	0.225
695	0.227
696	0.227
696	0.227
697	0.228
697	0.228
698	0.228
698	0.227
698	0.226
699	0.226
699	0.225
700	0.222
700	0.222
701	0.222
701	0.222
702	0.222
702	0.221
702	0.221
703	0.221
703	0.221
704	0.221
704	0.222
705	0.223
705	0.224
705	0.224
706	0.225
706	0.225
707	0.225
707	0.224
708	0.223
708	0.223
709	0.223
709	0.222
709	0.219
710	0.217
710	0.216
711	0.216
711	0.215
712	0.215
712	0.215
713	0.216
713	0.215
713	0.215
714	0.214
714	0.213
715	0.212
715	0.212
716	0.21
716	0.21
716	0.209
717	0.208
717	0.208
718	0.206
718	0.204
719	0.204
719	0.204
720	0.203
720	0.201
720	0.2
721	0.198
721	0.196
722	0.195
722	0.193
723	0.193
723	0.193
723	0.193
724	0.192
724	0.192
725	0.19
725	0.19
726	0.189
726	0.188
727	0.188
727	0.187
727	0.186
728	0.184
728	0.183
729	0.184
729	0.184
730	0.184
730	0.183
730	0.183
731	0.182
731	0.182
732	0.181
732	0.181
733	0.179
733	0.178
734	0.176
734	0.175
734	0.174
735	0.173
735	0.172
736	0.17
736	0.169
737	0.169
737	0.17
737	0.169
738	0.167
738	0.165
739	0.162
739	0.16
740	0.158
740	0.156
741	0.154
741	0.151
741	0.147
742	0.141
742	0.137
743	0.134
743	0.132
744	0.13
744	0.128
744	0.127
745	0.125
745	0.123
746	0.122
746	0.121
747	0.121
747	0.122
748	0.123
748	0.123
748	0.123
749	0.122
749	0.122
750	0.123
750	0.123
751	0.123
751	0.124
751	0.126
752	0.126
752	0.125
753	0.124
753	0.125
754	0.125
754	0.125
754	0.126
755	0.127
755	0.129
756	0.129
756	0.127
757	0.125
757	0.125
758	0.124
758	0.123
758	0.122
759	0.121
759	0.118
760	0.114
760	0.109
761	0.105
761	0.103
761	0.101
762	0.098
762	0.097
763	0.097
763	0.094
764	0.09
764	0.087
764	0.083
765	0.08
765	0.077
766	0.075
766	0.074
767	0.072
767	0.068
768	0.063
768	0.059
768	0.056
769	0.055
769	0.053
770	0.051
770	0.049
771	0.045
771	0.04
771	0.035
772	0.03
772	0.026
773	0.021
773	0.015
774	0.009
774	0.002
775	-0.004
775	-0.011
775	-0.019
776	-0.026
776	-0.034
777	-0.042
777	-0.05
778	-0.058
778	-0.066
778	-0.074
779	-0.08
779	-0.086
780	-0.094
780	-0.104
781	-0.111
781	-0.118
781	-0.124
782	-0.13
782	-0.137
783	-0.142
783	-0.146
784	-0.15
784	-0.153
784	-0.155
785	-0.156
785	-0.157
786	-0.157
786	-0.154
787	-0.149
787	-0.144
788	-0.143
788	-0.144
788	-0.145
789	-0.147
789	-0.147
790	-0.143
790	-0.142
791	-0.143
791	-0.145
791	-0.147
792	-0.142
792	-0.131
793	-0.125
793	-0.121
794	-0.12
794	-0.122
794	-0.126
795	-0.128
795	-0.129
796	-0.129
796	-0.132
797	-0.141
797	-0.152
797	-0.159
798	-0.164
798	-0.167
799	-0.167
799	-0.166
800	-0.166
800	-0.167
801	-0.17
801	-0.171
801	-0.171
802	-0.172
802	-0.174
803	-0.174
803	-0.175
804	-0.174
804	-0.169
804	-0.162
805	-0.159
805	-0.156
806	-0.154
806	-0.153
807	-0.152
807	-0.151
807	-0.152
808	-0.151
808	-0.153
809	-0.158
809	-0.163
810	-0.167
810	-0.17
810	-0.174
811	-0.177
811	-0.177
812	-0.174
812	-0.17
813	-0.17
813	-0.171
813	-0.171
814	-0.172
814	-0.171
815	-0.168
815	-0.164
816	-0.162
816	-0.161
817	-0.165
817	-0.168
817	-0.168
818	-0.167
818	-0.163
819	-0.158
819	-0.155
820	-0.156
820	-0.156
820	-0.154
821	-0.149
821	-0.142
822	-0.135
822	-0.126
823	-0.117
823	-0.11
823	-0.103
824	-0.094
824	-0.081
825	-0.068
825	-0.055
826	-0.044
826	-0.035
826	-0.027
827	-0.019
827	-0.012
828	-0.005
828	0.001
829	0.006
829	0.011
829	0.014
830	0.017
830	0.021
831	0.026
831	0.031
832	0.035
832	0.039
832	0.043
833	0.047
833	0.051
834	0.054
834	0.058
835	0.061
835	0.063
835	0.065
836	0.067
836	0.068
837	0.069
837	0.07
838	0.071
838	0.072
839	0.073
839	0.073
839	0.074
840	0.075
840	0.076
841	0.077
841	0.079
842	0.081
842	0.082
842	0.084
843	0.086
843	0.087
844	0.089
844	0.09
845	0.092
845	0.093
845	0.095
846	0.096
846	0.097
847	0.097
847	0.098
848	0.099
848	0.1
848	0.101
849	0.102
849	0.102
850	0.103
850	0.103
851	0.104
851	0.105
851	0.105
852	0.106
852	0.107
853	0.108
853	0.109
854	0.11
854	0.11
854	0.11
855	0.111
855	0.111
856	0.111
856	0.111
857	0.111
857	0.111
857	0.111
858	0.112
858	0.112
859	0.112
859	0.113
860	0.113
860	0.114
860	0.115
861	0.115
861	0.116
862	0.116
862	0.116
863	0.116
863	0.116
863	0.116
864	0.116
864	0.116
865	0.117
865	0.117
866	0.117
866	0.118
866	0.119
867	0.12
867	0.121
868	0.122
868	0.124
869	0.125
869	0.126
869	0.126
870	0.126
870	0.126
871	0.125
871	0.124
872	0.123
872	0.121
872	0.12
873	0.118
873	0.117
874	0.115
874	0.114
875	0.114
875	0.113
875	0.113
876	0.113
876	0.114
877	0.114
877	0.115
878	0.116
878	0.117
878	0.118
879	0.119
879	0.12
880	0.12
880	0.12
881	0.121
881	0.121
881	0.121
882	0.121
882	0.121
883	0.12
883	0.12
884	0.119
884	0.119
884	0.119
885	0.12
885	0.12
886	0.121
886	0.121
887	0.122
887	0.123
887	0.123
888	0.124
888	0.124
889	0.124
889	0.124
890	0.124
890	0.124
890	0.123
891	0.122
891	0.12
892	0.119
892	0.118
893	0.117
893	0.115
893	0.115
894	0.114
894	0.113
895	0.112
895	0.111
895	0.111
896	0.111
896	0.111
897	0.112
897	0.112
898	0.113
898	0.113
898	0.114
899	0.115
899	0.115
900	0.116
900	0.117
901	0.118
901	0.118
901	0.119
902	0.119
902	0.12
903	0.121
903	0.121
904	0.122
904	0.122
904	0.123
905	0.123
905	0.124
906	0.124
906	0.124
907	0.124
907	0.125
907	0.125
908	0.125
908	0.125
909	0.125
909	0.125
910	0.125
910	0.126
910	0.126
911	0.126
911	0.127
912	0.128
912	0.128
913	0.129
913	0.129
913	0.128
914	0.128
914	0.127
915	0.126
915	0.125
916	0.124
916	0.122
916	0.121
917	0.119
917	0.117
918	0.116
918	0.114
918	0.113
919	0.113
919	0.113
920	0.113
920	0.113
921	0.113
921	0.113
921	0.113
922	0.113
922	0.114
923	0.114
923	0.113
924	0.113
924	0.113
924	0.113
925	0.112
925	0.112
926	0.112
926	0.112
927	0.112
927	0.112
927	0.112
928	0.112
928	0.112
929	0.112
929	0.112
930	0.112
930	0.111
930	0.111
931	0.11
931	0.109
932	0.109
932	0.108
933	0.107
933	0.106
933	0.106
934	0.105
934	0.104
935	0.104
935	0.104
935	0.104
936	0.104
936	0.105
937	0.105
937	0.106
938	0.107
938	0.108
938	0.109
939	0.11
939	0.111
940	0.112
940	0.113
941	0.114
941	0.115
941	0.116
942	0.117
942	0.117
943	0.118
943	0.117
944	0.117
944	0.117
944	0.116
945	0.116
945	0.116
946	0.115
946	0.115
946	0.114
947	0.114
947	0.113
948	0.112
948	0.112
949	0.111
949	0.11
949	0.11
950	0.109
950	0.108
951	0.108
951	0.107
952	0.107
952	0.107
952	0.107
953	0.107
953	0.107
954	0.108
954	0.108
955	0.108
955	0.108
955	0.109
956	0.109
956	0.109
957	0.109
957	0.108
957	0.108
958	0.107
958	0.106
959	0.106
959	0.105
960	0.104
960	0.103
960	0.102
961	0.101
961	0.1
962	0.1
962	0.099
963	0.098
963	0.098
963	0.098
964	0.098
964	0.099
965	0.099
965	0.1
966	0.101
966	0.102
966	0.103
967	0.105
967	0.105
968	0.106
968	0.107
968	0.107
969	0.107
969	0.107
970	0.107
970	0.107
971	0.106
971	0.106
971	0.106
972	0.105
972	0.105
973	0.105
973	0.105
974	0.104
974	0.104
974	0.103
975	0.103
975	0.103
976	0.102
976	0.102
976	0.101
977	0.1
977	0.099
978	0.097
978	0.096
979	0.095
979	0.094
979	0.093
980	0.092
980	0.092
981	0.091
981	0.091
982	0.092
982	0.093
982	0.093
983	0.094
983	0.095
984	0.096
984	0.097
984	0.098
985	0.099
985	0.099
986	0.099
986	0.099
987	0.1
987	0.1
987	0.101
988	0.102
988	0.103
989	0.103
989	0.104
990	0.105
990	0.107
990	0.108
991	0.11
991	0.111
992	0.112
992	0.112
992	0.113
993	0.113
993	0.113
994	0.113
994	0.113
995	0.112
995	0.112
995	0.111
996	0.111
996	0.11
997	0.109
997	0.109
997	0.108
998	0.108
998	0.107
999	0.107
999	0.106
1000	0.106
1000	0.106
1000	0.105
1001	0.105
1001	0.105
1002	0.105
1002	0.104
1003	0.104
1003	0.103
1003	0.103
1004	0.102
1004	0.101
1005	0.101
1005	0.1
1005	0.099
1006	0.098
1006	0.098
1007	0.097
1007	0.096
1008	0.096
1008	0.095
1008	0.095
1009	0.094
1009	0.094
1010	0.093
1010	0.093
1010	0.092
1011	0.091
1011	0.09
1012	0.09
1012	0.089
1013	0.088
1013	0.088
1013	0.086
1014	0.086
1014	0.085
1015	0.084
1015	0.083
1016	0.083
1016	0.083
1016	0.082
1017	0.082
1017	0.083
1018	0.083
1018	0.084
1018	0.085
1019	0.086
1019	0.087
1020	0.088
1020	0.089
1021	0.089
1021	0.09
1021	0.09
1022	0.091
1022	0.091
1023	0.091
1023	0.091
1023	0.091
1024	0.09
1024	0.089
1025	0.088
1025	0.087
1026	0.087
1026	0.086
1026	0.086
1027	0.085
1027	0.085
1028	0.085
1028	0.085
1028	0.085
1029	0.085
1029	0.086
1030	0.086
1030	0.087
1031	0.087
1031	0.087
1031	0.088
1032	0.088
1032	0.088
1033	0.088
1033	0.088
1033	0.088
1034	0.087
1034	0.086
1035	0.085
1035	0.084
1036	0.084
1036	0.083
1036	0.083
1037	0.083
1037	0.083
1038	0.084
1038	0.084
1039	0.085
1039	0.086
1039	0.087
1040	0.088
1040	0.089
1041	0.089
1041	0.09
1041	0.09
1042	0.091
1042	0.091
1043	0.091
1043	0.091
1044	0.091
1044	0.091
1044	0.092
1045	0.092
1045	0.093
1046	0.093
1046	0.093
1046	0.094
1047	0.095
1047	0.097
1048	0.097
1048	0.098
1049	0.098
1049	0.098
1049	0.098
1050	0.098
1050	0.098
1051	0.097
1051	0.097
1051	0.097
1052	0.097
1052	0.096
1053	0.096
1053	0.097
1053	0.097
1054	0.097
1054	0.098
1055	0.098
1055	0.098
1056	0.098
1056	0.097
1056	0.096
1057	0.096
1057	0.096
1058	0.096
1058	0.097
1058	0.097
1059	0.098
1059	0.098
1060	0.099
1060	0.101
1061	0.102
1061	0.104
1061	0.106
1062	0.107
1062	0.108
1063	0.109
1063	0.11
1063	0.111
1064	0.113
1064	0.115
1065	0.116
1065	0.117
1066	0.118
1066	0.119
1066	0.121
1067	0.123
1067	0.124
1068	0.125
1068	0.126
1068	0.127
1069	0.127
1069	0.128
1070	0.129
1070	0.13
1071	0.131
1071	0.132
1071	0.133
1072	0.135
1072	0.137
1073	0.139
1073	0.142
1073	0.143
1074	0.146
1074	0.148
1075	0.149
1075	0.151
1076	0.151
1076	0.155
1076	0.155
1077	0.157
1077	0.158
1078	0.16
1078	0.163
1078	0.166
1079	0.169
1079	0.173
1080	0.175
1080	0.179
1080	0.18
1081	0.183
1081	0.186
1082	0.19
1082	0.193
1083	0.196
1083	0.199
1083	0.204
1084	0.208
1084	0.213
1085	0.218
1085	0.224
1085	0.231
1086	0.237
1086	0.242
1087	0.248
1087	0.255
1088	0.26
1088	0.266
1088	0.274
1089	0.28
1089	0.289
1090	0.297
1090	0.307
1090	0.318
1091	0.33
1091	0.345
1092	0.359
1092	0.377
1092	0.393
1093	0.41
1093	0.433
1094	0.455
1094	0.48
1095	0.505
1095	0.535
1095	0.572
1096	0.61
1096	0.654
1097	0.709
1097	0.769
1097	0.847
1098	0.945
1098	1.079
1099	1.297
1099	1.817
1100	-0
1100	-0
1100	-0
1101	-0
1101	-0
1102	-0
1102	-0
1102	-0
1103	-0
1103	-0
1104	-0
1104	-0
1104	-0
1105	-0
1105	-0
1106	-0
1106	-0
1107	-0
1107	-0
1107	-0
1108	-0
1108	-0
1109	-0
1109	-0
1109	-0
1110	-0
1110	-0
1111	-0
1111	-0
