Data from 15c-2a-1h-fridge_Absorbance__64__05432.txt Node

Date: Wed Jan 17 16:12:27 CET 2024
User: Marek
Spectrometer: MAYP115816
Trigger mode: 0
Integration Time (sec): 2.000000E-1
Scans to average: 10
Electric dark correction enabled: true
Nonlinearity correction enabled: true
Boxcar width: 5
XAxis mode: Wavelengths
Number of Pixels in Spectrum: 2068
>>>>>Begin Spectral Data<<<<<
199	-1.785
199	-1.643
200	-1.481
200	-1.355
201	-1.277
201	-1.228
202	-1.155
202	-1.101
203	-1.052
203	-1.01
204	-0.985
204	-0.961
205	-0.937
205	-0.926
205	-0.925
206	-0.924
206	-0.92
207	-0.918
207	-0.913
208	-0.911
208	-0.911
209	-0.906
209	-0.904
210	-0.904
210	-0.905
211	-0.903
211	-0.902
212	-0.903
212	-0.902
213	-0.901
213	-0.901
213	-0.9
214	-0.899
214	-0.899
215	-0.897
215	-0.896
216	-0.896
216	-0.893
217	-0.888
217	-0.887
218	-0.886
218	-0.882
219	-0.879
219	-0.878
220	-0.875
220	-0.871
221	-0.866
221	-0.862
221	-0.858
222	-0.855
222	-0.85
223	-0.844
223	-0.841
224	-0.835
224	-0.827
225	-0.819
225	-0.812
226	-0.802
226	-0.79
227	-0.777
227	-0.764
228	-0.747
228	-0.729
229	-0.707
229	-0.682
229	-0.654
230	-0.624
230	-0.592
231	-0.556
231	-0.519
232	-0.481
232	-0.438
233	-0.393
233	-0.348
234	-0.303
234	-0.258
235	-0.214
235	-0.17
236	-0.128
236	-0.087
236	-0.048
237	-0.01
237	0.024
238	0.056
238	0.086
239	0.114
239	0.139
240	0.163
240	0.184
241	0.204
241	0.222
242	0.237
242	0.252
243	0.265
243	0.277
243	0.287
244	0.298
244	0.306
245	0.314
245	0.322
246	0.329
246	0.335
247	0.341
247	0.347
248	0.352
248	0.357
249	0.362
249	0.365
250	0.369
250	0.373
250	0.376
251	0.379
251	0.382
252	0.385
252	0.387
253	0.39
253	0.391
254	0.393
254	0.395
255	0.396
255	0.398
256	0.399
256	0.4
257	0.401
257	0.402
258	0.403
258	0.404
258	0.404
259	0.405
259	0.404
260	0.405
260	0.405
261	0.405
261	0.405
262	0.405
262	0.404
263	0.404
263	0.403
264	0.403
264	0.402
265	0.401
265	0.4
265	0.399
266	0.398
266	0.397
267	0.396
267	0.395
268	0.393
268	0.392
269	0.39
269	0.389
270	0.387
270	0.386
271	0.384
271	0.382
272	0.381
272	0.379
272	0.377
273	0.376
273	0.374
274	0.372
274	0.371
275	0.369
275	0.367
276	0.365
276	0.364
277	0.362
277	0.36
278	0.358
278	0.356
278	0.354
279	0.351
279	0.348
280	0.346
280	0.343
281	0.341
281	0.339
282	0.337
282	0.335
283	0.333
283	0.332
284	0.33
284	0.329
285	0.328
285	0.327
285	0.326
286	0.324
286	0.323
287	0.322
287	0.32
288	0.319
288	0.318
289	0.316
289	0.315
290	0.313
290	0.312
291	0.311
291	0.309
292	0.308
292	0.307
292	0.306
293	0.304
293	0.303
294	0.302
294	0.301
295	0.3
295	0.299
296	0.298
296	0.297
297	0.297
297	0.296
298	0.295
298	0.294
298	0.293
299	0.293
299	0.292
300	0.291
300	0.291
301	0.29
301	0.289
302	0.288
302	0.287
303	0.287
303	0.286
304	0.285
304	0.285
305	0.284
305	0.283
305	0.282
306	0.282
306	0.281
307	0.28
307	0.28
308	0.279
308	0.278
309	0.277
309	0.277
310	0.276
310	0.275
311	0.274
311	0.274
311	0.273
312	0.272
312	0.271
313	0.271
313	0.27
314	0.269
314	0.268
315	0.268
315	0.267
316	0.266
316	0.265
317	0.264
317	0.263
318	0.263
318	0.262
318	0.261
319	0.26
319	0.259
320	0.259
320	0.258
321	0.257
321	0.256
322	0.255
322	0.254
323	0.254
323	0.253
324	0.252
324	0.251
324	0.25
325	0.25
325	0.249
326	0.248
326	0.247
327	0.247
327	0.246
328	0.245
328	0.245
329	0.244
329	0.243
330	0.242
330	0.242
330	0.241
331	0.24
331	0.239
332	0.239
332	0.238
333	0.237
333	0.236
334	0.236
334	0.235
335	0.234
335	0.234
336	0.233
336	0.232
336	0.232
337	0.231
337	0.23
338	0.23
338	0.229
339	0.228
339	0.228
340	0.227
340	0.226
341	0.226
341	0.225
342	0.225
342	0.224
342	0.224
343	0.223
343	0.223
344	0.222
344	0.222
345	0.221
345	0.221
346	0.22
346	0.22
347	0.219
347	0.218
348	0.218
348	0.218
348	0.217
349	0.216
349	0.216
350	0.215
350	0.215
351	0.214
351	0.214
352	0.213
352	0.213
353	0.212
353	0.212
354	0.211
354	0.21
354	0.21
355	0.209
355	0.209
356	0.208
356	0.208
357	0.207
357	0.207
358	0.207
358	0.207
359	0.207
359	0.207
360	0.207
360	0.207
360	0.208
361	0.208
361	0.208
362	0.208
362	0.208
363	0.208
363	0.208
364	0.208
364	0.207
365	0.207
365	0.207
366	0.206
366	0.206
366	0.206
367	0.205
367	0.205
368	0.205
368	0.204
369	0.204
369	0.204
370	0.204
370	0.204
371	0.203
371	0.203
372	0.203
372	0.203
372	0.203
373	0.203
373	0.202
374	0.202
374	0.202
375	0.202
375	0.202
376	0.202
376	0.202
377	0.202
377	0.202
378	0.202
378	0.202
378	0.202
379	0.202
379	0.202
380	0.202
380	0.202
381	0.202
381	0.202
382	0.201
382	0.201
383	0.201
383	0.201
383	0.2
384	0.2
384	0.199
385	0.199
385	0.199
386	0.199
386	0.199
387	0.199
387	0.199
388	0.199
388	0.198
389	0.198
389	0.199
389	0.199
390	0.199
390	0.199
391	0.199
391	0.199
392	0.199
392	0.199
393	0.199
393	0.198
394	0.198
394	0.198
394	0.198
395	0.198
395	0.197
396	0.197
396	0.197
397	0.197
397	0.197
398	0.197
398	0.197
399	0.197
399	0.197
400	0.197
400	0.197
400	0.196
401	0.196
401	0.195
402	0.195
402	0.194
403	0.194
403	0.194
404	0.194
404	0.193
405	0.193
405	0.193
405	0.193
406	0.192
406	0.192
407	0.192
407	0.192
408	0.192
408	0.191
409	0.191
409	0.191
410	0.191
410	0.191
411	0.191
411	0.191
411	0.191
412	0.191
412	0.19
413	0.19
413	0.19
414	0.19
414	0.19
415	0.189
415	0.189
416	0.188
416	0.188
416	0.188
417	0.188
417	0.187
418	0.187
418	0.187
419	0.188
419	0.188
420	0.189
420	0.189
421	0.19
421	0.19
421	0.19
422	0.19
422	0.191
423	0.191
423	0.19
424	0.19
424	0.19
425	0.189
425	0.188
426	0.188
426	0.188
427	0.188
427	0.188
427	0.188
428	0.189
428	0.189
429	0.189
429	0.189
430	0.189
430	0.189
431	0.189
431	0.188
432	0.188
432	0.188
432	0.187
433	0.186
433	0.185
434	0.185
434	0.185
435	0.185
435	0.185
436	0.185
436	0.186
437	0.186
437	0.186
437	0.186
438	0.186
438	0.186
439	0.186
439	0.186
440	0.186
440	0.186
441	0.186
441	0.186
442	0.186
442	0.186
442	0.186
443	0.186
443	0.186
444	0.186
444	0.187
445	0.187
445	0.187
446	0.187
446	0.187
447	0.187
447	0.187
447	0.187
448	0.186
448	0.186
449	0.186
449	0.186
450	0.186
450	0.186
451	0.185
451	0.185
452	0.185
452	0.185
452	0.185
453	0.185
453	0.185
454	0.185
454	0.184
455	0.184
455	0.184
456	0.184
456	0.184
457	0.184
457	0.184
458	0.184
458	0.184
458	0.184
459	0.185
459	0.185
460	0.184
460	0.184
461	0.184
461	0.184
462	0.184
462	0.184
463	0.184
463	0.185
463	0.186
464	0.186
464	0.186
465	0.186
465	0.186
466	0.186
466	0.187
467	0.187
467	0.186
467	0.186
468	0.185
468	0.184
469	0.184
469	0.184
470	0.184
470	0.183
471	0.183
471	0.183
472	0.184
472	0.184
472	0.184
473	0.185
473	0.186
474	0.187
474	0.187
475	0.188
475	0.189
476	0.189
476	0.189
477	0.19
477	0.19
477	0.19
478	0.19
478	0.191
479	0.191
479	0.192
480	0.192
480	0.193
481	0.194
481	0.195
482	0.196
482	0.197
482	0.199
483	0.201
483	0.203
484	0.205
484	0.206
485	0.207
485	0.208
486	0.209
486	0.209
487	0.21
487	0.21
487	0.211
488	0.211
488	0.21
489	0.21
489	0.211
490	0.211
490	0.212
491	0.212
491	0.213
492	0.214
492	0.215
492	0.215
493	0.216
493	0.217
494	0.219
494	0.221
495	0.223
495	0.224
496	0.225
496	0.227
496	0.229
497	0.231
497	0.232
498	0.233
498	0.234
499	0.235
499	0.237
500	0.238
500	0.24
501	0.242
501	0.243
501	0.244
502	0.245
502	0.247
503	0.249
503	0.25
504	0.251
504	0.252
505	0.253
505	0.254
506	0.255
506	0.256
506	0.257
507	0.258
507	0.259
508	0.261
508	0.262
509	0.264
509	0.265
510	0.267
510	0.268
511	0.269
511	0.27
511	0.271
512	0.272
512	0.272
513	0.272
513	0.272
514	0.273
514	0.273
515	0.274
515	0.273
515	0.273
516	0.274
516	0.274
517	0.275
517	0.276
518	0.276
518	0.277
519	0.277
519	0.276
520	0.276
520	0.276
520	0.275
521	0.274
521	0.272
522	0.271
522	0.27
523	0.269
523	0.268
524	0.267
524	0.267
524	0.267
525	0.268
525	0.268
526	0.269
526	0.271
527	0.272
527	0.273
528	0.275
528	0.276
529	0.276
529	0.277
529	0.277
530	0.277
530	0.277
531	0.277
531	0.277
532	0.276
532	0.275
533	0.275
533	0.274
533	0.274
534	0.273
534	0.271
535	0.271
535	0.27
536	0.27
536	0.268
537	0.267
537	0.266
538	0.265
538	0.263
538	0.262
539	0.261
539	0.26
540	0.259
540	0.257
541	0.255
541	0.254
542	0.252
542	0.25
542	0.248
543	0.247
543	0.245
544	0.243
544	0.242
545	0.241
545	0.24
546	0.239
546	0.237
547	0.235
547	0.232
547	0.23
548	0.228
548	0.226
549	0.225
549	0.223
550	0.221
550	0.218
551	0.216
551	0.214
551	0.212
552	0.211
552	0.209
553	0.208
553	0.207
554	0.206
554	0.203
555	0.201
555	0.199
556	0.196
556	0.194
556	0.191
557	0.189
557	0.187
558	0.185
558	0.183
559	0.182
559	0.18
560	0.179
560	0.178
560	0.177
561	0.176
561	0.175
562	0.174
562	0.172
563	0.17
563	0.168
564	0.165
564	0.163
564	0.161
565	0.159
565	0.158
566	0.156
566	0.155
567	0.154
567	0.154
568	0.154
568	0.154
568	0.154
569	0.155
569	0.156
570	0.155
570	0.153
571	0.153
571	0.153
572	0.152
572	0.152
573	0.15
573	0.149
573	0.147
574	0.146
574	0.145
575	0.145
575	0.145
576	0.146
576	0.144
577	0.142
577	0.141
577	0.14
578	0.14
578	0.14
579	0.14
579	0.141
580	0.138
580	0.135
581	0.131
581	0.129
581	0.128
582	0.128
582	0.127
583	0.128
583	0.126
584	0.123
584	0.118
585	0.117
585	0.118
585	0.118
586	0.118
586	0.117
587	0.115
587	0.113
588	0.111
588	0.109
589	0.109
589	0.109
590	0.109
590	0.109
590	0.11
591	0.111
591	0.11
592	0.11
592	0.109
593	0.108
593	0.108
594	0.107
594	0.106
594	0.105
595	0.104
595	0.102
596	0.101
596	0.102
597	0.104
597	0.105
598	0.105
598	0.106
598	0.107
599	0.107
599	0.107
600	0.106
600	0.105
601	0.104
601	0.102
602	0.1
602	0.1
602	0.099
603	0.099
603	0.1
604	0.101
604	0.102
605	0.104
605	0.106
606	0.106
606	0.105
606	0.105
607	0.104
607	0.104
608	0.103
608	0.101
609	0.099
609	0.099
610	0.098
610	0.097
610	0.097
611	0.099
611	0.1
612	0.102
612	0.103
613	0.105
613	0.106
614	0.106
614	0.104
614	0.104
615	0.103
615	0.102
616	0.102
616	0.1
617	0.099
617	0.098
618	0.096
618	0.095
618	0.095
619	0.096
619	0.097
620	0.099
620	0.099
621	0.1
621	0.101
622	0.101
622	0.102
622	0.102
623	0.101
623	0.102
624	0.103
624	0.102
625	0.101
625	0.102
626	0.102
626	0.102
626	0.103
627	0.104
627	0.104
628	0.105
628	0.105
629	0.106
629	0.106
630	0.105
630	0.105
630	0.105
631	0.106
631	0.106
632	0.105
632	0.106
633	0.107
633	0.108
634	0.11
634	0.112
634	0.114
635	0.116
635	0.118
636	0.119
636	0.121
637	0.122
637	0.123
638	0.124
638	0.126
638	0.127
639	0.127
639	0.128
640	0.129
640	0.13
641	0.132
641	0.133
642	0.135
642	0.137
642	0.139
643	0.141
643	0.142
644	0.145
644	0.146
645	0.148
645	0.15
646	0.153
646	0.156
646	0.159
647	0.162
647	0.165
648	0.167
648	0.169
649	0.172
649	0.174
650	0.177
650	0.18
650	0.182
651	0.184
651	0.186
652	0.188
652	0.19
653	0.194
653	0.203
653	0.222
654	0.176
654	0.142
655	0.143
655	0.145
656	0.146
656	0.147
657	0.149
657	0.15
657	0.151
658	0.147
658	0.131
659	0.168
659	0.221
660	0.229
660	0.232
661	0.234
661	0.237
661	0.24
662	0.244
662	0.248
663	0.251
663	0.255
664	0.258
664	0.26
665	0.263
665	0.266
665	0.269
666	0.271
666	0.273
667	0.275
667	0.277
668	0.279
668	0.282
669	0.285
669	0.288
669	0.292
670	0.296
670	0.299
671	0.301
671	0.303
672	0.306
672	0.308
672	0.31
673	0.312
673	0.313
674	0.315
674	0.315
675	0.316
675	0.317
676	0.319
676	0.321
676	0.322
677	0.324
677	0.326
678	0.327
678	0.328
679	0.329
679	0.33
680	0.331
680	0.333
680	0.333
681	0.333
681	0.334
682	0.335
682	0.336
683	0.338
683	0.339
684	0.341
684	0.341
684	0.34
685	0.341
685	0.342
686	0.342
686	0.342
687	0.342
687	0.342
687	0.342
688	0.341
688	0.34
689	0.341
689	0.342
690	0.341
690	0.34
691	0.34
691	0.339
691	0.338
692	0.337
692	0.335
693	0.335
693	0.334
694	0.333
694	0.331
695	0.331
695	0.332
695	0.332
696	0.33
696	0.328
697	0.327
697	0.325
698	0.324
698	0.321
698	0.32
699	0.319
699	0.316
700	0.312
700	0.311
701	0.31
701	0.309
702	0.308
702	0.306
702	0.305
703	0.303
703	0.302
704	0.3
704	0.299
705	0.298
705	0.296
705	0.294
706	0.292
706	0.291
707	0.289
707	0.286
708	0.284
708	0.283
709	0.281
709	0.279
709	0.275
710	0.272
710	0.27
711	0.269
711	0.267
712	0.265
712	0.263
713	0.261
713	0.259
713	0.257
714	0.254
714	0.252
715	0.25
715	0.247
716	0.245
716	0.243
716	0.241
717	0.239
717	0.237
718	0.234
718	0.232
719	0.23
719	0.228
720	0.226
720	0.223
720	0.221
721	0.218
721	0.215
722	0.213
722	0.211
723	0.21
723	0.209
723	0.207
724	0.205
724	0.203
725	0.201
725	0.199
726	0.197
726	0.196
727	0.194
727	0.192
727	0.19
728	0.188
728	0.186
729	0.186
729	0.185
730	0.184
730	0.182
730	0.18
731	0.178
731	0.176
732	0.175
732	0.172
733	0.169
733	0.167
734	0.164
734	0.161
734	0.159
735	0.157
735	0.155
736	0.153
736	0.152
737	0.151
737	0.151
737	0.15
738	0.148
738	0.145
739	0.143
739	0.141
740	0.139
740	0.137
741	0.135
741	0.132
741	0.129
742	0.124
742	0.121
743	0.12
743	0.118
744	0.116
744	0.115
744	0.113
745	0.112
745	0.109
746	0.108
746	0.107
747	0.106
747	0.105
748	0.104
748	0.103
748	0.101
749	0.099
749	0.099
750	0.097
750	0.096
751	0.096
751	0.095
751	0.095
752	0.094
752	0.092
753	0.092
753	0.091
754	0.09
754	0.089
754	0.089
755	0.089
755	0.089
756	0.087
756	0.084
757	0.083
757	0.083
758	0.082
758	0.08
758	0.079
759	0.078
759	0.076
760	0.073
760	0.07
761	0.069
761	0.069
761	0.068
762	0.066
762	0.066
763	0.065
763	0.063
764	0.06
764	0.058
764	0.057
765	0.055
765	0.053
766	0.052
766	0.051
767	0.049
767	0.046
768	0.043
768	0.041
768	0.04
769	0.039
769	0.037
770	0.035
770	0.033
771	0.031
771	0.027
771	0.024
772	0.022
772	0.019
773	0.017
773	0.013
774	0.009
774	0.006
775	0.003
775	-0.001
775	-0.005
776	-0.009
776	-0.013
777	-0.017
777	-0.021
778	-0.026
778	-0.03
778	-0.033
779	-0.036
779	-0.039
780	-0.043
780	-0.048
781	-0.053
781	-0.058
781	-0.065
782	-0.072
782	-0.08
783	-0.087
783	-0.095
784	-0.103
784	-0.112
784	-0.121
785	-0.129
785	-0.137
786	-0.143
786	-0.144
787	-0.143
787	-0.142
788	-0.145
788	-0.148
788	-0.151
789	-0.153
789	-0.153
790	-0.15
790	-0.148
791	-0.149
791	-0.151
791	-0.154
792	-0.148
792	-0.137
793	-0.132
793	-0.128
794	-0.126
794	-0.128
794	-0.132
795	-0.135
795	-0.135
796	-0.136
796	-0.139
797	-0.148
797	-0.159
797	-0.165
798	-0.17
798	-0.173
799	-0.173
799	-0.173
800	-0.172
800	-0.174
801	-0.176
801	-0.177
801	-0.177
802	-0.179
802	-0.18
803	-0.181
803	-0.181
804	-0.18
804	-0.175
804	-0.169
805	-0.165
805	-0.163
806	-0.161
806	-0.159
807	-0.158
807	-0.158
807	-0.158
808	-0.158
808	-0.159
809	-0.164
809	-0.17
810	-0.173
810	-0.176
810	-0.18
811	-0.183
811	-0.184
812	-0.18
812	-0.177
813	-0.177
813	-0.177
813	-0.178
814	-0.178
814	-0.178
815	-0.174
815	-0.171
816	-0.168
816	-0.167
817	-0.168
817	-0.167
817	-0.162
818	-0.155
818	-0.145
819	-0.136
819	-0.127
820	-0.12
820	-0.113
820	-0.104
821	-0.093
821	-0.084
822	-0.075
822	-0.068
823	-0.061
823	-0.056
823	-0.052
824	-0.046
824	-0.04
825	-0.034
825	-0.029
826	-0.024
826	-0.022
826	-0.019
827	-0.016
827	-0.013
828	-0.011
828	-0.01
829	-0.008
829	-0.007
829	-0.006
830	-0.006
830	-0.005
831	-0.002
831	-0.001
832	0
832	0.002
832	0.003
833	0.005
833	0.007
834	0.008
834	0.01
835	0.011
835	0.012
835	0.013
836	0.014
836	0.015
837	0.017
837	0.018
838	0.019
838	0.02
839	0.021
839	0.022
839	0.022
840	0.022
840	0.023
841	0.023
841	0.023
842	0.024
842	0.024
842	0.024
843	0.024
843	0.023
844	0.024
844	0.024
845	0.024
845	0.025
845	0.026
846	0.026
846	0.026
847	0.027
847	0.027
848	0.027
848	0.027
848	0.028
849	0.028
849	0.028
850	0.028
850	0.027
851	0.028
851	0.028
851	0.028
852	0.029
852	0.03
853	0.03
853	0.03
854	0.031
854	0.031
854	0.031
855	0.031
855	0.031
856	0.03
856	0.03
857	0.03
857	0.03
857	0.03
858	0.03
858	0.03
859	0.029
859	0.029
860	0.03
860	0.03
860	0.03
861	0.03
861	0.029
862	0.029
862	0.028
863	0.027
863	0.027
863	0.026
864	0.025
864	0.025
865	0.025
865	0.025
866	0.026
866	0.026
866	0.027
867	0.028
867	0.03
868	0.032
868	0.033
869	0.035
869	0.036
869	0.037
870	0.037
870	0.037
871	0.038
871	0.037
872	0.036
872	0.035
872	0.034
873	0.033
873	0.032
874	0.03
874	0.03
875	0.029
875	0.029
875	0.029
876	0.029
876	0.029
877	0.03
877	0.031
878	0.032
878	0.033
878	0.034
879	0.035
879	0.035
880	0.035
880	0.036
881	0.036
881	0.036
881	0.036
882	0.035
882	0.035
883	0.034
883	0.033
884	0.032
884	0.031
884	0.031
885	0.031
885	0.03
886	0.03
886	0.03
887	0.03
887	0.03
887	0.029
888	0.029
888	0.029
889	0.029
889	0.029
890	0.028
890	0.028
890	0.027
891	0.026
891	0.026
892	0.025
892	0.025
893	0.024
893	0.024
893	0.024
894	0.023
894	0.023
895	0.022
895	0.022
895	0.021
896	0.021
896	0.021
897	0.021
897	0.021
898	0.021
898	0.021
898	0.021
899	0.021
899	0.021
900	0.022
900	0.023
901	0.024
901	0.024
901	0.025
902	0.026
902	0.026
903	0.027
903	0.027
904	0.027
904	0.027
904	0.027
905	0.027
905	0.027
906	0.027
906	0.027
907	0.027
907	0.028
907	0.028
908	0.029
908	0.03
909	0.031
909	0.032
910	0.033
910	0.034
910	0.035
911	0.036
911	0.038
912	0.039
912	0.04
913	0.041
913	0.041
913	0.041
914	0.041
914	0.04
915	0.039
915	0.038
916	0.037
916	0.035
916	0.034
917	0.032
917	0.03
918	0.029
918	0.028
918	0.027
919	0.026
919	0.026
920	0.026
920	0.027
921	0.027
921	0.027
921	0.028
922	0.028
922	0.029
923	0.03
923	0.03
924	0.031
924	0.031
924	0.031
925	0.03
925	0.03
926	0.03
926	0.03
927	0.029
927	0.028
927	0.028
928	0.027
928	0.026
929	0.026
929	0.025
930	0.024
930	0.023
930	0.023
931	0.022
931	0.021
932	0.02
932	0.019
933	0.018
933	0.017
933	0.016
934	0.016
934	0.015
935	0.015
935	0.014
935	0.014
936	0.014
936	0.014
937	0.015
937	0.015
938	0.015
938	0.016
938	0.016
939	0.017
939	0.018
940	0.018
940	0.019
941	0.02
941	0.021
941	0.022
942	0.023
942	0.024
943	0.024
943	0.024
944	0.024
944	0.024
944	0.024
945	0.024
945	0.024
946	0.024
946	0.023
946	0.023
947	0.023
947	0.023
948	0.023
948	0.022
949	0.022
949	0.022
949	0.022
950	0.022
950	0.021
951	0.021
951	0.021
952	0.02
952	0.02
952	0.021
953	0.021
953	0.021
954	0.021
954	0.022
955	0.022
955	0.022
955	0.023
956	0.024
956	0.025
957	0.025
957	0.025
957	0.024
958	0.024
958	0.024
959	0.023
959	0.022
960	0.021
960	0.019
960	0.018
961	0.016
961	0.015
962	0.014
962	0.014
963	0.013
963	0.013
963	0.013
964	0.014
964	0.015
965	0.016
965	0.017
966	0.018
966	0.019
966	0.02
967	0.022
967	0.022
968	0.023
968	0.023
968	0.023
969	0.023
969	0.022
970	0.022
970	0.021
971	0.02
971	0.02
971	0.019
972	0.018
972	0.018
973	0.018
973	0.017
974	0.017
974	0.017
974	0.016
975	0.016
975	0.016
976	0.016
976	0.016
976	0.015
977	0.014
977	0.013
978	0.012
978	0.011
979	0.011
979	0.011
979	0.011
980	0.01
980	0.01
981	0.01
981	0.011
982	0.011
982	0.012
982	0.014
983	0.015
983	0.016
984	0.017
984	0.018
984	0.019
985	0.019
985	0.02
986	0.02
986	0.02
987	0.021
987	0.021
987	0.022
988	0.023
988	0.023
989	0.024
989	0.025
990	0.025
990	0.026
990	0.028
991	0.029
991	0.03
992	0.031
992	0.032
992	0.032
993	0.033
993	0.033
994	0.033
994	0.033
995	0.032
995	0.031
995	0.03
996	0.029
996	0.028
997	0.027
997	0.026
997	0.025
998	0.023
998	0.023
999	0.022
999	0.021
1000	0.021
1000	0.02
1000	0.02
1001	0.02
1001	0.02
1002	0.02
1002	0.021
1003	0.021
1003	0.021
1003	0.021
1004	0.021
1004	0.021
1005	0.021
1005	0.02
1005	0.02
1006	0.019
1006	0.018
1007	0.017
1007	0.016
1008	0.015
1008	0.014
1008	0.013
1009	0.013
1009	0.012
1010	0.012
1010	0.011
1010	0.011
1011	0.01
1011	0.009
1012	0.009
1012	0.008
1013	0.008
1013	0.007
1013	0.005
1014	0.005
1014	0.004
1015	0.003
1015	0.003
1016	0.003
1016	0.003
1016	0.003
1017	0.003
1017	0.003
1018	0.003
1018	0.004
1018	0.004
1019	0.005
1019	0.005
1020	0.006
1020	0.006
1021	0.006
1021	0.006
1021	0.006
1022	0.006
1022	0.006
1023	0.006
1023	0.006
1023	0.005
1024	0.005
1024	0.004
1025	0.003
1025	0.002
1026	0.001
1026	-0
1026	-0.001
1027	-0.002
1027	-0.003
1028	-0.004
1028	-0.004
1028	-0.005
1029	-0.005
1029	-0.005
1030	-0.005
1030	-0.005
1031	-0.005
1031	-0.004
1031	-0.004
1032	-0.004
1032	-0.003
1033	-0.002
1033	-0.002
1033	-0.002
1034	-0.003
1034	-0.003
1035	-0.004
1035	-0.004
1036	-0.004
1036	-0.004
1036	-0.004
1037	-0.004
1037	-0.004
1038	-0.004
1038	-0.004
1039	-0.003
1039	-0.002
1039	-0.001
1040	-0.001
1040	-0.001
1041	-0.001
1041	-0.001
1041	-0.001
1042	-0.001
1042	-0.002
1043	-0.002
1043	-0.003
1044	-0.004
1044	-0.004
1044	-0.004
1045	-0.005
1045	-0.006
1046	-0.006
1046	-0.007
1046	-0.007
1047	-0.007
1047	-0.006
1048	-0.006
1048	-0.006
1049	-0.007
1049	-0.007
1049	-0.008
1050	-0.008
1050	-0.009
1051	-0.01
1051	-0.01
1051	-0.011
1052	-0.011
1052	-0.012
1053	-0.012
1053	-0.013
1053	-0.013
1054	-0.013
1054	-0.013
1055	-0.013
1055	-0.013
1056	-0.014
1056	-0.014
1056	-0.015
1057	-0.016
1057	-0.016
1058	-0.016
1058	-0.017
1058	-0.017
1059	-0.017
1059	-0.017
1060	-0.017
1060	-0.016
1061	-0.015
1061	-0.014
1061	-0.013
1062	-0.013
1062	-0.012
1063	-0.011
1063	-0.011
1063	-0.01
1064	-0.009
1064	-0.008
1065	-0.007
1065	-0.006
1066	-0.005
1066	-0.005
1066	-0.004
1067	-0.003
1067	-0.002
1068	-0.002
1068	-0.002
1068	-0.002
1069	-0.002
1069	-0.003
1070	-0.003
1070	-0.004
1071	-0.004
1071	-0.004
1071	-0.005
1072	-0.005
1072	-0.004
1073	-0.004
1073	-0.004
1073	-0.004
1074	-0.003
1074	-0.003
1075	-0.003
1075	-0.003
1076	-0.004
1076	-0.003
1076	-0.003
1077	-0.003
1077	-0.003
1078	-0.004
1078	-0.004
1078	-0.003
1079	-0.002
1079	-0.001
1080	-0.001
1080	-0
1080	-0.001
1081	-0
1081	0.001
1082	0.002
1082	0.002
1083	0.003
1083	0.003
1083	0.003
1084	0.004
1084	0.005
1085	0.007
1085	0.009
1085	0.01
1086	0.011
1086	0.012
1087	0.013
1087	0.014
1088	0.014
1088	0.015
1088	0.016
1089	0.016
1089	0.016
1090	0.016
1090	0.018
1090	0.019
1091	0.02
1091	0.023
1092	0.025
1092	0.028
1092	0.03
1093	0.033
1093	0.038
1094	0.042
1094	0.045
1095	0.047
1095	0.05
1095	0.055
1096	0.059
1096	0.063
1097	0.067
1097	0.071
1097	0.076
1098	0.079
1098	0.083
1099	0.088
1099	0.095
1100	0.1
1100	0.106
1100	0.111
1101	0.118
1101	0.125
1102	0.135
1102	0.144
1102	0.154
1103	0.165
1103	0.179
1104	0.192
1104	0.209
1104	0.23
1105	0.248
1105	0.266
1106	0.283
1106	0.309
1107	0.334
1107	0.377
1107	0.426
1108	0.613
1108	1.079
1109	-0
1109	-0
1109	-0
1110	-0
1110	-0
1111	-0
1111	-0
