Data from 15c-2a-1h-fridge_Absorbance__548__05916.txt Node

Date: Wed Jan 17 16:28:35 CET 2024
User: Marek
Spectrometer: MAYP115816
Trigger mode: 0
Integration Time (sec): 2.000000E-1
Scans to average: 10
Electric dark correction enabled: true
Nonlinearity correction enabled: true
Boxcar width: 5
XAxis mode: Wavelengths
Number of Pixels in Spectrum: 2068
>>>>>Begin Spectral Data<<<<<
199	-1.643
199	-1.505
200	-1.346
200	-1.221
201	-1.146
201	-1.099
202	-1.028
202	-0.976
203	-0.93
203	-0.892
204	-0.867
204	-0.844
205	-0.821
205	-0.811
205	-0.81
206	-0.809
206	-0.805
207	-0.803
207	-0.8
208	-0.798
208	-0.798
209	-0.793
209	-0.792
210	-0.792
210	-0.791
211	-0.79
211	-0.79
212	-0.791
212	-0.79
213	-0.789
213	-0.789
213	-0.789
214	-0.788
214	-0.787
215	-0.786
215	-0.785
216	-0.786
216	-0.783
217	-0.778
217	-0.776
218	-0.775
218	-0.772
219	-0.769
219	-0.768
220	-0.765
220	-0.762
221	-0.757
221	-0.753
221	-0.749
222	-0.745
222	-0.741
223	-0.735
223	-0.732
224	-0.727
224	-0.719
225	-0.71
225	-0.703
226	-0.694
226	-0.682
227	-0.669
227	-0.656
228	-0.64
228	-0.621
229	-0.6
229	-0.575
229	-0.548
230	-0.518
230	-0.487
231	-0.451
231	-0.413
232	-0.375
232	-0.333
233	-0.289
233	-0.244
234	-0.199
234	-0.155
235	-0.111
235	-0.069
236	-0.028
236	0.011
236	0.048
237	0.084
237	0.117
238	0.148
238	0.176
239	0.203
239	0.227
240	0.249
240	0.269
241	0.287
241	0.303
242	0.318
242	0.332
243	0.344
243	0.355
243	0.364
244	0.373
244	0.381
245	0.388
245	0.395
246	0.402
246	0.408
247	0.413
247	0.418
248	0.422
248	0.427
249	0.431
249	0.434
250	0.438
250	0.441
250	0.444
251	0.447
251	0.45
252	0.452
252	0.454
253	0.457
253	0.458
254	0.46
254	0.462
255	0.463
255	0.465
256	0.466
256	0.467
257	0.467
257	0.468
258	0.469
258	0.469
258	0.469
259	0.469
259	0.469
260	0.469
260	0.469
261	0.469
261	0.469
262	0.469
262	0.468
263	0.468
263	0.467
264	0.467
264	0.466
265	0.465
265	0.464
265	0.463
266	0.461
266	0.46
267	0.459
267	0.457
268	0.455
268	0.454
269	0.452
269	0.45
270	0.449
270	0.447
271	0.445
271	0.443
272	0.441
272	0.439
272	0.437
273	0.435
273	0.432
274	0.43
274	0.428
275	0.426
275	0.424
276	0.422
276	0.42
277	0.418
277	0.416
278	0.413
278	0.411
278	0.408
279	0.405
279	0.402
280	0.399
280	0.397
281	0.394
281	0.392
282	0.389
282	0.387
283	0.385
283	0.382
284	0.381
284	0.38
285	0.378
285	0.376
285	0.375
286	0.373
286	0.371
287	0.37
287	0.368
288	0.366
288	0.365
289	0.363
289	0.361
290	0.36
290	0.358
291	0.356
291	0.355
292	0.353
292	0.352
292	0.35
293	0.349
293	0.347
294	0.346
294	0.345
295	0.344
295	0.343
296	0.341
296	0.34
297	0.339
297	0.338
298	0.337
298	0.336
298	0.335
299	0.334
299	0.333
300	0.332
300	0.331
301	0.33
301	0.329
302	0.329
302	0.328
303	0.327
303	0.326
304	0.325
304	0.324
305	0.323
305	0.322
305	0.321
306	0.32
306	0.319
307	0.319
307	0.318
308	0.317
308	0.316
309	0.315
309	0.314
310	0.313
310	0.313
311	0.312
311	0.311
311	0.31
312	0.309
312	0.308
313	0.307
313	0.306
314	0.305
314	0.304
315	0.303
315	0.302
316	0.301
316	0.3
317	0.3
317	0.299
318	0.298
318	0.297
318	0.296
319	0.295
319	0.294
320	0.293
320	0.292
321	0.291
321	0.29
322	0.289
322	0.288
323	0.287
323	0.287
324	0.286
324	0.285
324	0.284
325	0.283
325	0.282
326	0.282
326	0.281
327	0.28
327	0.279
328	0.278
328	0.278
329	0.277
329	0.276
330	0.275
330	0.274
330	0.273
331	0.272
331	0.272
332	0.271
332	0.27
333	0.269
333	0.268
334	0.268
334	0.267
335	0.266
335	0.265
336	0.265
336	0.264
336	0.263
337	0.263
337	0.262
338	0.261
338	0.261
339	0.26
339	0.259
340	0.259
340	0.258
341	0.258
341	0.257
342	0.256
342	0.256
342	0.255
343	0.255
343	0.254
344	0.254
344	0.253
345	0.253
345	0.252
346	0.252
346	0.251
347	0.251
347	0.25
348	0.249
348	0.249
348	0.248
349	0.248
349	0.247
350	0.246
350	0.246
351	0.245
351	0.245
352	0.244
352	0.244
353	0.243
353	0.243
354	0.242
354	0.242
354	0.241
355	0.24
355	0.24
356	0.239
356	0.239
357	0.238
357	0.238
358	0.238
358	0.238
359	0.238
359	0.238
360	0.238
360	0.238
360	0.239
361	0.239
361	0.239
362	0.239
362	0.239
363	0.239
363	0.238
364	0.238
364	0.238
365	0.238
365	0.237
366	0.237
366	0.237
366	0.236
367	0.236
367	0.236
368	0.236
368	0.235
369	0.235
369	0.235
370	0.235
370	0.234
371	0.234
371	0.234
372	0.234
372	0.234
372	0.234
373	0.233
373	0.233
374	0.233
374	0.233
375	0.233
375	0.233
376	0.233
376	0.232
377	0.232
377	0.232
378	0.232
378	0.232
378	0.232
379	0.232
379	0.232
380	0.232
380	0.232
381	0.232
381	0.231
382	0.231
382	0.231
383	0.231
383	0.23
383	0.23
384	0.229
384	0.229
385	0.229
385	0.229
386	0.229
386	0.229
387	0.229
387	0.229
388	0.228
388	0.228
389	0.228
389	0.228
389	0.228
390	0.228
390	0.228
391	0.228
391	0.228
392	0.228
392	0.228
393	0.228
393	0.228
394	0.227
394	0.227
394	0.227
395	0.227
395	0.226
396	0.226
396	0.226
397	0.226
397	0.226
398	0.226
398	0.225
399	0.225
399	0.225
400	0.225
400	0.224
400	0.224
401	0.223
401	0.223
402	0.222
402	0.222
403	0.222
403	0.222
404	0.222
404	0.221
405	0.221
405	0.221
405	0.221
406	0.221
406	0.221
407	0.22
407	0.22
408	0.22
408	0.219
409	0.219
409	0.218
410	0.218
410	0.218
411	0.218
411	0.218
411	0.218
412	0.218
412	0.217
413	0.217
413	0.217
414	0.217
414	0.217
415	0.216
415	0.216
416	0.215
416	0.215
416	0.215
417	0.215
417	0.215
418	0.215
418	0.215
419	0.216
419	0.216
420	0.217
420	0.217
421	0.217
421	0.218
421	0.218
422	0.218
422	0.218
423	0.218
423	0.218
424	0.217
424	0.217
425	0.216
425	0.216
426	0.215
426	0.215
427	0.215
427	0.215
427	0.215
428	0.215
428	0.215
429	0.215
429	0.215
430	0.215
430	0.215
431	0.215
431	0.215
432	0.215
432	0.214
432	0.214
433	0.213
433	0.213
434	0.213
434	0.213
435	0.213
435	0.213
436	0.213
436	0.213
437	0.214
437	0.214
437	0.214
438	0.214
438	0.214
439	0.213
439	0.213
440	0.212
440	0.212
441	0.213
441	0.213
442	0.212
442	0.212
442	0.212
443	0.213
443	0.213
444	0.213
444	0.213
445	0.214
445	0.214
446	0.214
446	0.214
447	0.214
447	0.214
447	0.214
448	0.214
448	0.214
449	0.214
449	0.214
450	0.214
450	0.214
451	0.214
451	0.214
452	0.214
452	0.214
452	0.214
453	0.214
453	0.214
454	0.213
454	0.213
455	0.213
455	0.214
456	0.214
456	0.213
457	0.213
457	0.214
458	0.214
458	0.213
458	0.214
459	0.214
459	0.214
460	0.213
460	0.213
461	0.213
461	0.213
462	0.213
462	0.213
463	0.214
463	0.214
463	0.215
464	0.215
464	0.215
465	0.215
465	0.216
466	0.216
466	0.217
467	0.217
467	0.217
467	0.217
468	0.216
468	0.215
469	0.215
469	0.215
470	0.215
470	0.215
471	0.215
471	0.215
472	0.215
472	0.216
472	0.216
473	0.217
473	0.218
474	0.219
474	0.22
475	0.221
475	0.222
476	0.222
476	0.223
477	0.223
477	0.224
477	0.224
478	0.224
478	0.225
479	0.225
479	0.226
480	0.226
480	0.227
481	0.228
481	0.229
482	0.23
482	0.231
482	0.233
483	0.235
483	0.237
484	0.239
484	0.24
485	0.241
485	0.242
486	0.243
486	0.244
487	0.245
487	0.246
487	0.246
488	0.247
488	0.246
489	0.247
489	0.248
490	0.249
490	0.25
491	0.251
491	0.253
492	0.254
492	0.255
492	0.256
493	0.257
493	0.259
494	0.261
494	0.263
495	0.265
495	0.267
496	0.268
496	0.27
496	0.272
497	0.274
497	0.276
498	0.278
498	0.279
499	0.28
499	0.282
500	0.284
500	0.286
501	0.287
501	0.289
501	0.29
502	0.292
502	0.294
503	0.296
503	0.298
504	0.299
504	0.301
505	0.302
505	0.303
506	0.305
506	0.307
506	0.308
507	0.31
507	0.311
508	0.313
508	0.314
509	0.316
509	0.318
510	0.32
510	0.321
511	0.322
511	0.323
511	0.324
512	0.325
512	0.326
513	0.326
513	0.326
514	0.327
514	0.327
515	0.328
515	0.329
515	0.329
516	0.33
516	0.331
517	0.332
517	0.333
518	0.334
518	0.334
519	0.334
519	0.334
520	0.333
520	0.333
520	0.332
521	0.331
521	0.329
522	0.328
522	0.328
523	0.327
523	0.327
524	0.327
524	0.328
524	0.328
525	0.328
525	0.329
526	0.33
526	0.331
527	0.332
527	0.332
528	0.333
528	0.333
529	0.333
529	0.332
529	0.332
530	0.332
530	0.331
531	0.331
531	0.33
532	0.329
532	0.328
533	0.327
533	0.326
533	0.325
534	0.324
534	0.322
535	0.32
535	0.319
536	0.317
536	0.316
537	0.315
537	0.313
538	0.311
538	0.31
538	0.308
539	0.306
539	0.305
540	0.303
540	0.301
541	0.298
541	0.296
542	0.294
542	0.291
542	0.289
543	0.287
543	0.285
544	0.282
544	0.28
545	0.279
545	0.277
546	0.276
546	0.273
547	0.271
547	0.267
547	0.265
548	0.262
548	0.259
549	0.257
549	0.254
550	0.252
550	0.249
551	0.245
551	0.242
551	0.24
552	0.238
552	0.236
553	0.234
553	0.233
554	0.23
554	0.227
555	0.224
555	0.221
556	0.218
556	0.215
556	0.212
557	0.21
557	0.208
558	0.205
558	0.203
559	0.201
559	0.199
560	0.197
560	0.195
560	0.193
561	0.192
561	0.191
562	0.189
562	0.186
563	0.183
563	0.181
564	0.178
564	0.175
564	0.173
565	0.171
565	0.169
566	0.166
566	0.164
567	0.163
567	0.162
568	0.161
568	0.16
568	0.16
569	0.16
569	0.16
570	0.159
570	0.157
571	0.156
571	0.156
572	0.154
572	0.152
573	0.15
573	0.148
573	0.146
574	0.144
574	0.143
575	0.142
575	0.142
576	0.142
576	0.139
577	0.137
577	0.135
577	0.135
578	0.133
578	0.133
579	0.134
579	0.134
580	0.131
580	0.127
581	0.123
581	0.122
581	0.121
582	0.121
582	0.121
583	0.121
583	0.12
584	0.116
584	0.112
585	0.111
585	0.112
585	0.112
586	0.111
586	0.111
587	0.108
587	0.106
588	0.103
588	0.102
589	0.101
589	0.102
590	0.102
590	0.101
590	0.103
591	0.103
591	0.102
592	0.101
592	0.099
593	0.099
593	0.098
594	0.097
594	0.095
594	0.094
595	0.093
595	0.091
596	0.09
596	0.091
597	0.094
597	0.095
598	0.095
598	0.096
598	0.097
599	0.097
599	0.096
600	0.095
600	0.094
601	0.093
601	0.092
602	0.09
602	0.09
602	0.089
603	0.088
603	0.09
604	0.091
604	0.092
605	0.093
605	0.095
606	0.095
606	0.094
606	0.093
607	0.093
607	0.093
608	0.092
608	0.089
609	0.088
609	0.088
610	0.087
610	0.086
610	0.087
611	0.088
611	0.09
612	0.092
612	0.093
613	0.095
613	0.097
614	0.096
614	0.095
614	0.095
615	0.094
615	0.094
616	0.093
616	0.092
617	0.091
617	0.09
618	0.089
618	0.088
618	0.088
619	0.088
619	0.09
620	0.092
620	0.093
621	0.093
621	0.094
622	0.094
622	0.095
622	0.095
623	0.095
623	0.097
624	0.098
624	0.097
625	0.097
625	0.098
626	0.098
626	0.099
626	0.1
627	0.101
627	0.102
628	0.103
628	0.104
629	0.105
629	0.106
630	0.106
630	0.106
630	0.107
631	0.108
631	0.109
632	0.109
632	0.11
633	0.111
633	0.113
634	0.115
634	0.117
634	0.119
635	0.121
635	0.122
636	0.123
636	0.125
637	0.126
637	0.127
638	0.128
638	0.129
638	0.13
639	0.131
639	0.132
640	0.134
640	0.136
641	0.138
641	0.139
642	0.142
642	0.144
642	0.146
643	0.148
643	0.149
644	0.152
644	0.154
645	0.157
645	0.159
646	0.162
646	0.165
646	0.168
647	0.171
647	0.174
648	0.176
648	0.178
649	0.18
649	0.183
650	0.186
650	0.188
650	0.191
651	0.193
651	0.196
652	0.199
652	0.201
653	0.205
653	0.215
653	0.233
654	0.183
654	0.148
655	0.149
655	0.151
656	0.152
656	0.154
657	0.155
657	0.157
657	0.158
658	0.155
658	0.139
659	0.179
659	0.237
660	0.248
660	0.252
661	0.255
661	0.259
661	0.263
662	0.267
662	0.272
663	0.276
663	0.28
664	0.284
664	0.287
665	0.29
665	0.294
665	0.297
666	0.3
666	0.303
667	0.305
667	0.308
668	0.311
668	0.314
669	0.318
669	0.321
669	0.326
670	0.33
670	0.333
671	0.336
671	0.338
672	0.341
672	0.344
672	0.346
673	0.348
673	0.35
674	0.351
674	0.351
675	0.352
675	0.353
676	0.356
676	0.358
676	0.358
677	0.36
677	0.362
678	0.363
678	0.364
679	0.365
679	0.367
680	0.369
680	0.371
680	0.371
681	0.373
681	0.374
682	0.376
682	0.377
683	0.379
683	0.382
684	0.384
684	0.384
684	0.384
685	0.384
685	0.385
686	0.386
686	0.386
687	0.386
687	0.386
687	0.386
688	0.385
688	0.384
689	0.385
689	0.385
690	0.384
690	0.383
691	0.381
691	0.38
691	0.379
692	0.378
692	0.376
693	0.375
693	0.375
694	0.373
694	0.371
695	0.372
695	0.373
695	0.373
696	0.371
696	0.37
697	0.368
697	0.367
698	0.365
698	0.363
698	0.361
699	0.36
699	0.357
700	0.354
700	0.352
701	0.351
701	0.349
702	0.347
702	0.346
702	0.343
703	0.341
703	0.339
704	0.337
704	0.336
705	0.334
705	0.332
705	0.329
706	0.327
706	0.325
707	0.323
707	0.32
708	0.318
708	0.316
709	0.314
709	0.311
709	0.307
710	0.303
710	0.301
711	0.298
711	0.295
712	0.292
712	0.29
713	0.287
713	0.284
713	0.282
714	0.279
714	0.276
715	0.274
715	0.272
716	0.269
716	0.267
716	0.265
717	0.262
717	0.26
718	0.257
718	0.255
719	0.252
719	0.25
720	0.247
720	0.244
720	0.241
721	0.237
721	0.234
722	0.232
722	0.229
723	0.227
723	0.225
723	0.222
724	0.22
724	0.218
725	0.215
725	0.213
726	0.211
726	0.209
727	0.207
727	0.205
727	0.203
728	0.2
728	0.198
729	0.197
729	0.195
730	0.192
730	0.19
730	0.188
731	0.185
731	0.183
732	0.182
732	0.179
733	0.177
733	0.174
734	0.171
734	0.169
734	0.167
735	0.165
735	0.163
736	0.16
736	0.159
737	0.157
737	0.157
737	0.155
738	0.152
738	0.149
739	0.147
739	0.145
740	0.143
740	0.142
741	0.14
741	0.137
741	0.134
742	0.13
742	0.127
743	0.126
743	0.124
744	0.123
744	0.121
744	0.119
745	0.117
745	0.114
746	0.112
746	0.11
747	0.109
747	0.108
748	0.106
748	0.105
748	0.102
749	0.1
749	0.099
750	0.097
750	0.096
751	0.095
751	0.095
751	0.095
752	0.094
752	0.093
753	0.093
753	0.093
754	0.093
754	0.092
754	0.093
755	0.093
755	0.093
756	0.091
756	0.088
757	0.087
757	0.086
758	0.084
758	0.082
758	0.081
759	0.08
759	0.077
760	0.074
760	0.072
761	0.07
761	0.069
761	0.068
762	0.065
762	0.064
763	0.063
763	0.06
764	0.057
764	0.054
764	0.052
765	0.049
765	0.047
766	0.046
766	0.045
767	0.043
767	0.04
768	0.037
768	0.036
768	0.035
769	0.034
769	0.034
770	0.032
770	0.031
771	0.029
771	0.026
771	0.024
772	0.022
772	0.02
773	0.018
773	0.015
774	0.012
774	0.009
775	0.007
775	0.004
775	0.001
776	-0.002
776	-0.005
777	-0.008
777	-0.011
778	-0.014
778	-0.018
778	-0.021
779	-0.023
779	-0.025
780	-0.029
780	-0.032
781	-0.036
781	-0.04
781	-0.044
782	-0.05
782	-0.055
783	-0.061
783	-0.066
784	-0.073
784	-0.079
784	-0.086
785	-0.092
785	-0.099
786	-0.105
786	-0.111
787	-0.113
787	-0.116
788	-0.123
788	-0.129
788	-0.135
789	-0.141
789	-0.144
790	-0.145
790	-0.148
791	-0.15
791	-0.152
791	-0.155
792	-0.149
792	-0.139
793	-0.133
793	-0.129
794	-0.127
794	-0.129
794	-0.134
795	-0.136
795	-0.136
796	-0.137
796	-0.14
797	-0.149
797	-0.16
797	-0.166
798	-0.171
798	-0.174
799	-0.175
799	-0.174
800	-0.173
800	-0.175
801	-0.177
801	-0.178
801	-0.178
802	-0.18
802	-0.181
803	-0.182
803	-0.182
804	-0.181
804	-0.176
804	-0.17
805	-0.166
805	-0.164
806	-0.162
806	-0.161
807	-0.16
807	-0.159
807	-0.159
808	-0.159
808	-0.16
809	-0.165
809	-0.171
810	-0.175
810	-0.178
810	-0.181
811	-0.184
811	-0.185
812	-0.181
812	-0.178
813	-0.178
813	-0.178
813	-0.179
814	-0.179
814	-0.179
815	-0.175
815	-0.172
816	-0.168
816	-0.164
817	-0.163
817	-0.159
817	-0.152
818	-0.144
818	-0.133
819	-0.122
819	-0.112
820	-0.104
820	-0.095
820	-0.086
821	-0.078
821	-0.07
822	-0.064
822	-0.058
823	-0.053
823	-0.05
823	-0.047
824	-0.043
824	-0.039
825	-0.034
825	-0.03
826	-0.027
826	-0.025
826	-0.022
827	-0.02
827	-0.018
828	-0.016
828	-0.014
829	-0.012
829	-0.011
829	-0.01
830	-0.01
830	-0.008
831	-0.006
831	-0.004
832	-0.004
832	-0.002
832	-0.001
833	-0
833	0
834	0.001
834	0.002
835	0.003
835	0.003
835	0.004
836	0.005
836	0.006
837	0.007
837	0.008
838	0.009
838	0.01
839	0.011
839	0.012
839	0.013
840	0.013
840	0.014
841	0.014
841	0.015
842	0.015
842	0.016
842	0.016
843	0.016
843	0.017
844	0.017
844	0.017
845	0.017
845	0.017
845	0.018
846	0.017
846	0.017
847	0.016
847	0.016
848	0.015
848	0.014
848	0.014
849	0.013
849	0.013
850	0.012
850	0.011
851	0.011
851	0.011
851	0.01
852	0.01
852	0.011
853	0.011
853	0.011
854	0.011
854	0.012
854	0.012
855	0.012
855	0.013
856	0.013
856	0.013
857	0.014
857	0.015
857	0.015
858	0.016
858	0.016
859	0.016
859	0.017
860	0.018
860	0.019
860	0.019
861	0.02
861	0.02
862	0.019
862	0.019
863	0.018
863	0.018
863	0.018
864	0.017
864	0.016
865	0.016
865	0.016
866	0.015
866	0.015
866	0.015
867	0.016
867	0.017
868	0.018
868	0.019
869	0.02
869	0.021
869	0.021
870	0.022
870	0.022
871	0.023
871	0.022
872	0.021
872	0.02
872	0.018
873	0.017
873	0.015
874	0.014
874	0.013
875	0.012
875	0.011
875	0.011
876	0.011
876	0.011
877	0.012
877	0.013
878	0.014
878	0.015
878	0.016
879	0.017
879	0.018
880	0.019
880	0.019
881	0.019
881	0.02
881	0.02
882	0.019
882	0.019
883	0.018
883	0.018
884	0.018
884	0.018
884	0.018
885	0.019
885	0.019
886	0.019
886	0.02
887	0.021
887	0.021
887	0.021
888	0.021
888	0.021
889	0.021
889	0.021
890	0.021
890	0.02
890	0.019
891	0.018
891	0.017
892	0.016
892	0.015
893	0.014
893	0.013
893	0.012
894	0.012
894	0.011
895	0.011
895	0.011
895	0.01
896	0.01
896	0.01
897	0.011
897	0.011
898	0.012
898	0.013
898	0.013
899	0.014
899	0.015
900	0.016
900	0.017
901	0.018
901	0.019
901	0.019
902	0.02
902	0.02
903	0.02
903	0.02
904	0.02
904	0.02
904	0.02
905	0.02
905	0.02
906	0.02
906	0.02
907	0.02
907	0.02
907	0.02
908	0.02
908	0.02
909	0.02
909	0.021
910	0.021
910	0.022
910	0.023
911	0.023
911	0.024
912	0.026
912	0.027
913	0.027
913	0.028
913	0.028
914	0.028
914	0.028
915	0.027
915	0.027
916	0.026
916	0.025
916	0.023
917	0.022
917	0.021
918	0.019
918	0.019
918	0.018
919	0.018
919	0.017
920	0.018
920	0.018
921	0.018
921	0.018
921	0.019
922	0.019
922	0.02
923	0.02
923	0.021
924	0.021
924	0.021
924	0.02
925	0.02
925	0.02
926	0.02
926	0.02
927	0.019
927	0.019
927	0.018
928	0.018
928	0.017
929	0.017
929	0.016
930	0.016
930	0.015
930	0.014
931	0.013
931	0.013
932	0.012
932	0.012
933	0.012
933	0.011
933	0.011
934	0.011
934	0.011
935	0.011
935	0.011
935	0.011
936	0.012
936	0.012
937	0.012
937	0.013
938	0.013
938	0.013
938	0.014
939	0.014
939	0.015
940	0.016
940	0.016
941	0.017
941	0.017
941	0.017
942	0.018
942	0.018
943	0.018
943	0.018
944	0.017
944	0.017
944	0.016
945	0.015
945	0.015
946	0.015
946	0.014
946	0.014
947	0.014
947	0.013
948	0.013
948	0.013
949	0.013
949	0.013
949	0.013
950	0.013
950	0.013
951	0.013
951	0.013
952	0.013
952	0.013
952	0.013
953	0.014
953	0.014
954	0.014
954	0.014
955	0.013
955	0.013
955	0.013
956	0.014
956	0.014
957	0.014
957	0.014
957	0.013
958	0.012
958	0.012
959	0.011
959	0.011
960	0.01
960	0.009
960	0.009
961	0.008
961	0.007
962	0.007
962	0.006
963	0.007
963	0.007
963	0.007
964	0.007
964	0.008
965	0.009
965	0.01
966	0.011
966	0.012
966	0.013
967	0.014
967	0.015
968	0.015
968	0.016
968	0.017
969	0.017
969	0.018
970	0.018
970	0.019
971	0.019
971	0.019
971	0.019
972	0.019
972	0.019
973	0.019
973	0.019
974	0.018
974	0.018
974	0.017
975	0.017
975	0.016
976	0.016
976	0.015
976	0.014
977	0.012
977	0.011
978	0.009
978	0.008
979	0.007
979	0.007
979	0.006
980	0.006
980	0.005
981	0.005
981	0.006
982	0.007
982	0.008
982	0.009
983	0.01
983	0.011
984	0.012
984	0.013
984	0.014
985	0.015
985	0.015
986	0.015
986	0.015
987	0.015
987	0.015
987	0.015
988	0.015
988	0.016
989	0.016
989	0.016
990	0.016
990	0.017
990	0.018
991	0.019
991	0.02
992	0.021
992	0.022
992	0.022
993	0.023
993	0.023
994	0.023
994	0.022
995	0.022
995	0.021
995	0.02
996	0.02
996	0.019
997	0.018
997	0.017
997	0.016
998	0.015
998	0.015
999	0.015
999	0.015
1000	0.015
1000	0.015
1000	0.015
1001	0.014
1001	0.014
1002	0.014
1002	0.014
1003	0.013
1003	0.013
1003	0.012
1004	0.011
1004	0.01
1005	0.009
1005	0.009
1005	0.008
1006	0.007
1006	0.006
1007	0.006
1007	0.005
1008	0.005
1008	0.004
1008	0.004
1009	0.004
1009	0.003
1010	0.003
1010	0.003
1010	0.003
1011	0.002
1011	0.002
1012	0.002
1012	0.001
1013	0.001
1013	0
1013	-0.001
1014	-0.002
1014	-0.003
1015	-0.003
1015	-0.004
1016	-0.004
1016	-0.005
1016	-0.005
1017	-0.005
1017	-0.005
1018	-0.005
1018	-0.004
1018	-0.004
1019	-0.003
1019	-0.002
1020	-0.002
1020	-0.002
1021	-0.002
1021	-0.002
1021	-0.002
1022	-0.002
1022	-0.003
1023	-0.003
1023	-0.004
1023	-0.005
1024	-0.007
1024	-0.008
1025	-0.009
1025	-0.01
1026	-0.011
1026	-0.012
1026	-0.013
1027	-0.014
1027	-0.014
1028	-0.014
1028	-0.014
1028	-0.013
1029	-0.013
1029	-0.012
1030	-0.012
1030	-0.012
1031	-0.011
1031	-0.011
1031	-0.01
1032	-0.01
1032	-0.01
1033	-0.011
1033	-0.011
1033	-0.012
1034	-0.013
1034	-0.014
1035	-0.014
1035	-0.016
1036	-0.017
1036	-0.018
1036	-0.018
1037	-0.019
1037	-0.019
1038	-0.02
1038	-0.02
1039	-0.019
1039	-0.018
1039	-0.017
1040	-0.017
1040	-0.016
1041	-0.015
1041	-0.015
1041	-0.015
1042	-0.015
1042	-0.014
1043	-0.014
1043	-0.014
1044	-0.014
1044	-0.015
1044	-0.014
1045	-0.014
1045	-0.015
1046	-0.015
1046	-0.015
1046	-0.014
1047	-0.014
1047	-0.013
1048	-0.013
1048	-0.012
1049	-0.012
1049	-0.013
1049	-0.013
1050	-0.013
1050	-0.013
1051	-0.014
1051	-0.014
1051	-0.014
1052	-0.015
1052	-0.016
1053	-0.017
1053	-0.018
1053	-0.018
1054	-0.019
1054	-0.019
1055	-0.019
1055	-0.02
1056	-0.021
1056	-0.022
1056	-0.023
1057	-0.024
1057	-0.024
1058	-0.025
1058	-0.026
1058	-0.026
1059	-0.027
1059	-0.027
1060	-0.028
1060	-0.028
1061	-0.027
1061	-0.026
1061	-0.026
1062	-0.026
1062	-0.026
1063	-0.025
1063	-0.025
1063	-0.024
1064	-0.023
1064	-0.023
1065	-0.022
1065	-0.023
1066	-0.022
1066	-0.023
1066	-0.022
1067	-0.022
1067	-0.022
1068	-0.023
1068	-0.023
1068	-0.023
1069	-0.024
1069	-0.025
1070	-0.025
1070	-0.026
1071	-0.026
1071	-0.026
1071	-0.027
1072	-0.028
1072	-0.028
1073	-0.028
1073	-0.028
1073	-0.028
1074	-0.027
1074	-0.027
1075	-0.028
1075	-0.028
1076	-0.028
1076	-0.028
1076	-0.029
1077	-0.029
1077	-0.029
1078	-0.03
1078	-0.03
1078	-0.029
1079	-0.029
1079	-0.028
1080	-0.028
1080	-0.028
1080	-0.027
1081	-0.027
1081	-0.026
1082	-0.026
1082	-0.025
1083	-0.025
1083	-0.025
1083	-0.024
1084	-0.024
1084	-0.023
1085	-0.022
1085	-0.021
1085	-0.02
1086	-0.019
1086	-0.02
1087	-0.019
1087	-0.019
1088	-0.019
1088	-0.019
1088	-0.019
1089	-0.02
1089	-0.02
1090	-0.02
1090	-0.019
1090	-0.019
1091	-0.018
1091	-0.015
1092	-0.014
1092	-0.011
1092	-0.01
1093	-0.007
1093	-0.004
1094	-0.002
1094	0
1095	0.001
1095	0.003
1095	0.006
1096	0.007
1096	0.009
1097	0.01
1097	0.011
1097	0.012
1098	0.013
1098	0.015
1099	0.017
1099	0.019
1100	0.021
1100	0.023
1100	0.025
1101	0.028
1101	0.03
1102	0.035
1102	0.039
1102	0.043
1103	0.047
1103	0.053
1104	0.059
1104	0.066
1104	0.074
1105	0.081
1105	0.087
1106	0.092
1106	0.102
1107	0.109
1107	0.123
1107	0.137
1108	0.193
1108	0.272
1109	0.396
1109	0.638
1109	0.929
1110	-0
1110	-0
1111	-0
1111	-0
