Data from 15c-2a-1h-fridge_Absorbance__225__05593.txt Node

Date: Wed Jan 17 16:17:49 CET 2024
User: Marek
Spectrometer: MAYP115816
Trigger mode: 0
Integration Time (sec): 2.000000E-1
Scans to average: 10
Electric dark correction enabled: true
Nonlinearity correction enabled: true
Boxcar width: 5
XAxis mode: Wavelengths
Number of Pixels in Spectrum: 2068
>>>>>Begin Spectral Data<<<<<
199	-1.647
199	-1.509
200	-1.351
200	-1.227
201	-1.151
201	-1.104
202	-1.034
202	-0.983
203	-0.938
203	-0.898
204	-0.874
204	-0.85
205	-0.826
205	-0.816
205	-0.815
206	-0.814
206	-0.811
207	-0.809
207	-0.806
208	-0.803
208	-0.803
209	-0.799
209	-0.798
210	-0.798
210	-0.799
211	-0.797
211	-0.796
212	-0.797
212	-0.796
213	-0.795
213	-0.794
213	-0.793
214	-0.792
214	-0.791
215	-0.789
215	-0.787
216	-0.788
216	-0.785
217	-0.78
217	-0.778
218	-0.778
218	-0.774
219	-0.771
219	-0.771
220	-0.768
220	-0.765
221	-0.761
221	-0.758
221	-0.754
222	-0.75
222	-0.745
223	-0.739
223	-0.736
224	-0.731
224	-0.723
225	-0.715
225	-0.707
226	-0.699
226	-0.686
227	-0.673
227	-0.66
228	-0.645
228	-0.627
229	-0.605
229	-0.58
229	-0.553
230	-0.522
230	-0.491
231	-0.456
231	-0.418
232	-0.38
232	-0.339
233	-0.295
233	-0.251
234	-0.207
234	-0.163
235	-0.12
235	-0.079
236	-0.039
236	0
236	0.038
237	0.073
237	0.105
238	0.135
238	0.164
239	0.19
239	0.214
240	0.236
240	0.256
241	0.273
241	0.29
242	0.304
242	0.317
243	0.329
243	0.34
243	0.349
244	0.358
244	0.366
245	0.373
245	0.379
246	0.385
246	0.391
247	0.396
247	0.4
248	0.405
248	0.409
249	0.413
249	0.417
250	0.42
250	0.423
250	0.426
251	0.429
251	0.431
252	0.433
252	0.436
253	0.438
253	0.439
254	0.441
254	0.442
255	0.444
255	0.445
256	0.446
256	0.447
257	0.448
257	0.448
258	0.449
258	0.449
258	0.45
259	0.45
259	0.45
260	0.45
260	0.45
261	0.449
261	0.449
262	0.449
262	0.448
263	0.448
263	0.447
264	0.446
264	0.445
265	0.444
265	0.443
265	0.442
266	0.441
266	0.44
267	0.438
267	0.437
268	0.435
268	0.434
269	0.432
269	0.43
270	0.428
270	0.426
271	0.424
271	0.422
272	0.42
272	0.418
272	0.416
273	0.414
273	0.412
274	0.41
274	0.408
275	0.406
275	0.404
276	0.403
276	0.4
277	0.398
277	0.396
278	0.394
278	0.392
278	0.389
279	0.385
279	0.382
280	0.38
280	0.377
281	0.375
281	0.372
282	0.369
282	0.367
283	0.365
283	0.363
284	0.361
284	0.36
285	0.359
285	0.357
285	0.356
286	0.354
286	0.352
287	0.351
287	0.349
288	0.347
288	0.346
289	0.344
289	0.342
290	0.341
290	0.339
291	0.337
291	0.336
292	0.334
292	0.333
292	0.331
293	0.33
293	0.329
294	0.328
294	0.327
295	0.325
295	0.324
296	0.323
296	0.322
297	0.321
297	0.32
298	0.319
298	0.318
298	0.317
299	0.316
299	0.315
300	0.315
300	0.314
301	0.313
301	0.312
302	0.311
302	0.31
303	0.309
303	0.308
304	0.307
304	0.306
305	0.306
305	0.304
305	0.304
306	0.303
306	0.302
307	0.301
307	0.3
308	0.299
308	0.299
309	0.298
309	0.297
310	0.296
310	0.295
311	0.294
311	0.293
311	0.293
312	0.292
312	0.291
313	0.29
313	0.289
314	0.288
314	0.287
315	0.286
315	0.286
316	0.285
316	0.284
317	0.283
317	0.282
318	0.281
318	0.281
318	0.28
319	0.279
319	0.278
320	0.277
320	0.276
321	0.275
321	0.275
322	0.274
322	0.273
323	0.272
323	0.271
324	0.27
324	0.269
324	0.268
325	0.267
325	0.267
326	0.266
326	0.265
327	0.264
327	0.263
328	0.262
328	0.262
329	0.261
329	0.26
330	0.259
330	0.258
330	0.258
331	0.257
331	0.256
332	0.255
332	0.254
333	0.254
333	0.253
334	0.252
334	0.251
335	0.25
335	0.25
336	0.249
336	0.248
336	0.248
337	0.247
337	0.246
338	0.246
338	0.245
339	0.244
339	0.244
340	0.243
340	0.242
341	0.242
341	0.241
342	0.24
342	0.24
342	0.239
343	0.239
343	0.238
344	0.238
344	0.237
345	0.237
345	0.236
346	0.236
346	0.235
347	0.235
347	0.234
348	0.234
348	0.233
348	0.232
349	0.232
349	0.231
350	0.231
350	0.23
351	0.23
351	0.229
352	0.229
352	0.228
353	0.228
353	0.228
354	0.227
354	0.227
354	0.226
355	0.226
355	0.225
356	0.225
356	0.224
357	0.224
357	0.223
358	0.223
358	0.223
359	0.223
359	0.223
360	0.223
360	0.223
360	0.223
361	0.223
361	0.223
362	0.224
362	0.224
363	0.224
363	0.223
364	0.223
364	0.223
365	0.222
365	0.222
366	0.222
366	0.222
366	0.221
367	0.221
367	0.221
368	0.221
368	0.22
369	0.22
369	0.22
370	0.22
370	0.22
371	0.219
371	0.219
372	0.219
372	0.219
372	0.218
373	0.218
373	0.218
374	0.218
374	0.218
375	0.218
375	0.217
376	0.217
376	0.217
377	0.217
377	0.217
378	0.217
378	0.217
378	0.217
379	0.217
379	0.217
380	0.217
380	0.217
381	0.216
381	0.216
382	0.216
382	0.216
383	0.215
383	0.215
383	0.214
384	0.214
384	0.214
385	0.214
385	0.214
386	0.214
386	0.213
387	0.213
387	0.213
388	0.213
388	0.213
389	0.213
389	0.213
389	0.213
390	0.213
390	0.213
391	0.213
391	0.213
392	0.213
392	0.213
393	0.213
393	0.212
394	0.212
394	0.212
394	0.212
395	0.212
395	0.211
396	0.211
396	0.211
397	0.211
397	0.211
398	0.211
398	0.21
399	0.21
399	0.21
400	0.21
400	0.209
400	0.209
401	0.209
401	0.208
402	0.207
402	0.207
403	0.207
403	0.207
404	0.207
404	0.207
405	0.207
405	0.207
405	0.206
406	0.206
406	0.206
407	0.206
407	0.206
408	0.205
408	0.205
409	0.205
409	0.204
410	0.204
410	0.204
411	0.204
411	0.204
411	0.204
412	0.204
412	0.204
413	0.203
413	0.203
414	0.203
414	0.203
415	0.202
415	0.202
416	0.201
416	0.201
416	0.2
417	0.2
417	0.2
418	0.2
418	0.2
419	0.201
419	0.201
420	0.201
420	0.202
421	0.202
421	0.202
421	0.202
422	0.203
422	0.203
423	0.203
423	0.203
424	0.202
424	0.202
425	0.201
425	0.201
426	0.201
426	0.201
427	0.201
427	0.201
427	0.201
428	0.201
428	0.201
429	0.201
429	0.201
430	0.201
430	0.201
431	0.201
431	0.201
432	0.201
432	0.2
432	0.2
433	0.2
433	0.199
434	0.199
434	0.199
435	0.199
435	0.199
436	0.199
436	0.199
437	0.199
437	0.199
437	0.199
438	0.199
438	0.199
439	0.199
439	0.198
440	0.198
440	0.198
441	0.198
441	0.198
442	0.198
442	0.198
442	0.198
443	0.198
443	0.198
444	0.199
444	0.199
445	0.199
445	0.199
446	0.199
446	0.199
447	0.199
447	0.199
447	0.199
448	0.199
448	0.199
449	0.199
449	0.199
450	0.199
450	0.199
451	0.199
451	0.199
452	0.199
452	0.199
452	0.199
453	0.199
453	0.199
454	0.199
454	0.199
455	0.199
455	0.199
456	0.199
456	0.199
457	0.198
457	0.198
458	0.199
458	0.199
458	0.199
459	0.199
459	0.199
460	0.198
460	0.198
461	0.198
461	0.198
462	0.198
462	0.199
463	0.199
463	0.199
463	0.2
464	0.2
464	0.2
465	0.2
465	0.2
466	0.201
466	0.201
467	0.201
467	0.201
467	0.201
468	0.2
468	0.2
469	0.2
469	0.2
470	0.2
470	0.2
471	0.2
471	0.2
472	0.2
472	0.201
472	0.201
473	0.202
473	0.203
474	0.204
474	0.205
475	0.206
475	0.206
476	0.207
476	0.207
477	0.208
477	0.208
477	0.209
478	0.209
478	0.209
479	0.21
479	0.21
480	0.211
480	0.212
481	0.213
481	0.213
482	0.215
482	0.216
482	0.217
483	0.219
483	0.222
484	0.223
484	0.224
485	0.225
485	0.226
486	0.227
486	0.228
487	0.229
487	0.23
487	0.231
488	0.231
488	0.23
489	0.23
489	0.232
490	0.233
490	0.233
491	0.235
491	0.236
492	0.237
492	0.238
492	0.239
493	0.24
493	0.241
494	0.244
494	0.246
495	0.247
495	0.249
496	0.25
496	0.252
496	0.254
497	0.256
497	0.258
498	0.259
498	0.261
499	0.262
499	0.263
500	0.265
500	0.267
501	0.268
501	0.27
501	0.272
502	0.273
502	0.275
503	0.277
503	0.279
504	0.28
504	0.281
505	0.282
505	0.284
506	0.285
506	0.287
506	0.288
507	0.289
507	0.29
508	0.292
508	0.294
509	0.295
509	0.297
510	0.299
510	0.3
511	0.302
511	0.303
511	0.304
512	0.305
512	0.306
513	0.306
513	0.307
514	0.308
514	0.309
515	0.309
515	0.309
515	0.31
516	0.31
516	0.311
517	0.312
517	0.313
518	0.313
518	0.313
519	0.314
519	0.313
520	0.313
520	0.313
520	0.313
521	0.312
521	0.311
522	0.309
522	0.309
523	0.308
523	0.308
524	0.308
524	0.308
524	0.308
525	0.308
525	0.308
526	0.309
526	0.31
527	0.311
527	0.311
528	0.311
528	0.312
529	0.312
529	0.311
529	0.311
530	0.31
530	0.31
531	0.309
531	0.309
532	0.307
532	0.307
533	0.306
533	0.305
533	0.304
534	0.303
534	0.301
535	0.3
535	0.299
536	0.298
536	0.296
537	0.295
537	0.294
538	0.292
538	0.29
538	0.288
539	0.287
539	0.285
540	0.283
540	0.281
541	0.278
541	0.276
542	0.274
542	0.272
542	0.269
543	0.267
543	0.265
544	0.263
544	0.261
545	0.259
545	0.258
546	0.256
546	0.254
547	0.251
547	0.248
547	0.245
548	0.243
548	0.241
549	0.239
549	0.236
550	0.234
550	0.231
551	0.229
551	0.226
551	0.225
552	0.223
552	0.221
553	0.219
553	0.218
554	0.215
554	0.212
555	0.21
555	0.207
556	0.204
556	0.201
556	0.198
557	0.195
557	0.193
558	0.19
558	0.187
559	0.185
559	0.183
560	0.181
560	0.179
560	0.177
561	0.176
561	0.175
562	0.173
562	0.171
563	0.168
563	0.166
564	0.163
564	0.161
564	0.159
565	0.157
565	0.155
566	0.153
566	0.151
567	0.15
567	0.149
568	0.149
568	0.147
568	0.147
569	0.147
569	0.147
570	0.145
570	0.143
571	0.143
571	0.142
572	0.14
572	0.139
573	0.137
573	0.136
573	0.133
574	0.132
574	0.131
575	0.13
575	0.131
576	0.13
576	0.128
577	0.126
577	0.124
577	0.124
578	0.123
578	0.123
579	0.124
579	0.124
580	0.121
580	0.117
581	0.114
581	0.112
581	0.112
582	0.111
582	0.111
583	0.111
583	0.11
584	0.106
584	0.102
585	0.101
585	0.101
585	0.101
586	0.101
586	0.1
587	0.098
587	0.095
588	0.093
588	0.091
589	0.091
589	0.091
590	0.091
590	0.091
590	0.092
591	0.093
591	0.092
592	0.091
592	0.09
593	0.09
593	0.09
594	0.089
594	0.087
594	0.086
595	0.085
595	0.083
596	0.082
596	0.084
597	0.086
597	0.087
598	0.086
598	0.087
598	0.087
599	0.087
599	0.087
600	0.085
600	0.084
601	0.083
601	0.082
602	0.08
602	0.08
602	0.079
603	0.079
603	0.081
604	0.083
604	0.084
605	0.086
605	0.088
606	0.088
606	0.087
606	0.086
607	0.086
607	0.086
608	0.085
608	0.083
609	0.082
609	0.082
610	0.081
610	0.08
610	0.081
611	0.083
611	0.084
612	0.086
612	0.087
613	0.089
613	0.09
614	0.089
614	0.088
614	0.087
615	0.087
615	0.086
616	0.085
616	0.084
617	0.083
617	0.082
618	0.081
618	0.08
618	0.08
619	0.081
619	0.082
620	0.085
620	0.086
621	0.086
621	0.087
622	0.087
622	0.088
622	0.088
623	0.088
623	0.089
624	0.089
624	0.089
625	0.088
625	0.089
626	0.089
626	0.09
626	0.091
627	0.092
627	0.093
628	0.094
628	0.095
629	0.095
629	0.095
630	0.095
630	0.094
630	0.095
631	0.096
631	0.096
632	0.096
632	0.097
633	0.098
633	0.1
634	0.102
634	0.105
634	0.107
635	0.108
635	0.11
636	0.111
636	0.113
637	0.114
637	0.114
638	0.116
638	0.117
638	0.118
639	0.119
639	0.12
640	0.122
640	0.124
641	0.127
641	0.129
642	0.132
642	0.134
642	0.136
643	0.139
643	0.141
644	0.143
644	0.145
645	0.147
645	0.149
646	0.151
646	0.154
646	0.156
647	0.159
647	0.161
648	0.163
648	0.166
649	0.168
649	0.171
650	0.174
650	0.177
650	0.179
651	0.182
651	0.185
652	0.187
652	0.19
653	0.193
653	0.203
653	0.22
654	0.174
654	0.141
655	0.142
655	0.144
656	0.146
656	0.148
657	0.149
657	0.151
657	0.152
658	0.149
658	0.134
659	0.172
659	0.227
660	0.236
660	0.239
661	0.242
661	0.245
661	0.249
662	0.253
662	0.257
663	0.261
663	0.264
664	0.267
664	0.27
665	0.273
665	0.276
665	0.278
666	0.281
666	0.283
667	0.285
667	0.287
668	0.29
668	0.293
669	0.296
669	0.3
669	0.305
670	0.309
670	0.311
671	0.314
671	0.316
672	0.319
672	0.321
672	0.323
673	0.326
673	0.328
674	0.33
674	0.331
675	0.332
675	0.335
676	0.338
676	0.34
676	0.341
677	0.343
677	0.345
678	0.346
678	0.347
679	0.347
679	0.348
680	0.35
680	0.352
680	0.352
681	0.353
681	0.355
682	0.356
682	0.358
683	0.36
683	0.362
684	0.364
684	0.365
684	0.365
685	0.366
685	0.367
686	0.367
686	0.367
687	0.367
687	0.367
687	0.367
688	0.366
688	0.365
689	0.366
689	0.366
690	0.365
690	0.364
691	0.363
691	0.362
691	0.361
692	0.359
692	0.358
693	0.357
693	0.356
694	0.354
694	0.352
695	0.352
695	0.353
695	0.352
696	0.35
696	0.348
697	0.347
697	0.345
698	0.343
698	0.341
698	0.339
699	0.337
699	0.334
700	0.331
700	0.329
701	0.328
701	0.326
702	0.325
702	0.323
702	0.321
703	0.319
703	0.317
704	0.315
704	0.313
705	0.312
705	0.309
705	0.307
706	0.305
706	0.303
707	0.301
707	0.299
708	0.296
708	0.295
709	0.293
709	0.291
709	0.287
710	0.284
710	0.282
711	0.28
711	0.277
712	0.275
712	0.272
713	0.269
713	0.266
713	0.263
714	0.26
714	0.257
715	0.254
715	0.251
716	0.248
716	0.246
716	0.243
717	0.241
717	0.24
718	0.237
718	0.235
719	0.233
719	0.231
720	0.229
720	0.226
720	0.224
721	0.22
721	0.217
722	0.214
722	0.211
723	0.209
723	0.207
723	0.204
724	0.202
724	0.2
725	0.198
725	0.196
726	0.195
726	0.193
727	0.191
727	0.189
727	0.187
728	0.184
728	0.182
729	0.182
729	0.18
730	0.178
730	0.175
730	0.174
731	0.172
731	0.17
732	0.169
732	0.167
733	0.165
733	0.163
734	0.16
734	0.158
734	0.156
735	0.155
735	0.152
736	0.15
736	0.148
737	0.146
737	0.145
737	0.143
738	0.14
738	0.137
739	0.135
739	0.132
740	0.129
740	0.127
741	0.125
741	0.122
741	0.119
742	0.115
742	0.112
743	0.111
743	0.11
744	0.108
744	0.107
744	0.105
745	0.103
745	0.101
746	0.1
746	0.098
747	0.096
747	0.095
748	0.093
748	0.091
748	0.089
749	0.087
749	0.085
750	0.084
750	0.082
751	0.081
751	0.08
751	0.08
752	0.079
752	0.077
753	0.076
753	0.076
754	0.075
754	0.074
754	0.074
755	0.074
755	0.073
756	0.072
756	0.069
757	0.068
757	0.068
758	0.067
758	0.065
758	0.064
759	0.063
759	0.06
760	0.058
760	0.056
761	0.054
761	0.054
761	0.052
762	0.051
762	0.051
763	0.05
763	0.048
764	0.046
764	0.044
764	0.043
765	0.041
765	0.04
766	0.039
766	0.039
767	0.038
767	0.035
768	0.032
768	0.03
768	0.029
769	0.029
769	0.028
770	0.026
770	0.024
771	0.022
771	0.019
771	0.016
772	0.014
772	0.013
773	0.01
773	0.008
774	0.005
774	0.003
775	0.001
775	-0.002
775	-0.005
776	-0.008
776	-0.011
777	-0.014
777	-0.017
778	-0.021
778	-0.024
778	-0.027
779	-0.029
779	-0.031
780	-0.035
780	-0.038
781	-0.042
781	-0.046
781	-0.051
782	-0.057
782	-0.063
783	-0.068
783	-0.074
784	-0.081
784	-0.088
784	-0.094
785	-0.101
785	-0.108
786	-0.114
786	-0.118
787	-0.12
787	-0.122
788	-0.128
788	-0.134
788	-0.139
789	-0.144
789	-0.147
790	-0.147
790	-0.148
791	-0.15
791	-0.152
791	-0.155
792	-0.149
792	-0.139
793	-0.133
793	-0.129
794	-0.127
794	-0.129
794	-0.133
795	-0.136
795	-0.136
796	-0.137
796	-0.14
797	-0.149
797	-0.16
797	-0.166
798	-0.171
798	-0.174
799	-0.174
799	-0.174
800	-0.173
800	-0.175
801	-0.177
801	-0.178
801	-0.178
802	-0.18
802	-0.181
803	-0.182
803	-0.182
804	-0.181
804	-0.176
804	-0.17
805	-0.166
805	-0.164
806	-0.162
806	-0.16
807	-0.16
807	-0.159
807	-0.159
808	-0.159
808	-0.16
809	-0.165
809	-0.171
810	-0.175
810	-0.178
810	-0.181
811	-0.184
811	-0.185
812	-0.181
812	-0.178
813	-0.178
813	-0.178
813	-0.179
814	-0.179
814	-0.179
815	-0.175
815	-0.172
816	-0.168
816	-0.164
817	-0.163
817	-0.159
817	-0.152
818	-0.143
818	-0.133
819	-0.122
819	-0.112
820	-0.104
820	-0.095
820	-0.087
821	-0.079
821	-0.072
822	-0.066
822	-0.06
823	-0.056
823	-0.052
823	-0.049
824	-0.045
824	-0.041
825	-0.036
825	-0.032
826	-0.03
826	-0.028
826	-0.026
827	-0.025
827	-0.023
828	-0.022
828	-0.022
829	-0.021
829	-0.02
829	-0.02
830	-0.02
830	-0.019
831	-0.017
831	-0.015
832	-0.014
832	-0.012
832	-0.01
833	-0.009
833	-0.007
834	-0.005
834	-0.004
835	-0.002
835	-0.001
835	0.001
836	0.002
836	0.003
837	0.004
837	0.005
838	0.006
838	0.006
839	0.007
839	0.008
839	0.008
840	0.008
840	0.009
841	0.009
841	0.01
842	0.01
842	0.011
842	0.011
843	0.012
843	0.012
844	0.013
844	0.014
845	0.014
845	0.015
845	0.016
846	0.016
846	0.017
847	0.017
847	0.017
848	0.017
848	0.016
848	0.016
849	0.015
849	0.015
850	0.014
850	0.013
851	0.012
851	0.012
851	0.012
852	0.011
852	0.012
853	0.011
853	0.011
854	0.011
854	0.011
854	0.01
855	0.01
855	0.009
856	0.008
856	0.007
857	0.007
857	0.006
857	0.005
858	0.005
858	0.005
859	0.004
859	0.004
860	0.004
860	0.004
860	0.005
861	0.005
861	0.005
862	0.005
862	0.005
863	0.004
863	0.004
863	0.004
864	0.004
864	0.004
865	0.005
865	0.005
866	0.005
866	0.005
866	0.005
867	0.006
867	0.007
868	0.008
868	0.009
869	0.01
869	0.011
869	0.011
870	0.012
870	0.012
871	0.012
871	0.012
872	0.012
872	0.011
872	0.01
873	0.009
873	0.008
874	0.007
874	0.007
875	0.007
875	0.008
875	0.008
876	0.009
876	0.01
877	0.011
877	0.012
878	0.014
878	0.015
878	0.017
879	0.018
879	0.018
880	0.018
880	0.018
881	0.017
881	0.017
881	0.016
882	0.015
882	0.013
883	0.012
883	0.011
884	0.01
884	0.009
884	0.009
885	0.008
885	0.008
886	0.008
886	0.008
887	0.008
887	0.008
887	0.008
888	0.008
888	0.008
889	0.009
889	0.009
890	0.009
890	0.009
890	0.009
891	0.008
891	0.008
892	0.007
892	0.006
893	0.006
893	0.005
893	0.005
894	0.005
894	0.004
895	0.004
895	0.004
895	0.003
896	0.003
896	0.003
897	0.003
897	0.002
898	0.002
898	0.002
898	0.002
899	0.002
899	0.003
900	0.003
900	0.004
901	0.006
901	0.007
901	0.008
902	0.009
902	0.01
903	0.011
903	0.012
904	0.012
904	0.012
904	0.013
905	0.013
905	0.013
906	0.013
906	0.013
907	0.013
907	0.013
907	0.013
908	0.013
908	0.014
909	0.014
909	0.015
910	0.015
910	0.016
910	0.016
911	0.017
911	0.017
912	0.018
912	0.019
913	0.019
913	0.019
913	0.019
914	0.018
914	0.018
915	0.017
915	0.016
916	0.015
916	0.014
916	0.012
917	0.011
917	0.01
918	0.009
918	0.009
918	0.009
919	0.009
919	0.009
920	0.01
920	0.011
921	0.011
921	0.011
921	0.012
922	0.012
922	0.013
923	0.014
923	0.014
924	0.015
924	0.015
924	0.015
925	0.014
925	0.014
926	0.013
926	0.013
927	0.011
927	0.01
927	0.009
928	0.008
928	0.006
929	0.005
929	0.004
930	0.004
930	0.003
930	0.003
931	0.003
931	0.003
932	0.002
932	0.002
933	0.002
933	0.001
933	0.001
934	-0
934	-0.001
935	-0.002
935	-0.003
935	-0.004
936	-0.005
936	-0.005
937	-0.005
937	-0.006
938	-0.006
938	-0.006
938	-0.005
939	-0.005
939	-0.004
940	-0.003
940	-0.002
941	-0.001
941	0
941	0.001
942	0.003
942	0.004
943	0.005
943	0.006
944	0.006
944	0.007
944	0.007
945	0.007
945	0.007
946	0.007
946	0.007
946	0.006
947	0.006
947	0.005
948	0.005
948	0.004
949	0.004
949	0.003
949	0.003
950	0.003
950	0.003
951	0.003
951	0.002
952	0.002
952	0.002
952	0.002
953	0.002
953	0.002
954	0.002
954	0.002
955	0.002
955	0.002
955	0.002
956	0.002
956	0.003
957	0.002
957	0.002
957	0.002
958	0.002
958	0.001
959	0.001
959	-0
960	-0.001
960	-0.002
960	-0.003
961	-0.005
961	-0.006
962	-0.007
962	-0.007
963	-0.007
963	-0.007
963	-0.007
964	-0.006
964	-0.005
965	-0.004
965	-0.003
966	-0.002
966	-0
966	0.001
967	0.002
967	0.002
968	0.003
968	0.003
968	0.003
969	0.003
969	0.003
970	0.003
970	0.002
971	0.002
971	0.002
971	0.001
972	0.001
972	0.001
973	0.002
973	0.001
974	0.001
974	0.001
974	0.001
975	0.001
975	0.001
976	0
976	-0
976	-0.001
977	-0.002
977	-0.004
978	-0.005
978	-0.006
979	-0.008
979	-0.009
979	-0.01
980	-0.011
980	-0.012
981	-0.012
981	-0.013
982	-0.012
982	-0.012
982	-0.011
983	-0.011
983	-0.01
984	-0.009
984	-0.008
984	-0.007
985	-0.007
985	-0.006
986	-0.006
986	-0.006
987	-0.006
987	-0.005
987	-0.004
988	-0.004
988	-0.003
989	-0.002
989	-0.002
990	-0.001
990	0
990	0.002
991	0.003
991	0.005
992	0.006
992	0.006
992	0.007
993	0.007
993	0.008
994	0.008
994	0.007
995	0.007
995	0.006
995	0.005
996	0.004
996	0.003
997	0.002
997	0.001
997	0.001
998	-0
998	-0.001
999	-0.001
999	-0.002
1000	-0.003
1000	-0.003
1000	-0.003
1001	-0.004
1001	-0.004
1002	-0.004
1002	-0.004
1003	-0.004
1003	-0.004
1003	-0.004
1004	-0.004
1004	-0.005
1005	-0.005
1005	-0.006
1005	-0.006
1006	-0.008
1006	-0.009
1007	-0.01
1007	-0.011
1008	-0.012
1008	-0.012
1008	-0.013
1009	-0.013
1009	-0.013
1010	-0.013
1010	-0.013
1010	-0.013
1011	-0.013
1011	-0.013
1012	-0.013
1012	-0.013
1013	-0.013
1013	-0.014
1013	-0.015
1014	-0.015
1014	-0.016
1015	-0.016
1015	-0.017
1016	-0.017
1016	-0.018
1016	-0.018
1017	-0.018
1017	-0.019
1018	-0.018
1018	-0.018
1018	-0.018
1019	-0.017
1019	-0.017
1020	-0.017
1020	-0.017
1021	-0.016
1021	-0.016
1021	-0.016
1022	-0.015
1022	-0.015
1023	-0.015
1023	-0.015
1023	-0.015
1024	-0.016
1024	-0.016
1025	-0.017
1025	-0.018
1026	-0.019
1026	-0.019
1026	-0.02
1027	-0.021
1027	-0.021
1028	-0.021
1028	-0.022
1028	-0.022
1029	-0.022
1029	-0.022
1030	-0.022
1030	-0.022
1031	-0.022
1031	-0.022
1031	-0.022
1032	-0.023
1032	-0.023
1033	-0.023
1033	-0.023
1033	-0.023
1034	-0.024
1034	-0.024
1035	-0.024
1035	-0.025
1036	-0.025
1036	-0.025
1036	-0.025
1037	-0.025
1037	-0.025
1038	-0.025
1038	-0.025
1039	-0.024
1039	-0.024
1039	-0.024
1040	-0.024
1040	-0.024
1041	-0.024
1041	-0.024
1041	-0.024
1042	-0.025
1042	-0.025
1043	-0.026
1043	-0.027
1044	-0.027
1044	-0.028
1044	-0.028
1045	-0.029
1045	-0.03
1046	-0.03
1046	-0.031
1046	-0.031
1047	-0.03
1047	-0.03
1048	-0.029
1048	-0.029
1049	-0.029
1049	-0.029
1049	-0.029
1050	-0.029
1050	-0.03
1051	-0.03
1051	-0.03
1051	-0.031
1052	-0.031
1052	-0.031
1053	-0.032
1053	-0.032
1053	-0.032
1054	-0.032
1054	-0.032
1055	-0.032
1055	-0.032
1056	-0.033
1056	-0.034
1056	-0.035
1057	-0.036
1057	-0.036
1058	-0.037
1058	-0.037
1058	-0.037
1059	-0.038
1059	-0.038
1060	-0.038
1060	-0.037
1061	-0.036
1061	-0.036
1061	-0.035
1062	-0.035
1062	-0.035
1063	-0.034
1063	-0.034
1063	-0.034
1064	-0.033
1064	-0.033
1065	-0.032
1065	-0.033
1066	-0.032
1066	-0.032
1066	-0.031
1067	-0.031
1067	-0.03
1068	-0.03
1068	-0.03
1068	-0.03
1069	-0.031
1069	-0.031
1070	-0.032
1070	-0.032
1071	-0.032
1071	-0.033
1071	-0.033
1072	-0.034
1072	-0.034
1073	-0.034
1073	-0.034
1073	-0.034
1074	-0.034
1074	-0.034
1075	-0.034
1075	-0.034
1076	-0.035
1076	-0.034
1076	-0.035
1077	-0.036
1077	-0.036
1078	-0.036
1078	-0.035
1078	-0.034
1079	-0.034
1079	-0.032
1080	-0.032
1080	-0.031
1080	-0.031
1081	-0.03
1081	-0.028
1082	-0.027
1082	-0.027
1083	-0.027
1083	-0.027
1083	-0.026
1084	-0.026
1084	-0.025
1085	-0.025
1085	-0.024
1085	-0.024
1086	-0.023
1086	-0.023
1087	-0.023
1087	-0.022
1088	-0.022
1088	-0.022
1088	-0.022
1089	-0.023
1089	-0.023
1090	-0.023
1090	-0.023
1090	-0.022
1091	-0.022
1091	-0.02
1092	-0.02
1092	-0.017
1092	-0.016
1093	-0.013
1093	-0.01
1094	-0.008
1094	-0.006
1095	-0.005
1095	-0.003
1095	-0
1096	0.001
1096	0.002
1097	0.004
1097	0.006
1097	0.007
1098	0.008
1098	0.009
1099	0.011
1099	0.014
1100	0.016
1100	0.018
1100	0.02
1101	0.023
1101	0.026
1102	0.03
1102	0.035
1102	0.041
1103	0.045
1103	0.052
1104	0.059
1104	0.066
1104	0.076
1105	0.085
1105	0.092
1106	0.098
1106	0.11
1107	0.116
1107	0.132
1107	0.149
1108	0.207
1108	0.293
1109	0.426
1109	0.705
1109	1.059
1110	-0
1110	-0
1111	-0
1111	-0
