Data from 15c-2a-1h-fridge_Absorbance__297__05665.txt Node

Date: Wed Jan 17 16:20:13 CET 2024
User: Marek
Spectrometer: MAYP115816
Trigger mode: 0
Integration Time (sec): 2.000000E-1
Scans to average: 10
Electric dark correction enabled: true
Nonlinearity correction enabled: true
Boxcar width: 5
XAxis mode: Wavelengths
Number of Pixels in Spectrum: 2068
>>>>>Begin Spectral Data<<<<<
199	-1.656
199	-1.517
200	-1.358
200	-1.235
201	-1.158
201	-1.11
202	-1.04
202	-0.989
203	-0.942
203	-0.904
204	-0.879
204	-0.855
205	-0.832
205	-0.822
205	-0.821
206	-0.82
206	-0.816
207	-0.815
207	-0.81
208	-0.81
208	-0.809
209	-0.805
209	-0.804
210	-0.803
210	-0.803
211	-0.801
211	-0.8
212	-0.802
212	-0.801
213	-0.801
213	-0.8
213	-0.799
214	-0.798
214	-0.797
215	-0.796
215	-0.795
216	-0.795
216	-0.793
217	-0.788
217	-0.786
218	-0.785
218	-0.781
219	-0.778
219	-0.777
220	-0.774
220	-0.771
221	-0.767
221	-0.763
221	-0.759
222	-0.756
222	-0.75
223	-0.745
223	-0.742
224	-0.737
224	-0.729
225	-0.721
225	-0.713
226	-0.704
226	-0.691
227	-0.677
227	-0.664
228	-0.649
228	-0.63
229	-0.609
229	-0.584
229	-0.557
230	-0.527
230	-0.496
231	-0.46
231	-0.422
232	-0.385
232	-0.343
233	-0.299
233	-0.253
234	-0.209
234	-0.163
235	-0.12
235	-0.078
236	-0.037
236	0.003
236	0.04
237	0.076
237	0.108
238	0.139
238	0.168
239	0.195
239	0.22
240	0.242
240	0.263
241	0.281
241	0.298
242	0.313
242	0.326
243	0.339
243	0.35
243	0.36
244	0.369
244	0.378
245	0.385
245	0.392
246	0.398
246	0.404
247	0.409
247	0.415
248	0.419
248	0.424
249	0.427
249	0.431
250	0.434
250	0.438
250	0.441
251	0.444
251	0.446
252	0.449
252	0.451
253	0.453
253	0.455
254	0.457
254	0.458
255	0.459
255	0.461
256	0.462
256	0.463
257	0.464
257	0.464
258	0.465
258	0.465
258	0.465
259	0.466
259	0.465
260	0.466
260	0.466
261	0.465
261	0.465
262	0.465
262	0.464
263	0.464
263	0.463
264	0.462
264	0.461
265	0.461
265	0.46
265	0.458
266	0.457
266	0.456
267	0.454
267	0.453
268	0.451
268	0.45
269	0.448
269	0.447
270	0.444
270	0.442
271	0.44
271	0.438
272	0.436
272	0.435
272	0.433
273	0.431
273	0.429
274	0.427
274	0.425
275	0.423
275	0.421
276	0.419
276	0.417
277	0.415
277	0.413
278	0.41
278	0.408
278	0.405
279	0.401
279	0.398
280	0.396
280	0.394
281	0.391
281	0.388
282	0.386
282	0.383
283	0.381
283	0.379
284	0.378
284	0.377
285	0.375
285	0.373
285	0.371
286	0.37
286	0.368
287	0.366
287	0.365
288	0.363
288	0.361
289	0.36
289	0.358
290	0.356
290	0.355
291	0.353
291	0.352
292	0.35
292	0.349
292	0.347
293	0.346
293	0.345
294	0.343
294	0.342
295	0.341
295	0.34
296	0.339
296	0.338
297	0.337
297	0.336
298	0.335
298	0.334
298	0.333
299	0.332
299	0.331
300	0.33
300	0.329
301	0.328
301	0.327
302	0.326
302	0.325
303	0.324
303	0.323
304	0.322
304	0.321
305	0.32
305	0.319
305	0.318
306	0.317
306	0.317
307	0.316
307	0.315
308	0.314
308	0.313
309	0.312
309	0.311
310	0.31
310	0.31
311	0.309
311	0.308
311	0.307
312	0.306
312	0.305
313	0.304
313	0.303
314	0.302
314	0.301
315	0.301
315	0.3
316	0.299
316	0.298
317	0.297
317	0.296
318	0.295
318	0.294
318	0.294
319	0.293
319	0.292
320	0.291
320	0.29
321	0.289
321	0.288
322	0.287
322	0.287
323	0.286
323	0.284
324	0.284
324	0.283
324	0.282
325	0.281
325	0.28
326	0.279
326	0.278
327	0.277
327	0.276
328	0.276
328	0.275
329	0.274
329	0.273
330	0.272
330	0.272
330	0.271
331	0.27
331	0.269
332	0.268
332	0.267
333	0.267
333	0.266
334	0.265
334	0.264
335	0.264
335	0.263
336	0.262
336	0.261
336	0.26
337	0.26
337	0.259
338	0.258
338	0.257
339	0.257
339	0.256
340	0.255
340	0.255
341	0.254
341	0.254
342	0.253
342	0.253
342	0.252
343	0.251
343	0.251
344	0.25
344	0.25
345	0.249
345	0.249
346	0.248
346	0.247
347	0.247
347	0.246
348	0.246
348	0.245
348	0.245
349	0.244
349	0.244
350	0.244
350	0.243
351	0.243
351	0.242
352	0.242
352	0.241
353	0.241
353	0.24
354	0.239
354	0.239
354	0.238
355	0.238
355	0.237
356	0.237
356	0.236
357	0.236
357	0.236
358	0.235
358	0.235
359	0.235
359	0.235
360	0.235
360	0.235
360	0.236
361	0.236
361	0.236
362	0.236
362	0.236
363	0.236
363	0.236
364	0.235
364	0.235
365	0.235
365	0.234
366	0.234
366	0.234
366	0.234
367	0.234
367	0.234
368	0.233
368	0.233
369	0.233
369	0.233
370	0.232
370	0.232
371	0.232
371	0.231
372	0.231
372	0.231
372	0.23
373	0.23
373	0.23
374	0.23
374	0.23
375	0.23
375	0.229
376	0.229
376	0.229
377	0.229
377	0.229
378	0.229
378	0.229
378	0.229
379	0.229
379	0.229
380	0.229
380	0.228
381	0.228
381	0.228
382	0.228
382	0.228
383	0.227
383	0.227
383	0.227
384	0.226
384	0.226
385	0.226
385	0.226
386	0.225
386	0.225
387	0.225
387	0.225
388	0.225
388	0.225
389	0.224
389	0.224
389	0.224
390	0.224
390	0.224
391	0.224
391	0.224
392	0.224
392	0.224
393	0.224
393	0.224
394	0.224
394	0.224
394	0.224
395	0.224
395	0.223
396	0.223
396	0.222
397	0.222
397	0.222
398	0.222
398	0.222
399	0.222
399	0.222
400	0.221
400	0.221
400	0.221
401	0.22
401	0.219
402	0.219
402	0.219
403	0.219
403	0.218
404	0.218
404	0.218
405	0.218
405	0.218
405	0.217
406	0.217
406	0.217
407	0.217
407	0.217
408	0.217
408	0.216
409	0.216
409	0.216
410	0.216
410	0.216
411	0.216
411	0.216
411	0.215
412	0.215
412	0.215
413	0.215
413	0.214
414	0.214
414	0.214
415	0.213
415	0.213
416	0.212
416	0.212
416	0.211
417	0.211
417	0.211
418	0.211
418	0.211
419	0.212
419	0.212
420	0.213
420	0.213
421	0.213
421	0.214
421	0.214
422	0.214
422	0.214
423	0.214
423	0.214
424	0.213
424	0.213
425	0.212
425	0.212
426	0.212
426	0.211
427	0.211
427	0.211
427	0.211
428	0.212
428	0.212
429	0.212
429	0.212
430	0.212
430	0.212
431	0.212
431	0.212
432	0.212
432	0.211
432	0.211
433	0.21
433	0.21
434	0.209
434	0.209
435	0.21
435	0.209
436	0.209
436	0.21
437	0.21
437	0.21
437	0.21
438	0.209
438	0.209
439	0.209
439	0.209
440	0.209
440	0.209
441	0.209
441	0.209
442	0.209
442	0.209
442	0.209
443	0.209
443	0.209
444	0.209
444	0.21
445	0.21
445	0.21
446	0.21
446	0.21
447	0.21
447	0.21
447	0.21
448	0.21
448	0.21
449	0.209
449	0.209
450	0.209
450	0.209
451	0.209
451	0.209
452	0.209
452	0.209
452	0.209
453	0.209
453	0.209
454	0.209
454	0.209
455	0.21
455	0.21
456	0.21
456	0.21
457	0.21
457	0.209
458	0.209
458	0.209
458	0.21
459	0.21
459	0.21
460	0.209
460	0.209
461	0.209
461	0.209
462	0.209
462	0.209
463	0.21
463	0.21
463	0.211
464	0.21
464	0.21
465	0.21
465	0.211
466	0.211
466	0.211
467	0.211
467	0.211
467	0.211
468	0.211
468	0.21
469	0.21
469	0.21
470	0.21
470	0.21
471	0.21
471	0.21
472	0.211
472	0.211
472	0.212
473	0.213
473	0.213
474	0.214
474	0.215
475	0.216
475	0.217
476	0.217
476	0.218
477	0.218
477	0.219
477	0.219
478	0.219
478	0.22
479	0.22
479	0.221
480	0.221
480	0.222
481	0.223
481	0.224
482	0.225
482	0.226
482	0.228
483	0.23
483	0.233
484	0.234
484	0.235
485	0.236
485	0.238
486	0.238
486	0.239
487	0.24
487	0.241
487	0.242
488	0.242
488	0.241
489	0.241
489	0.243
490	0.244
490	0.245
491	0.246
491	0.247
492	0.248
492	0.249
492	0.25
493	0.251
493	0.253
494	0.255
494	0.257
495	0.259
495	0.26
496	0.262
496	0.264
496	0.266
497	0.268
497	0.269
498	0.271
498	0.272
499	0.273
499	0.275
500	0.277
500	0.278
501	0.28
501	0.282
501	0.284
502	0.285
502	0.287
503	0.29
503	0.291
504	0.292
504	0.294
505	0.295
505	0.296
506	0.298
506	0.299
506	0.301
507	0.302
507	0.303
508	0.305
508	0.307
509	0.308
509	0.31
510	0.312
510	0.313
511	0.314
511	0.315
511	0.316
512	0.317
512	0.318
513	0.318
513	0.319
514	0.319
514	0.32
515	0.321
515	0.321
515	0.321
516	0.322
516	0.323
517	0.324
517	0.325
518	0.325
518	0.326
519	0.326
519	0.326
520	0.326
520	0.325
520	0.325
521	0.323
521	0.322
522	0.32
522	0.32
523	0.319
523	0.319
524	0.319
524	0.319
524	0.319
525	0.32
525	0.321
526	0.322
526	0.322
527	0.324
527	0.324
528	0.324
528	0.324
529	0.324
529	0.324
529	0.324
530	0.324
530	0.323
531	0.322
531	0.322
532	0.321
532	0.32
533	0.32
533	0.319
533	0.318
534	0.316
534	0.314
535	0.313
535	0.313
536	0.311
536	0.31
537	0.308
537	0.307
538	0.305
538	0.303
538	0.301
539	0.299
539	0.298
540	0.296
540	0.293
541	0.291
541	0.289
542	0.286
542	0.284
542	0.281
543	0.279
543	0.277
544	0.275
544	0.273
545	0.271
545	0.27
546	0.268
546	0.266
547	0.263
547	0.26
547	0.257
548	0.255
548	0.252
549	0.25
549	0.247
550	0.245
550	0.242
551	0.239
551	0.237
551	0.235
552	0.233
552	0.231
553	0.229
553	0.227
554	0.225
554	0.222
555	0.22
555	0.217
556	0.213
556	0.21
556	0.207
557	0.205
557	0.202
558	0.199
558	0.196
559	0.194
559	0.192
560	0.19
560	0.188
560	0.186
561	0.185
561	0.184
562	0.183
562	0.18
563	0.178
563	0.175
564	0.173
564	0.17
564	0.168
565	0.166
565	0.164
566	0.161
566	0.159
567	0.158
567	0.158
568	0.157
568	0.156
568	0.155
569	0.155
569	0.155
570	0.153
570	0.151
571	0.151
571	0.15
572	0.148
572	0.147
573	0.145
573	0.143
573	0.141
574	0.14
574	0.139
575	0.138
575	0.138
576	0.138
576	0.135
577	0.133
577	0.132
577	0.131
578	0.13
578	0.13
579	0.13
579	0.131
580	0.128
580	0.124
581	0.121
581	0.119
581	0.118
582	0.118
582	0.118
583	0.118
583	0.116
584	0.112
584	0.108
585	0.107
585	0.108
585	0.108
586	0.107
586	0.106
587	0.104
587	0.102
588	0.099
588	0.097
589	0.097
589	0.097
590	0.097
590	0.097
590	0.098
591	0.099
591	0.098
592	0.098
592	0.096
593	0.096
593	0.096
594	0.095
594	0.093
594	0.092
595	0.091
595	0.09
596	0.088
596	0.089
597	0.092
597	0.093
598	0.093
598	0.094
598	0.094
599	0.094
599	0.093
600	0.092
600	0.091
601	0.09
601	0.089
602	0.087
602	0.087
602	0.086
603	0.086
603	0.088
604	0.089
604	0.09
605	0.092
605	0.094
606	0.094
606	0.093
606	0.093
607	0.092
607	0.092
608	0.091
608	0.089
609	0.088
609	0.088
610	0.087
610	0.086
610	0.087
611	0.089
611	0.09
612	0.091
612	0.093
613	0.094
613	0.096
614	0.095
614	0.094
614	0.093
615	0.093
615	0.092
616	0.091
616	0.09
617	0.089
617	0.088
618	0.087
618	0.086
618	0.086
619	0.087
619	0.089
620	0.091
620	0.092
621	0.093
621	0.094
622	0.094
622	0.095
622	0.095
623	0.095
623	0.096
624	0.097
624	0.096
625	0.095
625	0.096
626	0.096
626	0.096
626	0.098
627	0.099
627	0.1
628	0.1
628	0.101
629	0.101
629	0.102
630	0.101
630	0.101
630	0.101
631	0.102
631	0.103
632	0.103
632	0.104
633	0.105
633	0.107
634	0.109
634	0.112
634	0.114
635	0.116
635	0.117
636	0.119
636	0.12
637	0.121
637	0.122
638	0.124
638	0.125
638	0.126
639	0.127
639	0.129
640	0.131
640	0.133
641	0.135
641	0.137
642	0.14
642	0.143
642	0.145
643	0.146
643	0.148
644	0.15
644	0.152
645	0.154
645	0.156
646	0.158
646	0.161
646	0.164
647	0.167
647	0.17
648	0.172
648	0.174
649	0.177
649	0.18
650	0.183
650	0.186
650	0.188
651	0.191
651	0.193
652	0.195
652	0.198
653	0.202
653	0.212
653	0.23
654	0.181
654	0.146
655	0.148
655	0.15
656	0.152
656	0.153
657	0.155
657	0.157
657	0.158
658	0.155
658	0.139
659	0.179
659	0.237
660	0.246
660	0.249
661	0.252
661	0.255
661	0.258
662	0.263
662	0.267
663	0.271
663	0.274
664	0.277
664	0.28
665	0.283
665	0.286
665	0.289
666	0.292
666	0.294
667	0.296
667	0.299
668	0.302
668	0.305
669	0.308
669	0.312
669	0.317
670	0.321
670	0.325
671	0.327
671	0.33
672	0.332
672	0.335
672	0.337
673	0.339
673	0.341
674	0.343
674	0.344
675	0.345
675	0.347
676	0.35
676	0.353
676	0.354
677	0.356
677	0.358
678	0.359
678	0.36
679	0.361
679	0.362
680	0.364
680	0.366
680	0.366
681	0.367
681	0.368
682	0.37
682	0.371
683	0.373
683	0.375
684	0.377
684	0.377
684	0.378
685	0.378
685	0.379
686	0.379
686	0.379
687	0.379
687	0.379
687	0.379
688	0.379
688	0.378
689	0.378
689	0.379
690	0.378
690	0.377
691	0.376
691	0.375
691	0.374
692	0.372
692	0.371
693	0.37
693	0.369
694	0.367
694	0.365
695	0.365
695	0.366
695	0.365
696	0.363
696	0.362
697	0.361
697	0.359
698	0.357
698	0.355
698	0.353
699	0.351
699	0.348
700	0.344
700	0.343
701	0.341
701	0.339
702	0.337
702	0.335
702	0.333
703	0.331
703	0.329
704	0.327
704	0.325
705	0.324
705	0.321
705	0.319
706	0.317
706	0.315
707	0.313
707	0.311
708	0.309
708	0.307
709	0.305
709	0.303
709	0.299
710	0.296
710	0.294
711	0.292
711	0.289
712	0.286
712	0.284
713	0.28
713	0.277
713	0.274
714	0.27
714	0.267
715	0.264
715	0.261
716	0.257
716	0.255
716	0.252
717	0.25
717	0.248
718	0.245
718	0.243
719	0.241
719	0.239
720	0.236
720	0.234
720	0.231
721	0.227
721	0.224
722	0.221
722	0.218
723	0.216
723	0.214
723	0.212
724	0.21
724	0.208
725	0.206
725	0.205
726	0.203
726	0.202
727	0.2
727	0.198
727	0.196
728	0.194
728	0.192
729	0.191
729	0.189
730	0.187
730	0.185
730	0.183
731	0.181
731	0.179
732	0.178
732	0.176
733	0.173
733	0.17
734	0.168
734	0.165
734	0.162
735	0.161
735	0.158
736	0.156
736	0.154
737	0.152
737	0.151
737	0.149
738	0.146
738	0.143
739	0.141
739	0.138
740	0.135
740	0.133
741	0.131
741	0.128
741	0.124
742	0.121
742	0.118
743	0.117
743	0.115
744	0.114
744	0.113
744	0.111
745	0.109
745	0.107
746	0.105
746	0.104
747	0.102
747	0.101
748	0.099
748	0.098
748	0.095
749	0.093
749	0.092
750	0.091
750	0.089
751	0.088
751	0.088
751	0.087
752	0.086
752	0.084
753	0.084
753	0.083
754	0.082
754	0.081
754	0.081
755	0.081
755	0.081
756	0.08
756	0.077
757	0.075
757	0.075
758	0.074
758	0.072
758	0.071
759	0.07
759	0.067
760	0.064
760	0.061
761	0.06
761	0.059
761	0.058
762	0.056
762	0.056
763	0.055
763	0.053
764	0.051
764	0.049
764	0.048
765	0.046
765	0.044
766	0.044
766	0.043
767	0.042
767	0.039
768	0.037
768	0.035
768	0.035
769	0.034
769	0.033
770	0.031
770	0.03
771	0.027
771	0.024
771	0.022
772	0.02
772	0.018
773	0.015
773	0.013
774	0.01
774	0.007
775	0.004
775	0.002
775	-0.002
776	-0.005
776	-0.008
777	-0.012
777	-0.015
778	-0.018
778	-0.022
778	-0.024
779	-0.026
779	-0.029
780	-0.033
780	-0.036
781	-0.04
781	-0.044
781	-0.049
782	-0.055
782	-0.061
783	-0.066
783	-0.072
784	-0.079
784	-0.086
784	-0.093
785	-0.1
785	-0.107
786	-0.113
786	-0.117
787	-0.119
787	-0.122
788	-0.127
788	-0.133
788	-0.139
789	-0.144
789	-0.147
790	-0.147
790	-0.148
791	-0.15
791	-0.152
791	-0.155
792	-0.149
792	-0.139
793	-0.133
793	-0.129
794	-0.127
794	-0.129
794	-0.133
795	-0.136
795	-0.136
796	-0.137
796	-0.14
797	-0.149
797	-0.16
797	-0.166
798	-0.171
798	-0.174
799	-0.174
799	-0.174
800	-0.173
800	-0.175
801	-0.177
801	-0.178
801	-0.178
802	-0.18
802	-0.181
803	-0.182
803	-0.182
804	-0.181
804	-0.176
804	-0.17
805	-0.166
805	-0.164
806	-0.162
806	-0.16
807	-0.159
807	-0.159
807	-0.159
808	-0.159
808	-0.16
809	-0.165
809	-0.171
810	-0.175
810	-0.178
810	-0.181
811	-0.184
811	-0.185
812	-0.181
812	-0.178
813	-0.178
813	-0.178
813	-0.179
814	-0.179
814	-0.179
815	-0.175
815	-0.172
816	-0.168
816	-0.165
817	-0.164
817	-0.16
817	-0.154
818	-0.145
818	-0.134
819	-0.123
819	-0.114
820	-0.106
820	-0.097
820	-0.088
821	-0.08
821	-0.072
822	-0.065
822	-0.059
823	-0.054
823	-0.051
823	-0.047
824	-0.043
824	-0.038
825	-0.034
825	-0.029
826	-0.026
826	-0.025
826	-0.023
827	-0.021
827	-0.019
828	-0.018
828	-0.017
829	-0.016
829	-0.015
829	-0.014
830	-0.014
830	-0.013
831	-0.01
831	-0.009
832	-0.008
832	-0.006
832	-0.004
833	-0.003
833	-0.001
834	0
834	0.002
835	0.004
835	0.005
835	0.006
836	0.007
836	0.008
837	0.009
837	0.01
838	0.01
838	0.011
839	0.011
839	0.012
839	0.012
840	0.013
840	0.013
841	0.014
841	0.015
842	0.015
842	0.016
842	0.017
843	0.017
843	0.018
844	0.019
844	0.02
845	0.02
845	0.021
845	0.022
846	0.022
846	0.022
847	0.022
847	0.022
848	0.021
848	0.02
848	0.02
849	0.019
849	0.018
850	0.017
850	0.016
851	0.016
851	0.016
851	0.016
852	0.015
852	0.015
853	0.015
853	0.015
854	0.015
854	0.015
854	0.014
855	0.014
855	0.013
856	0.012
856	0.012
857	0.011
857	0.011
857	0.011
858	0.011
858	0.01
859	0.009
859	0.009
860	0.009
860	0.009
860	0.009
861	0.01
861	0.01
862	0.009
862	0.009
863	0.008
863	0.008
863	0.007
864	0.007
864	0.007
865	0.007
865	0.007
866	0.007
866	0.007
866	0.008
867	0.009
867	0.01
868	0.012
868	0.013
869	0.015
869	0.015
869	0.016
870	0.016
870	0.016
871	0.017
871	0.016
872	0.016
872	0.015
872	0.014
873	0.014
873	0.013
874	0.012
874	0.012
875	0.012
875	0.013
875	0.013
876	0.014
876	0.014
877	0.015
877	0.016
878	0.017
878	0.018
878	0.02
879	0.02
879	0.021
880	0.02
880	0.02
881	0.02
881	0.019
881	0.018
882	0.017
882	0.016
883	0.015
883	0.013
884	0.013
884	0.012
884	0.011
885	0.011
885	0.012
886	0.012
886	0.012
887	0.013
887	0.013
887	0.013
888	0.013
888	0.013
889	0.013
889	0.013
890	0.013
890	0.013
890	0.012
891	0.012
891	0.011
892	0.01
892	0.009
893	0.009
893	0.008
893	0.008
894	0.008
894	0.007
895	0.007
895	0.006
895	0.006
896	0.005
896	0.005
897	0.005
897	0.005
898	0.005
898	0.005
898	0.005
899	0.006
899	0.007
900	0.007
900	0.009
901	0.01
901	0.011
901	0.012
902	0.014
902	0.015
903	0.016
903	0.016
904	0.017
904	0.018
904	0.018
905	0.019
905	0.02
906	0.02
906	0.021
907	0.021
907	0.022
907	0.022
908	0.022
908	0.023
909	0.023
909	0.023
910	0.024
910	0.023
910	0.023
911	0.023
911	0.023
912	0.023
912	0.023
913	0.022
913	0.022
913	0.021
914	0.021
914	0.02
915	0.019
915	0.019
916	0.018
916	0.017
916	0.016
917	0.016
917	0.015
918	0.014
918	0.014
918	0.014
919	0.014
919	0.014
920	0.014
920	0.015
921	0.015
921	0.015
921	0.016
922	0.016
922	0.017
923	0.017
923	0.018
924	0.018
924	0.018
924	0.018
925	0.017
925	0.017
926	0.016
926	0.015
927	0.015
927	0.013
927	0.013
928	0.012
928	0.011
929	0.01
929	0.01
930	0.009
930	0.009
930	0.009
931	0.008
931	0.008
932	0.008
932	0.007
933	0.006
933	0.005
933	0.004
934	0.003
934	0.002
935	0
935	-0.001
935	-0.002
936	-0.002
936	-0.003
937	-0.003
937	-0.003
938	-0.003
938	-0.003
938	-0.002
939	-0.002
939	-0.001
940	-0
940	0
941	0.001
941	0.002
941	0.003
942	0.004
942	0.005
943	0.006
943	0.007
944	0.007
944	0.008
944	0.008
945	0.009
945	0.009
946	0.009
946	0.009
946	0.009
947	0.009
947	0.009
948	0.009
948	0.008
949	0.008
949	0.009
949	0.009
950	0.009
950	0.009
951	0.009
951	0.009
952	0.008
952	0.008
952	0.008
953	0.008
953	0.008
954	0.008
954	0.007
955	0.007
955	0.007
955	0.007
956	0.007
956	0.008
957	0.007
957	0.007
957	0.006
958	0.006
958	0.005
959	0.005
959	0.004
960	0.003
960	0.002
960	0.001
961	-0
961	-0.001
962	-0.002
962	-0.002
963	-0.002
963	-0.002
963	-0.002
964	-0.001
964	0
965	0.001
965	0.003
966	0.004
966	0.006
966	0.007
967	0.009
967	0.01
968	0.01
968	0.011
968	0.011
969	0.011
969	0.011
970	0.01
970	0.009
971	0.008
971	0.008
971	0.007
972	0.006
972	0.006
973	0.005
973	0.005
974	0.004
974	0.004
974	0.004
975	0.005
975	0.005
976	0.005
976	0.005
976	0.004
977	0.003
977	0.002
978	0.001
978	-0.001
979	-0.002
979	-0.003
979	-0.005
980	-0.007
980	-0.008
981	-0.009
981	-0.01
982	-0.01
982	-0.01
982	-0.009
983	-0.009
983	-0.008
984	-0.008
984	-0.007
984	-0.006
985	-0.005
985	-0.004
986	-0.004
986	-0.003
987	-0.003
987	-0.002
987	-0.001
988	0
988	0.002
989	0.003
989	0.003
990	0.005
990	0.006
990	0.008
991	0.009
991	0.011
992	0.012
992	0.013
992	0.013
993	0.013
993	0.013
994	0.014
994	0.013
995	0.012
995	0.011
995	0.01
996	0.009
996	0.008
997	0.007
997	0.006
997	0.005
998	0.004
998	0.003
999	0.003
999	0.002
1000	0.002
1000	0.001
1000	0.001
1001	0
1001	0
1002	0
1002	-0
1003	-0
1003	-0.001
1003	-0.001
1004	-0.001
1004	-0.002
1005	-0.002
1005	-0.003
1005	-0.004
1006	-0.005
1006	-0.006
1007	-0.007
1007	-0.009
1008	-0.009
1008	-0.01
1008	-0.011
1009	-0.011
1009	-0.011
1010	-0.011
1010	-0.011
1010	-0.011
1011	-0.011
1011	-0.01
1012	-0.01
1012	-0.01
1013	-0.01
1013	-0.011
1013	-0.011
1014	-0.012
1014	-0.012
1015	-0.013
1015	-0.013
1016	-0.013
1016	-0.013
1016	-0.014
1017	-0.014
1017	-0.014
1018	-0.013
1018	-0.013
1018	-0.012
1019	-0.011
1019	-0.011
1020	-0.01
1020	-0.01
1021	-0.01
1021	-0.009
1021	-0.009
1022	-0.009
1022	-0.009
1023	-0.009
1023	-0.009
1023	-0.01
1024	-0.01
1024	-0.011
1025	-0.012
1025	-0.013
1026	-0.013
1026	-0.014
1026	-0.015
1027	-0.016
1027	-0.016
1028	-0.017
1028	-0.017
1028	-0.017
1029	-0.018
1029	-0.018
1030	-0.018
1030	-0.018
1031	-0.018
1031	-0.018
1031	-0.018
1032	-0.018
1032	-0.018
1033	-0.018
1033	-0.018
1033	-0.018
1034	-0.019
1034	-0.019
1035	-0.019
1035	-0.02
1036	-0.02
1036	-0.02
1036	-0.02
1037	-0.02
1037	-0.02
1038	-0.02
1038	-0.02
1039	-0.019
1039	-0.019
1039	-0.019
1040	-0.019
1040	-0.019
1041	-0.019
1041	-0.019
1041	-0.02
1042	-0.02
1042	-0.021
1043	-0.021
1043	-0.022
1044	-0.022
1044	-0.023
1044	-0.023
1045	-0.023
1045	-0.023
1046	-0.024
1046	-0.024
1046	-0.024
1047	-0.023
1047	-0.023
1048	-0.022
1048	-0.022
1049	-0.022
1049	-0.022
1049	-0.023
1050	-0.023
1050	-0.023
1051	-0.024
1051	-0.024
1051	-0.024
1052	-0.025
1052	-0.026
1053	-0.026
1053	-0.026
1053	-0.027
1054	-0.027
1054	-0.027
1055	-0.027
1055	-0.027
1056	-0.028
1056	-0.028
1056	-0.029
1057	-0.03
1057	-0.03
1058	-0.031
1058	-0.031
1058	-0.031
1059	-0.032
1059	-0.032
1060	-0.032
1060	-0.031
1061	-0.031
1061	-0.03
1061	-0.029
1062	-0.029
1062	-0.029
1063	-0.028
1063	-0.028
1063	-0.028
1064	-0.027
1064	-0.027
1065	-0.027
1065	-0.027
1066	-0.027
1066	-0.027
1066	-0.026
1067	-0.026
1067	-0.025
1068	-0.025
1068	-0.025
1068	-0.025
1069	-0.025
1069	-0.026
1070	-0.027
1070	-0.027
1071	-0.027
1071	-0.028
1071	-0.028
1072	-0.029
1072	-0.029
1073	-0.029
1073	-0.029
1073	-0.029
1074	-0.029
1074	-0.029
1075	-0.029
1075	-0.029
1076	-0.03
1076	-0.029
1076	-0.03
1077	-0.03
1077	-0.031
1078	-0.031
1078	-0.031
1078	-0.03
1079	-0.03
1079	-0.028
1080	-0.028
1080	-0.027
1080	-0.027
1081	-0.026
1081	-0.025
1082	-0.024
1082	-0.024
1083	-0.023
1083	-0.023
1083	-0.022
1084	-0.022
1084	-0.021
1085	-0.02
1085	-0.019
1085	-0.018
1086	-0.018
1086	-0.018
1087	-0.017
1087	-0.017
1088	-0.018
1088	-0.018
1088	-0.018
1089	-0.02
1089	-0.02
1090	-0.02
1090	-0.02
1090	-0.02
1091	-0.02
1091	-0.019
1092	-0.018
1092	-0.016
1092	-0.014
1093	-0.013
1093	-0.009
1094	-0.007
1094	-0.005
1095	-0.005
1095	-0.003
1095	-0
1096	0.001
1096	0.003
1097	0.005
1097	0.006
1097	0.008
1098	0.008
1098	0.01
1099	0.012
1099	0.014
1100	0.017
1100	0.02
1100	0.022
1101	0.025
1101	0.028
1102	0.033
1102	0.038
1102	0.044
1103	0.049
1103	0.056
1104	0.063
1104	0.071
1104	0.08
1105	0.089
1105	0.096
1106	0.102
1106	0.113
1107	0.121
1107	0.137
1107	0.153
1108	0.214
1108	0.303
1109	0.445
1109	0.752
1109	1.224
1110	-0
1110	-0
1111	-0
1111	-0
