Data from 15c-2a-1h-fridge_Absorbance__21__05389.txt Node

Date: Wed Jan 17 16:11:01 CET 2024
User: Marek
Spectrometer: MAYP115816
Trigger mode: 0
Integration Time (sec): 2.000000E-1
Scans to average: 10
Electric dark correction enabled: true
Nonlinearity correction enabled: true
Boxcar width: 5
XAxis mode: Wavelengths
Number of Pixels in Spectrum: 2068
>>>>>Begin Spectral Data<<<<<
199	-2.202
199	-2.055
200	-1.889
200	-1.76
201	-1.679
201	-1.628
202	-1.55
202	-1.491
203	-1.438
203	-1.391
204	-1.364
204	-1.339
205	-1.314
205	-1.303
205	-1.301
206	-1.3
206	-1.295
207	-1.293
207	-1.289
208	-1.286
208	-1.285
209	-1.28
209	-1.278
210	-1.277
210	-1.277
211	-1.275
211	-1.273
212	-1.274
212	-1.272
213	-1.271
213	-1.27
213	-1.269
214	-1.267
214	-1.266
215	-1.265
215	-1.263
216	-1.262
216	-1.259
217	-1.255
217	-1.253
218	-1.252
218	-1.249
219	-1.246
219	-1.245
220	-1.241
220	-1.237
221	-1.232
221	-1.228
221	-1.224
222	-1.22
222	-1.214
223	-1.208
223	-1.204
224	-1.198
224	-1.191
225	-1.182
225	-1.174
226	-1.165
226	-1.153
227	-1.139
227	-1.125
228	-1.109
228	-1.09
229	-1.068
229	-1.043
229	-1.015
230	-0.984
230	-0.952
231	-0.915
231	-0.877
232	-0.837
232	-0.793
233	-0.747
233	-0.699
234	-0.651
234	-0.603
235	-0.555
235	-0.508
236	-0.461
236	-0.417
236	-0.373
237	-0.331
237	-0.292
238	-0.255
238	-0.221
239	-0.187
239	-0.157
240	-0.129
240	-0.103
241	-0.079
241	-0.056
242	-0.036
242	-0.018
243	-0
243	0.015
243	0.029
244	0.042
244	0.054
245	0.064
245	0.074
246	0.084
246	0.092
247	0.1
247	0.107
248	0.114
248	0.12
249	0.126
249	0.131
250	0.136
250	0.141
250	0.146
251	0.149
251	0.153
252	0.157
252	0.16
253	0.163
253	0.166
254	0.169
254	0.171
255	0.174
255	0.176
256	0.178
256	0.18
257	0.181
257	0.183
258	0.184
258	0.185
258	0.186
259	0.187
259	0.188
260	0.189
260	0.189
261	0.19
261	0.19
262	0.191
262	0.191
263	0.191
263	0.191
264	0.191
264	0.191
265	0.191
265	0.191
265	0.191
266	0.191
266	0.191
267	0.19
267	0.19
268	0.189
268	0.189
269	0.189
269	0.188
270	0.187
270	0.186
271	0.186
271	0.185
272	0.184
272	0.183
272	0.183
273	0.182
273	0.181
274	0.181
274	0.18
275	0.179
275	0.179
276	0.178
276	0.177
277	0.177
277	0.176
278	0.175
278	0.174
278	0.172
279	0.171
279	0.169
280	0.169
280	0.168
281	0.167
281	0.166
282	0.165
282	0.164
283	0.164
283	0.164
284	0.164
284	0.164
285	0.164
285	0.164
285	0.163
286	0.163
286	0.163
287	0.163
287	0.163
288	0.162
288	0.162
289	0.162
289	0.161
290	0.161
290	0.161
291	0.16
291	0.16
292	0.16
292	0.159
292	0.159
293	0.159
293	0.159
294	0.158
294	0.158
295	0.158
295	0.158
296	0.158
296	0.158
297	0.158
297	0.158
298	0.157
298	0.157
298	0.157
299	0.157
299	0.157
300	0.157
300	0.157
301	0.157
301	0.157
302	0.157
302	0.157
303	0.157
303	0.157
304	0.156
304	0.156
305	0.156
305	0.156
305	0.156
306	0.155
306	0.155
307	0.155
307	0.155
308	0.154
308	0.154
309	0.154
309	0.154
310	0.154
310	0.153
311	0.153
311	0.153
311	0.152
312	0.152
312	0.152
313	0.152
313	0.151
314	0.151
314	0.15
315	0.15
315	0.15
316	0.149
316	0.149
317	0.149
317	0.148
318	0.148
318	0.147
318	0.147
319	0.147
319	0.146
320	0.146
320	0.145
321	0.145
321	0.144
322	0.144
322	0.143
323	0.143
323	0.142
324	0.142
324	0.141
324	0.141
325	0.14
325	0.14
326	0.139
326	0.139
327	0.138
327	0.138
328	0.138
328	0.137
329	0.137
329	0.136
330	0.136
330	0.135
330	0.135
331	0.134
331	0.134
332	0.133
332	0.133
333	0.132
333	0.132
334	0.131
334	0.131
335	0.13
335	0.13
336	0.129
336	0.129
336	0.128
337	0.128
337	0.127
338	0.127
338	0.126
339	0.126
339	0.125
340	0.125
340	0.125
341	0.124
341	0.124
342	0.123
342	0.123
342	0.122
343	0.122
343	0.121
344	0.121
344	0.12
345	0.12
345	0.119
346	0.118
346	0.118
347	0.117
347	0.116
348	0.116
348	0.115
348	0.115
349	0.114
349	0.113
350	0.113
350	0.112
351	0.111
351	0.111
352	0.11
352	0.109
353	0.109
353	0.108
354	0.107
354	0.107
354	0.106
355	0.105
355	0.104
356	0.103
356	0.103
357	0.102
357	0.102
358	0.102
358	0.102
359	0.103
359	0.103
360	0.103
360	0.104
360	0.104
361	0.105
361	0.106
362	0.106
362	0.106
363	0.106
363	0.106
364	0.105
364	0.105
365	0.105
365	0.104
366	0.104
366	0.104
366	0.104
367	0.104
367	0.104
368	0.103
368	0.103
369	0.103
369	0.103
370	0.102
370	0.102
371	0.102
371	0.102
372	0.102
372	0.101
372	0.101
373	0.101
373	0.101
374	0.101
374	0.101
375	0.101
375	0.101
376	0.101
376	0.102
377	0.102
377	0.102
378	0.103
378	0.103
378	0.103
379	0.104
379	0.104
380	0.104
380	0.104
381	0.105
381	0.104
382	0.104
382	0.104
383	0.104
383	0.104
383	0.103
384	0.103
384	0.103
385	0.103
385	0.103
386	0.103
386	0.103
387	0.103
387	0.103
388	0.103
388	0.103
389	0.103
389	0.104
389	0.104
390	0.104
390	0.105
391	0.105
391	0.105
392	0.106
392	0.106
393	0.106
393	0.106
394	0.106
394	0.106
394	0.106
395	0.105
395	0.105
396	0.105
396	0.105
397	0.105
397	0.106
398	0.106
398	0.106
399	0.106
399	0.106
400	0.106
400	0.105
400	0.105
401	0.104
401	0.103
402	0.103
402	0.102
403	0.102
403	0.102
404	0.102
404	0.102
405	0.102
405	0.102
405	0.101
406	0.101
406	0.101
407	0.101
407	0.101
408	0.1
408	0.1
409	0.099
409	0.099
410	0.099
410	0.099
411	0.099
411	0.099
411	0.099
412	0.099
412	0.099
413	0.099
413	0.099
414	0.099
414	0.099
415	0.099
415	0.098
416	0.098
416	0.097
416	0.097
417	0.097
417	0.097
418	0.097
418	0.097
419	0.098
419	0.099
420	0.1
420	0.1
421	0.101
421	0.102
421	0.102
422	0.102
422	0.103
423	0.103
423	0.103
424	0.102
424	0.101
425	0.1
425	0.1
426	0.099
426	0.099
427	0.099
427	0.099
427	0.099
428	0.1
428	0.1
429	0.101
429	0.101
430	0.101
430	0.101
431	0.101
431	0.101
432	0.1
432	0.1
432	0.099
433	0.098
433	0.096
434	0.096
434	0.096
435	0.096
435	0.096
436	0.096
436	0.096
437	0.096
437	0.097
437	0.097
438	0.097
438	0.097
439	0.096
439	0.096
440	0.095
440	0.096
441	0.096
441	0.096
442	0.096
442	0.096
442	0.096
443	0.096
443	0.097
444	0.097
444	0.097
445	0.098
445	0.098
446	0.098
446	0.097
447	0.097
447	0.097
447	0.097
448	0.097
448	0.097
449	0.096
449	0.096
450	0.096
450	0.095
451	0.095
451	0.094
452	0.094
452	0.093
452	0.092
453	0.092
453	0.091
454	0.091
454	0.09
455	0.09
455	0.09
456	0.089
456	0.089
457	0.089
457	0.089
458	0.088
458	0.088
458	0.088
459	0.088
459	0.088
460	0.087
460	0.086
461	0.085
461	0.084
462	0.084
462	0.084
463	0.084
463	0.085
463	0.086
464	0.086
464	0.086
465	0.085
465	0.086
466	0.086
466	0.086
467	0.085
467	0.085
467	0.084
468	0.082
468	0.08
469	0.078
469	0.077
470	0.076
470	0.075
471	0.074
471	0.074
472	0.073
472	0.073
472	0.073
473	0.074
473	0.075
474	0.076
474	0.077
475	0.077
475	0.078
476	0.078
476	0.078
477	0.078
477	0.078
477	0.078
478	0.077
478	0.077
479	0.077
479	0.077
480	0.077
480	0.077
481	0.077
481	0.077
482	0.078
482	0.079
482	0.08
483	0.081
483	0.084
484	0.086
484	0.087
485	0.088
485	0.088
486	0.089
486	0.089
487	0.089
487	0.089
487	0.088
488	0.087
488	0.085
489	0.082
489	0.081
490	0.08
490	0.078
491	0.077
491	0.077
492	0.077
492	0.076
492	0.076
493	0.076
493	0.076
494	0.077
494	0.078
495	0.079
495	0.079
496	0.08
496	0.08
496	0.081
497	0.081
497	0.082
498	0.082
498	0.082
499	0.081
499	0.081
500	0.081
500	0.082
501	0.082
501	0.083
501	0.083
502	0.084
502	0.084
503	0.085
503	0.085
504	0.086
504	0.085
505	0.085
505	0.085
506	0.085
506	0.084
506	0.084
507	0.084
507	0.083
508	0.083
508	0.084
509	0.084
509	0.084
510	0.084
510	0.084
511	0.084
511	0.084
511	0.083
512	0.083
512	0.082
513	0.081
513	0.08
514	0.079
514	0.079
515	0.078
515	0.078
515	0.077
516	0.076
516	0.075
517	0.075
517	0.076
518	0.076
518	0.076
519	0.076
519	0.075
520	0.074
520	0.072
520	0.071
521	0.07
521	0.068
522	0.066
522	0.064
523	0.061
523	0.06
524	0.059
524	0.058
524	0.058
525	0.059
525	0.061
526	0.062
526	0.065
527	0.068
527	0.071
528	0.074
528	0.076
529	0.079
529	0.081
529	0.082
530	0.084
530	0.085
531	0.087
531	0.088
532	0.088
532	0.089
533	0.091
533	0.092
533	0.092
534	0.093
534	0.093
535	0.093
535	0.094
536	0.095
536	0.096
537	0.097
537	0.097
538	0.098
538	0.098
538	0.098
539	0.099
539	0.1
540	0.101
540	0.101
541	0.1
541	0.1
542	0.1
542	0.1
542	0.101
543	0.101
543	0.102
544	0.102
544	0.103
545	0.104
545	0.105
546	0.107
546	0.108
547	0.108
547	0.108
547	0.107
548	0.107
548	0.107
549	0.107
549	0.107
550	0.107
550	0.107
551	0.106
551	0.106
551	0.107
552	0.108
552	0.109
553	0.109
553	0.111
554	0.112
554	0.113
555	0.112
555	0.111
556	0.11
556	0.109
556	0.108
557	0.108
557	0.107
558	0.107
558	0.107
559	0.108
559	0.109
560	0.11
560	0.112
560	0.113
561	0.115
561	0.117
562	0.119
562	0.119
563	0.119
563	0.118
564	0.117
564	0.116
564	0.115
565	0.114
565	0.115
566	0.115
566	0.115
567	0.117
567	0.12
568	0.124
568	0.127
568	0.131
569	0.136
569	0.14
570	0.144
570	0.145
571	0.147
571	0.15
572	0.152
572	0.153
573	0.155
573	0.156
573	0.156
574	0.156
574	0.156
575	0.157
575	0.16
576	0.163
576	0.163
577	0.163
577	0.162
577	0.163
578	0.162
578	0.163
579	0.165
579	0.168
580	0.168
580	0.166
581	0.163
581	0.161
581	0.16
582	0.16
582	0.16
583	0.162
583	0.162
584	0.16
584	0.155
585	0.153
585	0.153
585	0.154
586	0.154
586	0.155
587	0.153
587	0.151
588	0.148
588	0.146
589	0.144
589	0.144
590	0.143
590	0.143
590	0.144
591	0.146
591	0.146
592	0.146
592	0.145
593	0.145
593	0.145
594	0.145
594	0.143
594	0.142
595	0.141
595	0.139
596	0.137
596	0.137
597	0.14
597	0.142
598	0.144
598	0.146
598	0.148
599	0.149
599	0.149
600	0.148
600	0.147
601	0.146
601	0.144
602	0.142
602	0.14
602	0.138
603	0.137
603	0.137
604	0.138
604	0.139
605	0.141
605	0.144
606	0.145
606	0.144
606	0.143
607	0.142
607	0.141
608	0.14
608	0.137
609	0.135
609	0.134
610	0.132
610	0.13
610	0.129
611	0.129
611	0.13
612	0.131
612	0.133
613	0.134
613	0.136
614	0.135
614	0.133
614	0.132
615	0.131
615	0.129
616	0.127
616	0.125
617	0.123
617	0.12
618	0.116
618	0.113
618	0.111
619	0.109
619	0.109
620	0.111
620	0.111
621	0.111
621	0.111
622	0.111
622	0.111
622	0.111
623	0.11
623	0.111
624	0.111
624	0.11
625	0.108
625	0.107
626	0.106
626	0.105
626	0.105
627	0.104
627	0.103
628	0.103
628	0.102
629	0.101
629	0.1
630	0.099
630	0.097
630	0.096
631	0.095
631	0.094
632	0.093
632	0.092
633	0.091
633	0.091
634	0.092
634	0.094
634	0.095
635	0.096
635	0.096
636	0.097
636	0.097
637	0.098
637	0.097
638	0.098
638	0.098
638	0.098
639	0.097
639	0.096
640	0.096
640	0.096
641	0.096
641	0.097
642	0.097
642	0.098
642	0.098
643	0.099
643	0.099
644	0.099
644	0.1
645	0.1
645	0.101
646	0.102
646	0.104
646	0.106
647	0.109
647	0.111
648	0.112
648	0.113
649	0.115
649	0.117
650	0.119
650	0.12
650	0.122
651	0.123
651	0.123
652	0.123
652	0.124
653	0.125
653	0.133
653	0.155
654	0.127
654	0.106
655	0.106
655	0.107
656	0.108
656	0.109
657	0.11
657	0.11
657	0.11
658	0.106
658	0.088
659	0.109
659	0.137
660	0.141
660	0.141
661	0.142
661	0.143
661	0.144
662	0.147
662	0.15
663	0.152
663	0.155
664	0.157
664	0.159
665	0.161
665	0.162
665	0.164
666	0.165
666	0.166
667	0.166
667	0.167
668	0.168
668	0.17
669	0.171
669	0.173
669	0.177
670	0.18
670	0.183
671	0.184
671	0.186
672	0.187
672	0.188
672	0.189
673	0.189
673	0.19
674	0.19
674	0.189
675	0.188
675	0.188
676	0.19
676	0.192
676	0.192
677	0.194
677	0.196
678	0.198
678	0.199
679	0.2
679	0.201
680	0.203
680	0.204
680	0.204
681	0.204
681	0.205
682	0.206
682	0.207
683	0.208
683	0.211
684	0.213
684	0.214
684	0.215
685	0.216
685	0.218
686	0.219
686	0.22
687	0.221
687	0.221
687	0.221
688	0.221
688	0.221
689	0.222
689	0.223
690	0.224
690	0.223
691	0.223
691	0.223
691	0.224
692	0.223
692	0.223
693	0.223
693	0.224
694	0.223
694	0.222
695	0.223
695	0.226
695	0.228
696	0.228
696	0.228
697	0.228
697	0.228
698	0.228
698	0.227
698	0.227
699	0.227
699	0.225
700	0.223
700	0.222
701	0.223
701	0.223
702	0.222
702	0.222
702	0.222
703	0.222
703	0.221
704	0.221
704	0.222
705	0.223
705	0.224
705	0.224
706	0.224
706	0.225
707	0.225
707	0.224
708	0.223
708	0.223
709	0.223
709	0.222
709	0.219
710	0.217
710	0.216
711	0.216
711	0.215
712	0.215
712	0.215
713	0.215
713	0.215
713	0.215
714	0.213
714	0.212
715	0.212
715	0.211
716	0.209
716	0.209
716	0.208
717	0.207
717	0.207
718	0.205
718	0.204
719	0.203
719	0.203
720	0.202
720	0.201
720	0.2
721	0.198
721	0.196
722	0.195
722	0.193
723	0.193
723	0.193
723	0.193
724	0.192
724	0.191
725	0.19
725	0.189
726	0.189
726	0.188
727	0.187
727	0.186
727	0.186
728	0.184
728	0.183
729	0.184
729	0.184
730	0.184
730	0.183
730	0.182
731	0.182
731	0.181
732	0.181
732	0.18
733	0.179
733	0.177
734	0.175
734	0.174
734	0.172
735	0.172
735	0.171
736	0.169
736	0.168
737	0.167
737	0.168
737	0.168
738	0.166
738	0.164
739	0.161
739	0.159
740	0.157
740	0.155
741	0.153
741	0.15
741	0.146
742	0.14
742	0.135
743	0.133
743	0.13
744	0.128
744	0.127
744	0.125
745	0.123
745	0.121
746	0.12
746	0.119
747	0.119
747	0.12
748	0.121
748	0.121
748	0.121
749	0.121
749	0.121
750	0.121
750	0.121
751	0.122
751	0.123
751	0.124
752	0.124
752	0.123
753	0.123
753	0.123
754	0.123
754	0.123
754	0.124
755	0.125
755	0.127
756	0.127
756	0.125
757	0.123
757	0.122
758	0.122
758	0.12
758	0.119
759	0.118
759	0.115
760	0.111
760	0.106
761	0.103
761	0.1
761	0.098
762	0.096
762	0.095
763	0.094
763	0.091
764	0.087
764	0.084
764	0.081
765	0.077
765	0.074
766	0.073
766	0.072
767	0.07
767	0.066
768	0.061
768	0.057
768	0.055
769	0.053
769	0.052
770	0.05
770	0.048
771	0.044
771	0.039
771	0.034
772	0.029
772	0.024
773	0.02
773	0.014
774	0.007
774	0.001
775	-0.006
775	-0.012
775	-0.02
776	-0.028
776	-0.036
777	-0.044
777	-0.052
778	-0.06
778	-0.068
778	-0.076
779	-0.082
779	-0.088
780	-0.096
780	-0.105
781	-0.112
781	-0.119
781	-0.125
782	-0.131
782	-0.137
783	-0.143
783	-0.146
784	-0.15
784	-0.153
784	-0.155
785	-0.156
785	-0.157
786	-0.157
786	-0.154
787	-0.149
787	-0.144
788	-0.143
788	-0.144
788	-0.145
789	-0.147
789	-0.147
790	-0.143
790	-0.142
791	-0.143
791	-0.145
791	-0.147
792	-0.142
792	-0.131
793	-0.125
793	-0.121
794	-0.12
794	-0.122
794	-0.126
795	-0.128
795	-0.129
796	-0.129
796	-0.132
797	-0.141
797	-0.152
797	-0.159
798	-0.164
798	-0.167
799	-0.167
799	-0.166
800	-0.166
800	-0.167
801	-0.17
801	-0.171
801	-0.171
802	-0.172
802	-0.174
803	-0.174
803	-0.175
804	-0.174
804	-0.169
804	-0.162
805	-0.159
805	-0.156
806	-0.154
806	-0.153
807	-0.152
807	-0.151
807	-0.152
808	-0.151
808	-0.153
809	-0.158
809	-0.163
810	-0.167
810	-0.17
810	-0.174
811	-0.177
811	-0.177
812	-0.174
812	-0.17
813	-0.17
813	-0.171
813	-0.171
814	-0.172
814	-0.171
815	-0.168
815	-0.164
816	-0.162
816	-0.161
817	-0.165
817	-0.168
817	-0.168
818	-0.167
818	-0.163
819	-0.158
819	-0.155
820	-0.157
820	-0.157
820	-0.155
821	-0.15
821	-0.144
822	-0.136
822	-0.128
823	-0.119
823	-0.112
823	-0.106
824	-0.097
824	-0.084
825	-0.07
825	-0.057
826	-0.046
826	-0.037
826	-0.029
827	-0.021
827	-0.013
828	-0.007
828	-0.001
829	0.005
829	0.009
829	0.013
830	0.016
830	0.019
831	0.024
831	0.029
832	0.033
832	0.037
832	0.04
833	0.044
833	0.048
834	0.051
834	0.055
835	0.058
835	0.06
835	0.061
836	0.063
836	0.065
837	0.067
837	0.068
838	0.069
838	0.069
839	0.071
839	0.071
839	0.072
840	0.073
840	0.074
841	0.075
841	0.077
842	0.078
842	0.08
842	0.082
843	0.083
843	0.084
844	0.086
844	0.088
845	0.089
845	0.091
845	0.093
846	0.094
846	0.094
847	0.095
847	0.096
848	0.097
848	0.098
848	0.098
849	0.099
849	0.1
850	0.1
850	0.1
851	0.1
851	0.101
851	0.102
852	0.103
852	0.104
853	0.105
853	0.106
854	0.106
854	0.107
854	0.107
855	0.108
855	0.107
856	0.108
856	0.108
857	0.108
857	0.108
857	0.109
858	0.109
858	0.109
859	0.11
859	0.111
860	0.112
860	0.112
860	0.113
861	0.114
861	0.114
862	0.114
862	0.114
863	0.114
863	0.114
863	0.113
864	0.113
864	0.113
865	0.114
865	0.114
866	0.114
866	0.115
866	0.116
867	0.117
867	0.118
868	0.12
868	0.121
869	0.123
869	0.124
869	0.124
870	0.125
870	0.124
871	0.124
871	0.123
872	0.122
872	0.12
872	0.119
873	0.117
873	0.116
874	0.114
874	0.114
875	0.113
875	0.113
875	0.113
876	0.113
876	0.113
877	0.114
877	0.115
878	0.115
878	0.116
878	0.117
879	0.118
879	0.118
880	0.119
880	0.119
881	0.119
881	0.119
881	0.118
882	0.118
882	0.117
883	0.117
883	0.116
884	0.116
884	0.115
884	0.115
885	0.115
885	0.116
886	0.116
886	0.117
887	0.118
887	0.118
887	0.119
888	0.119
888	0.12
889	0.12
889	0.121
890	0.121
890	0.12
890	0.119
891	0.118
891	0.117
892	0.116
892	0.114
893	0.113
893	0.112
893	0.111
894	0.11
894	0.109
895	0.109
895	0.108
895	0.108
896	0.108
896	0.108
897	0.108
897	0.108
898	0.109
898	0.109
898	0.11
899	0.11
899	0.111
900	0.112
900	0.113
901	0.113
901	0.114
901	0.115
902	0.116
902	0.116
903	0.117
903	0.117
904	0.118
904	0.118
904	0.119
905	0.119
905	0.12
906	0.12
906	0.12
907	0.12
907	0.12
907	0.121
908	0.121
908	0.121
909	0.122
909	0.122
910	0.122
910	0.123
910	0.123
911	0.124
911	0.124
912	0.125
912	0.126
913	0.126
913	0.126
913	0.126
914	0.126
914	0.125
915	0.125
915	0.123
916	0.122
916	0.121
916	0.119
917	0.117
917	0.115
918	0.114
918	0.112
918	0.111
919	0.111
919	0.11
920	0.11
920	0.111
921	0.111
921	0.111
921	0.111
922	0.111
922	0.111
923	0.111
923	0.111
924	0.111
924	0.111
924	0.11
925	0.11
925	0.11
926	0.11
926	0.11
927	0.109
927	0.109
927	0.109
928	0.109
928	0.109
929	0.109
929	0.109
930	0.109
930	0.108
930	0.108
931	0.107
931	0.106
932	0.105
932	0.104
933	0.104
933	0.103
933	0.102
934	0.102
934	0.101
935	0.1
935	0.1
935	0.1
936	0.1
936	0.1
937	0.101
937	0.102
938	0.103
938	0.104
938	0.105
939	0.106
939	0.107
940	0.108
940	0.11
941	0.111
941	0.112
941	0.112
942	0.113
942	0.114
943	0.114
943	0.114
944	0.114
944	0.113
944	0.113
945	0.113
945	0.112
946	0.112
946	0.112
946	0.111
947	0.111
947	0.11
948	0.11
948	0.109
949	0.108
949	0.108
949	0.107
950	0.106
950	0.105
951	0.105
951	0.104
952	0.103
952	0.104
952	0.104
953	0.104
953	0.104
954	0.104
954	0.105
955	0.105
955	0.105
955	0.106
956	0.107
956	0.107
957	0.106
957	0.106
957	0.105
958	0.104
958	0.104
959	0.103
959	0.102
960	0.101
960	0.1
960	0.099
961	0.098
961	0.097
962	0.096
962	0.096
963	0.095
963	0.095
963	0.095
964	0.095
964	0.095
965	0.096
965	0.097
966	0.098
966	0.099
966	0.1
967	0.102
967	0.102
968	0.103
968	0.104
968	0.104
969	0.104
969	0.104
970	0.104
970	0.103
971	0.103
971	0.102
971	0.102
972	0.101
972	0.101
973	0.101
973	0.101
974	0.1
974	0.1
974	0.099
975	0.099
975	0.099
976	0.098
976	0.098
976	0.097
977	0.095
977	0.094
978	0.092
978	0.091
979	0.09
979	0.089
979	0.089
980	0.088
980	0.087
981	0.087
981	0.088
982	0.088
982	0.089
982	0.09
983	0.091
983	0.092
984	0.093
984	0.095
984	0.096
985	0.096
985	0.097
986	0.096
986	0.096
987	0.097
987	0.097
987	0.098
988	0.098
988	0.099
989	0.1
989	0.1
990	0.101
990	0.103
990	0.105
991	0.106
991	0.107
992	0.108
992	0.109
992	0.11
993	0.11
993	0.11
994	0.11
994	0.11
995	0.11
995	0.109
995	0.109
996	0.108
996	0.107
997	0.106
997	0.106
997	0.105
998	0.104
998	0.104
999	0.103
999	0.103
1000	0.102
1000	0.102
1000	0.101
1001	0.101
1001	0.101
1002	0.1
1002	0.1
1003	0.1
1003	0.099
1003	0.099
1004	0.099
1004	0.098
1005	0.097
1005	0.097
1005	0.096
1006	0.095
1006	0.095
1007	0.094
1007	0.093
1008	0.093
1008	0.092
1008	0.091
1009	0.091
1009	0.09
1010	0.09
1010	0.089
1010	0.088
1011	0.087
1011	0.086
1012	0.086
1012	0.085
1013	0.084
1013	0.083
1013	0.082
1014	0.081
1014	0.08
1015	0.079
1015	0.078
1016	0.078
1016	0.077
1016	0.077
1017	0.077
1017	0.078
1018	0.079
1018	0.079
1018	0.08
1019	0.082
1019	0.083
1020	0.083
1020	0.084
1021	0.085
1021	0.086
1021	0.086
1022	0.087
1022	0.087
1023	0.087
1023	0.087
1023	0.086
1024	0.086
1024	0.085
1025	0.084
1025	0.083
1026	0.083
1026	0.082
1026	0.081
1027	0.081
1027	0.08
1028	0.08
1028	0.08
1028	0.081
1029	0.081
1029	0.081
1030	0.081
1030	0.082
1031	0.082
1031	0.083
1031	0.083
1032	0.083
1032	0.084
1033	0.084
1033	0.084
1033	0.084
1034	0.083
1034	0.082
1035	0.082
1035	0.081
1036	0.081
1036	0.08
1036	0.081
1037	0.081
1037	0.081
1038	0.081
1038	0.082
1039	0.083
1039	0.084
1039	0.084
1040	0.085
1040	0.086
1041	0.087
1041	0.087
1041	0.088
1042	0.088
1042	0.088
1043	0.088
1043	0.088
1044	0.089
1044	0.089
1044	0.089
1045	0.089
1045	0.09
1046	0.09
1046	0.09
1046	0.091
1047	0.091
1047	0.092
1048	0.094
1048	0.094
1049	0.094
1049	0.093
1049	0.093
1050	0.093
1050	0.093
1051	0.092
1051	0.092
1051	0.092
1052	0.092
1052	0.092
1053	0.092
1053	0.092
1053	0.092
1054	0.093
1054	0.093
1055	0.093
1055	0.093
1056	0.093
1056	0.093
1056	0.092
1057	0.092
1057	0.092
1058	0.092
1058	0.092
1058	0.093
1059	0.093
1059	0.093
1060	0.094
1060	0.096
1061	0.098
1061	0.099
1061	0.101
1062	0.102
1062	0.103
1063	0.104
1063	0.105
1063	0.107
1064	0.109
1064	0.111
1065	0.112
1065	0.113
1066	0.114
1066	0.116
1066	0.118
1067	0.12
1067	0.121
1068	0.122
1068	0.123
1068	0.124
1069	0.124
1069	0.124
1070	0.125
1070	0.126
1071	0.127
1071	0.129
1071	0.129
1072	0.131
1072	0.133
1073	0.135
1073	0.137
1073	0.139
1074	0.142
1074	0.144
1075	0.144
1075	0.146
1076	0.147
1076	0.15
1076	0.151
1077	0.152
1077	0.154
1078	0.156
1078	0.159
1078	0.162
1079	0.165
1079	0.169
1080	0.171
1080	0.175
1080	0.177
1081	0.18
1081	0.183
1082	0.187
1082	0.19
1083	0.193
1083	0.196
1083	0.2
1084	0.204
1084	0.209
1085	0.214
1085	0.22
1085	0.225
1086	0.231
1086	0.236
1087	0.241
1087	0.247
1088	0.252
1088	0.259
1088	0.266
1089	0.273
1089	0.28
1090	0.288
1090	0.299
1090	0.309
1091	0.321
1091	0.336
1092	0.351
1092	0.369
1092	0.387
1093	0.403
1093	0.426
1094	0.45
1094	0.472
1095	0.496
1095	0.528
1095	0.567
1096	0.604
1096	0.648
1097	0.705
1097	0.765
1097	0.85
1098	0.945
1098	1.079
1099	1.312
1099	1.882
1100	-0
1100	-0
1100	-0
1101	-0
1101	-0
1102	-0
1102	-0
1102	-0
1103	-0
1103	-0
1104	-0
1104	-0
1104	-0
1105	-0
1105	-0
1106	-0
1106	-0
1107	-0
1107	-0
1107	-0
1108	-0
1108	-0
1109	-0
1109	-0
1109	-0
1110	-0
1110	-0
1111	-0
1111	-0
