Data from 15c-2a-1h-fridge_Absorbance__9__05377.txt Node

Date: Wed Jan 17 16:10:37 CET 2024
User: Marek
Spectrometer: MAYP115816
Trigger mode: 0
Integration Time (sec): 2.000000E-1
Scans to average: 10
Electric dark correction enabled: true
Nonlinearity correction enabled: true
Boxcar width: 5
XAxis mode: Wavelengths
Number of Pixels in Spectrum: 2068
>>>>>Begin Spectral Data<<<<<
199	-2.208
199	-2.06
200	-1.894
200	-1.765
201	-1.684
201	-1.633
202	-1.555
202	-1.496
203	-1.442
203	-1.396
204	-1.368
204	-1.343
205	-1.318
205	-1.308
205	-1.305
206	-1.304
206	-1.299
207	-1.296
207	-1.292
208	-1.29
208	-1.289
209	-1.284
209	-1.281
210	-1.28
210	-1.28
211	-1.278
211	-1.277
212	-1.277
212	-1.276
213	-1.275
213	-1.273
213	-1.272
214	-1.271
214	-1.27
215	-1.268
215	-1.267
216	-1.267
216	-1.264
217	-1.259
217	-1.257
218	-1.256
218	-1.252
219	-1.25
219	-1.249
220	-1.245
220	-1.241
221	-1.236
221	-1.231
221	-1.227
222	-1.223
222	-1.218
223	-1.212
223	-1.208
224	-1.202
224	-1.194
225	-1.186
225	-1.178
226	-1.169
226	-1.156
227	-1.143
227	-1.128
228	-1.112
228	-1.093
229	-1.071
229	-1.046
229	-1.018
230	-0.988
230	-0.956
231	-0.919
231	-0.881
232	-0.841
232	-0.797
233	-0.751
233	-0.704
234	-0.656
234	-0.607
235	-0.56
235	-0.513
236	-0.467
236	-0.422
236	-0.379
237	-0.337
237	-0.298
238	-0.261
238	-0.227
239	-0.194
239	-0.163
240	-0.135
240	-0.109
241	-0.085
241	-0.063
242	-0.043
242	-0.024
243	-0.007
243	0.008
243	0.022
244	0.035
244	0.047
245	0.057
245	0.067
246	0.077
246	0.085
247	0.093
247	0.1
248	0.106
248	0.113
249	0.119
249	0.124
250	0.129
250	0.134
250	0.138
251	0.142
251	0.146
252	0.149
252	0.153
253	0.156
253	0.159
254	0.161
254	0.164
255	0.167
255	0.169
256	0.171
256	0.173
257	0.174
257	0.176
258	0.177
258	0.178
258	0.18
259	0.181
259	0.181
260	0.182
260	0.183
261	0.183
261	0.184
262	0.184
262	0.184
263	0.185
263	0.185
264	0.185
264	0.185
265	0.185
265	0.185
265	0.185
266	0.185
266	0.185
267	0.184
267	0.184
268	0.184
268	0.183
269	0.182
269	0.182
270	0.181
270	0.18
271	0.179
271	0.179
272	0.178
272	0.177
272	0.177
273	0.176
273	0.175
274	0.175
274	0.174
275	0.174
275	0.173
276	0.173
276	0.172
277	0.171
277	0.171
278	0.17
278	0.169
278	0.167
279	0.165
279	0.164
280	0.163
280	0.162
281	0.162
281	0.161
282	0.16
282	0.159
283	0.159
283	0.159
284	0.159
284	0.16
285	0.16
285	0.159
285	0.159
286	0.159
286	0.158
287	0.158
287	0.158
288	0.158
288	0.158
289	0.157
289	0.157
290	0.156
290	0.156
291	0.156
291	0.156
292	0.155
292	0.155
292	0.155
293	0.154
293	0.154
294	0.154
294	0.154
295	0.154
295	0.154
296	0.154
296	0.154
297	0.154
297	0.154
298	0.154
298	0.153
298	0.153
299	0.153
299	0.153
300	0.153
300	0.153
301	0.153
301	0.153
302	0.153
302	0.153
303	0.153
303	0.153
304	0.152
304	0.152
305	0.152
305	0.152
305	0.152
306	0.152
306	0.152
307	0.151
307	0.151
308	0.151
308	0.151
309	0.151
309	0.15
310	0.15
310	0.15
311	0.15
311	0.15
311	0.149
312	0.149
312	0.149
313	0.149
313	0.148
314	0.148
314	0.148
315	0.147
315	0.147
316	0.146
316	0.146
317	0.146
317	0.145
318	0.145
318	0.144
318	0.144
319	0.143
319	0.143
320	0.143
320	0.142
321	0.142
321	0.141
322	0.141
322	0.14
323	0.14
323	0.139
324	0.139
324	0.138
324	0.138
325	0.137
325	0.137
326	0.136
326	0.136
327	0.136
327	0.135
328	0.135
328	0.134
329	0.134
329	0.134
330	0.133
330	0.133
330	0.132
331	0.131
331	0.131
332	0.13
332	0.13
333	0.129
333	0.129
334	0.128
334	0.128
335	0.127
335	0.126
336	0.126
336	0.126
336	0.125
337	0.125
337	0.124
338	0.124
338	0.124
339	0.123
339	0.123
340	0.122
340	0.122
341	0.122
341	0.121
342	0.121
342	0.12
342	0.12
343	0.119
343	0.119
344	0.118
344	0.118
345	0.117
345	0.117
346	0.116
346	0.116
347	0.115
347	0.114
348	0.114
348	0.113
348	0.113
349	0.112
349	0.111
350	0.11
350	0.11
351	0.109
351	0.109
352	0.108
352	0.107
353	0.106
353	0.106
354	0.105
354	0.104
354	0.103
355	0.102
355	0.102
356	0.101
356	0.1
357	0.1
357	0.099
358	0.099
358	0.099
359	0.1
359	0.101
360	0.101
360	0.102
360	0.102
361	0.103
361	0.103
362	0.104
362	0.104
363	0.104
363	0.104
364	0.103
364	0.103
365	0.103
365	0.102
366	0.102
366	0.102
366	0.101
367	0.101
367	0.101
368	0.101
368	0.101
369	0.1
369	0.1
370	0.1
370	0.1
371	0.099
371	0.099
372	0.099
372	0.099
372	0.099
373	0.099
373	0.099
374	0.099
374	0.099
375	0.099
375	0.099
376	0.099
376	0.099
377	0.1
377	0.1
378	0.101
378	0.101
378	0.101
379	0.102
379	0.102
380	0.102
380	0.102
381	0.102
381	0.102
382	0.102
382	0.102
383	0.102
383	0.101
383	0.101
384	0.101
384	0.101
385	0.101
385	0.101
386	0.101
386	0.101
387	0.101
387	0.101
388	0.101
388	0.101
389	0.101
389	0.101
389	0.102
390	0.102
390	0.103
391	0.103
391	0.104
392	0.104
392	0.104
393	0.104
393	0.104
394	0.104
394	0.104
394	0.104
395	0.104
395	0.103
396	0.103
396	0.103
397	0.104
397	0.104
398	0.104
398	0.104
399	0.104
399	0.104
400	0.104
400	0.104
400	0.103
401	0.103
401	0.102
402	0.101
402	0.1
403	0.1
403	0.1
404	0.1
404	0.1
405	0.1
405	0.099
405	0.099
406	0.099
406	0.099
407	0.099
407	0.098
408	0.098
408	0.097
409	0.097
409	0.097
410	0.097
410	0.097
411	0.097
411	0.097
411	0.097
412	0.097
412	0.097
413	0.097
413	0.097
414	0.096
414	0.096
415	0.096
415	0.095
416	0.095
416	0.094
416	0.094
417	0.094
417	0.094
418	0.094
418	0.095
419	0.095
419	0.096
420	0.097
420	0.098
421	0.099
421	0.099
421	0.1
422	0.1
422	0.1
423	0.1
423	0.1
424	0.1
424	0.099
425	0.098
425	0.097
426	0.096
426	0.096
427	0.096
427	0.096
427	0.096
428	0.097
428	0.098
429	0.099
429	0.099
430	0.099
430	0.099
431	0.099
431	0.099
432	0.098
432	0.098
432	0.097
433	0.095
433	0.094
434	0.093
434	0.093
435	0.093
435	0.093
436	0.093
436	0.094
437	0.094
437	0.094
437	0.094
438	0.094
438	0.094
439	0.094
439	0.093
440	0.093
440	0.093
441	0.093
441	0.093
442	0.093
442	0.093
442	0.093
443	0.094
443	0.094
444	0.094
444	0.095
445	0.095
445	0.095
446	0.095
446	0.095
447	0.095
447	0.095
447	0.095
448	0.094
448	0.094
449	0.094
449	0.094
450	0.093
450	0.093
451	0.093
451	0.092
452	0.092
452	0.091
452	0.09
453	0.09
453	0.089
454	0.088
454	0.088
455	0.088
455	0.087
456	0.087
456	0.087
457	0.086
457	0.086
458	0.086
458	0.086
458	0.086
459	0.086
459	0.086
460	0.084
460	0.084
461	0.083
461	0.082
462	0.082
462	0.082
463	0.082
463	0.082
463	0.083
464	0.083
464	0.083
465	0.082
465	0.083
466	0.083
466	0.083
467	0.082
467	0.082
467	0.081
468	0.079
468	0.077
469	0.076
469	0.074
470	0.073
470	0.072
471	0.071
471	0.071
472	0.071
472	0.071
472	0.071
473	0.071
473	0.072
474	0.073
474	0.074
475	0.074
475	0.075
476	0.075
476	0.075
477	0.075
477	0.074
477	0.074
478	0.074
478	0.073
479	0.073
479	0.073
480	0.073
480	0.074
481	0.074
481	0.074
482	0.075
482	0.075
482	0.077
483	0.078
483	0.081
484	0.083
484	0.084
485	0.085
485	0.086
486	0.087
486	0.087
487	0.087
487	0.087
487	0.086
488	0.085
488	0.083
489	0.08
489	0.079
490	0.077
490	0.076
491	0.075
491	0.074
492	0.074
492	0.074
492	0.073
493	0.073
493	0.073
494	0.074
494	0.075
495	0.076
495	0.077
496	0.077
496	0.078
496	0.078
497	0.079
497	0.079
498	0.079
498	0.079
499	0.078
499	0.078
500	0.078
500	0.078
501	0.079
501	0.08
501	0.08
502	0.081
502	0.082
503	0.083
503	0.083
504	0.083
504	0.083
505	0.082
505	0.082
506	0.082
506	0.082
506	0.081
507	0.081
507	0.08
508	0.08
508	0.08
509	0.08
509	0.08
510	0.081
510	0.081
511	0.081
511	0.08
511	0.08
512	0.079
512	0.079
513	0.077
513	0.076
514	0.076
514	0.075
515	0.075
515	0.074
515	0.073
516	0.072
516	0.071
517	0.071
517	0.071
518	0.072
518	0.072
519	0.071
519	0.07
520	0.069
520	0.068
520	0.067
521	0.066
521	0.064
522	0.061
522	0.059
523	0.057
523	0.056
524	0.055
524	0.054
524	0.054
525	0.054
525	0.056
526	0.058
526	0.06
527	0.064
527	0.067
528	0.069
528	0.072
529	0.074
529	0.076
529	0.078
530	0.08
530	0.081
531	0.083
531	0.084
532	0.084
532	0.085
533	0.087
533	0.088
533	0.089
534	0.089
534	0.089
535	0.09
535	0.091
536	0.091
536	0.092
537	0.093
537	0.094
538	0.094
538	0.094
538	0.095
539	0.096
539	0.097
540	0.097
540	0.098
541	0.098
541	0.098
542	0.097
542	0.098
542	0.098
543	0.098
543	0.099
544	0.099
544	0.1
545	0.101
545	0.103
546	0.105
546	0.106
547	0.107
547	0.106
547	0.106
548	0.106
548	0.106
549	0.106
549	0.105
550	0.105
550	0.105
551	0.105
551	0.105
551	0.105
552	0.106
552	0.107
553	0.108
553	0.11
554	0.111
554	0.111
555	0.111
555	0.11
556	0.109
556	0.108
556	0.107
557	0.106
557	0.106
558	0.106
558	0.106
559	0.106
559	0.107
560	0.109
560	0.11
560	0.112
561	0.114
561	0.116
562	0.117
562	0.118
563	0.118
563	0.117
564	0.116
564	0.115
564	0.114
565	0.113
565	0.114
566	0.114
566	0.115
567	0.116
567	0.12
568	0.123
568	0.126
568	0.131
569	0.135
569	0.14
570	0.144
570	0.145
571	0.148
571	0.151
572	0.152
572	0.154
573	0.155
573	0.156
573	0.156
574	0.156
574	0.157
575	0.157
575	0.16
576	0.163
576	0.163
577	0.163
577	0.162
577	0.163
578	0.163
578	0.163
579	0.165
579	0.168
580	0.168
580	0.166
581	0.163
581	0.161
581	0.16
582	0.16
582	0.161
583	0.163
583	0.163
584	0.16
584	0.156
585	0.154
585	0.155
585	0.155
586	0.156
586	0.156
587	0.155
587	0.152
588	0.149
588	0.147
589	0.145
589	0.145
590	0.144
590	0.144
590	0.145
591	0.147
591	0.147
592	0.147
592	0.147
593	0.146
593	0.146
594	0.146
594	0.144
594	0.143
595	0.142
595	0.14
596	0.138
596	0.138
597	0.14
597	0.143
598	0.144
598	0.146
598	0.148
599	0.149
599	0.149
600	0.148
600	0.147
601	0.146
601	0.144
602	0.142
602	0.14
602	0.139
603	0.137
603	0.137
604	0.138
604	0.139
605	0.141
605	0.144
606	0.145
606	0.144
606	0.143
607	0.142
607	0.141
608	0.14
608	0.138
609	0.136
609	0.135
610	0.133
610	0.13
610	0.129
611	0.13
611	0.131
612	0.132
612	0.133
613	0.135
613	0.136
614	0.136
614	0.134
614	0.133
615	0.131
615	0.129
616	0.128
616	0.125
617	0.123
617	0.12
618	0.116
618	0.113
618	0.111
619	0.109
619	0.109
620	0.11
620	0.11
621	0.11
621	0.11
622	0.11
622	0.11
622	0.11
623	0.109
623	0.11
624	0.11
624	0.109
625	0.108
625	0.107
626	0.106
626	0.105
626	0.105
627	0.104
627	0.103
628	0.103
628	0.102
629	0.101
629	0.1
630	0.098
630	0.096
630	0.095
631	0.094
631	0.093
632	0.092
632	0.091
633	0.091
633	0.091
634	0.092
634	0.093
634	0.094
635	0.095
635	0.096
636	0.096
636	0.096
637	0.097
637	0.096
638	0.097
638	0.097
638	0.097
639	0.096
639	0.095
640	0.095
640	0.095
641	0.095
641	0.095
642	0.096
642	0.096
642	0.097
643	0.097
643	0.097
644	0.097
644	0.098
645	0.098
645	0.099
646	0.1
646	0.102
646	0.104
647	0.106
647	0.108
648	0.109
648	0.11
649	0.112
649	0.114
650	0.116
650	0.117
650	0.118
651	0.119
651	0.12
652	0.12
652	0.12
653	0.122
653	0.13
653	0.151
654	0.124
654	0.104
655	0.104
655	0.104
656	0.105
656	0.106
657	0.106
657	0.107
657	0.107
658	0.103
658	0.085
659	0.105
659	0.132
660	0.135
660	0.136
661	0.137
661	0.137
661	0.139
662	0.142
662	0.144
663	0.147
663	0.149
664	0.151
664	0.153
665	0.154
665	0.156
665	0.157
666	0.159
666	0.16
667	0.16
667	0.161
668	0.162
668	0.163
669	0.165
669	0.167
669	0.171
670	0.174
670	0.177
671	0.178
671	0.179
672	0.181
672	0.182
672	0.182
673	0.183
673	0.183
674	0.183
674	0.182
675	0.181
675	0.181
676	0.182
676	0.184
676	0.185
677	0.186
677	0.188
678	0.19
678	0.191
679	0.192
679	0.193
680	0.195
680	0.196
680	0.196
681	0.196
681	0.197
682	0.198
682	0.199
683	0.201
683	0.203
684	0.206
684	0.207
684	0.207
685	0.208
685	0.21
686	0.212
686	0.213
687	0.213
687	0.214
687	0.214
688	0.214
688	0.214
689	0.214
689	0.216
690	0.216
690	0.216
691	0.216
691	0.216
691	0.216
692	0.216
692	0.215
693	0.215
693	0.216
694	0.215
694	0.214
695	0.215
695	0.218
695	0.22
696	0.22
696	0.22
697	0.221
697	0.221
698	0.221
698	0.22
698	0.219
699	0.22
699	0.218
700	0.216
700	0.215
701	0.216
701	0.216
702	0.215
702	0.215
702	0.215
703	0.215
703	0.215
704	0.215
704	0.216
705	0.217
705	0.218
705	0.218
706	0.219
706	0.219
707	0.219
707	0.219
708	0.218
708	0.218
709	0.218
709	0.217
709	0.215
710	0.212
710	0.211
711	0.211
711	0.211
712	0.211
712	0.211
713	0.211
713	0.211
713	0.21
714	0.209
714	0.208
715	0.208
715	0.207
716	0.205
716	0.205
716	0.205
717	0.204
717	0.203
718	0.202
718	0.2
719	0.2
719	0.2
720	0.199
720	0.198
720	0.196
721	0.194
721	0.193
722	0.192
722	0.19
723	0.19
723	0.19
723	0.19
724	0.189
724	0.188
725	0.187
725	0.186
726	0.186
726	0.185
727	0.185
727	0.184
727	0.183
728	0.182
728	0.181
729	0.182
729	0.182
730	0.182
730	0.181
730	0.18
731	0.18
731	0.179
732	0.179
732	0.178
733	0.177
733	0.176
734	0.174
734	0.173
734	0.172
735	0.172
735	0.171
736	0.169
736	0.168
737	0.167
737	0.168
737	0.168
738	0.166
738	0.163
739	0.161
739	0.159
740	0.156
740	0.155
741	0.153
741	0.15
741	0.146
742	0.14
742	0.136
743	0.133
743	0.131
744	0.129
744	0.128
744	0.126
745	0.124
745	0.122
746	0.121
746	0.121
747	0.121
747	0.121
748	0.122
748	0.122
748	0.122
749	0.121
749	0.122
750	0.122
750	0.122
751	0.123
751	0.124
751	0.125
752	0.125
752	0.124
753	0.124
753	0.124
754	0.125
754	0.125
754	0.126
755	0.127
755	0.128
756	0.129
756	0.127
757	0.125
757	0.125
758	0.124
758	0.123
758	0.122
759	0.121
759	0.118
760	0.114
760	0.109
761	0.106
761	0.103
761	0.101
762	0.098
762	0.097
763	0.096
763	0.093
764	0.09
764	0.086
764	0.083
765	0.079
765	0.076
766	0.074
766	0.073
767	0.072
767	0.068
768	0.062
768	0.058
768	0.056
769	0.054
769	0.053
770	0.051
770	0.048
771	0.045
771	0.04
771	0.035
772	0.03
772	0.026
773	0.021
773	0.015
774	0.008
774	0.001
775	-0.005
775	-0.011
775	-0.019
776	-0.027
776	-0.035
777	-0.043
777	-0.05
778	-0.058
778	-0.067
778	-0.075
779	-0.081
779	-0.087
780	-0.095
780	-0.104
781	-0.111
781	-0.118
781	-0.124
782	-0.13
782	-0.137
783	-0.143
783	-0.146
784	-0.15
784	-0.153
784	-0.155
785	-0.156
785	-0.157
786	-0.157
786	-0.154
787	-0.149
787	-0.144
788	-0.143
788	-0.144
788	-0.145
789	-0.147
789	-0.146
790	-0.143
790	-0.142
791	-0.143
791	-0.145
791	-0.147
792	-0.142
792	-0.131
793	-0.125
793	-0.121
794	-0.12
794	-0.122
794	-0.126
795	-0.128
795	-0.128
796	-0.129
796	-0.132
797	-0.141
797	-0.152
797	-0.159
798	-0.164
798	-0.166
799	-0.167
799	-0.166
800	-0.165
800	-0.167
801	-0.17
801	-0.171
801	-0.171
802	-0.172
802	-0.174
803	-0.174
803	-0.175
804	-0.174
804	-0.169
804	-0.162
805	-0.158
805	-0.156
806	-0.154
806	-0.153
807	-0.152
807	-0.151
807	-0.151
808	-0.151
808	-0.152
809	-0.157
809	-0.163
810	-0.167
810	-0.17
810	-0.174
811	-0.177
811	-0.177
812	-0.173
812	-0.17
813	-0.17
813	-0.171
813	-0.171
814	-0.172
814	-0.171
815	-0.168
815	-0.164
816	-0.161
816	-0.161
817	-0.165
817	-0.167
817	-0.167
818	-0.167
818	-0.163
819	-0.158
819	-0.155
820	-0.156
820	-0.156
820	-0.154
821	-0.149
821	-0.143
822	-0.135
822	-0.127
823	-0.118
823	-0.111
823	-0.105
824	-0.095
824	-0.082
825	-0.069
825	-0.056
826	-0.045
826	-0.036
826	-0.028
827	-0.02
827	-0.012
828	-0.005
828	0
829	0.006
829	0.011
829	0.014
830	0.017
830	0.021
831	0.026
831	0.031
832	0.036
832	0.04
832	0.044
833	0.048
833	0.052
834	0.056
834	0.059
835	0.062
835	0.065
835	0.066
836	0.068
836	0.07
837	0.071
837	0.072
838	0.073
838	0.073
839	0.074
839	0.075
839	0.076
840	0.077
840	0.078
841	0.079
841	0.08
842	0.082
842	0.084
842	0.086
843	0.087
843	0.089
844	0.09
844	0.092
845	0.093
845	0.095
845	0.097
846	0.098
846	0.098
847	0.099
847	0.1
848	0.101
848	0.102
848	0.103
849	0.104
849	0.104
850	0.105
850	0.105
851	0.106
851	0.107
851	0.108
852	0.108
852	0.109
853	0.11
853	0.111
854	0.112
854	0.112
854	0.113
855	0.113
855	0.113
856	0.113
856	0.113
857	0.113
857	0.113
857	0.114
858	0.114
858	0.114
859	0.114
859	0.115
860	0.116
860	0.116
860	0.117
861	0.118
861	0.118
862	0.118
862	0.118
863	0.118
863	0.118
863	0.119
864	0.118
864	0.119
865	0.119
865	0.119
866	0.12
866	0.12
866	0.121
867	0.122
867	0.123
868	0.125
868	0.126
869	0.128
869	0.128
869	0.128
870	0.129
870	0.129
871	0.128
871	0.127
872	0.126
872	0.124
872	0.123
873	0.121
873	0.119
874	0.118
874	0.117
875	0.116
875	0.116
875	0.115
876	0.116
876	0.116
877	0.117
877	0.118
878	0.119
878	0.12
878	0.121
879	0.122
879	0.122
880	0.123
880	0.123
881	0.124
881	0.124
881	0.124
882	0.124
882	0.124
883	0.123
883	0.123
884	0.123
884	0.122
884	0.123
885	0.123
885	0.123
886	0.124
886	0.125
887	0.125
887	0.126
887	0.126
888	0.127
888	0.127
889	0.127
889	0.128
890	0.128
890	0.127
890	0.126
891	0.125
891	0.123
892	0.122
892	0.121
893	0.12
893	0.118
893	0.117
894	0.116
894	0.115
895	0.115
895	0.114
895	0.114
896	0.114
896	0.114
897	0.115
897	0.115
898	0.116
898	0.116
898	0.117
899	0.118
899	0.119
900	0.119
900	0.12
901	0.121
901	0.122
901	0.122
902	0.123
902	0.123
903	0.124
903	0.124
904	0.125
904	0.125
904	0.126
905	0.126
905	0.126
906	0.127
906	0.127
907	0.127
907	0.127
907	0.127
908	0.127
908	0.128
909	0.128
909	0.128
910	0.128
910	0.128
910	0.129
911	0.129
911	0.13
912	0.13
912	0.131
913	0.131
913	0.131
913	0.131
914	0.13
914	0.129
915	0.129
915	0.127
916	0.126
916	0.125
916	0.123
917	0.121
917	0.119
918	0.118
918	0.117
918	0.116
919	0.115
919	0.115
920	0.115
920	0.115
921	0.115
921	0.115
921	0.115
922	0.115
922	0.116
923	0.116
923	0.115
924	0.115
924	0.115
924	0.115
925	0.114
925	0.114
926	0.114
926	0.114
927	0.114
927	0.114
927	0.114
928	0.114
928	0.114
929	0.114
929	0.114
930	0.114
930	0.114
930	0.113
931	0.112
931	0.112
932	0.111
932	0.11
933	0.11
933	0.109
933	0.109
934	0.108
934	0.108
935	0.107
935	0.107
935	0.107
936	0.107
936	0.108
937	0.109
937	0.109
938	0.11
938	0.111
938	0.112
939	0.113
939	0.114
940	0.115
940	0.116
941	0.117
941	0.118
941	0.119
942	0.12
942	0.12
943	0.121
943	0.12
944	0.12
944	0.12
944	0.119
945	0.119
945	0.119
946	0.118
946	0.118
946	0.117
947	0.117
947	0.116
948	0.115
948	0.114
949	0.113
949	0.113
949	0.112
950	0.111
950	0.11
951	0.11
951	0.109
952	0.109
952	0.109
952	0.11
953	0.11
953	0.11
954	0.11
954	0.11
955	0.111
955	0.111
955	0.111
956	0.112
956	0.112
957	0.111
957	0.111
957	0.11
958	0.109
958	0.109
959	0.108
959	0.108
960	0.107
960	0.106
960	0.105
961	0.104
961	0.103
962	0.102
962	0.102
963	0.102
963	0.101
963	0.101
964	0.101
964	0.101
965	0.102
965	0.102
966	0.103
966	0.105
966	0.106
967	0.107
967	0.108
968	0.108
968	0.109
968	0.109
969	0.11
969	0.11
970	0.109
970	0.109
971	0.109
971	0.108
971	0.108
972	0.108
972	0.108
973	0.108
973	0.107
974	0.107
974	0.106
974	0.106
975	0.106
975	0.106
976	0.106
976	0.105
976	0.104
977	0.103
977	0.102
978	0.101
978	0.099
979	0.098
979	0.098
979	0.097
980	0.096
980	0.095
981	0.094
981	0.094
982	0.095
982	0.095
982	0.096
983	0.097
983	0.097
984	0.098
984	0.099
984	0.1
985	0.101
985	0.101
986	0.101
986	0.101
987	0.102
987	0.103
987	0.103
988	0.104
988	0.105
989	0.106
989	0.106
990	0.108
990	0.109
990	0.111
991	0.112
991	0.113
992	0.114
992	0.114
992	0.115
993	0.115
993	0.115
994	0.115
994	0.115
995	0.115
995	0.114
995	0.114
996	0.113
996	0.112
997	0.112
997	0.111
997	0.111
998	0.11
998	0.11
999	0.11
999	0.109
1000	0.109
1000	0.109
1000	0.108
1001	0.108
1001	0.108
1002	0.107
1002	0.107
1003	0.106
1003	0.106
1003	0.105
1004	0.105
1004	0.103
1005	0.103
1005	0.102
1005	0.101
1006	0.101
1006	0.1
1007	0.099
1007	0.099
1008	0.098
1008	0.098
1008	0.097
1009	0.097
1009	0.097
1010	0.096
1010	0.096
1010	0.095
1011	0.094
1011	0.093
1012	0.093
1012	0.092
1013	0.092
1013	0.091
1013	0.09
1014	0.089
1014	0.088
1015	0.087
1015	0.087
1016	0.086
1016	0.086
1016	0.086
1017	0.085
1017	0.086
1018	0.086
1018	0.087
1018	0.088
1019	0.089
1019	0.09
1020	0.091
1020	0.092
1021	0.092
1021	0.093
1021	0.094
1022	0.094
1022	0.094
1023	0.094
1023	0.094
1023	0.093
1024	0.092
1024	0.092
1025	0.091
1025	0.09
1026	0.089
1026	0.089
1026	0.088
1027	0.087
1027	0.087
1028	0.087
1028	0.087
1028	0.087
1029	0.088
1029	0.088
1030	0.088
1030	0.088
1031	0.089
1031	0.09
1031	0.09
1032	0.09
1032	0.091
1033	0.091
1033	0.091
1033	0.091
1034	0.09
1034	0.089
1035	0.088
1035	0.088
1036	0.087
1036	0.086
1036	0.087
1037	0.087
1037	0.087
1038	0.087
1038	0.088
1039	0.089
1039	0.09
1039	0.091
1040	0.092
1040	0.093
1041	0.093
1041	0.094
1041	0.094
1042	0.094
1042	0.094
1043	0.094
1043	0.094
1044	0.094
1044	0.095
1044	0.095
1045	0.096
1045	0.096
1046	0.097
1046	0.097
1046	0.098
1047	0.099
1047	0.1
1048	0.101
1048	0.101
1049	0.101
1049	0.101
1049	0.101
1050	0.101
1050	0.101
1051	0.101
1051	0.101
1051	0.101
1052	0.101
1052	0.101
1053	0.101
1053	0.101
1053	0.101
1054	0.101
1054	0.102
1055	0.102
1055	0.102
1056	0.102
1056	0.101
1056	0.101
1057	0.101
1057	0.101
1058	0.101
1058	0.101
1058	0.102
1059	0.102
1059	0.103
1060	0.104
1060	0.106
1061	0.108
1061	0.109
1061	0.111
1062	0.112
1062	0.113
1063	0.114
1063	0.114
1063	0.116
1064	0.117
1064	0.119
1065	0.12
1065	0.121
1066	0.122
1066	0.123
1066	0.125
1067	0.126
1067	0.128
1068	0.128
1068	0.129
1068	0.13
1069	0.13
1069	0.13
1070	0.132
1070	0.133
1071	0.134
1071	0.135
1071	0.137
1072	0.139
1072	0.141
1073	0.143
1073	0.146
1073	0.148
1074	0.15
1074	0.152
1075	0.153
1075	0.154
1076	0.156
1076	0.158
1076	0.159
1077	0.16
1077	0.162
1078	0.164
1078	0.167
1078	0.17
1079	0.172
1079	0.177
1080	0.18
1080	0.183
1080	0.185
1081	0.189
1081	0.192
1082	0.196
1082	0.199
1083	0.203
1083	0.206
1083	0.211
1084	0.215
1084	0.221
1085	0.227
1085	0.232
1085	0.238
1086	0.244
1086	0.248
1087	0.255
1087	0.262
1088	0.266
1088	0.273
1088	0.281
1089	0.288
1089	0.296
1090	0.306
1090	0.317
1090	0.329
1091	0.342
1091	0.358
1092	0.373
1092	0.393
1092	0.41
1093	0.429
1093	0.452
1094	0.476
1094	0.502
1095	0.528
1095	0.562
1095	0.603
1096	0.643
1096	0.693
1097	0.753
1097	0.82
1097	0.911
1098	1.031
1098	1.21
1099	1.544
1099	-0
1100	-0
1100	-0
1100	-0
1101	-0
1101	-0
1102	-0
1102	-0
1102	-0
1103	-0
1103	-0
1104	-0
1104	-0
1104	-0
1105	-0
1105	-0
1106	-0
1106	-0
1107	-0
1107	-0
1107	-0
1108	-0
1108	-0
1109	-0
1109	-0
1109	-0
1110	-0
1110	-0
1111	-0
1111	-0
