Data from 15c-2a-1h-fridge_Absorbance__47__05415.txt Node

Date: Wed Jan 17 16:11:53 CET 2024
User: Marek
Spectrometer: MAYP115816
Trigger mode: 0
Integration Time (sec): 2.000000E-1
Scans to average: 10
Electric dark correction enabled: true
Nonlinearity correction enabled: true
Boxcar width: 5
XAxis mode: Wavelengths
Number of Pixels in Spectrum: 2068
>>>>>Begin Spectral Data<<<<<
199	-2.055
199	-1.909
200	-1.744
200	-1.616
201	-1.536
201	-1.485
202	-1.41
202	-1.352
203	-1.299
203	-1.254
204	-1.227
204	-1.202
205	-1.178
205	-1.167
205	-1.165
206	-1.164
206	-1.159
207	-1.157
207	-1.152
208	-1.15
208	-1.149
209	-1.145
209	-1.142
210	-1.141
210	-1.141
211	-1.139
211	-1.138
212	-1.139
212	-1.138
213	-1.137
213	-1.136
213	-1.134
214	-1.133
214	-1.132
215	-1.131
215	-1.129
216	-1.128
216	-1.125
217	-1.121
217	-1.118
218	-1.117
218	-1.114
219	-1.111
219	-1.11
220	-1.107
220	-1.103
221	-1.098
221	-1.094
221	-1.089
222	-1.086
222	-1.081
223	-1.075
223	-1.071
224	-1.065
224	-1.057
225	-1.048
225	-1.041
226	-1.032
226	-1.02
227	-1.007
227	-0.993
228	-0.977
228	-0.958
229	-0.937
229	-0.912
229	-0.884
230	-0.853
230	-0.821
231	-0.784
231	-0.746
232	-0.706
232	-0.663
233	-0.617
233	-0.569
234	-0.522
234	-0.474
235	-0.427
235	-0.381
236	-0.336
236	-0.292
236	-0.249
237	-0.208
237	-0.171
238	-0.135
238	-0.101
239	-0.069
239	-0.04
240	-0.013
240	0.011
241	0.035
241	0.056
242	0.075
242	0.093
243	0.109
243	0.123
243	0.136
244	0.149
244	0.16
245	0.169
245	0.179
246	0.188
246	0.195
247	0.202
247	0.209
248	0.215
248	0.221
249	0.227
249	0.232
250	0.237
250	0.241
250	0.245
251	0.249
251	0.252
252	0.256
252	0.258
253	0.262
253	0.264
254	0.267
254	0.269
255	0.271
255	0.274
256	0.275
256	0.277
257	0.278
257	0.28
258	0.281
258	0.282
258	0.283
259	0.284
259	0.284
260	0.285
260	0.285
261	0.285
261	0.285
262	0.285
262	0.285
263	0.285
263	0.285
264	0.285
264	0.285
265	0.285
265	0.284
265	0.284
266	0.284
266	0.283
267	0.283
267	0.282
268	0.281
268	0.28
269	0.279
269	0.278
270	0.277
270	0.276
271	0.275
271	0.274
272	0.273
272	0.272
272	0.271
273	0.27
273	0.268
274	0.268
274	0.266
275	0.265
275	0.264
276	0.263
276	0.262
277	0.261
277	0.26
278	0.258
278	0.257
278	0.255
279	0.253
279	0.251
280	0.249
280	0.248
281	0.246
281	0.245
282	0.244
282	0.243
283	0.242
283	0.241
284	0.241
284	0.241
285	0.24
285	0.239
285	0.239
286	0.238
286	0.237
287	0.237
287	0.236
288	0.235
288	0.234
289	0.234
289	0.233
290	0.232
290	0.231
291	0.231
291	0.23
292	0.229
292	0.228
292	0.227
293	0.227
293	0.226
294	0.226
294	0.225
295	0.225
295	0.224
296	0.224
296	0.223
297	0.223
297	0.222
298	0.222
298	0.222
298	0.221
299	0.221
299	0.221
300	0.22
300	0.22
301	0.22
301	0.219
302	0.219
302	0.219
303	0.218
303	0.218
304	0.218
304	0.217
305	0.217
305	0.216
305	0.216
306	0.215
306	0.215
307	0.214
307	0.214
308	0.213
308	0.213
309	0.213
309	0.212
310	0.212
310	0.211
311	0.211
311	0.21
311	0.21
312	0.209
312	0.209
313	0.208
313	0.207
314	0.207
314	0.206
315	0.206
315	0.205
316	0.205
316	0.204
317	0.204
317	0.203
318	0.203
318	0.202
318	0.201
319	0.201
319	0.2
320	0.2
320	0.199
321	0.198
321	0.198
322	0.197
322	0.196
323	0.196
323	0.195
324	0.194
324	0.194
324	0.193
325	0.193
325	0.192
326	0.191
326	0.191
327	0.19
327	0.19
328	0.189
328	0.188
329	0.188
329	0.187
330	0.187
330	0.186
330	0.186
331	0.185
331	0.184
332	0.184
332	0.183
333	0.182
333	0.182
334	0.181
334	0.18
335	0.18
335	0.179
336	0.178
336	0.178
336	0.177
337	0.176
337	0.176
338	0.175
338	0.175
339	0.174
339	0.174
340	0.173
340	0.173
341	0.172
341	0.172
342	0.171
342	0.171
342	0.17
343	0.17
343	0.169
344	0.169
344	0.168
345	0.168
345	0.167
346	0.166
346	0.166
347	0.165
347	0.165
348	0.164
348	0.164
348	0.163
349	0.163
349	0.162
350	0.161
350	0.161
351	0.16
351	0.16
352	0.159
352	0.159
353	0.158
353	0.157
354	0.157
354	0.156
354	0.155
355	0.155
355	0.154
356	0.153
356	0.153
357	0.152
357	0.152
358	0.152
358	0.152
359	0.152
359	0.153
360	0.153
360	0.153
360	0.154
361	0.154
361	0.154
362	0.155
362	0.155
363	0.154
363	0.154
364	0.154
364	0.153
365	0.153
365	0.153
366	0.153
366	0.152
366	0.152
367	0.152
367	0.152
368	0.152
368	0.151
369	0.151
369	0.151
370	0.15
370	0.15
371	0.15
371	0.15
372	0.15
372	0.149
372	0.149
373	0.149
373	0.149
374	0.149
374	0.149
375	0.149
375	0.149
376	0.149
376	0.15
377	0.15
377	0.15
378	0.15
378	0.15
378	0.15
379	0.151
379	0.151
380	0.151
380	0.151
381	0.151
381	0.151
382	0.151
382	0.151
383	0.15
383	0.15
383	0.149
384	0.149
384	0.149
385	0.149
385	0.149
386	0.148
386	0.149
387	0.149
387	0.148
388	0.148
388	0.148
389	0.148
389	0.148
389	0.149
390	0.149
390	0.149
391	0.15
391	0.15
392	0.15
392	0.15
393	0.15
393	0.15
394	0.15
394	0.15
394	0.15
395	0.15
395	0.149
396	0.149
396	0.149
397	0.15
397	0.15
398	0.15
398	0.15
399	0.15
399	0.15
400	0.149
400	0.149
400	0.149
401	0.148
401	0.147
402	0.147
402	0.146
403	0.146
403	0.146
404	0.146
404	0.146
405	0.146
405	0.145
405	0.145
406	0.145
406	0.145
407	0.145
407	0.144
408	0.144
408	0.143
409	0.143
409	0.143
410	0.143
410	0.143
411	0.143
411	0.143
411	0.143
412	0.143
412	0.143
413	0.143
413	0.143
414	0.143
414	0.143
415	0.142
415	0.142
416	0.141
416	0.141
416	0.14
417	0.14
417	0.14
418	0.14
418	0.14
419	0.14
419	0.141
420	0.142
420	0.143
421	0.143
421	0.144
421	0.144
422	0.144
422	0.144
423	0.144
423	0.144
424	0.144
424	0.143
425	0.142
425	0.141
426	0.141
426	0.141
427	0.141
427	0.141
427	0.141
428	0.142
428	0.143
429	0.143
429	0.144
430	0.144
430	0.143
431	0.143
431	0.143
432	0.142
432	0.142
432	0.141
433	0.14
433	0.139
434	0.138
434	0.138
435	0.138
435	0.138
436	0.138
436	0.139
437	0.139
437	0.139
437	0.139
438	0.139
438	0.139
439	0.139
439	0.138
440	0.138
440	0.138
441	0.138
441	0.138
442	0.138
442	0.138
442	0.139
443	0.139
443	0.139
444	0.139
444	0.14
445	0.14
445	0.14
446	0.141
446	0.14
447	0.14
447	0.14
447	0.139
448	0.139
448	0.139
449	0.139
449	0.138
450	0.138
450	0.138
451	0.137
451	0.137
452	0.137
452	0.136
452	0.136
453	0.136
453	0.135
454	0.135
454	0.134
455	0.134
455	0.134
456	0.134
456	0.134
457	0.134
457	0.134
458	0.134
458	0.134
458	0.134
459	0.134
459	0.134
460	0.133
460	0.132
461	0.131
461	0.131
462	0.131
462	0.131
463	0.131
463	0.132
463	0.132
464	0.132
464	0.132
465	0.132
465	0.133
466	0.133
466	0.133
467	0.133
467	0.132
467	0.131
468	0.13
468	0.129
469	0.128
469	0.127
470	0.126
470	0.125
471	0.125
471	0.125
472	0.124
472	0.124
472	0.125
473	0.126
473	0.126
474	0.127
474	0.128
475	0.128
475	0.129
476	0.129
476	0.129
477	0.129
477	0.129
477	0.129
478	0.129
478	0.129
479	0.129
479	0.129
480	0.13
480	0.13
481	0.131
481	0.132
482	0.132
482	0.133
482	0.135
483	0.136
483	0.139
484	0.141
484	0.142
485	0.143
485	0.144
486	0.144
486	0.145
487	0.145
487	0.145
487	0.145
488	0.144
488	0.142
489	0.141
489	0.14
490	0.139
490	0.139
491	0.139
491	0.139
492	0.139
492	0.139
492	0.139
493	0.139
493	0.14
494	0.141
494	0.143
495	0.144
495	0.145
496	0.146
496	0.146
496	0.148
497	0.149
497	0.15
498	0.15
498	0.151
499	0.151
499	0.152
500	0.152
500	0.153
501	0.154
501	0.155
501	0.156
502	0.157
502	0.158
503	0.159
503	0.16
504	0.16
504	0.16
505	0.16
505	0.161
506	0.161
506	0.161
506	0.162
507	0.162
507	0.162
508	0.163
508	0.163
509	0.164
509	0.165
510	0.166
510	0.166
511	0.166
511	0.166
511	0.166
512	0.166
512	0.166
513	0.165
513	0.165
514	0.164
514	0.164
515	0.164
515	0.163
515	0.162
516	0.162
516	0.162
517	0.162
517	0.163
518	0.163
518	0.163
519	0.163
519	0.162
520	0.162
520	0.161
520	0.16
521	0.158
521	0.156
522	0.154
522	0.152
523	0.15
523	0.149
524	0.148
524	0.148
524	0.148
525	0.148
525	0.15
526	0.151
526	0.153
527	0.156
527	0.159
528	0.161
528	0.163
529	0.165
529	0.166
529	0.167
530	0.168
530	0.168
531	0.169
531	0.17
532	0.169
532	0.17
533	0.171
533	0.171
533	0.171
534	0.171
534	0.171
535	0.171
535	0.171
536	0.171
536	0.171
537	0.171
537	0.172
538	0.171
538	0.171
538	0.17
539	0.17
539	0.17
540	0.17
540	0.17
541	0.168
541	0.168
542	0.167
542	0.167
542	0.166
543	0.166
543	0.165
544	0.165
544	0.164
545	0.165
545	0.165
546	0.166
546	0.166
547	0.165
547	0.164
547	0.163
548	0.162
548	0.161
549	0.16
549	0.159
550	0.158
550	0.158
551	0.156
551	0.155
551	0.155
552	0.155
552	0.155
553	0.155
553	0.156
554	0.156
554	0.155
555	0.154
555	0.153
556	0.151
556	0.15
556	0.148
557	0.147
557	0.146
558	0.145
558	0.144
559	0.143
559	0.143
560	0.144
560	0.143
560	0.144
561	0.145
561	0.146
562	0.146
562	0.145
563	0.144
563	0.143
564	0.141
564	0.139
564	0.138
565	0.137
565	0.137
566	0.137
566	0.136
567	0.137
567	0.139
568	0.141
568	0.143
568	0.146
569	0.149
569	0.151
570	0.153
570	0.153
571	0.155
571	0.156
572	0.157
572	0.158
573	0.158
573	0.158
573	0.157
574	0.157
574	0.157
575	0.157
575	0.159
576	0.16
576	0.16
577	0.159
577	0.158
577	0.158
578	0.158
578	0.158
579	0.159
579	0.161
580	0.161
580	0.158
581	0.155
581	0.153
581	0.152
582	0.152
582	0.152
583	0.153
583	0.152
584	0.149
584	0.145
585	0.143
585	0.143
585	0.144
586	0.144
586	0.144
587	0.142
587	0.14
588	0.138
588	0.136
589	0.135
589	0.135
590	0.134
590	0.134
590	0.135
591	0.136
591	0.136
592	0.136
592	0.135
593	0.135
593	0.135
594	0.134
594	0.133
594	0.131
595	0.131
595	0.129
596	0.127
596	0.128
597	0.131
597	0.133
598	0.134
598	0.135
598	0.136
599	0.137
599	0.137
600	0.136
600	0.135
601	0.134
601	0.132
602	0.13
602	0.129
602	0.127
603	0.126
603	0.127
604	0.128
604	0.129
605	0.131
605	0.133
606	0.134
606	0.133
606	0.132
607	0.131
607	0.131
608	0.13
608	0.127
609	0.125
609	0.125
610	0.123
610	0.121
610	0.12
611	0.121
611	0.123
612	0.124
612	0.126
613	0.127
613	0.129
614	0.128
614	0.127
614	0.126
615	0.125
615	0.123
616	0.122
616	0.12
617	0.119
617	0.117
618	0.114
618	0.112
618	0.111
619	0.111
619	0.111
620	0.113
620	0.113
621	0.113
621	0.114
622	0.113
622	0.114
622	0.114
623	0.113
623	0.114
624	0.114
624	0.113
625	0.112
625	0.112
626	0.111
626	0.11
626	0.11
627	0.111
627	0.11
628	0.111
628	0.111
629	0.11
629	0.11
630	0.109
630	0.107
630	0.107
631	0.106
631	0.106
632	0.105
632	0.105
633	0.105
633	0.105
634	0.107
634	0.108
634	0.11
635	0.112
635	0.113
636	0.114
636	0.115
637	0.116
637	0.116
638	0.116
638	0.117
638	0.118
639	0.117
639	0.117
640	0.117
640	0.118
641	0.119
641	0.12
642	0.121
642	0.123
642	0.124
643	0.125
643	0.126
644	0.127
644	0.129
645	0.13
645	0.131
646	0.133
646	0.136
646	0.138
647	0.141
647	0.144
648	0.146
648	0.147
649	0.149
649	0.151
650	0.154
650	0.156
650	0.158
651	0.159
651	0.161
652	0.161
652	0.163
653	0.165
653	0.174
653	0.195
654	0.156
654	0.128
655	0.129
655	0.131
656	0.132
656	0.133
657	0.134
657	0.135
657	0.136
658	0.132
658	0.114
659	0.144
659	0.185
660	0.191
660	0.192
661	0.194
661	0.196
661	0.198
662	0.201
662	0.204
663	0.207
663	0.21
664	0.213
664	0.215
665	0.217
665	0.22
665	0.221
666	0.223
666	0.225
667	0.226
667	0.228
668	0.229
668	0.231
669	0.233
669	0.236
669	0.24
670	0.244
670	0.247
671	0.249
671	0.251
672	0.252
672	0.254
672	0.256
673	0.257
673	0.258
674	0.259
674	0.259
675	0.259
675	0.259
676	0.261
676	0.263
676	0.264
677	0.266
677	0.268
678	0.269
678	0.27
679	0.271
679	0.272
680	0.274
680	0.275
680	0.275
681	0.275
681	0.277
682	0.278
682	0.278
683	0.28
683	0.282
684	0.284
684	0.284
684	0.285
685	0.285
685	0.287
686	0.288
686	0.289
687	0.289
687	0.289
687	0.289
688	0.288
688	0.288
689	0.288
689	0.29
690	0.29
690	0.289
691	0.289
691	0.289
691	0.288
692	0.288
692	0.287
693	0.286
693	0.287
694	0.286
694	0.284
695	0.285
695	0.287
695	0.288
696	0.287
696	0.287
697	0.286
697	0.285
698	0.284
698	0.283
698	0.282
699	0.281
699	0.279
700	0.276
700	0.275
701	0.275
701	0.274
702	0.273
702	0.272
702	0.271
703	0.27
703	0.269
704	0.268
704	0.268
705	0.268
705	0.268
705	0.267
706	0.266
706	0.265
707	0.264
707	0.263
708	0.261
708	0.26
709	0.259
709	0.258
709	0.255
710	0.252
710	0.251
711	0.25
711	0.249
712	0.248
712	0.247
713	0.246
713	0.245
713	0.243
714	0.241
714	0.24
715	0.238
715	0.237
716	0.235
716	0.234
716	0.232
717	0.231
717	0.23
718	0.228
718	0.225
719	0.224
719	0.223
720	0.221
720	0.219
720	0.218
721	0.215
721	0.213
722	0.211
722	0.21
723	0.209
723	0.208
723	0.207
724	0.206
724	0.205
725	0.203
725	0.201
726	0.2
726	0.199
727	0.197
727	0.196
727	0.195
728	0.193
728	0.192
729	0.192
729	0.192
730	0.191
730	0.189
730	0.188
731	0.187
731	0.186
732	0.184
732	0.183
733	0.18
733	0.178
734	0.175
734	0.173
734	0.171
735	0.17
735	0.168
736	0.166
736	0.164
737	0.164
737	0.164
737	0.164
738	0.162
738	0.16
739	0.158
739	0.156
740	0.153
740	0.151
741	0.149
741	0.146
741	0.142
742	0.136
742	0.133
743	0.13
743	0.128
744	0.126
744	0.125
744	0.123
745	0.122
745	0.12
746	0.118
746	0.118
747	0.117
747	0.117
748	0.117
748	0.117
748	0.116
749	0.115
749	0.115
750	0.115
750	0.114
751	0.114
751	0.114
751	0.115
752	0.114
752	0.113
753	0.112
753	0.112
754	0.111
754	0.111
754	0.111
755	0.111
755	0.112
756	0.111
756	0.108
757	0.107
757	0.106
758	0.105
758	0.104
758	0.103
759	0.102
759	0.098
760	0.095
760	0.092
761	0.089
761	0.088
761	0.086
762	0.084
762	0.083
763	0.083
763	0.08
764	0.077
764	0.074
764	0.072
765	0.069
765	0.066
766	0.065
766	0.064
767	0.063
767	0.059
768	0.054
768	0.051
768	0.05
769	0.048
769	0.047
770	0.045
770	0.043
771	0.04
771	0.035
771	0.031
772	0.028
772	0.024
773	0.02
773	0.015
774	0.01
774	0.005
775	-0
775	-0.006
775	-0.011
776	-0.018
776	-0.024
777	-0.03
777	-0.036
778	-0.043
778	-0.049
778	-0.056
779	-0.06
779	-0.065
780	-0.071
780	-0.079
781	-0.086
781	-0.096
781	-0.104
782	-0.113
782	-0.122
783	-0.13
783	-0.136
784	-0.143
784	-0.149
784	-0.153
785	-0.157
785	-0.16
786	-0.16
786	-0.157
787	-0.152
787	-0.147
788	-0.146
788	-0.147
788	-0.148
789	-0.15
789	-0.149
790	-0.146
790	-0.145
791	-0.146
791	-0.148
791	-0.15
792	-0.145
792	-0.134
793	-0.128
793	-0.124
794	-0.123
794	-0.125
794	-0.129
795	-0.131
795	-0.132
796	-0.132
796	-0.135
797	-0.144
797	-0.155
797	-0.162
798	-0.167
798	-0.17
799	-0.17
799	-0.169
800	-0.169
800	-0.17
801	-0.173
801	-0.174
801	-0.174
802	-0.175
802	-0.177
803	-0.177
803	-0.178
804	-0.177
804	-0.172
804	-0.165
805	-0.162
805	-0.159
806	-0.157
806	-0.156
807	-0.155
807	-0.154
807	-0.154
808	-0.154
808	-0.156
809	-0.161
809	-0.166
810	-0.17
810	-0.173
810	-0.177
811	-0.18
811	-0.18
812	-0.177
812	-0.173
813	-0.173
813	-0.174
813	-0.174
814	-0.175
814	-0.174
815	-0.171
815	-0.167
816	-0.165
816	-0.164
817	-0.168
817	-0.171
817	-0.171
818	-0.17
818	-0.166
819	-0.16
819	-0.157
820	-0.154
820	-0.151
820	-0.146
821	-0.139
821	-0.13
822	-0.121
822	-0.11
823	-0.099
823	-0.091
823	-0.083
824	-0.073
824	-0.063
825	-0.053
825	-0.043
826	-0.035
826	-0.029
826	-0.023
827	-0.017
827	-0.012
828	-0.007
828	-0.003
829	0.001
829	0.004
829	0.005
830	0.007
830	0.009
831	0.013
831	0.016
832	0.019
832	0.021
832	0.024
833	0.027
833	0.029
834	0.031
834	0.034
835	0.036
835	0.037
835	0.039
836	0.04
836	0.042
837	0.043
837	0.044
838	0.045
838	0.046
839	0.047
839	0.048
839	0.049
840	0.049
840	0.05
841	0.051
841	0.052
842	0.053
842	0.054
842	0.054
843	0.055
843	0.055
844	0.056
844	0.057
845	0.058
845	0.059
845	0.06
846	0.061
846	0.062
847	0.062
847	0.063
848	0.063
848	0.064
848	0.064
849	0.064
849	0.065
850	0.065
850	0.065
851	0.065
851	0.066
851	0.067
852	0.067
852	0.068
853	0.069
853	0.069
854	0.07
854	0.07
854	0.071
855	0.071
855	0.07
856	0.07
856	0.07
857	0.071
857	0.07
857	0.071
858	0.071
858	0.071
859	0.071
859	0.071
860	0.072
860	0.072
860	0.073
861	0.073
861	0.073
862	0.073
862	0.072
863	0.072
863	0.071
863	0.071
864	0.07
864	0.07
865	0.07
865	0.071
866	0.071
866	0.071
866	0.073
867	0.074
867	0.075
868	0.077
868	0.079
869	0.08
869	0.081
869	0.082
870	0.082
870	0.082
871	0.082
871	0.081
872	0.081
872	0.079
872	0.078
873	0.077
873	0.075
874	0.074
874	0.073
875	0.073
875	0.073
875	0.073
876	0.073
876	0.073
877	0.074
877	0.074
878	0.075
878	0.076
878	0.077
879	0.078
879	0.079
880	0.079
880	0.079
881	0.079
881	0.079
881	0.079
882	0.079
882	0.078
883	0.077
883	0.076
884	0.075
884	0.075
884	0.074
885	0.074
885	0.074
886	0.074
886	0.075
887	0.074
887	0.074
887	0.074
888	0.074
888	0.074
889	0.074
889	0.074
890	0.074
890	0.073
890	0.072
891	0.071
891	0.071
892	0.07
892	0.069
893	0.068
893	0.068
893	0.067
894	0.067
894	0.066
895	0.066
895	0.065
895	0.065
896	0.065
896	0.065
897	0.065
897	0.065
898	0.065
898	0.065
898	0.065
899	0.065
899	0.066
900	0.067
900	0.067
901	0.068
901	0.069
901	0.07
902	0.071
902	0.071
903	0.072
903	0.072
904	0.072
904	0.072
904	0.072
905	0.073
905	0.073
906	0.073
906	0.073
907	0.073
907	0.074
907	0.074
908	0.075
908	0.075
909	0.076
909	0.077
910	0.078
910	0.079
910	0.08
911	0.081
911	0.082
912	0.083
912	0.084
913	0.085
913	0.085
913	0.085
914	0.085
914	0.084
915	0.083
915	0.082
916	0.08
916	0.079
916	0.077
917	0.075
917	0.073
918	0.072
918	0.071
918	0.07
919	0.069
919	0.069
920	0.069
920	0.069
921	0.069
921	0.07
921	0.07
922	0.071
922	0.071
923	0.072
923	0.072
924	0.072
924	0.072
924	0.072
925	0.071
925	0.071
926	0.071
926	0.071
927	0.07
927	0.07
927	0.07
928	0.069
928	0.069
929	0.068
929	0.067
930	0.067
930	0.066
930	0.065
931	0.064
931	0.063
932	0.063
932	0.061
933	0.061
933	0.06
933	0.059
934	0.058
934	0.058
935	0.057
935	0.057
935	0.057
936	0.057
936	0.058
937	0.058
937	0.059
938	0.059
938	0.06
938	0.061
939	0.062
939	0.063
940	0.063
940	0.064
941	0.065
941	0.066
941	0.067
942	0.068
942	0.069
943	0.069
943	0.069
944	0.069
944	0.069
944	0.069
945	0.069
945	0.069
946	0.069
946	0.068
946	0.068
947	0.068
947	0.067
948	0.067
948	0.066
949	0.066
949	0.066
949	0.065
950	0.064
950	0.064
951	0.064
951	0.063
952	0.062
952	0.062
952	0.062
953	0.063
953	0.063
954	0.063
954	0.063
955	0.064
955	0.064
955	0.065
956	0.066
956	0.066
957	0.066
957	0.066
957	0.065
958	0.065
958	0.064
959	0.064
959	0.063
960	0.062
960	0.06
960	0.059
961	0.058
961	0.057
962	0.056
962	0.055
963	0.055
963	0.054
963	0.055
964	0.055
964	0.056
965	0.057
965	0.058
966	0.059
966	0.06
966	0.062
967	0.063
967	0.063
968	0.063
968	0.064
968	0.064
969	0.064
969	0.063
970	0.063
970	0.062
971	0.061
971	0.06
971	0.06
972	0.059
972	0.059
973	0.059
973	0.058
974	0.057
974	0.057
974	0.057
975	0.056
975	0.056
976	0.056
976	0.055
976	0.054
977	0.053
977	0.052
978	0.051
978	0.05
979	0.049
979	0.049
979	0.049
980	0.049
980	0.049
981	0.049
981	0.049
982	0.05
982	0.051
982	0.053
983	0.054
983	0.055
984	0.056
984	0.057
984	0.058
985	0.059
985	0.059
986	0.059
986	0.059
987	0.06
987	0.06
987	0.061
988	0.061
988	0.062
989	0.063
989	0.063
990	0.064
990	0.065
990	0.067
991	0.068
991	0.069
992	0.07
992	0.071
992	0.072
993	0.072
993	0.072
994	0.072
994	0.072
995	0.071
995	0.071
995	0.069
996	0.069
996	0.067
997	0.066
997	0.065
997	0.064
998	0.063
998	0.062
999	0.062
999	0.061
1000	0.061
1000	0.06
1000	0.06
1001	0.06
1001	0.06
1002	0.06
1002	0.06
1003	0.06
1003	0.06
1003	0.06
1004	0.06
1004	0.06
1005	0.06
1005	0.059
1005	0.059
1006	0.058
1006	0.057
1007	0.056
1007	0.055
1008	0.054
1008	0.053
1008	0.053
1009	0.052
1009	0.051
1010	0.051
1010	0.05
1010	0.049
1011	0.048
1011	0.048
1012	0.047
1012	0.046
1013	0.045
1013	0.044
1013	0.043
1014	0.042
1014	0.041
1015	0.041
1015	0.04
1016	0.04
1016	0.04
1016	0.04
1017	0.04
1017	0.041
1018	0.042
1018	0.042
1018	0.043
1019	0.044
1019	0.045
1020	0.045
1020	0.046
1021	0.046
1021	0.046
1021	0.046
1022	0.046
1022	0.046
1023	0.046
1023	0.046
1023	0.045
1024	0.045
1024	0.044
1025	0.043
1025	0.042
1026	0.041
1026	0.04
1026	0.039
1027	0.038
1027	0.038
1028	0.037
1028	0.037
1028	0.036
1029	0.036
1029	0.036
1030	0.036
1030	0.036
1031	0.037
1031	0.037
1031	0.038
1032	0.038
1032	0.039
1033	0.039
1033	0.039
1033	0.039
1034	0.039
1034	0.039
1035	0.039
1035	0.039
1036	0.038
1036	0.038
1036	0.038
1037	0.039
1037	0.039
1038	0.039
1038	0.04
1039	0.041
1039	0.042
1039	0.042
1040	0.043
1040	0.043
1041	0.044
1041	0.043
1041	0.043
1042	0.043
1042	0.043
1043	0.043
1043	0.042
1044	0.042
1044	0.042
1044	0.042
1045	0.042
1045	0.042
1046	0.041
1046	0.042
1046	0.042
1047	0.042
1047	0.043
1048	0.043
1048	0.043
1049	0.043
1049	0.043
1049	0.042
1050	0.042
1050	0.041
1051	0.041
1051	0.04
1051	0.04
1052	0.039
1052	0.039
1053	0.038
1053	0.038
1053	0.038
1054	0.038
1054	0.039
1055	0.039
1055	0.039
1056	0.039
1056	0.038
1056	0.038
1057	0.038
1057	0.038
1058	0.038
1058	0.037
1058	0.038
1059	0.038
1059	0.038
1060	0.039
1060	0.04
1061	0.041
1061	0.043
1061	0.044
1062	0.044
1062	0.045
1063	0.047
1063	0.047
1063	0.049
1064	0.05
1064	0.051
1065	0.052
1065	0.053
1066	0.054
1066	0.055
1066	0.057
1067	0.058
1067	0.059
1068	0.059
1068	0.06
1068	0.061
1069	0.061
1069	0.06
1070	0.061
1070	0.061
1071	0.061
1071	0.062
1071	0.062
1072	0.063
1072	0.064
1073	0.065
1073	0.066
1073	0.068
1074	0.069
1074	0.071
1075	0.071
1075	0.072
1076	0.072
1076	0.074
1076	0.074
1077	0.074
1077	0.075
1078	0.075
1078	0.077
1078	0.079
1079	0.08
1079	0.082
1080	0.083
1080	0.085
1080	0.086
1081	0.088
1081	0.09
1082	0.092
1082	0.093
1083	0.095
1083	0.096
1083	0.099
1084	0.101
1084	0.104
1085	0.107
1085	0.11
1085	0.114
1086	0.116
1086	0.118
1087	0.122
1087	0.124
1088	0.126
1088	0.129
1088	0.132
1089	0.134
1089	0.138
1090	0.14
1090	0.145
1090	0.149
1091	0.154
1091	0.161
1092	0.168
1092	0.177
1092	0.184
1093	0.191
1093	0.202
1094	0.211
1094	0.222
1095	0.231
1095	0.242
1095	0.255
1096	0.268
1096	0.282
1097	0.295
1097	0.312
1097	0.329
1098	0.346
1098	0.366
1099	0.39
1099	0.416
1100	0.446
1100	0.479
1100	0.514
1101	0.56
1101	0.611
1102	0.678
1102	0.756
1102	0.866
1103	1.019
1103	1.264
1104	2.182
1104	-0
1104	-0
1105	-0
1105	-0
1106	-0
1106	-0
1107	-0
1107	-0
1107	-0
1108	-0
1108	-0
1109	-0
1109	-0
1109	-0
1110	-0
1110	-0
1111	-0
1111	-0
