Data from 15c-2a-1h-fridge_Absorbance__251__05619.txt Node

Date: Wed Jan 17 16:18:41 CET 2024
User: Marek
Spectrometer: MAYP115816
Trigger mode: 0
Integration Time (sec): 2.000000E-1
Scans to average: 10
Electric dark correction enabled: true
Nonlinearity correction enabled: true
Boxcar width: 5
XAxis mode: Wavelengths
Number of Pixels in Spectrum: 2068
>>>>>Begin Spectral Data<<<<<
199	-1.658
199	-1.519
200	-1.36
200	-1.236
201	-1.161
201	-1.113
202	-1.043
202	-0.992
203	-0.947
203	-0.907
204	-0.883
204	-0.859
205	-0.836
205	-0.826
205	-0.824
206	-0.823
206	-0.82
207	-0.818
207	-0.814
208	-0.812
208	-0.812
209	-0.807
209	-0.805
210	-0.805
210	-0.806
211	-0.804
211	-0.803
212	-0.804
212	-0.804
213	-0.803
213	-0.802
213	-0.801
214	-0.8
214	-0.8
215	-0.799
215	-0.798
216	-0.797
216	-0.795
217	-0.79
217	-0.789
218	-0.788
218	-0.785
219	-0.781
219	-0.781
220	-0.777
220	-0.774
221	-0.77
221	-0.766
221	-0.761
222	-0.758
222	-0.753
223	-0.747
223	-0.743
224	-0.739
224	-0.731
225	-0.722
225	-0.714
226	-0.705
226	-0.693
227	-0.68
227	-0.667
228	-0.652
228	-0.634
229	-0.612
229	-0.587
229	-0.559
230	-0.529
230	-0.498
231	-0.462
231	-0.426
232	-0.388
232	-0.346
233	-0.301
233	-0.256
234	-0.212
234	-0.168
235	-0.125
235	-0.083
236	-0.042
236	-0.003
236	0.035
237	0.07
237	0.103
238	0.133
238	0.162
239	0.189
239	0.212
240	0.234
240	0.254
241	0.272
241	0.288
242	0.303
242	0.316
243	0.328
243	0.339
243	0.349
244	0.358
244	0.366
245	0.373
245	0.38
246	0.386
246	0.392
247	0.397
247	0.402
248	0.406
248	0.41
249	0.414
249	0.417
250	0.42
250	0.424
250	0.427
251	0.43
251	0.432
252	0.435
252	0.437
253	0.439
253	0.44
254	0.442
254	0.444
255	0.445
255	0.447
256	0.448
256	0.449
257	0.449
257	0.45
258	0.451
258	0.451
258	0.451
259	0.452
259	0.451
260	0.451
260	0.451
261	0.45
261	0.45
262	0.45
262	0.449
263	0.449
263	0.448
264	0.448
264	0.447
265	0.446
265	0.445
265	0.444
266	0.443
266	0.442
267	0.44
267	0.439
268	0.437
268	0.436
269	0.434
269	0.432
270	0.43
270	0.428
271	0.426
271	0.424
272	0.422
272	0.42
272	0.418
273	0.416
273	0.414
274	0.412
274	0.41
275	0.408
275	0.406
276	0.404
276	0.402
277	0.4
277	0.398
278	0.396
278	0.394
278	0.391
279	0.387
279	0.384
280	0.382
280	0.379
281	0.377
281	0.374
282	0.372
282	0.369
283	0.367
283	0.365
284	0.364
284	0.362
285	0.361
285	0.359
285	0.357
286	0.356
286	0.354
287	0.353
287	0.351
288	0.349
288	0.348
289	0.346
289	0.345
290	0.343
290	0.341
291	0.34
291	0.338
292	0.337
292	0.335
292	0.334
293	0.332
293	0.331
294	0.33
294	0.329
295	0.327
295	0.326
296	0.325
296	0.324
297	0.323
297	0.322
298	0.321
298	0.32
298	0.319
299	0.318
299	0.317
300	0.316
300	0.315
301	0.315
301	0.314
302	0.313
302	0.312
303	0.311
303	0.31
304	0.309
304	0.308
305	0.307
305	0.306
305	0.305
306	0.304
306	0.304
307	0.303
307	0.302
308	0.301
308	0.3
309	0.299
309	0.298
310	0.297
310	0.296
311	0.296
311	0.295
311	0.294
312	0.293
312	0.292
313	0.291
313	0.29
314	0.289
314	0.289
315	0.288
315	0.287
316	0.286
316	0.285
317	0.284
317	0.284
318	0.283
318	0.282
318	0.281
319	0.28
319	0.279
320	0.278
320	0.277
321	0.277
321	0.276
322	0.275
322	0.274
323	0.273
323	0.272
324	0.271
324	0.271
324	0.27
325	0.269
325	0.268
326	0.267
326	0.266
327	0.265
327	0.265
328	0.264
328	0.263
329	0.262
329	0.261
330	0.261
330	0.26
330	0.259
331	0.258
331	0.257
332	0.257
332	0.256
333	0.255
333	0.254
334	0.253
334	0.253
335	0.252
335	0.251
336	0.25
336	0.249
336	0.249
337	0.248
337	0.247
338	0.247
338	0.246
339	0.245
339	0.245
340	0.244
340	0.243
341	0.243
341	0.242
342	0.242
342	0.241
342	0.241
343	0.24
343	0.239
344	0.239
344	0.238
345	0.238
345	0.237
346	0.237
346	0.236
347	0.236
347	0.235
348	0.235
348	0.234
348	0.234
349	0.233
349	0.233
350	0.232
350	0.232
351	0.231
351	0.231
352	0.23
352	0.23
353	0.229
353	0.229
354	0.228
354	0.228
354	0.227
355	0.226
355	0.226
356	0.226
356	0.225
357	0.224
357	0.224
358	0.223
358	0.223
359	0.224
359	0.224
360	0.224
360	0.224
360	0.224
361	0.224
361	0.224
362	0.225
362	0.225
363	0.225
363	0.225
364	0.224
364	0.224
365	0.224
365	0.223
366	0.223
366	0.223
366	0.222
367	0.222
367	0.222
368	0.222
368	0.221
369	0.221
369	0.221
370	0.221
370	0.22
371	0.22
371	0.22
372	0.22
372	0.219
372	0.219
373	0.219
373	0.219
374	0.219
374	0.219
375	0.218
375	0.218
376	0.218
376	0.218
377	0.218
377	0.218
378	0.218
378	0.218
378	0.218
379	0.218
379	0.218
380	0.217
380	0.217
381	0.217
381	0.217
382	0.217
382	0.216
383	0.216
383	0.216
383	0.215
384	0.215
384	0.215
385	0.214
385	0.214
386	0.214
386	0.214
387	0.214
387	0.214
388	0.213
388	0.213
389	0.213
389	0.213
389	0.213
390	0.213
390	0.214
391	0.214
391	0.214
392	0.214
392	0.213
393	0.213
393	0.213
394	0.213
394	0.213
394	0.213
395	0.213
395	0.212
396	0.212
396	0.212
397	0.212
397	0.211
398	0.211
398	0.211
399	0.211
399	0.211
400	0.211
400	0.21
400	0.21
401	0.209
401	0.209
402	0.208
402	0.208
403	0.208
403	0.208
404	0.208
404	0.207
405	0.207
405	0.207
405	0.207
406	0.207
406	0.207
407	0.206
407	0.206
408	0.206
408	0.205
409	0.205
409	0.205
410	0.205
410	0.205
411	0.205
411	0.205
411	0.204
412	0.204
412	0.204
413	0.204
413	0.203
414	0.203
414	0.203
415	0.203
415	0.202
416	0.201
416	0.201
416	0.201
417	0.201
417	0.2
418	0.2
418	0.201
419	0.201
419	0.201
420	0.202
420	0.202
421	0.203
421	0.203
421	0.203
422	0.203
422	0.204
423	0.204
423	0.203
424	0.203
424	0.202
425	0.202
425	0.202
426	0.202
426	0.201
427	0.201
427	0.201
427	0.201
428	0.202
428	0.202
429	0.202
429	0.202
430	0.202
430	0.202
431	0.202
431	0.201
432	0.201
432	0.201
432	0.2
433	0.2
433	0.2
434	0.199
434	0.2
435	0.2
435	0.199
436	0.199
436	0.2
437	0.2
437	0.2
437	0.199
438	0.199
438	0.199
439	0.199
439	0.199
440	0.198
440	0.199
441	0.199
441	0.199
442	0.199
442	0.198
442	0.199
443	0.199
443	0.199
444	0.199
444	0.199
445	0.199
445	0.2
446	0.2
446	0.2
447	0.199
447	0.199
447	0.199
448	0.199
448	0.199
449	0.199
449	0.199
450	0.199
450	0.199
451	0.199
451	0.199
452	0.199
452	0.199
452	0.199
453	0.199
453	0.199
454	0.199
454	0.199
455	0.199
455	0.199
456	0.199
456	0.199
457	0.199
457	0.199
458	0.199
458	0.199
458	0.199
459	0.199
459	0.199
460	0.199
460	0.198
461	0.198
461	0.198
462	0.198
462	0.199
463	0.199
463	0.2
463	0.2
464	0.2
464	0.2
465	0.2
465	0.2
466	0.2
466	0.201
467	0.201
467	0.201
467	0.2
468	0.2
468	0.199
469	0.199
469	0.199
470	0.199
470	0.199
471	0.199
471	0.199
472	0.2
472	0.2
472	0.201
473	0.202
473	0.203
474	0.203
474	0.204
475	0.205
475	0.206
476	0.206
476	0.207
477	0.207
477	0.208
477	0.208
478	0.208
478	0.209
479	0.209
479	0.21
480	0.211
480	0.212
481	0.213
481	0.213
482	0.215
482	0.216
482	0.217
483	0.219
483	0.221
484	0.223
484	0.224
485	0.225
485	0.226
486	0.227
486	0.228
487	0.228
487	0.229
487	0.23
488	0.23
488	0.23
489	0.23
489	0.231
490	0.232
490	0.233
491	0.234
491	0.236
492	0.237
492	0.238
492	0.238
493	0.24
493	0.241
494	0.243
494	0.245
495	0.247
495	0.249
496	0.25
496	0.252
496	0.254
497	0.256
497	0.258
498	0.259
498	0.26
499	0.262
499	0.263
500	0.265
500	0.267
501	0.268
501	0.27
501	0.271
502	0.273
502	0.275
503	0.277
503	0.279
504	0.28
504	0.281
505	0.282
505	0.284
506	0.285
506	0.287
506	0.288
507	0.289
507	0.29
508	0.292
508	0.294
509	0.295
509	0.297
510	0.299
510	0.3
511	0.301
511	0.302
511	0.303
512	0.304
512	0.305
513	0.306
513	0.306
514	0.307
514	0.308
515	0.308
515	0.309
515	0.309
516	0.309
516	0.31
517	0.311
517	0.312
518	0.312
518	0.312
519	0.312
519	0.312
520	0.312
520	0.312
520	0.312
521	0.311
521	0.309
522	0.308
522	0.307
523	0.306
523	0.306
524	0.306
524	0.306
524	0.306
525	0.306
525	0.307
526	0.308
526	0.309
527	0.31
527	0.311
528	0.311
528	0.311
529	0.311
529	0.311
529	0.311
530	0.31
530	0.309
531	0.309
531	0.308
532	0.307
532	0.307
533	0.306
533	0.305
533	0.304
534	0.303
534	0.301
535	0.3
535	0.299
536	0.298
536	0.296
537	0.295
537	0.294
538	0.292
538	0.29
538	0.288
539	0.286
539	0.285
540	0.283
540	0.28
541	0.278
541	0.275
542	0.273
542	0.271
542	0.269
543	0.267
543	0.265
544	0.262
544	0.26
545	0.259
545	0.258
546	0.256
546	0.254
547	0.251
547	0.248
547	0.245
548	0.243
548	0.241
549	0.238
549	0.236
550	0.234
550	0.231
551	0.228
551	0.225
551	0.223
552	0.222
552	0.22
553	0.218
553	0.217
554	0.214
554	0.212
555	0.209
555	0.206
556	0.203
556	0.2
556	0.197
557	0.195
557	0.192
558	0.19
558	0.187
559	0.184
559	0.182
560	0.18
560	0.178
560	0.177
561	0.176
561	0.175
562	0.173
562	0.171
563	0.168
563	0.166
564	0.164
564	0.161
564	0.159
565	0.157
565	0.155
566	0.153
566	0.151
567	0.15
567	0.15
568	0.149
568	0.147
568	0.147
569	0.147
569	0.146
570	0.145
570	0.143
571	0.143
571	0.142
572	0.14
572	0.139
573	0.137
573	0.136
573	0.133
574	0.132
574	0.131
575	0.13
575	0.131
576	0.13
576	0.128
577	0.125
577	0.124
577	0.124
578	0.123
578	0.123
579	0.123
579	0.124
580	0.121
580	0.117
581	0.114
581	0.112
581	0.111
582	0.111
582	0.111
583	0.111
583	0.109
584	0.106
584	0.101
585	0.101
585	0.101
585	0.101
586	0.101
586	0.1
587	0.097
587	0.095
588	0.092
588	0.091
589	0.09
589	0.09
590	0.09
590	0.09
590	0.091
591	0.092
591	0.092
592	0.091
592	0.09
593	0.089
593	0.089
594	0.088
594	0.087
594	0.085
595	0.085
595	0.083
596	0.082
596	0.083
597	0.086
597	0.086
598	0.086
598	0.087
598	0.087
599	0.087
599	0.086
600	0.085
600	0.084
601	0.083
601	0.082
602	0.08
602	0.08
602	0.079
603	0.079
603	0.081
604	0.082
604	0.084
605	0.085
605	0.087
606	0.088
606	0.087
606	0.086
607	0.086
607	0.086
608	0.085
608	0.083
609	0.082
609	0.083
610	0.082
610	0.08
610	0.081
611	0.083
611	0.084
612	0.085
612	0.087
613	0.088
613	0.089
614	0.089
614	0.087
614	0.087
615	0.086
615	0.085
616	0.085
616	0.084
617	0.083
617	0.081
618	0.08
618	0.079
618	0.08
619	0.08
619	0.082
620	0.085
620	0.086
621	0.086
621	0.087
622	0.087
622	0.088
622	0.088
623	0.088
623	0.089
624	0.089
624	0.089
625	0.088
625	0.089
626	0.089
626	0.089
626	0.091
627	0.092
627	0.093
628	0.094
628	0.094
629	0.095
629	0.095
630	0.094
630	0.094
630	0.095
631	0.095
631	0.096
632	0.096
632	0.096
633	0.098
633	0.099
634	0.102
634	0.104
634	0.106
635	0.108
635	0.109
636	0.111
636	0.112
637	0.113
637	0.114
638	0.115
638	0.117
638	0.118
639	0.119
639	0.12
640	0.122
640	0.124
641	0.126
641	0.129
642	0.131
642	0.134
642	0.136
643	0.138
643	0.14
644	0.142
644	0.144
645	0.146
645	0.148
646	0.15
646	0.153
646	0.155
647	0.158
647	0.16
648	0.162
648	0.165
649	0.168
649	0.171
650	0.174
650	0.177
650	0.179
651	0.182
651	0.184
652	0.187
652	0.189
653	0.193
653	0.202
653	0.22
654	0.174
654	0.14
655	0.142
655	0.144
656	0.146
656	0.148
657	0.149
657	0.151
657	0.152
658	0.149
658	0.134
659	0.172
659	0.226
660	0.236
660	0.239
661	0.241
661	0.244
661	0.248
662	0.252
662	0.256
663	0.26
663	0.264
664	0.267
664	0.27
665	0.273
665	0.276
665	0.279
666	0.281
666	0.283
667	0.285
667	0.287
668	0.29
668	0.293
669	0.296
669	0.3
669	0.304
670	0.308
670	0.311
671	0.313
671	0.316
672	0.318
672	0.321
672	0.323
673	0.325
673	0.328
674	0.329
674	0.331
675	0.332
675	0.334
676	0.337
676	0.339
676	0.34
677	0.342
677	0.344
678	0.345
678	0.346
679	0.347
679	0.348
680	0.35
680	0.352
680	0.353
681	0.354
681	0.355
682	0.357
682	0.358
683	0.36
683	0.363
684	0.365
684	0.365
684	0.365
685	0.366
685	0.366
686	0.367
686	0.367
687	0.366
687	0.366
687	0.366
688	0.365
688	0.364
689	0.365
689	0.365
690	0.365
690	0.363
691	0.363
691	0.362
691	0.361
692	0.359
692	0.358
693	0.357
693	0.356
694	0.354
694	0.352
695	0.352
695	0.353
695	0.352
696	0.35
696	0.348
697	0.347
697	0.345
698	0.343
698	0.341
698	0.339
699	0.338
699	0.335
700	0.331
700	0.33
701	0.329
701	0.326
702	0.324
702	0.323
702	0.321
703	0.318
703	0.316
704	0.314
704	0.313
705	0.311
705	0.309
705	0.306
706	0.304
706	0.303
707	0.3
707	0.298
708	0.296
708	0.294
709	0.293
709	0.291
709	0.287
710	0.284
710	0.282
711	0.28
711	0.278
712	0.275
712	0.273
713	0.27
713	0.266
713	0.263
714	0.26
714	0.257
715	0.254
715	0.251
716	0.247
716	0.245
716	0.243
717	0.241
717	0.239
718	0.236
718	0.234
719	0.232
719	0.23
720	0.228
720	0.225
720	0.223
721	0.219
721	0.216
722	0.213
722	0.21
723	0.208
723	0.206
723	0.204
724	0.201
724	0.199
725	0.197
725	0.196
726	0.194
726	0.192
727	0.191
727	0.189
727	0.187
728	0.184
728	0.182
729	0.181
729	0.179
730	0.177
730	0.175
730	0.174
731	0.172
731	0.17
732	0.169
732	0.167
733	0.164
733	0.162
734	0.16
734	0.157
734	0.155
735	0.153
735	0.151
736	0.148
736	0.146
737	0.145
737	0.144
737	0.142
738	0.139
738	0.136
739	0.134
739	0.131
740	0.128
740	0.126
741	0.124
741	0.121
741	0.118
742	0.114
742	0.111
743	0.11
743	0.109
744	0.108
744	0.106
744	0.105
745	0.103
745	0.1
746	0.099
746	0.097
747	0.095
747	0.094
748	0.092
748	0.09
748	0.088
749	0.086
749	0.085
750	0.083
750	0.082
751	0.081
751	0.08
751	0.08
752	0.078
752	0.077
753	0.076
753	0.075
754	0.075
754	0.074
754	0.073
755	0.073
755	0.073
756	0.072
756	0.069
757	0.068
757	0.067
758	0.066
758	0.065
758	0.064
759	0.063
759	0.06
760	0.057
760	0.055
761	0.053
761	0.053
761	0.052
762	0.05
762	0.05
763	0.049
763	0.047
764	0.045
764	0.044
764	0.042
765	0.041
765	0.039
766	0.039
766	0.038
767	0.037
767	0.034
768	0.031
768	0.03
768	0.029
769	0.028
769	0.027
770	0.025
770	0.024
771	0.021
771	0.018
771	0.015
772	0.014
772	0.012
773	0.01
773	0.007
774	0.005
774	0.002
775	-0
775	-0.003
775	-0.006
776	-0.009
776	-0.013
777	-0.016
777	-0.019
778	-0.022
778	-0.026
778	-0.029
779	-0.031
779	-0.033
780	-0.037
780	-0.041
781	-0.044
781	-0.049
781	-0.053
782	-0.059
782	-0.065
783	-0.071
783	-0.076
784	-0.083
784	-0.09
784	-0.097
785	-0.104
785	-0.111
786	-0.117
786	-0.121
787	-0.122
787	-0.124
788	-0.13
788	-0.136
788	-0.141
789	-0.146
789	-0.148
790	-0.147
790	-0.149
791	-0.15
791	-0.152
791	-0.155
792	-0.149
792	-0.138
793	-0.133
793	-0.129
794	-0.127
794	-0.129
794	-0.133
795	-0.136
795	-0.136
796	-0.137
796	-0.14
797	-0.149
797	-0.16
797	-0.166
798	-0.171
798	-0.174
799	-0.174
799	-0.174
800	-0.173
800	-0.175
801	-0.177
801	-0.178
801	-0.178
802	-0.18
802	-0.181
803	-0.182
803	-0.182
804	-0.181
804	-0.176
804	-0.17
805	-0.166
805	-0.164
806	-0.162
806	-0.16
807	-0.159
807	-0.159
807	-0.159
808	-0.159
808	-0.16
809	-0.165
809	-0.171
810	-0.175
810	-0.178
810	-0.181
811	-0.184
811	-0.185
812	-0.181
812	-0.178
813	-0.178
813	-0.178
813	-0.179
814	-0.179
814	-0.179
815	-0.175
815	-0.172
816	-0.168
816	-0.165
817	-0.164
817	-0.161
817	-0.154
818	-0.145
818	-0.135
819	-0.124
819	-0.114
820	-0.107
820	-0.098
820	-0.09
821	-0.082
821	-0.074
822	-0.068
822	-0.062
823	-0.057
823	-0.054
823	-0.051
824	-0.047
824	-0.042
825	-0.038
825	-0.034
826	-0.031
826	-0.03
826	-0.028
827	-0.026
827	-0.025
828	-0.024
828	-0.023
829	-0.022
829	-0.021
829	-0.021
830	-0.021
830	-0.02
831	-0.017
831	-0.015
832	-0.014
832	-0.012
832	-0.01
833	-0.009
833	-0.007
834	-0.005
834	-0.004
835	-0.002
835	-0.001
835	0
836	0.002
836	0.003
837	0.004
837	0.005
838	0.005
838	0.006
839	0.007
839	0.007
839	0.007
840	0.008
840	0.008
841	0.009
841	0.009
842	0.01
842	0.01
842	0.011
843	0.012
843	0.012
844	0.013
844	0.013
845	0.014
845	0.015
845	0.016
846	0.016
846	0.016
847	0.016
847	0.016
848	0.016
848	0.016
848	0.015
849	0.015
849	0.014
850	0.013
850	0.012
851	0.012
851	0.012
851	0.011
852	0.01
852	0.011
853	0.011
853	0.01
854	0.01
854	0.01
854	0.009
855	0.009
855	0.008
856	0.007
856	0.006
857	0.006
857	0.005
857	0.005
858	0.005
858	0.004
859	0.004
859	0.004
860	0.004
860	0.004
860	0.004
861	0.005
861	0.005
862	0.005
862	0.005
863	0.004
863	0.004
863	0.004
864	0.004
864	0.004
865	0.004
865	0.005
866	0.005
866	0.005
866	0.006
867	0.006
867	0.007
868	0.009
868	0.01
869	0.011
869	0.011
869	0.012
870	0.012
870	0.012
871	0.012
871	0.012
872	0.012
872	0.011
872	0.01
873	0.009
873	0.008
874	0.007
874	0.007
875	0.007
875	0.007
875	0.007
876	0.008
876	0.009
877	0.01
877	0.012
878	0.013
878	0.014
878	0.016
879	0.016
879	0.016
880	0.016
880	0.016
881	0.015
881	0.015
881	0.014
882	0.013
882	0.012
883	0.01
883	0.009
884	0.008
884	0.007
884	0.007
885	0.007
885	0.007
886	0.007
886	0.007
887	0.007
887	0.008
887	0.008
888	0.008
888	0.008
889	0.008
889	0.009
890	0.009
890	0.009
890	0.009
891	0.009
891	0.008
892	0.008
892	0.007
893	0.007
893	0.006
893	0.006
894	0.006
894	0.005
895	0.004
895	0.004
895	0.003
896	0.003
896	0.003
897	0.003
897	0.002
898	0.002
898	0.002
898	0.002
899	0.002
899	0.003
900	0.003
900	0.004
901	0.006
901	0.007
901	0.008
902	0.01
902	0.011
903	0.011
903	0.012
904	0.013
904	0.013
904	0.013
905	0.013
905	0.013
906	0.013
906	0.013
907	0.013
907	0.014
907	0.014
908	0.014
908	0.015
909	0.015
909	0.015
910	0.016
910	0.016
910	0.016
911	0.017
911	0.017
912	0.018
912	0.018
913	0.018
913	0.018
913	0.018
914	0.018
914	0.017
915	0.016
915	0.016
916	0.015
916	0.013
916	0.012
917	0.011
917	0.01
918	0.01
918	0.009
918	0.009
919	0.009
919	0.009
920	0.01
920	0.011
921	0.011
921	0.011
921	0.012
922	0.012
922	0.013
923	0.014
923	0.014
924	0.015
924	0.015
924	0.015
925	0.014
925	0.014
926	0.013
926	0.012
927	0.011
927	0.009
927	0.008
928	0.007
928	0.005
929	0.004
929	0.004
930	0.003
930	0.003
930	0.003
931	0.003
931	0.003
932	0.003
932	0.002
933	0.002
933	0.002
933	0.001
934	0
934	-0.001
935	-0.002
935	-0.003
935	-0.004
936	-0.005
936	-0.005
937	-0.005
937	-0.006
938	-0.006
938	-0.006
938	-0.005
939	-0.005
939	-0.004
940	-0.003
940	-0.002
941	-0.001
941	0
941	0.002
942	0.003
942	0.004
943	0.005
943	0.006
944	0.007
944	0.007
944	0.007
945	0.007
945	0.007
946	0.007
946	0.007
946	0.006
947	0.006
947	0.005
948	0.005
948	0.004
949	0.004
949	0.003
949	0.003
950	0.003
950	0.003
951	0.003
951	0.002
952	0.002
952	0.002
952	0.002
953	0.002
953	0.002
954	0.002
954	0.002
955	0.002
955	0.002
955	0.002
956	0.003
956	0.003
957	0.003
957	0.003
957	0.002
958	0.002
958	0.001
959	0.001
959	0
960	-0.001
960	-0.002
960	-0.004
961	-0.005
961	-0.006
962	-0.007
962	-0.007
963	-0.007
963	-0.007
963	-0.007
964	-0.006
964	-0.005
965	-0.004
965	-0.002
966	-0.001
966	0
966	0.001
967	0.002
967	0.003
968	0.003
968	0.003
968	0.003
969	0.003
969	0.003
970	0.003
970	0.002
971	0.002
971	0.001
971	0.001
972	0.001
972	0.001
973	0.001
973	0.001
974	0
974	0
974	-0
975	-0
975	-0
976	-0
976	-0.001
976	-0.002
977	-0.003
977	-0.004
978	-0.006
978	-0.007
979	-0.008
979	-0.009
979	-0.011
980	-0.012
980	-0.013
981	-0.013
981	-0.014
982	-0.013
982	-0.013
982	-0.012
983	-0.012
983	-0.011
984	-0.01
984	-0.01
984	-0.009
985	-0.008
985	-0.008
986	-0.008
986	-0.008
987	-0.007
987	-0.006
987	-0.005
988	-0.005
988	-0.004
989	-0.003
989	-0.002
990	-0.001
990	-0
990	0.001
991	0.003
991	0.004
992	0.005
992	0.006
992	0.006
993	0.007
993	0.007
994	0.007
994	0.007
995	0.006
995	0.006
995	0.005
996	0.004
996	0.003
997	0.002
997	0.001
997	0.001
998	-0
998	-0.001
999	-0.002
999	-0.002
1000	-0.003
1000	-0.003
1000	-0.004
1001	-0.004
1001	-0.004
1002	-0.005
1002	-0.005
1003	-0.004
1003	-0.005
1003	-0.005
1004	-0.005
1004	-0.005
1005	-0.005
1005	-0.006
1005	-0.007
1006	-0.008
1006	-0.009
1007	-0.01
1007	-0.011
1008	-0.012
1008	-0.013
1008	-0.014
1009	-0.014
1009	-0.014
1010	-0.014
1010	-0.014
1010	-0.014
1011	-0.014
1011	-0.014
1012	-0.014
1012	-0.014
1013	-0.014
1013	-0.015
1013	-0.016
1014	-0.016
1014	-0.017
1015	-0.017
1015	-0.018
1016	-0.018
1016	-0.019
1016	-0.019
1017	-0.02
1017	-0.02
1018	-0.02
1018	-0.019
1018	-0.019
1019	-0.019
1019	-0.018
1020	-0.018
1020	-0.018
1021	-0.017
1021	-0.017
1021	-0.017
1022	-0.016
1022	-0.016
1023	-0.016
1023	-0.016
1023	-0.016
1024	-0.017
1024	-0.017
1025	-0.018
1025	-0.018
1026	-0.019
1026	-0.02
1026	-0.021
1027	-0.021
1027	-0.022
1028	-0.022
1028	-0.022
1028	-0.022
1029	-0.022
1029	-0.022
1030	-0.022
1030	-0.022
1031	-0.022
1031	-0.022
1031	-0.022
1032	-0.022
1032	-0.022
1033	-0.022
1033	-0.022
1033	-0.022
1034	-0.023
1034	-0.023
1035	-0.024
1035	-0.024
1036	-0.024
1036	-0.025
1036	-0.025
1037	-0.025
1037	-0.025
1038	-0.025
1038	-0.025
1039	-0.024
1039	-0.024
1039	-0.024
1040	-0.024
1040	-0.024
1041	-0.024
1041	-0.024
1041	-0.024
1042	-0.025
1042	-0.025
1043	-0.026
1043	-0.026
1044	-0.027
1044	-0.028
1044	-0.028
1045	-0.029
1045	-0.029
1046	-0.03
1046	-0.03
1046	-0.03
1047	-0.03
1047	-0.029
1048	-0.029
1048	-0.029
1049	-0.028
1049	-0.029
1049	-0.029
1050	-0.029
1050	-0.029
1051	-0.029
1051	-0.03
1051	-0.03
1052	-0.03
1052	-0.031
1053	-0.032
1053	-0.032
1053	-0.032
1054	-0.032
1054	-0.032
1055	-0.032
1055	-0.033
1056	-0.033
1056	-0.034
1056	-0.035
1057	-0.036
1057	-0.036
1058	-0.036
1058	-0.037
1058	-0.037
1059	-0.038
1059	-0.038
1060	-0.038
1060	-0.037
1061	-0.036
1061	-0.035
1061	-0.035
1062	-0.035
1062	-0.034
1063	-0.034
1063	-0.034
1063	-0.033
1064	-0.033
1064	-0.032
1065	-0.032
1065	-0.032
1066	-0.032
1066	-0.031
1066	-0.03
1067	-0.03
1067	-0.029
1068	-0.03
1068	-0.029
1068	-0.029
1069	-0.03
1069	-0.03
1070	-0.031
1070	-0.031
1071	-0.031
1071	-0.031
1071	-0.032
1072	-0.032
1072	-0.032
1073	-0.033
1073	-0.033
1073	-0.033
1074	-0.032
1074	-0.032
1075	-0.033
1075	-0.033
1076	-0.034
1076	-0.033
1076	-0.034
1077	-0.034
1077	-0.034
1078	-0.034
1078	-0.034
1078	-0.033
1079	-0.033
1079	-0.032
1080	-0.031
1080	-0.03
1080	-0.03
1081	-0.029
1081	-0.028
1082	-0.027
1082	-0.027
1083	-0.026
1083	-0.026
1083	-0.026
1084	-0.026
1084	-0.025
1085	-0.024
1085	-0.023
1085	-0.022
1086	-0.021
1086	-0.021
1087	-0.021
1087	-0.02
1088	-0.021
1088	-0.021
1088	-0.02
1089	-0.021
1089	-0.021
1090	-0.021
1090	-0.021
1090	-0.021
1091	-0.021
1091	-0.02
1092	-0.019
1092	-0.017
1092	-0.015
1093	-0.013
1093	-0.01
1094	-0.007
1094	-0.006
1095	-0.004
1095	-0.003
1095	0.001
1096	0.003
1096	0.005
1097	0.007
1097	0.009
1097	0.01
1098	0.011
1098	0.012
1099	0.014
1099	0.017
1100	0.02
1100	0.023
1100	0.024
1101	0.026
1101	0.03
1102	0.035
1102	0.039
1102	0.045
1103	0.05
1103	0.057
1104	0.063
1104	0.071
1104	0.08
1105	0.09
1105	0.098
1106	0.105
1106	0.116
1107	0.125
1107	0.139
1107	0.155
1108	0.217
1108	0.307
1109	0.451
1109	0.768
1109	1.259
1110	-0
1110	-0
1111	-0
1111	-0
