Data from 15c-2a-1h-fridge_Absorbance__7__05375.txt Node

Date: Wed Jan 17 16:10:33 CET 2024
User: Marek
Spectrometer: MAYP115816
Trigger mode: 0
Integration Time (sec): 2.000000E-1
Scans to average: 10
Electric dark correction enabled: true
Nonlinearity correction enabled: true
Boxcar width: 5
XAxis mode: Wavelengths
Number of Pixels in Spectrum: 2068
>>>>>Begin Spectral Data<<<<<
199	-2.218
199	-2.07
200	-1.904
200	-1.775
201	-1.694
201	-1.643
202	-1.565
202	-1.506
203	-1.453
203	-1.406
204	-1.378
204	-1.353
205	-1.328
205	-1.318
205	-1.315
206	-1.314
206	-1.309
207	-1.306
207	-1.302
208	-1.299
208	-1.299
209	-1.294
209	-1.291
210	-1.29
210	-1.29
211	-1.288
211	-1.287
212	-1.287
212	-1.285
213	-1.284
213	-1.283
213	-1.282
214	-1.281
214	-1.281
215	-1.279
215	-1.277
216	-1.277
216	-1.274
217	-1.269
217	-1.267
218	-1.266
218	-1.262
219	-1.259
219	-1.258
220	-1.254
220	-1.25
221	-1.245
221	-1.241
221	-1.237
222	-1.233
222	-1.228
223	-1.222
223	-1.218
224	-1.212
224	-1.204
225	-1.195
225	-1.188
226	-1.178
226	-1.166
227	-1.152
227	-1.138
228	-1.122
228	-1.103
229	-1.081
229	-1.056
229	-1.028
230	-0.998
230	-0.965
231	-0.928
231	-0.89
232	-0.849
232	-0.806
233	-0.759
233	-0.711
234	-0.663
234	-0.614
235	-0.567
235	-0.519
236	-0.473
236	-0.428
236	-0.385
237	-0.343
237	-0.304
238	-0.267
238	-0.232
239	-0.2
239	-0.169
240	-0.141
240	-0.115
241	-0.09
241	-0.068
242	-0.048
242	-0.029
243	-0.012
243	0.003
243	0.017
244	0.03
244	0.042
245	0.052
245	0.062
246	0.072
246	0.08
247	0.088
247	0.095
248	0.102
248	0.108
249	0.114
249	0.119
250	0.124
250	0.129
250	0.134
251	0.138
251	0.142
252	0.146
252	0.149
253	0.152
253	0.155
254	0.157
254	0.16
255	0.162
255	0.165
256	0.167
256	0.168
257	0.17
257	0.171
258	0.173
258	0.174
258	0.175
259	0.176
259	0.177
260	0.178
260	0.178
261	0.179
261	0.179
262	0.18
262	0.18
263	0.18
263	0.181
264	0.181
264	0.181
265	0.181
265	0.181
265	0.181
266	0.181
266	0.18
267	0.18
267	0.18
268	0.179
268	0.179
269	0.178
269	0.178
270	0.177
270	0.176
271	0.175
271	0.175
272	0.174
272	0.173
272	0.173
273	0.172
273	0.171
274	0.171
274	0.17
275	0.17
275	0.169
276	0.169
276	0.168
277	0.168
277	0.167
278	0.166
278	0.165
278	0.164
279	0.162
279	0.161
280	0.16
280	0.159
281	0.158
281	0.157
282	0.157
282	0.156
283	0.156
283	0.156
284	0.156
284	0.156
285	0.156
285	0.156
285	0.156
286	0.156
286	0.155
287	0.155
287	0.155
288	0.154
288	0.154
289	0.154
289	0.154
290	0.153
290	0.153
291	0.153
291	0.152
292	0.152
292	0.152
292	0.152
293	0.151
293	0.151
294	0.151
294	0.151
295	0.151
295	0.151
296	0.151
296	0.151
297	0.151
297	0.151
298	0.151
298	0.151
298	0.15
299	0.151
299	0.151
300	0.15
300	0.15
301	0.15
301	0.15
302	0.15
302	0.15
303	0.15
303	0.15
304	0.15
304	0.15
305	0.15
305	0.15
305	0.149
306	0.149
306	0.149
307	0.149
307	0.149
308	0.148
308	0.148
309	0.148
309	0.148
310	0.147
310	0.147
311	0.147
311	0.147
311	0.147
312	0.147
312	0.146
313	0.146
313	0.146
314	0.145
314	0.145
315	0.145
315	0.144
316	0.144
316	0.143
317	0.143
317	0.143
318	0.142
318	0.142
318	0.141
319	0.141
319	0.141
320	0.14
320	0.14
321	0.139
321	0.139
322	0.139
322	0.138
323	0.138
323	0.137
324	0.137
324	0.136
324	0.136
325	0.135
325	0.135
326	0.134
326	0.134
327	0.133
327	0.133
328	0.132
328	0.132
329	0.132
329	0.131
330	0.131
330	0.13
330	0.13
331	0.129
331	0.129
332	0.128
332	0.128
333	0.127
333	0.127
334	0.126
334	0.126
335	0.125
335	0.125
336	0.124
336	0.124
336	0.123
337	0.123
337	0.122
338	0.122
338	0.122
339	0.121
339	0.121
340	0.12
340	0.12
341	0.119
341	0.119
342	0.118
342	0.118
342	0.117
343	0.117
343	0.116
344	0.116
344	0.115
345	0.115
345	0.114
346	0.114
346	0.113
347	0.113
347	0.112
348	0.112
348	0.111
348	0.11
349	0.109
349	0.109
350	0.108
350	0.107
351	0.107
351	0.106
352	0.105
352	0.105
353	0.104
353	0.103
354	0.103
354	0.102
354	0.101
355	0.1
355	0.099
356	0.098
356	0.098
357	0.098
357	0.097
358	0.097
358	0.097
359	0.098
359	0.098
360	0.099
360	0.1
360	0.1
361	0.101
361	0.101
362	0.101
362	0.101
363	0.101
363	0.101
364	0.101
364	0.1
365	0.1
365	0.1
366	0.1
366	0.1
366	0.099
367	0.099
367	0.099
368	0.099
368	0.099
369	0.098
369	0.098
370	0.098
370	0.097
371	0.097
371	0.097
372	0.097
372	0.097
372	0.096
373	0.096
373	0.096
374	0.097
374	0.097
375	0.097
375	0.097
376	0.097
376	0.097
377	0.098
377	0.098
378	0.098
378	0.099
378	0.099
379	0.099
379	0.099
380	0.1
380	0.1
381	0.1
381	0.1
382	0.1
382	0.1
383	0.099
383	0.099
383	0.099
384	0.099
384	0.098
385	0.098
385	0.098
386	0.098
386	0.099
387	0.099
387	0.099
388	0.099
388	0.099
389	0.099
389	0.099
389	0.099
390	0.1
390	0.1
391	0.101
391	0.101
392	0.101
392	0.101
393	0.102
393	0.102
394	0.102
394	0.102
394	0.102
395	0.102
395	0.101
396	0.101
396	0.101
397	0.102
397	0.102
398	0.102
398	0.102
399	0.102
399	0.102
400	0.102
400	0.102
400	0.102
401	0.101
401	0.1
402	0.099
402	0.098
403	0.098
403	0.098
404	0.099
404	0.098
405	0.098
405	0.098
405	0.097
406	0.097
406	0.097
407	0.097
407	0.097
408	0.097
408	0.096
409	0.096
409	0.095
410	0.096
410	0.096
411	0.096
411	0.096
411	0.096
412	0.096
412	0.096
413	0.096
413	0.095
414	0.095
414	0.095
415	0.095
415	0.094
416	0.094
416	0.093
416	0.093
417	0.093
417	0.093
418	0.093
418	0.093
419	0.094
419	0.095
420	0.096
420	0.097
421	0.097
421	0.098
421	0.098
422	0.099
422	0.099
423	0.099
423	0.099
424	0.098
424	0.097
425	0.097
425	0.096
426	0.095
426	0.095
427	0.095
427	0.095
427	0.095
428	0.096
428	0.097
429	0.097
429	0.098
430	0.098
430	0.098
431	0.097
431	0.097
432	0.097
432	0.096
432	0.095
433	0.094
433	0.093
434	0.092
434	0.092
435	0.092
435	0.092
436	0.092
436	0.093
437	0.093
437	0.093
437	0.093
438	0.093
438	0.093
439	0.092
439	0.092
440	0.091
440	0.091
441	0.091
441	0.091
442	0.091
442	0.091
442	0.091
443	0.092
443	0.092
444	0.093
444	0.093
445	0.093
445	0.094
446	0.094
446	0.094
447	0.093
447	0.093
447	0.093
448	0.093
448	0.093
449	0.093
449	0.092
450	0.092
450	0.092
451	0.091
451	0.091
452	0.09
452	0.089
452	0.089
453	0.088
453	0.088
454	0.087
454	0.086
455	0.086
455	0.086
456	0.085
456	0.085
457	0.085
457	0.085
458	0.084
458	0.084
458	0.084
459	0.084
459	0.084
460	0.083
460	0.082
461	0.081
461	0.081
462	0.08
462	0.08
463	0.08
463	0.081
463	0.081
464	0.081
464	0.081
465	0.081
465	0.081
466	0.082
466	0.081
467	0.081
467	0.08
467	0.079
468	0.078
468	0.076
469	0.074
469	0.073
470	0.072
470	0.071
471	0.07
471	0.07
472	0.069
472	0.069
472	0.07
473	0.07
473	0.071
474	0.072
474	0.073
475	0.074
475	0.074
476	0.074
476	0.074
477	0.074
477	0.074
477	0.074
478	0.073
478	0.072
479	0.072
479	0.072
480	0.072
480	0.073
481	0.073
481	0.073
482	0.074
482	0.074
482	0.075
483	0.077
483	0.079
484	0.081
484	0.083
485	0.084
485	0.084
486	0.085
486	0.085
487	0.085
487	0.085
487	0.085
488	0.083
488	0.081
489	0.079
489	0.077
490	0.076
490	0.075
491	0.074
491	0.073
492	0.073
492	0.072
492	0.072
493	0.072
493	0.072
494	0.073
494	0.074
495	0.075
495	0.075
496	0.075
496	0.076
496	0.076
497	0.077
497	0.077
498	0.077
498	0.076
499	0.076
499	0.075
500	0.075
500	0.075
501	0.076
501	0.077
501	0.077
502	0.077
502	0.078
503	0.079
503	0.08
504	0.08
504	0.079
505	0.079
505	0.079
506	0.078
506	0.078
506	0.078
507	0.077
507	0.077
508	0.077
508	0.077
509	0.078
509	0.078
510	0.078
510	0.078
511	0.078
511	0.078
511	0.077
512	0.077
512	0.076
513	0.075
513	0.074
514	0.073
514	0.072
515	0.072
515	0.072
515	0.07
516	0.07
516	0.069
517	0.069
517	0.069
518	0.069
518	0.069
519	0.069
519	0.068
520	0.067
520	0.066
520	0.065
521	0.063
521	0.062
522	0.059
522	0.057
523	0.055
523	0.054
524	0.053
524	0.052
524	0.052
525	0.053
525	0.054
526	0.056
526	0.058
527	0.061
527	0.064
528	0.067
528	0.07
529	0.072
529	0.074
529	0.076
530	0.078
530	0.079
531	0.081
531	0.082
532	0.083
532	0.084
533	0.085
533	0.086
533	0.087
534	0.088
534	0.088
535	0.088
535	0.089
536	0.09
536	0.09
537	0.091
537	0.092
538	0.093
538	0.093
538	0.093
539	0.094
539	0.095
540	0.095
540	0.096
541	0.095
541	0.095
542	0.095
542	0.096
542	0.096
543	0.096
543	0.097
544	0.097
544	0.098
545	0.099
545	0.101
546	0.103
546	0.104
547	0.105
547	0.104
547	0.104
548	0.104
548	0.104
549	0.104
549	0.103
550	0.104
550	0.103
551	0.103
551	0.103
551	0.103
552	0.104
552	0.105
553	0.106
553	0.108
554	0.109
554	0.11
555	0.11
555	0.109
556	0.108
556	0.107
556	0.106
557	0.105
557	0.105
558	0.105
558	0.105
559	0.105
559	0.107
560	0.108
560	0.11
560	0.111
561	0.113
561	0.115
562	0.117
562	0.117
563	0.117
563	0.117
564	0.115
564	0.114
564	0.113
565	0.113
565	0.114
566	0.114
566	0.114
567	0.116
567	0.119
568	0.123
568	0.126
568	0.13
569	0.135
569	0.14
570	0.143
570	0.145
571	0.147
571	0.15
572	0.152
572	0.154
573	0.155
573	0.156
573	0.156
574	0.156
574	0.157
575	0.157
575	0.16
576	0.163
576	0.163
577	0.163
577	0.162
577	0.163
578	0.162
578	0.163
579	0.165
579	0.168
580	0.168
580	0.166
581	0.163
581	0.161
581	0.16
582	0.16
582	0.161
583	0.163
583	0.163
584	0.161
584	0.156
585	0.155
585	0.155
585	0.155
586	0.156
586	0.156
587	0.155
587	0.153
588	0.15
588	0.147
589	0.145
589	0.145
590	0.144
590	0.144
590	0.145
591	0.147
591	0.147
592	0.147
592	0.147
593	0.146
593	0.146
594	0.146
594	0.145
594	0.143
595	0.142
595	0.14
596	0.138
596	0.138
597	0.141
597	0.143
598	0.145
598	0.147
598	0.148
599	0.149
599	0.15
600	0.149
600	0.147
601	0.146
601	0.145
602	0.142
602	0.141
602	0.139
603	0.137
603	0.138
604	0.138
604	0.14
605	0.142
605	0.144
606	0.145
606	0.144
606	0.143
607	0.142
607	0.141
608	0.14
608	0.138
609	0.136
609	0.135
610	0.133
610	0.13
610	0.129
611	0.13
611	0.131
612	0.132
612	0.133
613	0.135
613	0.136
614	0.136
614	0.134
614	0.133
615	0.131
615	0.129
616	0.128
616	0.125
617	0.123
617	0.12
618	0.116
618	0.113
618	0.111
619	0.109
619	0.109
620	0.11
620	0.11
621	0.11
621	0.11
622	0.11
622	0.11
622	0.11
623	0.109
623	0.109
624	0.11
624	0.109
625	0.107
625	0.106
626	0.105
626	0.104
626	0.103
627	0.103
627	0.102
628	0.101
628	0.101
629	0.1
629	0.099
630	0.097
630	0.095
630	0.094
631	0.093
631	0.092
632	0.091
632	0.09
633	0.09
633	0.09
634	0.09
634	0.091
634	0.093
635	0.094
635	0.094
636	0.095
636	0.095
637	0.095
637	0.095
638	0.095
638	0.095
638	0.095
639	0.094
639	0.093
640	0.093
640	0.093
641	0.093
641	0.093
642	0.094
642	0.094
642	0.094
643	0.094
643	0.094
644	0.095
644	0.095
645	0.096
645	0.096
646	0.097
646	0.099
646	0.101
647	0.104
647	0.106
648	0.107
648	0.108
649	0.11
649	0.111
650	0.113
650	0.115
650	0.116
651	0.117
651	0.117
652	0.117
652	0.118
653	0.119
653	0.127
653	0.148
654	0.122
654	0.102
655	0.102
655	0.103
656	0.103
656	0.104
657	0.105
657	0.105
657	0.105
658	0.101
658	0.084
659	0.103
659	0.129
660	0.132
660	0.133
661	0.133
661	0.134
661	0.136
662	0.138
662	0.141
663	0.143
663	0.146
664	0.147
664	0.149
665	0.151
665	0.152
665	0.153
666	0.155
666	0.155
667	0.156
667	0.157
668	0.158
668	0.159
669	0.161
669	0.163
669	0.166
670	0.17
670	0.172
671	0.174
671	0.175
672	0.176
672	0.177
672	0.177
673	0.177
673	0.177
674	0.177
674	0.176
675	0.175
675	0.174
676	0.176
676	0.177
676	0.178
677	0.179
677	0.181
678	0.183
678	0.184
679	0.185
679	0.186
680	0.188
680	0.19
680	0.19
681	0.189
681	0.19
682	0.191
682	0.192
683	0.193
683	0.196
684	0.199
684	0.2
684	0.2
685	0.201
685	0.203
686	0.205
686	0.206
687	0.207
687	0.207
687	0.208
688	0.207
688	0.207
689	0.208
689	0.209
690	0.21
690	0.209
691	0.209
691	0.209
691	0.209
692	0.209
692	0.209
693	0.209
693	0.21
694	0.209
694	0.208
695	0.209
695	0.212
695	0.214
696	0.215
696	0.215
697	0.215
697	0.215
698	0.215
698	0.214
698	0.214
699	0.214
699	0.213
700	0.211
700	0.21
701	0.211
701	0.211
702	0.21
702	0.21
702	0.21
703	0.21
703	0.21
704	0.211
704	0.211
705	0.213
705	0.214
705	0.214
706	0.215
706	0.216
707	0.216
707	0.215
708	0.214
708	0.214
709	0.214
709	0.213
709	0.211
710	0.209
710	0.208
711	0.207
711	0.207
712	0.207
712	0.207
713	0.207
713	0.207
713	0.207
714	0.206
714	0.205
715	0.204
715	0.203
716	0.202
716	0.202
716	0.202
717	0.201
717	0.2
718	0.199
718	0.197
719	0.197
719	0.196
720	0.196
720	0.195
720	0.193
721	0.191
721	0.19
722	0.188
722	0.187
723	0.187
723	0.187
723	0.187
724	0.186
724	0.185
725	0.184
725	0.184
726	0.183
726	0.183
727	0.182
727	0.182
727	0.181
728	0.18
728	0.179
729	0.18
729	0.18
730	0.18
730	0.179
730	0.178
731	0.178
731	0.177
732	0.177
732	0.177
733	0.175
733	0.174
734	0.173
734	0.171
734	0.17
735	0.17
735	0.169
736	0.167
736	0.166
737	0.166
737	0.166
737	0.166
738	0.165
738	0.162
739	0.16
739	0.158
740	0.155
740	0.153
741	0.152
741	0.149
741	0.144
742	0.139
742	0.134
743	0.132
743	0.129
744	0.128
744	0.126
744	0.124
745	0.122
745	0.121
746	0.12
746	0.119
747	0.119
747	0.12
748	0.121
748	0.121
748	0.121
749	0.121
749	0.121
750	0.121
750	0.121
751	0.122
751	0.123
751	0.124
752	0.125
752	0.124
753	0.124
753	0.124
754	0.124
754	0.124
754	0.125
755	0.126
755	0.128
756	0.129
756	0.126
757	0.125
757	0.125
758	0.124
758	0.123
758	0.122
759	0.121
759	0.118
760	0.114
760	0.11
761	0.106
761	0.104
761	0.102
762	0.099
762	0.098
763	0.097
763	0.094
764	0.09
764	0.086
764	0.083
765	0.08
765	0.076
766	0.074
766	0.073
767	0.072
767	0.067
768	0.062
768	0.058
768	0.055
769	0.054
769	0.053
770	0.051
770	0.048
771	0.044
771	0.039
771	0.034
772	0.03
772	0.025
773	0.02
773	0.015
774	0.008
774	0.001
775	-0.005
775	-0.012
775	-0.02
776	-0.028
776	-0.036
777	-0.044
777	-0.051
778	-0.06
778	-0.068
778	-0.076
779	-0.083
779	-0.089
780	-0.097
780	-0.106
781	-0.113
781	-0.119
781	-0.125
782	-0.131
782	-0.138
783	-0.143
783	-0.146
784	-0.15
784	-0.153
784	-0.154
785	-0.155
785	-0.157
786	-0.157
786	-0.154
787	-0.148
787	-0.144
788	-0.143
788	-0.143
788	-0.144
789	-0.147
789	-0.146
790	-0.143
790	-0.142
791	-0.142
791	-0.144
791	-0.147
792	-0.141
792	-0.131
793	-0.125
793	-0.121
794	-0.119
794	-0.121
794	-0.126
795	-0.128
795	-0.128
796	-0.129
796	-0.132
797	-0.141
797	-0.152
797	-0.158
798	-0.164
798	-0.166
799	-0.167
799	-0.166
800	-0.165
800	-0.167
801	-0.169
801	-0.17
801	-0.171
802	-0.172
802	-0.173
803	-0.174
803	-0.174
804	-0.173
804	-0.168
804	-0.162
805	-0.158
805	-0.156
806	-0.154
806	-0.153
807	-0.152
807	-0.151
807	-0.151
808	-0.151
808	-0.152
809	-0.157
809	-0.163
810	-0.167
810	-0.17
810	-0.173
811	-0.176
811	-0.177
812	-0.173
812	-0.17
813	-0.17
813	-0.17
813	-0.171
814	-0.171
814	-0.171
815	-0.167
815	-0.164
816	-0.161
816	-0.161
817	-0.165
817	-0.167
817	-0.167
818	-0.166
818	-0.163
819	-0.157
819	-0.155
820	-0.156
820	-0.157
820	-0.155
821	-0.15
821	-0.144
822	-0.137
822	-0.129
823	-0.12
823	-0.113
823	-0.107
824	-0.098
824	-0.085
825	-0.071
825	-0.058
826	-0.046
826	-0.038
826	-0.029
827	-0.021
827	-0.013
828	-0.006
828	-0
829	0.006
829	0.01
829	0.014
830	0.017
830	0.02
831	0.026
831	0.031
832	0.035
832	0.04
832	0.044
833	0.048
833	0.052
834	0.056
834	0.06
835	0.063
835	0.065
835	0.067
836	0.069
836	0.071
837	0.072
837	0.073
838	0.074
838	0.075
839	0.076
839	0.077
839	0.077
840	0.078
840	0.079
841	0.08
841	0.082
842	0.084
842	0.086
842	0.087
843	0.089
843	0.09
844	0.092
844	0.094
845	0.095
845	0.097
845	0.098
846	0.099
846	0.1
847	0.101
847	0.102
848	0.103
848	0.104
848	0.105
849	0.106
849	0.107
850	0.107
850	0.107
851	0.108
851	0.109
851	0.11
852	0.111
852	0.112
853	0.113
853	0.113
854	0.114
854	0.114
854	0.115
855	0.115
855	0.115
856	0.115
856	0.115
857	0.116
857	0.116
857	0.116
858	0.116
858	0.116
859	0.117
859	0.117
860	0.118
860	0.119
860	0.119
861	0.12
861	0.12
862	0.12
862	0.121
863	0.121
863	0.121
863	0.121
864	0.121
864	0.121
865	0.122
865	0.122
866	0.123
866	0.123
866	0.124
867	0.125
867	0.126
868	0.127
868	0.129
869	0.13
869	0.131
869	0.131
870	0.131
870	0.131
871	0.13
871	0.129
872	0.128
872	0.126
872	0.125
873	0.123
873	0.122
874	0.12
874	0.119
875	0.118
875	0.118
875	0.118
876	0.118
876	0.119
877	0.119
877	0.12
878	0.121
878	0.122
878	0.124
879	0.125
879	0.125
880	0.126
880	0.126
881	0.126
881	0.127
881	0.127
882	0.127
882	0.126
883	0.126
883	0.125
884	0.125
884	0.125
884	0.125
885	0.126
885	0.126
886	0.126
886	0.127
887	0.128
887	0.128
887	0.129
888	0.129
888	0.13
889	0.13
889	0.13
890	0.13
890	0.13
890	0.129
891	0.128
891	0.126
892	0.125
892	0.123
893	0.122
893	0.121
893	0.12
894	0.119
894	0.118
895	0.117
895	0.117
895	0.116
896	0.117
896	0.117
897	0.118
897	0.118
898	0.119
898	0.119
898	0.12
899	0.121
899	0.122
900	0.122
900	0.123
901	0.124
901	0.125
901	0.125
902	0.126
902	0.126
903	0.126
903	0.127
904	0.127
904	0.128
904	0.128
905	0.129
905	0.129
906	0.13
906	0.13
907	0.13
907	0.13
907	0.131
908	0.13
908	0.13
909	0.131
909	0.131
910	0.131
910	0.131
910	0.131
911	0.132
911	0.132
912	0.133
912	0.134
913	0.134
913	0.134
913	0.134
914	0.133
914	0.132
915	0.132
915	0.13
916	0.129
916	0.127
916	0.126
917	0.124
917	0.122
918	0.121
918	0.119
918	0.118
919	0.118
919	0.118
920	0.118
920	0.118
921	0.118
921	0.118
921	0.118
922	0.118
922	0.118
923	0.118
923	0.118
924	0.118
924	0.118
924	0.117
925	0.117
925	0.117
926	0.117
926	0.117
927	0.117
927	0.117
927	0.117
928	0.117
928	0.117
929	0.117
929	0.117
930	0.117
930	0.117
930	0.116
931	0.115
931	0.115
932	0.114
932	0.113
933	0.112
933	0.112
933	0.111
934	0.111
934	0.11
935	0.11
935	0.11
935	0.11
936	0.11
936	0.111
937	0.112
937	0.112
938	0.113
938	0.114
938	0.115
939	0.116
939	0.117
940	0.118
940	0.119
941	0.121
941	0.121
941	0.122
942	0.123
942	0.123
943	0.124
943	0.124
944	0.123
944	0.123
944	0.123
945	0.122
945	0.122
946	0.122
946	0.121
946	0.121
947	0.12
947	0.119
948	0.119
948	0.118
949	0.117
949	0.116
949	0.115
950	0.114
950	0.113
951	0.113
951	0.112
952	0.112
952	0.112
952	0.112
953	0.113
953	0.113
954	0.113
954	0.113
955	0.114
955	0.114
955	0.114
956	0.115
956	0.115
957	0.114
957	0.114
957	0.113
958	0.112
958	0.111
959	0.111
959	0.11
960	0.11
960	0.109
960	0.108
961	0.107
961	0.106
962	0.105
962	0.105
963	0.104
963	0.104
963	0.104
964	0.104
964	0.104
965	0.105
965	0.105
966	0.106
966	0.107
966	0.108
967	0.11
967	0.11
968	0.111
968	0.111
968	0.112
969	0.112
969	0.112
970	0.112
970	0.112
971	0.111
971	0.111
971	0.11
972	0.11
972	0.11
973	0.11
973	0.109
974	0.109
974	0.109
974	0.109
975	0.109
975	0.108
976	0.108
976	0.108
976	0.107
977	0.106
977	0.105
978	0.103
978	0.102
979	0.101
979	0.1
979	0.099
980	0.098
980	0.098
981	0.097
981	0.097
982	0.098
982	0.098
982	0.099
983	0.1
983	0.1
984	0.101
984	0.102
984	0.103
985	0.104
985	0.104
986	0.104
986	0.104
987	0.105
987	0.105
987	0.106
988	0.107
988	0.108
989	0.109
989	0.109
990	0.111
990	0.112
990	0.113
991	0.115
991	0.116
992	0.117
992	0.117
992	0.118
993	0.118
993	0.118
994	0.118
994	0.118
995	0.117
995	0.117
995	0.116
996	0.116
996	0.115
997	0.114
997	0.114
997	0.114
998	0.113
998	0.113
999	0.113
999	0.112
1000	0.112
1000	0.112
1000	0.112
1001	0.111
1001	0.111
1002	0.111
1002	0.11
1003	0.109
1003	0.109
1003	0.108
1004	0.107
1004	0.106
1005	0.106
1005	0.105
1005	0.104
1006	0.103
1006	0.103
1007	0.102
1007	0.101
1008	0.101
1008	0.1
1008	0.1
1009	0.1
1009	0.1
1010	0.099
1010	0.099
1010	0.098
1011	0.097
1011	0.097
1012	0.096
1012	0.096
1013	0.095
1013	0.094
1013	0.093
1014	0.092
1014	0.091
1015	0.09
1015	0.09
1016	0.089
1016	0.089
1016	0.089
1017	0.088
1017	0.089
1018	0.089
1018	0.09
1018	0.091
1019	0.092
1019	0.093
1020	0.094
1020	0.095
1021	0.095
1021	0.096
1021	0.097
1022	0.097
1022	0.097
1023	0.097
1023	0.097
1023	0.096
1024	0.096
1024	0.095
1025	0.094
1025	0.093
1026	0.093
1026	0.092
1026	0.091
1027	0.091
1027	0.091
1028	0.091
1028	0.091
1028	0.091
1029	0.091
1029	0.092
1030	0.092
1030	0.092
1031	0.093
1031	0.093
1031	0.094
1032	0.094
1032	0.095
1033	0.095
1033	0.095
1033	0.094
1034	0.094
1034	0.093
1035	0.092
1035	0.092
1036	0.091
1036	0.09
1036	0.09
1037	0.09
1037	0.09
1038	0.091
1038	0.091
1039	0.092
1039	0.093
1039	0.094
1040	0.095
1040	0.096
1041	0.096
1041	0.097
1041	0.097
1042	0.097
1042	0.098
1043	0.098
1043	0.098
1044	0.098
1044	0.098
1044	0.099
1045	0.099
1045	0.099
1046	0.1
1046	0.1
1046	0.101
1047	0.102
1047	0.103
1048	0.104
1048	0.105
1049	0.105
1049	0.105
1049	0.105
1050	0.105
1050	0.105
1051	0.105
1051	0.105
1051	0.105
1052	0.105
1052	0.105
1053	0.105
1053	0.105
1053	0.106
1054	0.106
1054	0.106
1055	0.107
1055	0.107
1056	0.106
1056	0.106
1056	0.105
1057	0.105
1057	0.105
1058	0.106
1058	0.106
1058	0.107
1059	0.107
1059	0.107
1060	0.109
1060	0.11
1061	0.112
1061	0.114
1061	0.115
1062	0.116
1062	0.117
1063	0.118
1063	0.12
1063	0.121
1064	0.122
1064	0.124
1065	0.125
1065	0.126
1066	0.127
1066	0.128
1066	0.13
1067	0.132
1067	0.133
1068	0.134
1068	0.135
1068	0.135
1069	0.136
1069	0.137
1070	0.138
1070	0.139
1071	0.14
1071	0.142
1071	0.142
1072	0.144
1072	0.147
1073	0.149
1073	0.152
1073	0.154
1074	0.157
1074	0.159
1075	0.16
1075	0.162
1076	0.163
1076	0.166
1076	0.167
1077	0.17
1077	0.172
1078	0.174
1078	0.176
1078	0.18
1079	0.183
1079	0.187
1080	0.19
1080	0.194
1080	0.196
1081	0.2
1081	0.203
1082	0.207
1082	0.209
1083	0.214
1083	0.217
1083	0.222
1084	0.226
1084	0.232
1085	0.237
1085	0.244
1085	0.25
1086	0.257
1086	0.262
1087	0.269
1087	0.276
1088	0.281
1088	0.289
1088	0.297
1089	0.305
1089	0.315
1090	0.325
1090	0.337
1090	0.349
1091	0.363
1091	0.38
1092	0.396
1092	0.418
1092	0.436
1093	0.457
1093	0.483
1094	0.509
1094	0.537
1095	0.566
1095	0.604
1095	0.651
1096	0.701
1096	0.76
1097	0.838
1097	0.926
1097	1.051
1098	1.221
1098	1.532
1099	-0
1099	-0
1100	-0
1100	-0
1100	-0
1101	-0
1101	-0
1102	-0
1102	-0
1102	-0
1103	-0
1103	-0
1104	-0
1104	-0
1104	-0
1105	-0
1105	-0
1106	-0
1106	-0
1107	-0
1107	-0
1107	-0
1108	-0
1108	-0
1109	-0
1109	-0
1109	-0
1110	-0
1110	-0
1111	-0
1111	-0
