Data from 15c-2a_Absorbance__576__00576.txt Node

Date: Wed Jan 24 09:45:30 CET 2024
User: Marek
Spectrometer: MAYP115816
Trigger mode: 0
Integration Time (sec): 2.000000E-1
Scans to average: 10
Electric dark correction enabled: true
Nonlinearity correction enabled: true
Boxcar width: 5
XAxis mode: Wavelengths
Number of Pixels in Spectrum: 2068
>>>>>Begin Spectral Data<<<<<
199	-1.622
199	-1.464
200	-1.306
200	-1.185
201	-1.114
201	-1.063
202	-0.994
202	-0.94
203	-0.893
203	-0.854
204	-0.827
204	-0.804
205	-0.782
205	-0.774
205	-0.773
206	-0.77
206	-0.769
207	-0.764
207	-0.762
208	-0.761
208	-0.758
209	-0.757
209	-0.757
210	-0.756
210	-0.754
211	-0.752
211	-0.752
212	-0.75
212	-0.749
213	-0.747
213	-0.745
213	-0.743
214	-0.741
214	-0.737
215	-0.737
215	-0.733
216	-0.732
216	-0.73
217	-0.728
217	-0.728
218	-0.729
218	-0.728
219	-0.726
219	-0.725
220	-0.723
220	-0.721
221	-0.722
221	-0.72
221	-0.715
222	-0.71
222	-0.704
223	-0.697
223	-0.692
224	-0.684
224	-0.676
225	-0.669
225	-0.66
226	-0.651
226	-0.639
227	-0.628
227	-0.618
228	-0.602
228	-0.586
229	-0.567
229	-0.548
229	-0.525
230	-0.499
230	-0.471
231	-0.442
231	-0.41
232	-0.378
232	-0.344
233	-0.311
233	-0.277
234	-0.244
234	-0.211
235	-0.181
235	-0.152
236	-0.125
236	-0.1
236	-0.076
237	-0.055
237	-0.035
238	-0.017
238	-0.001
239	0.014
239	0.027
240	0.039
240	0.05
241	0.06
241	0.069
242	0.076
242	0.083
243	0.09
243	0.096
243	0.101
244	0.106
244	0.111
245	0.115
245	0.118
246	0.122
246	0.126
247	0.129
247	0.132
248	0.135
248	0.138
249	0.14
249	0.143
250	0.145
250	0.148
250	0.15
251	0.152
251	0.155
252	0.157
252	0.158
253	0.16
253	0.162
254	0.164
254	0.165
255	0.167
255	0.168
256	0.169
256	0.171
257	0.172
257	0.172
258	0.173
258	0.174
258	0.174
259	0.175
259	0.175
260	0.175
260	0.176
261	0.176
261	0.176
262	0.175
262	0.175
263	0.175
263	0.175
264	0.174
264	0.174
265	0.173
265	0.173
265	0.172
266	0.171
266	0.17
267	0.169
267	0.168
268	0.167
268	0.166
269	0.165
269	0.164
270	0.162
270	0.161
271	0.159
271	0.158
272	0.156
272	0.154
272	0.153
273	0.151
273	0.15
274	0.148
274	0.146
275	0.145
275	0.143
276	0.141
276	0.139
277	0.138
277	0.136
278	0.134
278	0.132
278	0.131
279	0.129
279	0.127
280	0.125
280	0.124
281	0.122
281	0.121
282	0.119
282	0.118
283	0.117
283	0.115
284	0.114
284	0.113
285	0.111
285	0.11
285	0.108
286	0.107
286	0.106
287	0.104
287	0.103
288	0.102
288	0.101
289	0.099
289	0.098
290	0.097
290	0.096
291	0.096
291	0.095
292	0.094
292	0.093
292	0.092
293	0.092
293	0.091
294	0.09
294	0.09
295	0.089
295	0.088
296	0.088
296	0.087
297	0.086
297	0.086
298	0.085
298	0.085
298	0.084
299	0.084
299	0.083
300	0.083
300	0.083
301	0.082
301	0.082
302	0.081
302	0.081
303	0.081
303	0.081
304	0.081
304	0.08
305	0.08
305	0.08
305	0.08
306	0.079
306	0.079
307	0.079
307	0.079
308	0.078
308	0.078
309	0.078
309	0.078
310	0.078
310	0.077
311	0.077
311	0.077
311	0.077
312	0.076
312	0.076
313	0.076
313	0.075
314	0.075
314	0.075
315	0.075
315	0.074
316	0.074
316	0.074
317	0.073
317	0.073
318	0.073
318	0.073
318	0.072
319	0.072
319	0.072
320	0.071
320	0.071
321	0.071
321	0.07
322	0.07
322	0.07
323	0.07
323	0.069
324	0.069
324	0.069
324	0.068
325	0.068
325	0.068
326	0.068
326	0.067
327	0.067
327	0.067
328	0.067
328	0.066
329	0.066
329	0.066
330	0.065
330	0.065
330	0.065
331	0.064
331	0.064
332	0.064
332	0.063
333	0.063
333	0.063
334	0.063
334	0.062
335	0.062
335	0.062
336	0.061
336	0.061
336	0.061
337	0.061
337	0.061
338	0.061
338	0.06
339	0.06
339	0.06
340	0.06
340	0.059
341	0.059
341	0.059
342	0.059
342	0.059
342	0.058
343	0.058
343	0.058
344	0.058
344	0.057
345	0.057
345	0.057
346	0.057
346	0.057
347	0.057
347	0.056
348	0.056
348	0.056
348	0.056
349	0.055
349	0.055
350	0.055
350	0.055
351	0.054
351	0.054
352	0.054
352	0.054
353	0.053
353	0.053
354	0.053
354	0.053
354	0.053
355	0.052
355	0.052
356	0.052
356	0.052
357	0.051
357	0.051
358	0.051
358	0.051
359	0.051
359	0.051
360	0.051
360	0.051
360	0.051
361	0.051
361	0.051
362	0.051
362	0.051
363	0.052
363	0.051
364	0.051
364	0.051
365	0.051
365	0.051
366	0.051
366	0.051
366	0.051
367	0.051
367	0.05
368	0.051
368	0.051
369	0.05
369	0.05
370	0.05
370	0.05
371	0.05
371	0.05
372	0.05
372	0.05
372	0.05
373	0.049
373	0.049
374	0.05
374	0.05
375	0.05
375	0.05
376	0.05
376	0.05
377	0.049
377	0.05
378	0.05
378	0.05
378	0.05
379	0.05
379	0.05
380	0.05
380	0.05
381	0.05
381	0.05
382	0.05
382	0.049
383	0.049
383	0.049
383	0.049
384	0.049
384	0.049
385	0.049
385	0.049
386	0.049
386	0.049
387	0.049
387	0.049
388	0.049
388	0.049
389	0.049
389	0.049
389	0.049
390	0.049
390	0.049
391	0.049
391	0.049
392	0.049
392	0.049
393	0.049
393	0.049
394	0.049
394	0.049
394	0.049
395	0.049
395	0.049
396	0.049
396	0.049
397	0.049
397	0.049
398	0.049
398	0.049
399	0.049
399	0.049
400	0.049
400	0.049
400	0.049
401	0.048
401	0.048
402	0.048
402	0.048
403	0.048
403	0.048
404	0.048
404	0.047
405	0.047
405	0.047
405	0.047
406	0.047
406	0.047
407	0.047
407	0.047
408	0.047
408	0.047
409	0.046
409	0.046
410	0.047
410	0.047
411	0.047
411	0.047
411	0.047
412	0.047
412	0.046
413	0.046
413	0.046
414	0.046
414	0.046
415	0.046
415	0.046
416	0.046
416	0.046
416	0.046
417	0.046
417	0.046
418	0.046
418	0.046
419	0.046
419	0.046
420	0.046
420	0.046
421	0.046
421	0.046
421	0.047
422	0.047
422	0.047
423	0.046
423	0.046
424	0.046
424	0.046
425	0.045
425	0.045
426	0.045
426	0.045
427	0.045
427	0.045
427	0.045
428	0.045
428	0.046
429	0.046
429	0.046
430	0.046
430	0.046
431	0.046
431	0.046
432	0.046
432	0.046
432	0.045
433	0.045
433	0.045
434	0.045
434	0.045
435	0.044
435	0.044
436	0.044
436	0.044
437	0.044
437	0.044
437	0.044
438	0.044
438	0.044
439	0.044
439	0.044
440	0.044
440	0.044
441	0.044
441	0.044
442	0.044
442	0.044
442	0.044
443	0.044
443	0.044
444	0.044
444	0.044
445	0.045
445	0.045
446	0.045
446	0.045
447	0.045
447	0.045
447	0.045
448	0.044
448	0.044
449	0.044
449	0.044
450	0.044
450	0.044
451	0.044
451	0.044
452	0.044
452	0.044
452	0.044
453	0.043
453	0.043
454	0.043
454	0.043
455	0.042
455	0.042
456	0.042
456	0.042
457	0.041
457	0.041
458	0.041
458	0.041
458	0.041
459	0.041
459	0.041
460	0.041
460	0.041
461	0.041
461	0.041
462	0.041
462	0.041
463	0.042
463	0.042
463	0.042
464	0.042
464	0.042
465	0.042
465	0.042
466	0.042
466	0.042
467	0.042
467	0.042
467	0.042
468	0.041
468	0.04
469	0.04
469	0.04
470	0.04
470	0.04
471	0.04
471	0.04
472	0.04
472	0.04
472	0.04
473	0.041
473	0.041
474	0.041
474	0.041
475	0.041
475	0.042
476	0.042
476	0.042
477	0.042
477	0.042
477	0.042
478	0.042
478	0.042
479	0.043
479	0.043
480	0.044
480	0.044
481	0.044
481	0.045
482	0.045
482	0.045
482	0.046
483	0.046
483	0.047
484	0.048
484	0.048
485	0.048
485	0.049
486	0.049
486	0.049
487	0.049
487	0.049
487	0.049
488	0.049
488	0.048
489	0.048
489	0.049
490	0.049
490	0.049
491	0.049
491	0.049
492	0.049
492	0.05
492	0.05
493	0.05
493	0.051
494	0.051
494	0.051
495	0.052
495	0.052
496	0.053
496	0.053
496	0.054
497	0.054
497	0.055
498	0.055
498	0.055
499	0.055
499	0.055
500	0.056
500	0.056
501	0.057
501	0.057
501	0.058
502	0.058
502	0.059
503	0.059
503	0.06
504	0.061
504	0.061
505	0.061
505	0.061
506	0.061
506	0.062
506	0.062
507	0.061
507	0.061
508	0.061
508	0.061
509	0.061
509	0.062
510	0.062
510	0.062
511	0.063
511	0.063
511	0.063
512	0.064
512	0.064
513	0.064
513	0.064
514	0.063
514	0.063
515	0.063
515	0.063
515	0.063
516	0.064
516	0.064
517	0.065
517	0.065
518	0.065
518	0.065
519	0.065
519	0.065
520	0.065
520	0.064
520	0.063
521	0.063
521	0.062
522	0.061
522	0.06
523	0.06
523	0.06
524	0.06
524	0.06
524	0.06
525	0.061
525	0.062
526	0.063
526	0.064
527	0.064
527	0.065
528	0.066
528	0.066
529	0.066
529	0.066
529	0.066
530	0.066
530	0.066
531	0.066
531	0.066
532	0.065
532	0.064
533	0.064
533	0.063
533	0.063
534	0.063
534	0.062
535	0.062
535	0.061
536	0.061
536	0.061
537	0.061
537	0.061
538	0.061
538	0.061
538	0.06
539	0.06
539	0.06
540	0.059
540	0.059
541	0.058
541	0.058
542	0.058
542	0.057
542	0.057
543	0.056
543	0.056
544	0.056
544	0.055
545	0.055
545	0.055
546	0.055
546	0.055
547	0.054
547	0.054
547	0.053
548	0.053
548	0.052
549	0.052
549	0.051
550	0.051
550	0.05
551	0.049
551	0.049
551	0.048
552	0.048
552	0.048
553	0.048
553	0.047
554	0.047
554	0.046
555	0.046
555	0.045
556	0.044
556	0.043
556	0.043
557	0.042
557	0.042
558	0.041
558	0.041
559	0.041
559	0.041
560	0.041
560	0.041
560	0.041
561	0.042
561	0.042
562	0.042
562	0.042
563	0.041
563	0.041
564	0.04
564	0.039
564	0.038
565	0.038
565	0.037
566	0.036
566	0.036
567	0.035
567	0.035
568	0.035
568	0.036
568	0.036
569	0.037
569	0.038
570	0.037
570	0.037
571	0.038
571	0.038
572	0.038
572	0.038
573	0.038
573	0.038
573	0.037
574	0.037
574	0.037
575	0.037
575	0.038
576	0.038
576	0.037
577	0.037
577	0.037
577	0.037
578	0.036
578	0.037
579	0.037
579	0.038
580	0.037
580	0.036
581	0.035
581	0.035
581	0.034
582	0.034
582	0.034
583	0.034
583	0.034
584	0.032
584	0.031
585	0.03
585	0.031
585	0.031
586	0.031
586	0.031
587	0.03
587	0.03
588	0.029
588	0.029
589	0.029
589	0.029
590	0.029
590	0.029
590	0.029
591	0.029
591	0.029
592	0.029
592	0.028
593	0.028
593	0.027
594	0.027
594	0.026
594	0.026
595	0.026
595	0.025
596	0.025
596	0.026
597	0.027
597	0.028
598	0.028
598	0.029
598	0.029
599	0.029
599	0.029
600	0.029
600	0.028
601	0.028
601	0.027
602	0.027
602	0.027
602	0.026
603	0.027
603	0.028
604	0.028
604	0.029
605	0.03
605	0.031
606	0.031
606	0.03
606	0.029
607	0.029
607	0.028
608	0.028
608	0.027
609	0.026
609	0.026
610	0.025
610	0.024
610	0.024
611	0.025
611	0.025
612	0.026
612	0.027
613	0.027
613	0.028
614	0.028
614	0.028
614	0.028
615	0.028
615	0.028
616	0.028
616	0.027
617	0.027
617	0.026
618	0.025
618	0.024
618	0.024
619	0.024
619	0.024
620	0.025
620	0.025
621	0.025
621	0.025
622	0.025
622	0.025
622	0.025
623	0.025
623	0.025
624	0.025
624	0.024
625	0.024
625	0.024
626	0.024
626	0.024
626	0.024
627	0.025
627	0.025
628	0.025
628	0.026
629	0.026
629	0.027
630	0.027
630	0.027
630	0.028
631	0.028
631	0.029
632	0.029
632	0.029
633	0.03
633	0.03
634	0.03
634	0.031
634	0.032
635	0.033
635	0.033
636	0.034
636	0.034
637	0.035
637	0.035
638	0.035
638	0.036
638	0.037
639	0.038
639	0.038
640	0.039
640	0.04
641	0.041
641	0.042
642	0.042
642	0.043
642	0.044
643	0.044
643	0.044
644	0.044
644	0.044
645	0.044
645	0.045
646	0.045
646	0.046
646	0.047
647	0.048
647	0.049
648	0.05
648	0.051
649	0.052
649	0.054
650	0.055
650	0.056
650	0.057
651	0.058
651	0.059
652	0.06
652	0.061
653	0.063
653	0.067
653	0.066
654	0.055
654	0.046
655	0.047
655	0.048
656	0.049
656	0.05
657	0.05
657	0.051
657	0.051
658	0.049
658	0.05
659	0.061
659	0.076
660	0.079
660	0.08
661	0.08
661	0.081
661	0.082
662	0.084
662	0.085
663	0.087
663	0.089
664	0.09
664	0.092
665	0.093
665	0.095
665	0.097
666	0.098
666	0.099
667	0.1
667	0.101
668	0.102
668	0.103
669	0.104
669	0.106
669	0.108
670	0.109
670	0.11
671	0.111
671	0.112
672	0.113
672	0.114
672	0.115
673	0.115
673	0.116
674	0.116
674	0.116
675	0.115
675	0.115
676	0.115
676	0.115
676	0.115
677	0.116
677	0.116
678	0.116
678	0.116
679	0.116
679	0.117
680	0.118
680	0.118
680	0.119
681	0.119
681	0.119
682	0.12
682	0.12
683	0.121
683	0.122
684	0.123
684	0.123
684	0.123
685	0.124
685	0.125
686	0.126
686	0.127
687	0.127
687	0.128
687	0.129
688	0.129
688	0.13
689	0.131
689	0.131
690	0.131
690	0.13
691	0.129
691	0.128
691	0.127
692	0.126
692	0.125
693	0.124
693	0.123
694	0.122
694	0.121
695	0.121
695	0.121
695	0.121
696	0.12
696	0.119
697	0.119
697	0.118
698	0.117
698	0.116
698	0.115
699	0.114
699	0.113
700	0.112
700	0.112
701	0.111
701	0.111
702	0.111
702	0.111
702	0.11
703	0.11
703	0.11
704	0.109
704	0.109
705	0.109
705	0.108
705	0.108
706	0.107
706	0.107
707	0.106
707	0.106
708	0.105
708	0.104
709	0.104
709	0.102
709	0.101
710	0.099
710	0.098
711	0.097
711	0.096
712	0.095
712	0.094
713	0.093
713	0.093
713	0.092
714	0.091
714	0.09
715	0.09
715	0.089
716	0.089
716	0.089
716	0.088
717	0.088
717	0.087
718	0.087
718	0.086
719	0.085
719	0.085
720	0.084
720	0.082
720	0.081
721	0.079
721	0.078
722	0.076
722	0.075
723	0.073
723	0.072
723	0.071
724	0.07
724	0.069
725	0.068
725	0.067
726	0.065
726	0.064
727	0.063
727	0.062
727	0.061
728	0.06
728	0.059
729	0.059
729	0.058
730	0.058
730	0.057
730	0.057
731	0.057
731	0.057
732	0.056
732	0.056
733	0.056
733	0.055
734	0.055
734	0.054
734	0.053
735	0.053
735	0.052
736	0.051
736	0.051
737	0.051
737	0.05
737	0.05
738	0.049
738	0.047
739	0.046
739	0.045
740	0.043
740	0.042
741	0.04
741	0.039
741	0.037
742	0.035
742	0.033
743	0.032
743	0.031
744	0.03
744	0.029
744	0.028
745	0.027
745	0.026
746	0.025
746	0.025
747	0.025
747	0.026
748	0.026
748	0.027
748	0.027
749	0.027
749	0.028
750	0.028
750	0.028
751	0.028
751	0.028
751	0.027
752	0.025
752	0.024
753	0.022
753	0.021
754	0.02
754	0.018
754	0.018
755	0.018
755	0.018
756	0.018
756	0.017
757	0.017
757	0.017
758	0.017
758	0.017
758	0.017
759	0.017
759	0.016
760	0.015
760	0.014
761	0.014
761	0.013
761	0.013
762	0.013
762	0.013
763	0.012
763	0.012
764	0.01
764	0.01
764	0.008
765	0.008
765	0.007
766	0.006
766	0.006
767	0.005
767	0.004
768	0.003
768	0.001
768	0.001
769	-0
769	-0.001
770	-0.003
770	-0.004
771	-0.006
771	-0.008
771	-0.01
772	-0.012
772	-0.014
773	-0.015
773	-0.016
774	-0.018
774	-0.019
775	-0.02
775	-0.021
775	-0.023
776	-0.024
776	-0.026
777	-0.027
777	-0.028
778	-0.03
778	-0.033
778	-0.035
779	-0.037
779	-0.039
780	-0.041
780	-0.044
781	-0.048
781	-0.052
781	-0.056
782	-0.062
782	-0.067
783	-0.072
783	-0.077
784	-0.084
784	-0.091
784	-0.097
785	-0.104
785	-0.111
786	-0.115
786	-0.117
787	-0.115
787	-0.115
788	-0.117
788	-0.12
788	-0.122
789	-0.125
789	-0.125
790	-0.123
790	-0.122
791	-0.124
791	-0.126
791	-0.129
792	-0.125
792	-0.115
793	-0.109
793	-0.105
794	-0.103
794	-0.105
794	-0.108
795	-0.11
795	-0.109
796	-0.109
796	-0.111
797	-0.119
797	-0.13
797	-0.136
798	-0.141
798	-0.143
799	-0.144
799	-0.144
800	-0.144
800	-0.146
801	-0.149
801	-0.151
801	-0.151
802	-0.152
802	-0.153
803	-0.154
803	-0.154
804	-0.152
804	-0.146
804	-0.139
805	-0.134
805	-0.132
806	-0.129
806	-0.127
807	-0.126
807	-0.125
807	-0.125
808	-0.125
808	-0.126
809	-0.131
809	-0.137
810	-0.141
810	-0.144
810	-0.148
811	-0.152
811	-0.153
812	-0.15
812	-0.148
813	-0.148
813	-0.149
813	-0.151
814	-0.152
814	-0.152
815	-0.149
815	-0.146
816	-0.144
816	-0.144
817	-0.147
817	-0.148
817	-0.145
818	-0.14
818	-0.133
819	-0.127
819	-0.121
820	-0.116
820	-0.112
820	-0.106
821	-0.098
821	-0.09
822	-0.083
822	-0.077
823	-0.071
823	-0.066
823	-0.062
824	-0.057
824	-0.052
825	-0.048
825	-0.043
826	-0.039
826	-0.036
826	-0.034
827	-0.031
827	-0.029
828	-0.027
828	-0.026
829	-0.024
829	-0.023
829	-0.023
830	-0.022
830	-0.021
831	-0.02
831	-0.018
832	-0.017
832	-0.016
832	-0.014
833	-0.013
833	-0.012
834	-0.01
834	-0.009
835	-0.008
835	-0.007
835	-0.006
836	-0.006
836	-0.005
837	-0.005
837	-0.004
838	-0.004
838	-0.004
839	-0.003
839	-0.003
839	-0.003
840	-0.003
840	-0.003
841	-0.002
841	-0.002
842	-0.002
842	-0.002
842	-0.002
843	-0.001
843	-0.001
844	-0.001
844	-0
845	-0
845	-0
845	-0
846	-0
846	-0.001
847	-0.001
847	-0.001
848	-0.001
848	-0
848	-0
849	0
849	0.001
850	0.001
850	0.002
851	0.003
851	0.004
851	0.004
852	0.005
852	0.005
853	0.006
853	0.006
854	0.006
854	0.006
854	0.006
855	0.006
855	0.005
856	0.005
856	0.005
857	0.005
857	0.004
857	0.004
858	0.004
858	0.005
859	0.005
859	0.006
860	0.007
860	0.008
860	0.008
861	0.009
861	0.01
862	0.011
862	0.011
863	0.011
863	0.011
863	0.011
864	0.012
864	0.012
865	0.012
865	0.012
866	0.012
866	0.012
866	0.013
867	0.013
867	0.013
868	0.013
868	0.013
869	0.013
869	0.012
869	0.011
870	0.01
870	0.009
871	0.009
871	0.008
872	0.007
872	0.006
872	0.005
873	0.005
873	0.004
874	0.003
874	0.003
875	0.003
875	0.002
875	0.002
876	0.002
876	0.002
877	0.002
877	0.003
878	0.003
878	0.003
878	0.004
879	0.004
879	0.004
880	0.004
880	0.003
881	0.003
881	0.003
881	0.002
882	0.001
882	0.001
883	0
883	-0
884	-0
884	-0
884	-0
885	-0
885	-0
886	0
886	0
887	0.001
887	0.001
887	0.002
888	0.003
888	0.004
889	0.004
889	0.005
890	0.006
890	0.006
890	0.006
891	0.006
891	0.006
892	0.006
892	0.006
893	0.005
893	0.005
893	0.005
894	0.005
894	0.005
895	0.006
895	0.006
895	0.006
896	0.006
896	0.006
897	0.006
897	0.006
898	0.006
898	0.006
898	0.005
899	0.005
899	0.004
900	0.004
900	0.003
901	0.003
901	0.002
901	0.002
902	0.002
902	0.001
903	0
903	-0
904	-0.001
904	-0.001
904	-0.001
905	-0.001
905	-0.001
906	-0.001
906	-0
907	-0
907	0
907	0.001
908	0.001
908	0.002
909	0.002
909	0.003
910	0.003
910	0.003
910	0.003
911	0.003
911	0.003
912	0.004
912	0.004
913	0.004
913	0.004
913	0.004
914	0.004
914	0.004
915	0.004
915	0.005
916	0.006
916	0.006
916	0.007
917	0.008
917	0.009
918	0.009
918	0.009
918	0.009
919	0.009
919	0.008
920	0.008
920	0.007
921	0.006
921	0.005
921	0.004
922	0.004
922	0.004
923	0.003
923	0.003
924	0.003
924	0.002
924	0.002
925	0.001
925	0.001
926	0.001
926	0
927	-0.001
927	-0.001
927	-0.002
928	-0.002
928	-0.002
929	-0.002
929	-0.002
930	-0.002
930	-0.002
930	-0.002
931	-0.002
931	-0.002
932	-0.002
932	-0.002
933	-0.002
933	-0.003
933	-0.003
934	-0.004
934	-0.004
935	-0.005
935	-0.006
935	-0.006
936	-0.007
936	-0.007
937	-0.008
937	-0.008
938	-0.008
938	-0.007
938	-0.007
939	-0.007
939	-0.007
940	-0.006
940	-0.006
941	-0.006
941	-0.006
941	-0.005
942	-0.005
942	-0.005
943	-0.005
943	-0.004
944	-0.004
944	-0.004
944	-0.003
945	-0.002
945	-0.001
946	0
946	0.001
946	0.003
947	0.004
947	0.006
948	0.008
948	0.009
949	0.01
949	0.012
949	0.014
950	0.015
950	0.016
951	0.017
951	0.017
952	0.017
952	0.017
952	0.017
953	0.018
953	0.018
954	0.018
954	0.017
955	0.017
955	0.017
955	0.017
956	0.016
956	0.016
957	0.015
957	0.014
957	0.012
958	0.011
958	0.009
959	0.008
959	0.006
960	0.004
960	0.002
960	0.001
961	-0.001
961	-0.002
962	-0.003
962	-0.004
963	-0.004
963	-0.005
963	-0.005
964	-0.006
964	-0.005
965	-0.005
965	-0.005
966	-0.004
966	-0.004
966	-0.003
967	-0.002
967	-0.002
968	-0.001
968	-0.001
968	-0.001
969	-0.001
969	-0.002
970	-0.002
970	-0.003
971	-0.003
971	-0.004
971	-0.005
972	-0.006
972	-0.007
973	-0.008
973	-0.008
974	-0.009
974	-0.009
974	-0.01
975	-0.01
975	-0.01
976	-0.011
976	-0.011
976	-0.012
977	-0.012
977	-0.013
978	-0.013
978	-0.014
979	-0.014
979	-0.015
979	-0.015
980	-0.016
980	-0.016
981	-0.016
981	-0.016
982	-0.016
982	-0.015
982	-0.015
983	-0.015
983	-0.014
984	-0.014
984	-0.014
984	-0.014
985	-0.014
985	-0.013
986	-0.013
986	-0.013
987	-0.013
987	-0.013
987	-0.012
988	-0.011
988	-0.011
989	-0.01
989	-0.009
990	-0.008
990	-0.008
990	-0.007
991	-0.006
991	-0.005
992	-0.005
992	-0.004
992	-0.004
993	-0.004
993	-0.004
994	-0.004
994	-0.004
995	-0.004
995	-0.004
995	-0.004
996	-0.004
996	-0.005
997	-0.005
997	-0.005
997	-0.005
998	-0.005
998	-0.005
999	-0.005
999	-0.005
1000	-0.005
1000	-0.005
1000	-0.005
1001	-0.005
1001	-0.006
1002	-0.006
1002	-0.006
1003	-0.006
1003	-0.006
1003	-0.006
1004	-0.006
1004	-0.006
1005	-0.006
1005	-0.006
1005	-0.007
1006	-0.007
1006	-0.007
1007	-0.007
1007	-0.007
1008	-0.007
1008	-0.008
1008	-0.008
1009	-0.008
1009	-0.008
1010	-0.008
1010	-0.008
1010	-0.008
1011	-0.008
1011	-0.008
1012	-0.008
1012	-0.007
1013	-0.007
1013	-0.007
1013	-0.007
1014	-0.006
1014	-0.006
1015	-0.006
1015	-0.005
1016	-0.005
1016	-0.005
1016	-0.005
1017	-0.005
1017	-0.005
1018	-0.005
1018	-0.005
1018	-0.005
1019	-0.005
1019	-0.005
1020	-0.005
1020	-0.005
1021	-0.006
1021	-0.006
1021	-0.006
1022	-0.006
1022	-0.006
1023	-0.006
1023	-0.006
1023	-0.006
1024	-0.007
1024	-0.007
1025	-0.007
1025	-0.008
1026	-0.008
1026	-0.008
1026	-0.008
1027	-0.007
1027	-0.007
1028	-0.007
1028	-0.006
1028	-0.006
1029	-0.006
1029	-0.005
1030	-0.004
1030	-0.004
1031	-0.004
1031	-0.004
1031	-0.004
1032	-0.004
1032	-0.004
1033	-0.005
1033	-0.005
1033	-0.006
1034	-0.007
1034	-0.007
1035	-0.008
1035	-0.009
1036	-0.009
1036	-0.01
1036	-0.01
1037	-0.01
1037	-0.01
1038	-0.01
1038	-0.01
1039	-0.01
1039	-0.01
1039	-0.009
1040	-0.009
1040	-0.009
1041	-0.009
1041	-0.009
1041	-0.009
1042	-0.009
1042	-0.01
1043	-0.01
1043	-0.01
1044	-0.011
1044	-0.012
1044	-0.011
1045	-0.012
1045	-0.012
1046	-0.013
1046	-0.013
1046	-0.013
1047	-0.013
1047	-0.013
1048	-0.013
1048	-0.013
1049	-0.014
1049	-0.014
1049	-0.015
1050	-0.015
1050	-0.015
1051	-0.015
1051	-0.016
1051	-0.015
1052	-0.015
1052	-0.015
1053	-0.015
1053	-0.015
1053	-0.014
1054	-0.014
1054	-0.013
1055	-0.013
1055	-0.013
1056	-0.013
1056	-0.013
1056	-0.014
1057	-0.014
1057	-0.014
1058	-0.015
1058	-0.015
1058	-0.015
1059	-0.015
1059	-0.015
1060	-0.015
1060	-0.016
1061	-0.015
1061	-0.015
1061	-0.014
1062	-0.015
1062	-0.015
1063	-0.015
1063	-0.015
1063	-0.016
1064	-0.016
1064	-0.016
1065	-0.016
1065	-0.017
1066	-0.016
1066	-0.017
1066	-0.017
1067	-0.016
1067	-0.017
1068	-0.016
1068	-0.016
1068	-0.016
1069	-0.016
1069	-0.016
1070	-0.016
1070	-0.016
1071	-0.016
1071	-0.016
1071	-0.015
1072	-0.015
1072	-0.014
1073	-0.013
1073	-0.012
1073	-0.011
1074	-0.011
1074	-0.01
1075	-0.009
1075	-0.009
1076	-0.008
1076	-0.007
1076	-0.008
1077	-0.007
1077	-0.006
1078	-0.006
1078	-0.005
1078	-0.003
1079	-0.002
1079	-0.001
1080	-0
1080	0.001
1080	0.002
1081	0.003
1081	0.004
1082	0.004
1082	0.004
1083	0.005
1083	0.005
1083	0.005
1084	0.005
1084	0.006
1085	0.006
1085	0.007
1085	0.007
1086	0.008
1086	0.008
1087	0.009
1087	0.01
1088	0.01
1088	0.011
1088	0.013
1089	0.014
1089	0.015
1090	0.016
1090	0.018
1090	0.02
1091	0.021
1091	0.024
1092	0.025
1092	0.028
1092	0.03
1093	0.031
1093	0.034
1094	0.035
1094	0.037
1095	0.038
1095	0.039
1095	0.041
1096	0.043
1096	0.044
1097	0.046
1097	0.047
1097	0.049
1098	0.05
1098	0.052
1099	0.054
1099	0.057
1100	0.06
1100	0.063
1100	0.066
1101	0.069
1101	0.073
1102	0.078
1102	0.083
1102	0.088
1103	0.094
1103	0.1
1104	0.107
1104	0.115
1104	0.124
1105	0.133
1105	0.143
1106	0.152
1106	0.163
1107	0.175
1107	0.193
1107	0.214
1108	0.277
1108	0.371
1109	0.525
1109	0.884
1109	1.596
1110	-0
1110	-0
1111	-0
1111	-0
