Data from 15c-2a_Absorbance__860__00860.txt Node

Date: Wed Jan 24 09:54:58 CET 2024
User: Marek
Spectrometer: MAYP115816
Trigger mode: 0
Integration Time (sec): 2.000000E-1
Scans to average: 10
Electric dark correction enabled: true
Nonlinearity correction enabled: true
Boxcar width: 5
XAxis mode: Wavelengths
Number of Pixels in Spectrum: 2068
>>>>>Begin Spectral Data<<<<<
199	-1.605
199	-1.449
200	-1.294
200	-1.175
201	-1.104
201	-1.054
202	-0.987
202	-0.934
203	-0.888
203	-0.851
204	-0.824
204	-0.801
205	-0.78
205	-0.772
205	-0.77
206	-0.768
206	-0.766
207	-0.763
207	-0.76
208	-0.759
208	-0.757
209	-0.755
209	-0.756
210	-0.756
210	-0.754
211	-0.752
211	-0.752
212	-0.751
212	-0.748
213	-0.746
213	-0.744
213	-0.742
214	-0.74
214	-0.736
215	-0.735
215	-0.732
216	-0.731
216	-0.728
217	-0.726
217	-0.727
218	-0.728
218	-0.726
219	-0.725
219	-0.723
220	-0.721
220	-0.72
221	-0.72
221	-0.718
221	-0.713
222	-0.708
222	-0.702
223	-0.697
223	-0.692
224	-0.684
224	-0.676
225	-0.669
225	-0.659
226	-0.65
226	-0.639
227	-0.629
227	-0.618
228	-0.602
228	-0.585
229	-0.566
229	-0.546
229	-0.523
230	-0.497
230	-0.468
231	-0.439
231	-0.407
232	-0.375
232	-0.341
233	-0.308
233	-0.274
234	-0.24
234	-0.208
235	-0.178
235	-0.149
236	-0.123
236	-0.097
236	-0.074
237	-0.051
237	-0.032
238	-0.014
238	0.002
239	0.016
239	0.029
240	0.042
240	0.052
241	0.062
241	0.071
242	0.079
242	0.085
243	0.092
243	0.098
243	0.103
244	0.108
244	0.112
245	0.116
245	0.12
246	0.124
246	0.127
247	0.131
247	0.134
248	0.137
248	0.14
249	0.143
249	0.145
250	0.148
250	0.15
250	0.153
251	0.155
251	0.157
252	0.159
252	0.161
253	0.163
253	0.164
254	0.166
254	0.167
255	0.169
255	0.17
256	0.171
256	0.172
257	0.173
257	0.174
258	0.175
258	0.175
258	0.176
259	0.176
259	0.177
260	0.177
260	0.177
261	0.177
261	0.177
262	0.177
262	0.177
263	0.177
263	0.177
264	0.176
264	0.175
265	0.175
265	0.174
265	0.173
266	0.173
266	0.172
267	0.171
267	0.17
268	0.169
268	0.167
269	0.166
269	0.165
270	0.163
270	0.161
271	0.16
271	0.158
272	0.157
272	0.155
272	0.154
273	0.152
273	0.151
274	0.149
274	0.148
275	0.146
275	0.145
276	0.143
276	0.142
277	0.14
277	0.138
278	0.136
278	0.134
278	0.132
279	0.131
279	0.129
280	0.127
280	0.125
281	0.124
281	0.122
282	0.121
282	0.119
283	0.118
283	0.117
284	0.116
284	0.114
285	0.113
285	0.112
285	0.11
286	0.109
286	0.107
287	0.106
287	0.105
288	0.104
288	0.102
289	0.101
289	0.1
290	0.099
290	0.098
291	0.097
291	0.096
292	0.095
292	0.094
292	0.093
293	0.093
293	0.092
294	0.091
294	0.091
295	0.09
295	0.089
296	0.089
296	0.088
297	0.088
297	0.087
298	0.086
298	0.086
298	0.086
299	0.085
299	0.085
300	0.084
300	0.084
301	0.084
301	0.083
302	0.083
302	0.083
303	0.083
303	0.082
304	0.082
304	0.082
305	0.082
305	0.081
305	0.081
306	0.081
306	0.08
307	0.08
307	0.08
308	0.079
308	0.079
309	0.079
309	0.079
310	0.078
310	0.078
311	0.078
311	0.078
311	0.078
312	0.078
312	0.077
313	0.077
313	0.077
314	0.076
314	0.076
315	0.076
315	0.075
316	0.075
316	0.075
317	0.074
317	0.074
318	0.074
318	0.074
318	0.073
319	0.073
319	0.073
320	0.072
320	0.072
321	0.072
321	0.071
322	0.071
322	0.071
323	0.071
323	0.07
324	0.07
324	0.07
324	0.069
325	0.069
325	0.069
326	0.069
326	0.069
327	0.068
327	0.068
328	0.068
328	0.067
329	0.067
329	0.067
330	0.067
330	0.066
330	0.066
331	0.066
331	0.066
332	0.065
332	0.065
333	0.064
333	0.064
334	0.064
334	0.063
335	0.063
335	0.063
336	0.062
336	0.062
336	0.062
337	0.062
337	0.062
338	0.061
338	0.061
339	0.061
339	0.061
340	0.061
340	0.061
341	0.06
341	0.06
342	0.06
342	0.06
342	0.059
343	0.059
343	0.058
344	0.058
344	0.058
345	0.058
345	0.058
346	0.057
346	0.057
347	0.057
347	0.057
348	0.057
348	0.057
348	0.057
349	0.056
349	0.056
350	0.056
350	0.056
351	0.055
351	0.055
352	0.054
352	0.054
353	0.054
353	0.054
354	0.054
354	0.053
354	0.053
355	0.053
355	0.053
356	0.053
356	0.052
357	0.052
357	0.052
358	0.051
358	0.051
359	0.051
359	0.051
360	0.051
360	0.051
360	0.052
361	0.052
361	0.052
362	0.053
362	0.053
363	0.053
363	0.053
364	0.053
364	0.053
365	0.052
365	0.052
366	0.052
366	0.052
366	0.052
367	0.052
367	0.051
368	0.051
368	0.051
369	0.051
369	0.051
370	0.051
370	0.051
371	0.051
371	0.051
372	0.051
372	0.05
372	0.051
373	0.051
373	0.051
374	0.051
374	0.051
375	0.051
375	0.05
376	0.051
376	0.051
377	0.051
377	0.051
378	0.051
378	0.051
378	0.051
379	0.051
379	0.051
380	0.051
380	0.051
381	0.051
381	0.051
382	0.051
382	0.051
383	0.05
383	0.05
383	0.05
384	0.05
384	0.05
385	0.05
385	0.05
386	0.05
386	0.05
387	0.05
387	0.05
388	0.05
388	0.05
389	0.05
389	0.05
389	0.05
390	0.05
390	0.05
391	0.05
391	0.05
392	0.05
392	0.051
393	0.051
393	0.05
394	0.05
394	0.05
394	0.05
395	0.05
395	0.05
396	0.05
396	0.05
397	0.05
397	0.05
398	0.05
398	0.05
399	0.05
399	0.05
400	0.05
400	0.049
400	0.049
401	0.049
401	0.049
402	0.049
402	0.049
403	0.049
403	0.049
404	0.049
404	0.049
405	0.049
405	0.049
405	0.049
406	0.048
406	0.048
407	0.048
407	0.048
408	0.048
408	0.048
409	0.048
409	0.048
410	0.048
410	0.048
411	0.047
411	0.047
411	0.047
412	0.047
412	0.047
413	0.047
413	0.047
414	0.047
414	0.047
415	0.047
415	0.047
416	0.047
416	0.047
416	0.047
417	0.047
417	0.047
418	0.047
418	0.047
419	0.047
419	0.047
420	0.047
420	0.047
421	0.047
421	0.048
421	0.048
422	0.047
422	0.048
423	0.047
423	0.047
424	0.047
424	0.047
425	0.047
425	0.047
426	0.046
426	0.046
427	0.046
427	0.046
427	0.046
428	0.047
428	0.047
429	0.047
429	0.047
430	0.047
430	0.046
431	0.046
431	0.046
432	0.046
432	0.046
432	0.046
433	0.045
433	0.045
434	0.045
434	0.045
435	0.045
435	0.045
436	0.045
436	0.045
437	0.045
437	0.045
437	0.045
438	0.045
438	0.045
439	0.045
439	0.045
440	0.044
440	0.044
441	0.045
441	0.045
442	0.045
442	0.045
442	0.045
443	0.045
443	0.045
444	0.045
444	0.045
445	0.045
445	0.045
446	0.045
446	0.045
447	0.045
447	0.044
447	0.044
448	0.044
448	0.044
449	0.044
449	0.044
450	0.044
450	0.044
451	0.044
451	0.044
452	0.044
452	0.044
452	0.044
453	0.044
453	0.044
454	0.044
454	0.044
455	0.044
455	0.043
456	0.043
456	0.043
457	0.042
457	0.042
458	0.042
458	0.042
458	0.042
459	0.042
459	0.042
460	0.042
460	0.042
461	0.042
461	0.042
462	0.042
462	0.042
463	0.043
463	0.043
463	0.043
464	0.043
464	0.043
465	0.043
465	0.043
466	0.043
466	0.043
467	0.043
467	0.043
467	0.042
468	0.042
468	0.041
469	0.041
469	0.04
470	0.04
470	0.04
471	0.04
471	0.04
472	0.04
472	0.04
472	0.04
473	0.041
473	0.041
474	0.041
474	0.041
475	0.042
475	0.042
476	0.042
476	0.042
477	0.042
477	0.042
477	0.043
478	0.043
478	0.043
479	0.043
479	0.044
480	0.044
480	0.044
481	0.045
481	0.045
482	0.045
482	0.046
482	0.046
483	0.047
483	0.048
484	0.048
484	0.048
485	0.049
485	0.049
486	0.049
486	0.049
487	0.049
487	0.049
487	0.049
488	0.049
488	0.048
489	0.048
489	0.048
490	0.048
490	0.048
491	0.049
491	0.049
492	0.049
492	0.05
492	0.05
493	0.05
493	0.051
494	0.052
494	0.053
495	0.053
495	0.053
496	0.054
496	0.054
496	0.055
497	0.055
497	0.055
498	0.056
498	0.056
499	0.056
499	0.056
500	0.056
500	0.057
501	0.057
501	0.058
501	0.058
502	0.058
502	0.059
503	0.059
503	0.06
504	0.06
504	0.06
505	0.06
505	0.06
506	0.06
506	0.061
506	0.061
507	0.061
507	0.061
508	0.061
508	0.061
509	0.062
509	0.062
510	0.062
510	0.062
511	0.062
511	0.062
511	0.062
512	0.063
512	0.063
513	0.063
513	0.063
514	0.063
514	0.063
515	0.063
515	0.064
515	0.064
516	0.065
516	0.065
517	0.066
517	0.066
518	0.066
518	0.066
519	0.066
519	0.065
520	0.065
520	0.064
520	0.064
521	0.063
521	0.062
522	0.061
522	0.061
523	0.06
523	0.06
524	0.061
524	0.061
524	0.062
525	0.063
525	0.064
526	0.065
526	0.065
527	0.066
527	0.066
528	0.067
528	0.067
529	0.067
529	0.067
529	0.066
530	0.066
530	0.066
531	0.066
531	0.065
532	0.065
532	0.065
533	0.064
533	0.064
533	0.064
534	0.064
534	0.063
535	0.063
535	0.063
536	0.063
536	0.063
537	0.063
537	0.063
538	0.062
538	0.062
538	0.061
539	0.061
539	0.06
540	0.06
540	0.059
541	0.059
541	0.058
542	0.057
542	0.057
542	0.056
543	0.056
543	0.056
544	0.056
544	0.056
545	0.055
545	0.056
546	0.056
546	0.056
547	0.055
547	0.054
547	0.054
548	0.053
548	0.053
549	0.052
549	0.052
550	0.051
550	0.05
551	0.05
551	0.049
551	0.049
552	0.049
552	0.049
553	0.049
553	0.049
554	0.049
554	0.048
555	0.047
555	0.047
556	0.046
556	0.045
556	0.044
557	0.043
557	0.043
558	0.042
558	0.041
559	0.041
559	0.041
560	0.041
560	0.04
560	0.041
561	0.041
561	0.041
562	0.041
562	0.041
563	0.04
563	0.04
564	0.039
564	0.038
564	0.037
565	0.037
565	0.036
566	0.035
566	0.034
567	0.034
567	0.034
568	0.034
568	0.034
568	0.035
569	0.035
569	0.036
570	0.036
570	0.036
571	0.036
571	0.037
572	0.037
572	0.037
573	0.037
573	0.037
573	0.036
574	0.036
574	0.036
575	0.037
575	0.038
576	0.038
576	0.037
577	0.037
577	0.037
577	0.037
578	0.037
578	0.037
579	0.038
579	0.038
580	0.038
580	0.036
581	0.035
581	0.035
581	0.035
582	0.035
582	0.036
583	0.036
583	0.035
584	0.033
584	0.031
585	0.031
585	0.031
585	0.031
586	0.031
586	0.031
587	0.029
587	0.028
588	0.027
588	0.027
589	0.026
589	0.027
590	0.026
590	0.026
590	0.027
591	0.028
591	0.027
592	0.027
592	0.027
593	0.027
593	0.027
594	0.026
594	0.026
594	0.026
595	0.026
595	0.025
596	0.025
596	0.026
597	0.027
597	0.028
598	0.028
598	0.028
598	0.029
599	0.029
599	0.029
600	0.028
600	0.028
601	0.028
601	0.027
602	0.027
602	0.027
602	0.026
603	0.027
603	0.027
604	0.028
604	0.028
605	0.029
605	0.03
606	0.03
606	0.029
606	0.029
607	0.028
607	0.028
608	0.028
608	0.027
609	0.027
609	0.026
610	0.025
610	0.025
610	0.025
611	0.025
611	0.025
612	0.026
612	0.026
613	0.027
613	0.028
614	0.027
614	0.027
614	0.027
615	0.027
615	0.027
616	0.027
616	0.027
617	0.026
617	0.025
618	0.025
618	0.025
618	0.025
619	0.025
619	0.025
620	0.027
620	0.027
621	0.027
621	0.027
622	0.027
622	0.027
622	0.027
623	0.026
623	0.027
624	0.027
624	0.026
625	0.025
625	0.025
626	0.025
626	0.025
626	0.025
627	0.026
627	0.026
628	0.027
628	0.027
629	0.027
629	0.027
630	0.027
630	0.027
630	0.027
631	0.027
631	0.027
632	0.027
632	0.027
633	0.028
633	0.028
634	0.029
634	0.03
634	0.031
635	0.032
635	0.032
636	0.033
636	0.034
637	0.035
637	0.035
638	0.036
638	0.036
638	0.037
639	0.037
639	0.038
640	0.039
640	0.04
641	0.04
641	0.042
642	0.043
642	0.044
642	0.045
643	0.045
643	0.046
644	0.046
644	0.047
645	0.047
645	0.047
646	0.048
646	0.049
646	0.049
647	0.05
647	0.051
648	0.052
648	0.054
649	0.055
649	0.056
650	0.058
650	0.059
650	0.06
651	0.061
651	0.062
652	0.063
652	0.064
653	0.066
653	0.071
653	0.072
654	0.059
654	0.05
655	0.05
655	0.051
656	0.051
656	0.052
657	0.053
657	0.054
657	0.054
658	0.052
658	0.051
659	0.064
659	0.08
660	0.084
660	0.086
661	0.086
661	0.087
661	0.088
662	0.09
662	0.091
663	0.092
663	0.093
664	0.094
664	0.094
665	0.095
665	0.096
665	0.098
666	0.099
666	0.1
667	0.101
667	0.102
668	0.103
668	0.104
669	0.105
669	0.107
669	0.109
670	0.11
670	0.111
671	0.112
671	0.113
672	0.114
672	0.115
672	0.116
673	0.117
673	0.117
674	0.118
674	0.118
675	0.118
675	0.118
676	0.119
676	0.12
676	0.12
677	0.12
677	0.121
678	0.121
678	0.121
679	0.121
679	0.122
680	0.123
680	0.123
680	0.123
681	0.124
681	0.124
682	0.124
682	0.125
683	0.125
683	0.127
684	0.127
684	0.127
684	0.128
685	0.128
685	0.129
686	0.129
686	0.129
687	0.129
687	0.129
687	0.13
688	0.129
688	0.129
689	0.13
689	0.13
690	0.13
690	0.129
691	0.128
691	0.128
691	0.127
692	0.127
692	0.126
693	0.126
693	0.126
694	0.125
694	0.124
695	0.124
695	0.124
695	0.124
696	0.123
696	0.122
697	0.121
697	0.121
698	0.12
698	0.118
698	0.118
699	0.117
699	0.116
700	0.115
700	0.114
701	0.115
701	0.115
702	0.115
702	0.115
702	0.115
703	0.114
703	0.114
704	0.113
704	0.113
705	0.113
705	0.113
705	0.112
706	0.111
706	0.111
707	0.11
707	0.109
708	0.108
708	0.108
709	0.107
709	0.105
709	0.104
710	0.102
710	0.101
711	0.101
711	0.099
712	0.098
712	0.097
713	0.096
713	0.095
713	0.094
714	0.093
714	0.092
715	0.091
715	0.09
716	0.09
716	0.089
716	0.088
717	0.088
717	0.087
718	0.086
718	0.085
719	0.085
719	0.084
720	0.083
720	0.082
720	0.08
721	0.079
721	0.078
722	0.077
722	0.075
723	0.075
723	0.074
723	0.073
724	0.073
724	0.072
725	0.071
725	0.07
726	0.069
726	0.068
727	0.067
727	0.066
727	0.064
728	0.063
728	0.062
729	0.061
729	0.061
730	0.06
730	0.059
730	0.058
731	0.057
731	0.057
732	0.057
732	0.056
733	0.056
733	0.056
734	0.055
734	0.054
734	0.054
735	0.054
735	0.052
736	0.052
736	0.051
737	0.05
737	0.05
737	0.049
738	0.047
738	0.045
739	0.044
739	0.043
740	0.042
740	0.041
741	0.04
741	0.039
741	0.037
742	0.035
742	0.034
743	0.033
743	0.032
744	0.031
744	0.031
744	0.03
745	0.029
745	0.029
746	0.029
746	0.029
747	0.029
747	0.029
748	0.029
748	0.03
748	0.03
749	0.029
749	0.029
750	0.029
750	0.028
751	0.027
751	0.027
751	0.026
752	0.024
752	0.022
753	0.021
753	0.02
754	0.018
754	0.017
754	0.017
755	0.017
755	0.017
756	0.016
756	0.015
757	0.015
757	0.016
758	0.016
758	0.016
758	0.016
759	0.015
759	0.015
760	0.014
760	0.013
761	0.013
761	0.013
761	0.013
762	0.013
762	0.014
763	0.014
763	0.013
764	0.013
764	0.012
764	0.011
765	0.01
765	0.009
766	0.009
766	0.008
767	0.008
767	0.006
768	0.005
768	0.003
768	0.003
769	0.002
769	0
770	-0.001
770	-0.003
771	-0.005
771	-0.008
771	-0.01
772	-0.012
772	-0.014
773	-0.015
773	-0.017
774	-0.019
774	-0.021
775	-0.022
775	-0.023
775	-0.025
776	-0.026
776	-0.028
777	-0.029
777	-0.031
778	-0.033
778	-0.035
778	-0.037
779	-0.039
779	-0.041
780	-0.044
780	-0.046
781	-0.049
781	-0.052
781	-0.056
782	-0.06
782	-0.064
783	-0.068
783	-0.073
784	-0.079
784	-0.085
784	-0.092
785	-0.099
785	-0.106
786	-0.111
786	-0.113
787	-0.112
787	-0.113
788	-0.116
788	-0.119
788	-0.122
789	-0.125
789	-0.125
790	-0.123
790	-0.122
791	-0.124
791	-0.126
791	-0.129
792	-0.125
792	-0.115
793	-0.109
793	-0.105
794	-0.103
794	-0.105
794	-0.108
795	-0.11
795	-0.109
796	-0.109
796	-0.112
797	-0.119
797	-0.13
797	-0.136
798	-0.141
798	-0.144
799	-0.144
799	-0.144
800	-0.144
800	-0.146
801	-0.149
801	-0.151
801	-0.151
802	-0.152
802	-0.153
803	-0.154
803	-0.154
804	-0.152
804	-0.147
804	-0.139
805	-0.135
805	-0.132
806	-0.129
806	-0.127
807	-0.126
807	-0.125
807	-0.125
808	-0.125
808	-0.126
809	-0.131
809	-0.137
810	-0.141
810	-0.144
810	-0.148
811	-0.152
811	-0.153
812	-0.15
812	-0.148
813	-0.148
813	-0.149
813	-0.151
814	-0.152
814	-0.152
815	-0.149
815	-0.146
816	-0.144
816	-0.144
817	-0.147
817	-0.148
817	-0.145
818	-0.14
818	-0.134
819	-0.127
819	-0.121
820	-0.117
820	-0.112
820	-0.106
821	-0.099
821	-0.091
822	-0.084
822	-0.077
823	-0.071
823	-0.066
823	-0.061
824	-0.056
824	-0.051
825	-0.045
825	-0.04
826	-0.036
826	-0.033
826	-0.031
827	-0.029
827	-0.027
828	-0.025
828	-0.024
829	-0.022
829	-0.021
829	-0.021
830	-0.021
830	-0.02
831	-0.018
831	-0.017
832	-0.016
832	-0.015
832	-0.014
833	-0.014
833	-0.014
834	-0.014
834	-0.014
835	-0.014
835	-0.014
835	-0.015
836	-0.015
836	-0.015
837	-0.014
837	-0.014
838	-0.014
838	-0.013
839	-0.012
839	-0.011
839	-0.01
840	-0.009
840	-0.008
841	-0.008
841	-0.007
842	-0.006
842	-0.006
842	-0.005
843	-0.004
843	-0.004
844	-0.003
844	-0.003
845	-0.002
845	-0.002
845	-0.001
846	-0.001
846	-0.001
847	-0.001
847	-0.001
848	-0
848	-0
848	0
849	0.001
849	0.001
850	0.002
850	0.002
851	0.002
851	0.002
851	0.002
852	0.002
852	0.002
853	0.002
853	0.001
854	0.001
854	0.001
854	0.001
855	0.001
855	0.001
856	0.001
856	0.002
857	0.002
857	0.003
857	0.003
858	0.004
858	0.004
859	0.005
859	0.005
860	0.006
860	0.006
860	0.007
861	0.008
861	0.008
862	0.008
862	0.008
863	0.008
863	0.008
863	0.008
864	0.008
864	0.008
865	0.008
865	0.008
866	0.008
866	0.008
866	0.008
867	0.008
867	0.008
868	0.008
868	0.008
869	0.007
869	0.006
869	0.005
870	0.005
870	0.004
871	0.003
871	0.002
872	0.002
872	0.001
872	0.001
873	0.001
873	0.001
874	0.001
874	0.002
875	0.002
875	0.002
875	0.003
876	0.003
876	0.004
877	0.004
877	0.004
878	0.004
878	0.004
878	0.004
879	0.004
879	0.003
880	0.003
880	0.002
881	0.001
881	0.001
881	-0
882	-0.001
882	-0.002
883	-0.002
883	-0.002
884	-0.003
884	-0.003
884	-0.002
885	-0.002
885	-0.002
886	-0.001
886	-0.001
887	-0.001
887	-0
887	0
888	0.001
888	0.001
889	0.001
889	0.002
890	0.002
890	0.002
890	0.003
891	0.003
891	0.003
892	0.003
892	0.003
893	0.003
893	0.003
893	0.003
894	0.003
894	0.003
895	0.002
895	0.002
895	0.001
896	0
896	0
897	-0
897	-0.001
898	-0.002
898	-0.002
898	-0.003
899	-0.004
899	-0.005
900	-0.005
900	-0.006
901	-0.007
901	-0.007
901	-0.008
902	-0.009
902	-0.009
903	-0.01
903	-0.01
904	-0.011
904	-0.011
904	-0.011
905	-0.011
905	-0.01
906	-0.01
906	-0.009
907	-0.008
907	-0.007
907	-0.006
908	-0.005
908	-0.004
909	-0.002
909	-0.001
910	0.001
910	0.002
910	0.003
911	0.005
911	0.006
912	0.007
912	0.008
913	0.009
913	0.01
913	0.01
914	0.01
914	0.01
915	0.01
915	0.01
916	0.01
916	0.01
916	0.01
917	0.01
917	0.01
918	0.009
918	0.008
918	0.008
919	0.007
919	0.006
920	0.005
920	0.004
921	0.002
921	0.001
921	-0
922	-0.001
922	-0.001
923	-0.002
923	-0.002
924	-0.002
924	-0.002
924	-0.002
925	-0.002
925	-0.002
926	-0.002
926	-0.003
927	-0.003
927	-0.004
927	-0.004
928	-0.005
928	-0.005
929	-0.006
929	-0.006
930	-0.007
930	-0.007
930	-0.008
931	-0.009
931	-0.009
932	-0.01
932	-0.01
933	-0.011
933	-0.011
933	-0.012
934	-0.012
934	-0.013
935	-0.013
935	-0.014
935	-0.015
936	-0.015
936	-0.016
937	-0.016
937	-0.016
938	-0.016
938	-0.016
938	-0.016
939	-0.016
939	-0.015
940	-0.015
940	-0.014
941	-0.014
941	-0.013
941	-0.013
942	-0.012
942	-0.012
943	-0.011
943	-0.011
944	-0.011
944	-0.01
944	-0.01
945	-0.009
945	-0.009
946	-0.008
946	-0.008
946	-0.007
947	-0.005
947	-0.004
948	-0.003
948	-0.002
949	-0.002
949	-0.001
949	0
950	0.001
950	0.002
951	0.003
951	0.003
952	0.003
952	0.004
952	0.004
953	0.004
953	0.004
954	0.004
954	0.004
955	0.004
955	0.004
955	0.004
956	0.003
956	0.003
957	0.003
957	0.002
957	0.002
958	0.001
958	0.001
959	-0
959	-0.001
960	-0.002
960	-0.003
960	-0.004
961	-0.006
961	-0.007
962	-0.007
962	-0.008
963	-0.009
963	-0.01
963	-0.01
964	-0.01
964	-0.011
965	-0.011
965	-0.011
966	-0.01
966	-0.01
966	-0.01
967	-0.01
967	-0.01
968	-0.01
968	-0.01
968	-0.01
969	-0.01
969	-0.01
970	-0.01
970	-0.01
971	-0.01
971	-0.01
971	-0.01
972	-0.01
972	-0.01
973	-0.011
973	-0.011
974	-0.011
974	-0.01
974	-0.01
975	-0.01
975	-0.009
976	-0.009
976	-0.009
976	-0.009
977	-0.009
977	-0.008
978	-0.008
978	-0.008
979	-0.008
979	-0.008
979	-0.009
980	-0.009
980	-0.009
981	-0.009
981	-0.009
982	-0.009
982	-0.009
982	-0.009
983	-0.01
983	-0.01
984	-0.01
984	-0.011
984	-0.011
985	-0.011
985	-0.012
986	-0.012
986	-0.013
987	-0.013
987	-0.014
987	-0.014
988	-0.014
988	-0.014
989	-0.014
989	-0.014
990	-0.014
990	-0.014
990	-0.014
991	-0.013
991	-0.013
992	-0.012
992	-0.011
992	-0.011
993	-0.01
993	-0.009
994	-0.008
994	-0.007
995	-0.006
995	-0.005
995	-0.005
996	-0.004
996	-0.003
997	-0.003
997	-0.003
997	-0.003
998	-0.002
998	-0.002
999	-0.002
999	-0.002
1000	-0.002
1000	-0.003
1000	-0.003
1001	-0.003
1001	-0.003
1002	-0.004
1002	-0.004
1003	-0.005
1003	-0.006
1003	-0.006
1004	-0.007
1004	-0.008
1005	-0.009
1005	-0.009
1005	-0.01
1006	-0.011
1006	-0.011
1007	-0.012
1007	-0.012
1008	-0.012
1008	-0.012
1008	-0.012
1009	-0.012
1009	-0.012
1010	-0.012
1010	-0.011
1010	-0.011
1011	-0.01
1011	-0.01
1012	-0.009
1012	-0.009
1013	-0.008
1013	-0.008
1013	-0.007
1014	-0.007
1014	-0.007
1015	-0.006
1015	-0.006
1016	-0.006
1016	-0.006
1016	-0.006
1017	-0.007
1017	-0.007
1018	-0.007
1018	-0.007
1018	-0.007
1019	-0.007
1019	-0.008
1020	-0.008
1020	-0.008
1021	-0.009
1021	-0.01
1021	-0.01
1022	-0.011
1022	-0.012
1023	-0.013
1023	-0.014
1023	-0.016
1024	-0.017
1024	-0.018
1025	-0.019
1025	-0.02
1026	-0.02
1026	-0.02
1026	-0.021
1027	-0.021
1027	-0.02
1028	-0.02
1028	-0.019
1028	-0.018
1029	-0.017
1029	-0.016
1030	-0.015
1030	-0.014
1031	-0.013
1031	-0.013
1031	-0.012
1032	-0.012
1032	-0.011
1033	-0.011
1033	-0.011
1033	-0.011
1034	-0.012
1034	-0.012
1035	-0.012
1035	-0.013
1036	-0.013
1036	-0.013
1036	-0.014
1037	-0.014
1037	-0.014
1038	-0.014
1038	-0.014
1039	-0.014
1039	-0.014
1039	-0.014
1040	-0.014
1040	-0.014
1041	-0.015
1041	-0.015
1041	-0.016
1042	-0.017
1042	-0.017
1043	-0.018
1043	-0.019
1044	-0.02
1044	-0.021
1044	-0.021
1045	-0.022
1045	-0.022
1046	-0.022
1046	-0.023
1046	-0.022
1047	-0.022
1047	-0.022
1048	-0.021
1048	-0.021
1049	-0.021
1049	-0.021
1049	-0.021
1050	-0.021
1050	-0.022
1051	-0.021
1051	-0.021
1051	-0.021
1052	-0.021
1052	-0.021
1053	-0.021
1053	-0.021
1053	-0.021
1054	-0.021
1054	-0.021
1055	-0.02
1055	-0.021
1056	-0.021
1056	-0.022
1056	-0.023
1057	-0.024
1057	-0.024
1058	-0.025
1058	-0.026
1058	-0.027
1059	-0.027
1059	-0.028
1060	-0.029
1060	-0.029
1061	-0.029
1061	-0.029
1061	-0.029
1062	-0.03
1062	-0.03
1063	-0.031
1063	-0.031
1063	-0.031
1064	-0.031
1064	-0.03
1065	-0.03
1065	-0.03
1066	-0.03
1066	-0.03
1066	-0.03
1067	-0.029
1067	-0.028
1068	-0.028
1068	-0.028
1068	-0.028
1069	-0.027
1069	-0.027
1070	-0.027
1070	-0.027
1071	-0.027
1071	-0.026
1071	-0.026
1072	-0.026
1072	-0.025
1073	-0.025
1073	-0.024
1073	-0.024
1074	-0.024
1074	-0.023
1075	-0.023
1075	-0.022
1076	-0.022
1076	-0.022
1076	-0.022
1077	-0.022
1077	-0.022
1078	-0.022
1078	-0.021
1078	-0.021
1079	-0.021
1079	-0.02
1080	-0.02
1080	-0.019
1080	-0.018
1081	-0.017
1081	-0.016
1082	-0.016
1082	-0.015
1083	-0.015
1083	-0.014
1083	-0.014
1084	-0.014
1084	-0.013
1085	-0.013
1085	-0.012
1085	-0.012
1086	-0.012
1086	-0.012
1087	-0.011
1087	-0.01
1088	-0.011
1088	-0.011
1088	-0.01
1089	-0.009
1089	-0.008
1090	-0.008
1090	-0.007
1090	-0.006
1091	-0.005
1091	-0.003
1092	-0.002
1092	0
1092	0.001
1093	0.002
1093	0.003
1094	0.005
1094	0.005
1095	0.006
1095	0.007
1095	0.01
1096	0.011
1096	0.012
1097	0.014
1097	0.015
1097	0.017
1098	0.018
1098	0.019
1099	0.022
1099	0.024
1100	0.027
1100	0.029
1100	0.031
1101	0.033
1101	0.036
1102	0.039
1102	0.043
1102	0.047
1103	0.051
1103	0.056
1104	0.062
1104	0.068
1104	0.074
1105	0.081
1105	0.088
1106	0.093
1106	0.101
1107	0.107
1107	0.12
1107	0.135
1108	0.183
1108	0.251
1109	0.351
1109	0.536
1109	0.712
1110	1.284
1110	-0
1111	-0
1111	-0
