Data from 15c-2a_Absorbance__210__00210.txt Node

Date: Wed Jan 24 09:33:18 CET 2024
User: Marek
Spectrometer: MAYP115816
Trigger mode: 0
Integration Time (sec): 2.000000E-1
Scans to average: 10
Electric dark correction enabled: true
Nonlinearity correction enabled: true
Boxcar width: 5
XAxis mode: Wavelengths
Number of Pixels in Spectrum: 2068
>>>>>Begin Spectral Data<<<<<
199	-1.667
199	-1.506
200	-1.347
200	-1.224
201	-1.153
201	-1.101
202	-1.03
202	-0.973
203	-0.924
203	-0.882
204	-0.854
204	-0.83
205	-0.809
205	-0.801
205	-0.799
206	-0.794
206	-0.792
207	-0.788
207	-0.786
208	-0.784
208	-0.781
209	-0.78
209	-0.779
210	-0.779
210	-0.777
211	-0.775
211	-0.775
212	-0.773
212	-0.77
213	-0.768
213	-0.767
213	-0.764
214	-0.762
214	-0.759
215	-0.757
215	-0.753
216	-0.752
216	-0.749
217	-0.747
217	-0.747
218	-0.748
218	-0.745
219	-0.744
219	-0.74
220	-0.738
220	-0.736
221	-0.736
221	-0.733
221	-0.729
222	-0.724
222	-0.718
223	-0.712
223	-0.707
224	-0.698
224	-0.691
225	-0.684
225	-0.674
226	-0.665
226	-0.655
227	-0.643
227	-0.632
228	-0.615
228	-0.599
229	-0.58
229	-0.561
229	-0.538
230	-0.513
230	-0.485
231	-0.455
231	-0.424
232	-0.392
232	-0.358
233	-0.326
233	-0.292
234	-0.259
234	-0.226
235	-0.196
235	-0.166
236	-0.14
236	-0.114
236	-0.09
237	-0.069
237	-0.049
238	-0.031
238	-0.015
239	-0
239	0.013
240	0.026
240	0.036
241	0.046
241	0.055
242	0.063
242	0.071
243	0.077
243	0.083
243	0.089
244	0.094
244	0.099
245	0.103
245	0.107
246	0.111
246	0.114
247	0.118
247	0.121
248	0.124
248	0.127
249	0.13
249	0.132
250	0.135
250	0.137
250	0.14
251	0.142
251	0.144
252	0.146
252	0.148
253	0.15
253	0.152
254	0.154
254	0.155
255	0.157
255	0.158
256	0.159
256	0.16
257	0.161
257	0.162
258	0.163
258	0.163
258	0.164
259	0.165
259	0.165
260	0.165
260	0.166
261	0.166
261	0.166
262	0.166
262	0.165
263	0.165
263	0.165
264	0.165
264	0.164
265	0.163
265	0.163
265	0.162
266	0.162
266	0.161
267	0.16
267	0.159
268	0.158
268	0.157
269	0.156
269	0.154
270	0.153
270	0.152
271	0.15
271	0.149
272	0.147
272	0.146
272	0.144
273	0.143
273	0.141
274	0.14
274	0.138
275	0.137
275	0.135
276	0.133
276	0.132
277	0.13
277	0.128
278	0.126
278	0.125
278	0.123
279	0.121
279	0.119
280	0.117
280	0.116
281	0.114
281	0.113
282	0.111
282	0.11
283	0.108
283	0.107
284	0.106
284	0.105
285	0.103
285	0.102
285	0.1
286	0.099
286	0.098
287	0.097
287	0.095
288	0.094
288	0.093
289	0.092
289	0.091
290	0.09
290	0.089
291	0.088
291	0.087
292	0.086
292	0.085
292	0.085
293	0.084
293	0.083
294	0.083
294	0.082
295	0.082
295	0.081
296	0.081
296	0.08
297	0.079
297	0.079
298	0.078
298	0.078
298	0.077
299	0.077
299	0.077
300	0.076
300	0.076
301	0.076
301	0.075
302	0.075
302	0.075
303	0.075
303	0.075
304	0.074
304	0.074
305	0.074
305	0.074
305	0.073
306	0.073
306	0.073
307	0.073
307	0.073
308	0.072
308	0.072
309	0.072
309	0.072
310	0.071
310	0.071
311	0.071
311	0.071
311	0.07
312	0.07
312	0.07
313	0.07
313	0.069
314	0.069
314	0.069
315	0.069
315	0.068
316	0.068
316	0.068
317	0.068
317	0.067
318	0.067
318	0.067
318	0.066
319	0.066
319	0.066
320	0.066
320	0.065
321	0.065
321	0.065
322	0.065
322	0.065
323	0.064
323	0.064
324	0.064
324	0.063
324	0.063
325	0.063
325	0.063
326	0.062
326	0.062
327	0.062
327	0.062
328	0.061
328	0.061
329	0.061
329	0.061
330	0.06
330	0.06
330	0.06
331	0.06
331	0.059
332	0.059
332	0.059
333	0.058
333	0.058
334	0.058
334	0.057
335	0.057
335	0.057
336	0.057
336	0.056
336	0.056
337	0.056
337	0.056
338	0.056
338	0.056
339	0.056
339	0.055
340	0.055
340	0.055
341	0.055
341	0.054
342	0.054
342	0.054
342	0.054
343	0.054
343	0.053
344	0.053
344	0.053
345	0.053
345	0.053
346	0.053
346	0.053
347	0.052
347	0.052
348	0.052
348	0.052
348	0.052
349	0.051
349	0.051
350	0.051
350	0.051
351	0.05
351	0.05
352	0.05
352	0.05
353	0.049
353	0.049
354	0.049
354	0.049
354	0.048
355	0.048
355	0.048
356	0.048
356	0.047
357	0.047
357	0.047
358	0.047
358	0.047
359	0.047
359	0.047
360	0.047
360	0.047
360	0.047
361	0.047
361	0.047
362	0.047
362	0.047
363	0.047
363	0.047
364	0.047
364	0.047
365	0.047
365	0.047
366	0.047
366	0.047
366	0.047
367	0.047
367	0.047
368	0.047
368	0.047
369	0.046
369	0.046
370	0.046
370	0.046
371	0.046
371	0.046
372	0.046
372	0.046
372	0.046
373	0.046
373	0.046
374	0.046
374	0.045
375	0.045
375	0.045
376	0.045
376	0.045
377	0.045
377	0.045
378	0.045
378	0.045
378	0.045
379	0.045
379	0.045
380	0.045
380	0.045
381	0.045
381	0.045
382	0.045
382	0.045
383	0.045
383	0.045
383	0.045
384	0.045
384	0.045
385	0.045
385	0.045
386	0.045
386	0.045
387	0.045
387	0.045
388	0.045
388	0.045
389	0.045
389	0.045
389	0.045
390	0.045
390	0.045
391	0.045
391	0.045
392	0.045
392	0.045
393	0.045
393	0.045
394	0.045
394	0.045
394	0.045
395	0.045
395	0.045
396	0.044
396	0.044
397	0.044
397	0.044
398	0.045
398	0.045
399	0.045
399	0.045
400	0.044
400	0.044
400	0.044
401	0.044
401	0.044
402	0.044
402	0.043
403	0.043
403	0.043
404	0.043
404	0.043
405	0.043
405	0.043
405	0.043
406	0.042
406	0.042
407	0.042
407	0.042
408	0.042
408	0.042
409	0.042
409	0.041
410	0.041
410	0.041
411	0.041
411	0.042
411	0.042
412	0.041
412	0.041
413	0.041
413	0.041
414	0.041
414	0.041
415	0.041
415	0.041
416	0.041
416	0.041
416	0.041
417	0.041
417	0.041
418	0.041
418	0.041
419	0.041
419	0.041
420	0.041
420	0.041
421	0.041
421	0.041
421	0.042
422	0.042
422	0.041
423	0.041
423	0.041
424	0.041
424	0.041
425	0.04
425	0.04
426	0.04
426	0.039
427	0.039
427	0.039
427	0.04
428	0.04
428	0.04
429	0.041
429	0.041
430	0.041
430	0.041
431	0.041
431	0.041
432	0.04
432	0.04
432	0.04
433	0.04
433	0.039
434	0.039
434	0.039
435	0.039
435	0.039
436	0.039
436	0.039
437	0.039
437	0.039
437	0.039
438	0.039
438	0.039
439	0.039
439	0.039
440	0.038
440	0.038
441	0.038
441	0.038
442	0.039
442	0.039
442	0.039
443	0.039
443	0.039
444	0.039
444	0.039
445	0.039
445	0.039
446	0.039
446	0.04
447	0.039
447	0.039
447	0.039
448	0.039
448	0.039
449	0.039
449	0.039
450	0.039
450	0.039
451	0.038
451	0.038
452	0.038
452	0.038
452	0.038
453	0.037
453	0.037
454	0.037
454	0.037
455	0.036
455	0.036
456	0.036
456	0.036
457	0.035
457	0.035
458	0.035
458	0.035
458	0.035
459	0.035
459	0.035
460	0.035
460	0.035
461	0.035
461	0.035
462	0.035
462	0.035
463	0.035
463	0.036
463	0.036
464	0.036
464	0.036
465	0.036
465	0.036
466	0.037
466	0.037
467	0.037
467	0.036
467	0.036
468	0.036
468	0.035
469	0.035
469	0.034
470	0.034
470	0.034
471	0.034
471	0.034
472	0.034
472	0.034
472	0.034
473	0.035
473	0.035
474	0.035
474	0.035
475	0.035
475	0.035
476	0.036
476	0.036
477	0.036
477	0.036
477	0.036
478	0.036
478	0.036
479	0.036
479	0.037
480	0.037
480	0.038
481	0.038
481	0.038
482	0.038
482	0.039
482	0.039
483	0.039
483	0.04
484	0.041
484	0.041
485	0.041
485	0.041
486	0.042
486	0.042
487	0.042
487	0.042
487	0.042
488	0.042
488	0.041
489	0.041
489	0.041
490	0.041
490	0.041
491	0.041
491	0.041
492	0.041
492	0.042
492	0.042
493	0.042
493	0.043
494	0.043
494	0.043
495	0.044
495	0.044
496	0.045
496	0.045
496	0.046
497	0.046
497	0.047
498	0.047
498	0.047
499	0.047
499	0.047
500	0.047
500	0.048
501	0.048
501	0.048
501	0.049
502	0.049
502	0.049
503	0.05
503	0.051
504	0.051
504	0.052
505	0.052
505	0.052
506	0.052
506	0.052
506	0.052
507	0.052
507	0.052
508	0.052
508	0.052
509	0.052
509	0.052
510	0.053
510	0.053
511	0.053
511	0.053
511	0.053
512	0.053
512	0.054
513	0.054
513	0.054
514	0.053
514	0.053
515	0.053
515	0.053
515	0.053
516	0.053
516	0.054
517	0.054
517	0.054
518	0.054
518	0.055
519	0.055
519	0.055
520	0.054
520	0.054
520	0.054
521	0.053
521	0.052
522	0.05
522	0.05
523	0.049
523	0.048
524	0.048
524	0.048
524	0.049
525	0.049
525	0.05
526	0.051
526	0.052
527	0.053
527	0.054
528	0.055
528	0.055
529	0.056
529	0.056
529	0.056
530	0.056
530	0.056
531	0.056
531	0.055
532	0.055
532	0.054
533	0.054
533	0.053
533	0.053
534	0.053
534	0.053
535	0.053
535	0.053
536	0.052
536	0.053
537	0.053
537	0.053
538	0.053
538	0.053
538	0.052
539	0.052
539	0.052
540	0.051
540	0.051
541	0.05
541	0.05
542	0.049
542	0.049
542	0.048
543	0.048
543	0.048
544	0.048
544	0.048
545	0.048
545	0.047
546	0.048
546	0.048
547	0.048
547	0.047
547	0.047
548	0.046
548	0.045
549	0.045
549	0.044
550	0.044
550	0.044
551	0.043
551	0.043
551	0.042
552	0.042
552	0.042
553	0.042
553	0.042
554	0.042
554	0.041
555	0.041
555	0.04
556	0.039
556	0.038
556	0.037
557	0.037
557	0.036
558	0.036
558	0.035
559	0.035
559	0.035
560	0.035
560	0.035
560	0.036
561	0.036
561	0.036
562	0.036
562	0.036
563	0.036
563	0.036
564	0.035
564	0.035
564	0.034
565	0.033
565	0.033
566	0.032
566	0.031
567	0.031
567	0.031
568	0.031
568	0.031
568	0.032
569	0.032
569	0.033
570	0.033
570	0.034
571	0.034
571	0.034
572	0.034
572	0.035
573	0.035
573	0.035
573	0.035
574	0.034
574	0.034
575	0.034
575	0.034
576	0.034
576	0.034
577	0.033
577	0.033
577	0.033
578	0.033
578	0.032
579	0.033
579	0.033
580	0.033
580	0.032
581	0.032
581	0.031
581	0.031
582	0.031
582	0.031
583	0.031
583	0.031
584	0.03
584	0.029
585	0.029
585	0.029
585	0.029
586	0.029
586	0.029
587	0.029
587	0.028
588	0.028
588	0.027
589	0.027
589	0.026
590	0.026
590	0.026
590	0.026
591	0.026
591	0.025
592	0.025
592	0.025
593	0.025
593	0.025
594	0.025
594	0.024
594	0.024
595	0.024
595	0.023
596	0.023
596	0.024
597	0.024
597	0.025
598	0.025
598	0.025
598	0.026
599	0.026
599	0.026
600	0.025
600	0.025
601	0.025
601	0.024
602	0.024
602	0.024
602	0.024
603	0.025
603	0.025
604	0.026
604	0.027
605	0.027
605	0.028
606	0.028
606	0.027
606	0.027
607	0.026
607	0.025
608	0.025
608	0.024
609	0.023
609	0.023
610	0.022
610	0.021
610	0.021
611	0.021
611	0.021
612	0.022
612	0.023
613	0.024
613	0.025
614	0.025
614	0.025
614	0.025
615	0.025
615	0.025
616	0.025
616	0.025
617	0.024
617	0.024
618	0.023
618	0.022
618	0.021
619	0.02
619	0.02
620	0.02
620	0.02
621	0.02
621	0.02
622	0.019
622	0.02
622	0.02
623	0.019
623	0.02
624	0.02
624	0.02
625	0.02
625	0.02
626	0.02
626	0.02
626	0.021
627	0.021
627	0.022
628	0.022
628	0.023
629	0.023
629	0.023
630	0.023
630	0.023
630	0.023
631	0.024
631	0.024
632	0.024
632	0.024
633	0.024
633	0.024
634	0.024
634	0.025
634	0.026
635	0.027
635	0.027
636	0.028
636	0.028
637	0.029
637	0.029
638	0.029
638	0.03
638	0.031
639	0.031
639	0.031
640	0.032
640	0.032
641	0.032
641	0.033
642	0.034
642	0.034
642	0.035
643	0.035
643	0.035
644	0.035
644	0.035
645	0.036
645	0.036
646	0.037
646	0.037
646	0.038
647	0.039
647	0.04
648	0.041
648	0.042
649	0.043
649	0.044
650	0.045
650	0.046
650	0.046
651	0.047
651	0.048
652	0.049
652	0.05
653	0.052
653	0.055
653	0.049
654	0.041
654	0.034
655	0.036
655	0.037
656	0.038
656	0.039
657	0.04
657	0.04
657	0.041
658	0.04
658	0.044
659	0.054
659	0.066
660	0.068
660	0.068
661	0.069
661	0.07
661	0.071
662	0.072
662	0.074
663	0.075
663	0.077
664	0.078
664	0.079
665	0.08
665	0.082
665	0.083
666	0.084
666	0.084
667	0.085
667	0.085
668	0.086
668	0.086
669	0.087
669	0.088
669	0.09
670	0.091
670	0.092
671	0.093
671	0.095
672	0.096
672	0.097
672	0.097
673	0.098
673	0.099
674	0.099
674	0.099
675	0.099
675	0.099
676	0.099
676	0.099
676	0.099
677	0.1
677	0.1
678	0.1
678	0.1
679	0.101
679	0.101
680	0.101
680	0.102
680	0.102
681	0.102
681	0.102
682	0.103
682	0.103
683	0.104
683	0.105
684	0.106
684	0.106
684	0.107
685	0.107
685	0.108
686	0.108
686	0.109
687	0.109
687	0.11
687	0.11
688	0.11
688	0.111
689	0.111
689	0.112
690	0.112
690	0.112
691	0.111
691	0.111
691	0.11
692	0.109
692	0.109
693	0.108
693	0.107
694	0.106
694	0.105
695	0.105
695	0.104
695	0.104
696	0.103
696	0.102
697	0.102
697	0.101
698	0.1
698	0.099
698	0.098
699	0.098
699	0.097
700	0.097
700	0.096
701	0.096
701	0.096
702	0.096
702	0.096
702	0.096
703	0.095
703	0.095
704	0.094
704	0.093
705	0.093
705	0.093
705	0.092
706	0.092
706	0.091
707	0.091
707	0.09
708	0.089
708	0.089
709	0.088
709	0.087
709	0.086
710	0.085
710	0.083
711	0.083
711	0.082
712	0.081
712	0.081
713	0.08
713	0.08
713	0.079
714	0.079
714	0.078
715	0.078
715	0.077
716	0.077
716	0.077
716	0.076
717	0.076
717	0.075
718	0.074
718	0.073
719	0.073
719	0.072
720	0.072
720	0.071
720	0.07
721	0.069
721	0.068
722	0.067
722	0.066
723	0.065
723	0.064
723	0.064
724	0.063
724	0.062
725	0.061
725	0.06
726	0.059
726	0.058
727	0.057
727	0.056
727	0.055
728	0.054
728	0.053
729	0.053
729	0.052
730	0.052
730	0.051
730	0.051
731	0.051
731	0.05
732	0.05
732	0.05
733	0.049
733	0.048
734	0.048
734	0.047
734	0.046
735	0.046
735	0.045
736	0.044
736	0.044
737	0.044
737	0.044
737	0.043
738	0.042
738	0.041
739	0.04
739	0.039
740	0.037
740	0.036
741	0.034
741	0.032
741	0.031
742	0.028
742	0.027
743	0.025
743	0.024
744	0.023
744	0.022
744	0.021
745	0.02
745	0.02
746	0.02
746	0.02
747	0.02
747	0.02
748	0.021
748	0.021
748	0.022
749	0.022
749	0.022
750	0.023
750	0.023
751	0.022
751	0.022
751	0.022
752	0.021
752	0.02
753	0.019
753	0.018
754	0.017
754	0.016
754	0.016
755	0.016
755	0.017
756	0.017
756	0.017
757	0.017
757	0.017
758	0.018
758	0.018
758	0.017
759	0.017
759	0.016
760	0.015
760	0.014
761	0.013
761	0.012
761	0.011
762	0.01
762	0.009
763	0.008
763	0.008
764	0.007
764	0.005
764	0.004
765	0.004
765	0.003
766	0.002
766	0.002
767	0.002
767	0.001
768	-0.001
768	-0.002
768	-0.003
769	-0.005
769	-0.006
770	-0.007
770	-0.008
771	-0.01
771	-0.013
771	-0.015
772	-0.017
772	-0.019
773	-0.02
773	-0.022
774	-0.023
774	-0.025
775	-0.026
775	-0.027
775	-0.029
776	-0.03
776	-0.032
777	-0.034
777	-0.035
778	-0.038
778	-0.041
778	-0.043
779	-0.046
779	-0.048
780	-0.052
780	-0.055
781	-0.059
781	-0.064
781	-0.069
782	-0.075
782	-0.08
783	-0.086
783	-0.092
784	-0.098
784	-0.103
784	-0.109
785	-0.115
785	-0.12
786	-0.123
786	-0.123
787	-0.12
787	-0.118
788	-0.119
788	-0.121
788	-0.122
789	-0.125
789	-0.125
790	-0.123
790	-0.122
791	-0.123
791	-0.126
791	-0.129
792	-0.124
792	-0.114
793	-0.109
793	-0.105
794	-0.103
794	-0.104
794	-0.108
795	-0.109
795	-0.109
796	-0.109
796	-0.111
797	-0.119
797	-0.129
797	-0.135
798	-0.14
798	-0.143
799	-0.144
799	-0.144
800	-0.144
800	-0.146
801	-0.149
801	-0.15
801	-0.151
802	-0.152
802	-0.153
803	-0.153
803	-0.153
804	-0.152
804	-0.146
804	-0.139
805	-0.134
805	-0.131
806	-0.128
806	-0.127
807	-0.125
807	-0.125
807	-0.124
808	-0.124
808	-0.126
809	-0.131
809	-0.137
810	-0.141
810	-0.144
810	-0.148
811	-0.152
811	-0.153
812	-0.15
812	-0.147
813	-0.148
813	-0.149
813	-0.15
814	-0.151
814	-0.151
815	-0.149
815	-0.146
816	-0.144
816	-0.144
817	-0.147
817	-0.148
817	-0.145
818	-0.141
818	-0.135
819	-0.128
819	-0.122
820	-0.118
820	-0.114
820	-0.108
821	-0.101
821	-0.093
822	-0.086
822	-0.079
823	-0.073
823	-0.068
823	-0.064
824	-0.059
824	-0.054
825	-0.049
825	-0.044
826	-0.04
826	-0.037
826	-0.034
827	-0.031
827	-0.029
828	-0.027
828	-0.025
829	-0.024
829	-0.023
829	-0.022
830	-0.022
830	-0.021
831	-0.02
831	-0.018
832	-0.017
832	-0.016
832	-0.015
833	-0.013
833	-0.012
834	-0.011
834	-0.009
835	-0.008
835	-0.007
835	-0.007
836	-0.006
836	-0.006
837	-0.006
837	-0.006
838	-0.005
838	-0.005
839	-0.005
839	-0.005
839	-0.005
840	-0.005
840	-0.005
841	-0.005
841	-0.005
842	-0.004
842	-0.004
842	-0.003
843	-0.003
843	-0.003
844	-0.002
844	-0.001
845	-0.001
845	-0
845	-0
846	-0
846	-0
847	-0
847	-0
848	0
848	0
848	0.001
849	0.001
849	0.002
850	0.002
850	0.003
851	0.003
851	0.004
851	0.005
852	0.005
852	0.006
853	0.006
853	0.006
854	0.006
854	0.006
854	0.005
855	0.005
855	0.004
856	0.004
856	0.004
857	0.003
857	0.003
857	0.003
858	0.003
858	0.003
859	0.004
859	0.005
860	0.005
860	0.006
860	0.007
861	0.008
861	0.008
862	0.009
862	0.009
863	0.01
863	0.01
863	0.01
864	0.01
864	0.01
865	0.011
865	0.011
866	0.012
866	0.012
866	0.013
867	0.013
867	0.014
868	0.014
868	0.014
869	0.014
869	0.014
869	0.013
870	0.012
870	0.011
871	0.01
871	0.009
872	0.008
872	0.007
872	0.006
873	0.004
873	0.003
874	0.002
874	0.001
875	0.001
875	0
875	-0
876	-0
876	-0
877	0
877	0.001
878	0.002
878	0.003
878	0.003
879	0.004
879	0.005
880	0.005
880	0.006
881	0.006
881	0.006
881	0.006
882	0.006
882	0.005
883	0.005
883	0.004
884	0.004
884	0.004
884	0.003
885	0.003
885	0.003
886	0.003
886	0.003
887	0.003
887	0.004
887	0.004
888	0.005
888	0.005
889	0.006
889	0.006
890	0.007
890	0.007
890	0.007
891	0.007
891	0.007
892	0.006
892	0.006
893	0.006
893	0.006
893	0.007
894	0.007
894	0.008
895	0.008
895	0.009
895	0.009
896	0.01
896	0.01
897	0.011
897	0.011
898	0.011
898	0.011
898	0.011
899	0.01
899	0.01
900	0.01
900	0.01
901	0.01
901	0.009
901	0.009
902	0.009
902	0.008
903	0.008
903	0.007
904	0.007
904	0.006
904	0.006
905	0.006
905	0.006
906	0.006
906	0.006
907	0.006
907	0.006
907	0.005
908	0.005
908	0.005
909	0.005
909	0.005
910	0.005
910	0.004
910	0.004
911	0.004
911	0.004
912	0.004
912	0.004
913	0.004
913	0.004
913	0.003
914	0.004
914	0.004
915	0.004
915	0.004
916	0.005
916	0.006
916	0.006
917	0.007
917	0.008
918	0.008
918	0.008
918	0.008
919	0.008
919	0.007
920	0.007
920	0.006
921	0.005
921	0.004
921	0.003
922	0.003
922	0.003
923	0.002
923	0.002
924	0.002
924	0.002
924	0.001
925	0.001
925	0.001
926	0
926	0
927	-0
927	-0.001
927	-0.001
928	-0.001
928	-0.002
929	-0.002
929	-0.002
930	-0.002
930	-0.002
930	-0.002
931	-0.002
931	-0.002
932	-0.003
932	-0.003
933	-0.003
933	-0.004
933	-0.004
934	-0.005
934	-0.005
935	-0.006
935	-0.006
935	-0.006
936	-0.007
936	-0.007
937	-0.006
937	-0.006
938	-0.006
938	-0.005
938	-0.004
939	-0.003
939	-0.003
940	-0.002
940	-0.001
941	-0.001
941	-0.001
941	-0
942	0
942	0
943	0.001
943	0.001
944	0.001
944	0.002
944	0.002
945	0.003
945	0.004
946	0.005
946	0.005
946	0.006
947	0.007
947	0.008
948	0.009
948	0.01
949	0.011
949	0.012
949	0.012
950	0.013
950	0.013
951	0.014
951	0.014
952	0.014
952	0.014
952	0.014
953	0.014
953	0.014
954	0.014
954	0.014
955	0.014
955	0.014
955	0.014
956	0.014
956	0.013
957	0.013
957	0.012
957	0.011
958	0.011
958	0.01
959	0.009
959	0.008
960	0.007
960	0.006
960	0.005
961	0.004
961	0.003
962	0.002
962	0.001
963	0.001
963	0
963	-0
964	-0
964	-0.001
965	-0
965	-0
966	0
966	0.001
966	0.001
967	0.002
967	0.003
968	0.003
968	0.003
968	0.003
969	0.003
969	0.003
970	0.003
970	0.002
971	0.001
971	0.001
971	-0.001
972	-0.002
972	-0.003
973	-0.004
973	-0.005
974	-0.006
974	-0.007
974	-0.007
975	-0.007
975	-0.007
976	-0.007
976	-0.007
976	-0.007
977	-0.007
977	-0.007
978	-0.007
978	-0.007
979	-0.007
979	-0.006
979	-0.006
980	-0.006
980	-0.006
981	-0.006
981	-0.006
982	-0.006
982	-0.006
982	-0.006
983	-0.006
983	-0.006
984	-0.006
984	-0.006
984	-0.007
985	-0.007
985	-0.007
986	-0.007
986	-0.007
987	-0.007
987	-0.007
987	-0.006
988	-0.006
988	-0.005
989	-0.004
989	-0.004
990	-0.003
990	-0.002
990	-0.002
991	-0.001
991	-0.001
992	-0
992	-0.001
992	-0
993	-0
993	-0.001
994	-0.001
994	-0.001
995	-0.001
995	-0.001
995	-0.001
996	-0.001
996	-0.002
997	-0.002
997	-0.002
997	-0.002
998	-0.002
998	-0.002
999	-0.002
999	-0.002
1000	-0.003
1000	-0.003
1000	-0.003
1001	-0.003
1001	-0.003
1002	-0.003
1002	-0.003
1003	-0.003
1003	-0.003
1003	-0.003
1004	-0.003
1004	-0.003
1005	-0.003
1005	-0.003
1005	-0.003
1006	-0.003
1006	-0.002
1007	-0.003
1007	-0.003
1008	-0.003
1008	-0.003
1008	-0.004
1009	-0.004
1009	-0.004
1010	-0.005
1010	-0.005
1010	-0.005
1011	-0.005
1011	-0.005
1012	-0.005
1012	-0.004
1013	-0.004
1013	-0.003
1013	-0.003
1014	-0.002
1014	-0.001
1015	-0.001
1015	-0
1016	0
1016	0.001
1016	0.001
1017	0.002
1017	0.002
1018	0.002
1018	0.001
1018	0.001
1019	0.001
1019	0.001
1020	0.001
1020	0.001
1021	0.001
1021	0
1021	0
1022	0
1022	0
1023	0
1023	0
1023	0
1024	-0
1024	-0.001
1025	-0.001
1025	-0.001
1026	-0.001
1026	-0.001
1026	-0.001
1027	-0.001
1027	-0.001
1028	-0.001
1028	-0
1028	0
1029	0.001
1029	0.002
1030	0.002
1030	0.003
1031	0.003
1031	0.004
1031	0.004
1032	0.004
1032	0.004
1033	0.004
1033	0.004
1033	0.004
1034	0.003
1034	0.003
1035	0.002
1035	0.002
1036	0.001
1036	0.001
1036	0.001
1037	0
1037	0
1038	0
1038	0
1039	0.001
1039	0.001
1039	0.002
1040	0.002
1040	0.002
1041	0.002
1041	0.002
1041	0.003
1042	0.003
1042	0.003
1043	0.003
1043	0.003
1044	0.003
1044	0.002
1044	0.002
1045	0.002
1045	0.002
1046	0.002
1046	0.001
1046	0.001
1047	0.001
1047	0
1048	0
1048	0
1049	-0
1049	-0.001
1049	-0.001
1050	-0.001
1050	-0.001
1051	-0.001
1051	-0.001
1051	-0
1052	0
1052	0
1053	0.001
1053	0.001
1053	0.002
1054	0.003
1054	0.003
1055	0.004
1055	0.004
1056	0.004
1056	0.004
1056	0.004
1057	0.004
1057	0.004
1058	0.004
1058	0.004
1058	0.004
1059	0.004
1059	0.004
1060	0.005
1060	0.005
1061	0.005
1061	0.006
1061	0.006
1062	0.007
1062	0.007
1063	0.007
1063	0.007
1063	0.006
1064	0.007
1064	0.007
1065	0.007
1065	0.006
1066	0.007
1066	0.006
1066	0.006
1067	0.006
1067	0.006
1068	0.006
1068	0.006
1068	0.006
1069	0.006
1069	0.006
1070	0.007
1070	0.007
1071	0.008
1071	0.008
1071	0.009
1072	0.01
1072	0.012
1073	0.012
1073	0.014
1073	0.015
1074	0.016
1074	0.016
1075	0.017
1075	0.018
1076	0.019
1076	0.02
1076	0.02
1077	0.021
1077	0.022
1078	0.023
1078	0.024
1078	0.025
1079	0.027
1079	0.028
1080	0.029
1080	0.03
1080	0.031
1081	0.032
1081	0.033
1082	0.033
1082	0.033
1083	0.033
1083	0.034
1083	0.034
1084	0.034
1084	0.035
1085	0.036
1085	0.037
1085	0.037
1086	0.038
1086	0.038
1087	0.04
1087	0.041
1088	0.042
1088	0.043
1088	0.046
1089	0.047
1089	0.049
1090	0.051
1090	0.054
1090	0.056
1091	0.059
1091	0.061
1092	0.064
1092	0.066
1092	0.069
1093	0.071
1093	0.073
1094	0.075
1094	0.077
1095	0.079
1095	0.081
1095	0.084
1096	0.086
1096	0.089
1097	0.092
1097	0.094
1097	0.098
1098	0.101
1098	0.104
1099	0.11
1099	0.114
1100	0.12
1100	0.125
1100	0.131
1101	0.137
1101	0.144
1102	0.152
1102	0.161
1102	0.17
1103	0.181
1103	0.191
1104	0.205
1104	0.218
1104	0.232
1105	0.248
1105	0.265
1106	0.281
1106	0.302
1107	0.325
1107	0.358
1107	0.397
1108	0.515
1108	0.727
1109	1.406
1109	-0
1109	-0
1110	-0
1110	-0
1111	-0
1111	-0
