Data from 15c-2a_Absorbance__228__00228.txt Node

Date: Wed Jan 24 09:33:54 CET 2024
User: Marek
Spectrometer: MAYP115816
Trigger mode: 0
Integration Time (sec): 2.000000E-1
Scans to average: 10
Electric dark correction enabled: true
Nonlinearity correction enabled: true
Boxcar width: 5
XAxis mode: Wavelengths
Number of Pixels in Spectrum: 2068
>>>>>Begin Spectral Data<<<<<
199	-1.651
199	-1.49
200	-1.331
200	-1.21
201	-1.138
201	-1.086
202	-1.016
202	-0.959
203	-0.911
203	-0.87
204	-0.843
204	-0.819
205	-0.798
205	-0.79
205	-0.787
206	-0.784
206	-0.782
207	-0.778
207	-0.776
208	-0.774
208	-0.772
209	-0.77
209	-0.769
210	-0.768
210	-0.766
211	-0.765
211	-0.764
212	-0.761
212	-0.76
213	-0.757
213	-0.755
213	-0.753
214	-0.75
214	-0.746
215	-0.746
215	-0.742
216	-0.74
216	-0.738
217	-0.737
217	-0.737
218	-0.737
218	-0.735
219	-0.734
219	-0.731
220	-0.729
220	-0.727
221	-0.728
221	-0.725
221	-0.72
222	-0.715
222	-0.708
223	-0.702
223	-0.696
224	-0.688
224	-0.681
225	-0.674
225	-0.665
226	-0.655
226	-0.645
227	-0.633
227	-0.623
228	-0.607
228	-0.591
229	-0.573
229	-0.554
229	-0.531
230	-0.505
230	-0.477
231	-0.448
231	-0.417
232	-0.385
232	-0.352
233	-0.319
233	-0.286
234	-0.253
234	-0.221
235	-0.19
235	-0.162
236	-0.135
236	-0.11
236	-0.086
237	-0.065
237	-0.045
238	-0.028
238	-0.011
239	0.003
239	0.016
240	0.028
240	0.039
241	0.049
241	0.057
242	0.065
242	0.072
243	0.078
243	0.084
243	0.09
244	0.094
244	0.099
245	0.103
245	0.107
246	0.111
246	0.114
247	0.118
247	0.121
248	0.124
248	0.127
249	0.129
249	0.132
250	0.135
250	0.137
250	0.14
251	0.142
251	0.144
252	0.146
252	0.148
253	0.15
253	0.152
254	0.153
254	0.155
255	0.157
255	0.158
256	0.159
256	0.16
257	0.161
257	0.162
258	0.163
258	0.163
258	0.164
259	0.165
259	0.165
260	0.165
260	0.166
261	0.166
261	0.166
262	0.166
262	0.166
263	0.166
263	0.166
264	0.165
264	0.165
265	0.164
265	0.164
265	0.163
266	0.162
266	0.161
267	0.16
267	0.159
268	0.158
268	0.157
269	0.155
269	0.154
270	0.153
270	0.151
271	0.15
271	0.149
272	0.147
272	0.146
272	0.144
273	0.142
273	0.141
274	0.139
274	0.138
275	0.136
275	0.135
276	0.133
276	0.131
277	0.13
277	0.128
278	0.126
278	0.125
278	0.123
279	0.121
279	0.119
280	0.118
280	0.116
281	0.114
281	0.113
282	0.111
282	0.11
283	0.108
283	0.107
284	0.106
284	0.105
285	0.103
285	0.102
285	0.1
286	0.099
286	0.098
287	0.097
287	0.095
288	0.094
288	0.093
289	0.092
289	0.091
290	0.09
290	0.089
291	0.088
291	0.087
292	0.086
292	0.085
292	0.084
293	0.083
293	0.083
294	0.082
294	0.081
295	0.081
295	0.08
296	0.08
296	0.079
297	0.078
297	0.078
298	0.078
298	0.077
298	0.077
299	0.076
299	0.076
300	0.076
300	0.075
301	0.075
301	0.075
302	0.075
302	0.074
303	0.074
303	0.074
304	0.074
304	0.074
305	0.073
305	0.073
305	0.073
306	0.073
306	0.073
307	0.072
307	0.072
308	0.072
308	0.072
309	0.071
309	0.071
310	0.071
310	0.071
311	0.07
311	0.07
311	0.07
312	0.07
312	0.069
313	0.069
313	0.069
314	0.068
314	0.068
315	0.068
315	0.068
316	0.068
316	0.068
317	0.067
317	0.067
318	0.067
318	0.066
318	0.066
319	0.066
319	0.066
320	0.065
320	0.065
321	0.065
321	0.064
322	0.064
322	0.064
323	0.064
323	0.063
324	0.063
324	0.063
324	0.063
325	0.062
325	0.062
326	0.062
326	0.062
327	0.061
327	0.061
328	0.061
328	0.061
329	0.061
329	0.06
330	0.06
330	0.06
330	0.06
331	0.059
331	0.059
332	0.059
332	0.058
333	0.058
333	0.058
334	0.057
334	0.057
335	0.057
335	0.056
336	0.056
336	0.056
336	0.055
337	0.056
337	0.055
338	0.055
338	0.055
339	0.055
339	0.055
340	0.054
340	0.054
341	0.054
341	0.054
342	0.054
342	0.054
342	0.053
343	0.053
343	0.053
344	0.053
344	0.053
345	0.052
345	0.052
346	0.052
346	0.052
347	0.052
347	0.051
348	0.051
348	0.051
348	0.051
349	0.051
349	0.05
350	0.05
350	0.05
351	0.05
351	0.05
352	0.049
352	0.049
353	0.049
353	0.049
354	0.048
354	0.048
354	0.048
355	0.048
355	0.047
356	0.047
356	0.047
357	0.047
357	0.047
358	0.046
358	0.046
359	0.046
359	0.046
360	0.046
360	0.046
360	0.046
361	0.047
361	0.047
362	0.047
362	0.047
363	0.047
363	0.047
364	0.047
364	0.047
365	0.047
365	0.046
366	0.046
366	0.046
366	0.046
367	0.046
367	0.046
368	0.046
368	0.046
369	0.046
369	0.046
370	0.046
370	0.046
371	0.046
371	0.046
372	0.045
372	0.045
372	0.045
373	0.045
373	0.045
374	0.045
374	0.045
375	0.045
375	0.045
376	0.045
376	0.045
377	0.045
377	0.045
378	0.045
378	0.045
378	0.045
379	0.045
379	0.045
380	0.045
380	0.045
381	0.045
381	0.045
382	0.045
382	0.045
383	0.045
383	0.045
383	0.045
384	0.045
384	0.045
385	0.045
385	0.045
386	0.045
386	0.045
387	0.045
387	0.044
388	0.044
388	0.044
389	0.044
389	0.044
389	0.044
390	0.044
390	0.044
391	0.044
391	0.044
392	0.044
392	0.044
393	0.044
393	0.044
394	0.044
394	0.044
394	0.044
395	0.044
395	0.044
396	0.044
396	0.043
397	0.044
397	0.044
398	0.044
398	0.044
399	0.044
399	0.044
400	0.044
400	0.044
400	0.044
401	0.043
401	0.043
402	0.043
402	0.043
403	0.043
403	0.043
404	0.043
404	0.043
405	0.043
405	0.043
405	0.043
406	0.042
406	0.042
407	0.042
407	0.042
408	0.042
408	0.042
409	0.042
409	0.041
410	0.041
410	0.041
411	0.041
411	0.041
411	0.041
412	0.041
412	0.041
413	0.041
413	0.041
414	0.041
414	0.041
415	0.041
415	0.041
416	0.041
416	0.041
416	0.041
417	0.041
417	0.04
418	0.04
418	0.041
419	0.04
419	0.041
420	0.041
420	0.041
421	0.041
421	0.041
421	0.041
422	0.041
422	0.041
423	0.041
423	0.041
424	0.041
424	0.04
425	0.04
425	0.039
426	0.039
426	0.039
427	0.039
427	0.039
427	0.04
428	0.04
428	0.04
429	0.04
429	0.041
430	0.041
430	0.041
431	0.041
431	0.041
432	0.04
432	0.04
432	0.04
433	0.04
433	0.039
434	0.039
434	0.039
435	0.038
435	0.038
436	0.038
436	0.038
437	0.038
437	0.038
437	0.038
438	0.038
438	0.038
439	0.038
439	0.038
440	0.038
440	0.038
441	0.038
441	0.038
442	0.038
442	0.039
442	0.039
443	0.039
443	0.039
444	0.039
444	0.039
445	0.039
445	0.04
446	0.04
446	0.04
447	0.04
447	0.039
447	0.039
448	0.039
448	0.039
449	0.039
449	0.039
450	0.039
450	0.039
451	0.038
451	0.038
452	0.038
452	0.038
452	0.037
453	0.037
453	0.037
454	0.037
454	0.036
455	0.036
455	0.036
456	0.036
456	0.036
457	0.035
457	0.035
458	0.035
458	0.035
458	0.035
459	0.035
459	0.035
460	0.035
460	0.035
461	0.035
461	0.035
462	0.035
462	0.035
463	0.036
463	0.036
463	0.036
464	0.036
464	0.036
465	0.036
465	0.036
466	0.037
466	0.037
467	0.037
467	0.036
467	0.036
468	0.036
468	0.035
469	0.035
469	0.035
470	0.034
470	0.034
471	0.034
471	0.034
472	0.034
472	0.034
472	0.035
473	0.035
473	0.035
474	0.036
474	0.036
475	0.036
475	0.036
476	0.036
476	0.036
477	0.036
477	0.036
477	0.036
478	0.036
478	0.036
479	0.037
479	0.037
480	0.037
480	0.038
481	0.038
481	0.038
482	0.039
482	0.039
482	0.039
483	0.04
483	0.04
484	0.041
484	0.041
485	0.041
485	0.041
486	0.042
486	0.042
487	0.042
487	0.042
487	0.042
488	0.042
488	0.041
489	0.041
489	0.041
490	0.041
490	0.041
491	0.041
491	0.041
492	0.042
492	0.042
492	0.042
493	0.043
493	0.043
494	0.044
494	0.044
495	0.045
495	0.045
496	0.046
496	0.046
496	0.046
497	0.047
497	0.047
498	0.048
498	0.048
499	0.048
499	0.048
500	0.048
500	0.048
501	0.049
501	0.049
501	0.049
502	0.049
502	0.05
503	0.05
503	0.051
504	0.051
504	0.052
505	0.052
505	0.053
506	0.053
506	0.053
506	0.053
507	0.053
507	0.053
508	0.053
508	0.053
509	0.053
509	0.053
510	0.053
510	0.053
511	0.053
511	0.053
511	0.053
512	0.054
512	0.054
513	0.054
513	0.054
514	0.054
514	0.054
515	0.054
515	0.054
515	0.054
516	0.054
516	0.054
517	0.055
517	0.055
518	0.055
518	0.055
519	0.055
519	0.055
520	0.055
520	0.054
520	0.054
521	0.053
521	0.052
522	0.051
522	0.051
523	0.05
523	0.049
524	0.049
524	0.049
524	0.05
525	0.05
525	0.051
526	0.052
526	0.053
527	0.054
527	0.055
528	0.056
528	0.056
529	0.057
529	0.057
529	0.057
530	0.057
530	0.057
531	0.056
531	0.056
532	0.055
532	0.055
533	0.054
533	0.054
533	0.054
534	0.053
534	0.053
535	0.053
535	0.053
536	0.053
536	0.053
537	0.053
537	0.053
538	0.053
538	0.052
538	0.052
539	0.052
539	0.051
540	0.051
540	0.051
541	0.05
541	0.05
542	0.049
542	0.049
542	0.048
543	0.048
543	0.048
544	0.048
544	0.048
545	0.047
545	0.047
546	0.048
546	0.048
547	0.047
547	0.047
547	0.046
548	0.046
548	0.045
549	0.045
549	0.044
550	0.044
550	0.043
551	0.043
551	0.042
551	0.042
552	0.042
552	0.042
553	0.041
553	0.042
554	0.041
554	0.041
555	0.04
555	0.04
556	0.039
556	0.038
556	0.037
557	0.037
557	0.036
558	0.035
558	0.035
559	0.035
559	0.035
560	0.035
560	0.035
560	0.035
561	0.036
561	0.036
562	0.036
562	0.036
563	0.036
563	0.036
564	0.036
564	0.035
564	0.034
565	0.034
565	0.033
566	0.032
566	0.032
567	0.031
567	0.031
568	0.031
568	0.031
568	0.032
569	0.033
569	0.033
570	0.033
570	0.033
571	0.034
571	0.034
572	0.034
572	0.034
573	0.035
573	0.035
573	0.034
574	0.034
574	0.034
575	0.034
575	0.034
576	0.034
576	0.034
577	0.033
577	0.033
577	0.033
578	0.033
578	0.032
579	0.033
579	0.033
580	0.033
580	0.032
581	0.032
581	0.031
581	0.031
582	0.03
582	0.03
583	0.031
583	0.03
584	0.03
584	0.029
585	0.029
585	0.029
585	0.029
586	0.029
586	0.029
587	0.029
587	0.028
588	0.028
588	0.027
589	0.027
589	0.026
590	0.026
590	0.026
590	0.026
591	0.025
591	0.025
592	0.025
592	0.025
593	0.025
593	0.024
594	0.024
594	0.024
594	0.024
595	0.024
595	0.023
596	0.023
596	0.024
597	0.024
597	0.025
598	0.025
598	0.025
598	0.025
599	0.026
599	0.025
600	0.025
600	0.024
601	0.024
601	0.024
602	0.024
602	0.024
602	0.024
603	0.024
603	0.025
604	0.026
604	0.026
605	0.027
605	0.028
606	0.028
606	0.027
606	0.027
607	0.026
607	0.025
608	0.025
608	0.024
609	0.023
609	0.022
610	0.022
610	0.021
610	0.021
611	0.021
611	0.021
612	0.022
612	0.022
613	0.023
613	0.024
614	0.024
614	0.024
614	0.025
615	0.025
615	0.025
616	0.025
616	0.024
617	0.024
617	0.023
618	0.022
618	0.022
618	0.021
619	0.02
619	0.02
620	0.02
620	0.02
621	0.02
621	0.02
622	0.019
622	0.02
622	0.02
623	0.019
623	0.02
624	0.02
624	0.02
625	0.02
625	0.02
626	0.02
626	0.02
626	0.02
627	0.021
627	0.021
628	0.022
628	0.022
629	0.022
629	0.023
630	0.023
630	0.023
630	0.023
631	0.023
631	0.023
632	0.024
632	0.024
633	0.024
633	0.024
634	0.024
634	0.025
634	0.026
635	0.027
635	0.027
636	0.028
636	0.029
637	0.029
637	0.029
638	0.029
638	0.03
638	0.031
639	0.031
639	0.031
640	0.031
640	0.032
641	0.033
641	0.033
642	0.034
642	0.034
642	0.035
643	0.035
643	0.035
644	0.035
644	0.035
645	0.036
645	0.036
646	0.036
646	0.037
646	0.038
647	0.038
647	0.04
648	0.041
648	0.042
649	0.043
649	0.044
650	0.045
650	0.046
650	0.046
651	0.047
651	0.048
652	0.049
652	0.05
653	0.051
653	0.054
653	0.049
654	0.04
654	0.034
655	0.036
655	0.037
656	0.038
656	0.038
657	0.039
657	0.04
657	0.04
658	0.039
658	0.044
659	0.053
659	0.066
660	0.067
660	0.068
661	0.068
661	0.069
661	0.07
662	0.072
662	0.073
663	0.074
663	0.076
664	0.077
664	0.078
665	0.08
665	0.081
665	0.082
666	0.083
666	0.084
667	0.084
667	0.084
668	0.085
668	0.086
669	0.086
669	0.087
669	0.089
670	0.09
670	0.091
671	0.093
671	0.094
672	0.095
672	0.096
672	0.097
673	0.097
673	0.098
674	0.098
674	0.099
675	0.099
675	0.099
676	0.099
676	0.099
676	0.099
677	0.099
677	0.099
678	0.1
678	0.1
679	0.1
679	0.101
680	0.101
680	0.101
680	0.101
681	0.102
681	0.102
682	0.102
682	0.103
683	0.103
683	0.104
684	0.105
684	0.105
684	0.106
685	0.106
685	0.107
686	0.107
686	0.108
687	0.109
687	0.109
687	0.109
688	0.109
688	0.11
689	0.11
689	0.111
690	0.111
690	0.111
691	0.11
691	0.11
691	0.109
692	0.108
692	0.108
693	0.107
693	0.106
694	0.106
694	0.104
695	0.104
695	0.104
695	0.104
696	0.103
696	0.102
697	0.101
697	0.1
698	0.099
698	0.098
698	0.098
699	0.097
699	0.097
700	0.096
700	0.095
701	0.095
701	0.095
702	0.095
702	0.095
702	0.095
703	0.094
703	0.094
704	0.093
704	0.093
705	0.092
705	0.092
705	0.092
706	0.091
706	0.091
707	0.09
707	0.09
708	0.089
708	0.088
709	0.088
709	0.087
709	0.086
710	0.084
710	0.083
711	0.083
711	0.082
712	0.081
712	0.08
713	0.08
713	0.08
713	0.079
714	0.078
714	0.078
715	0.077
715	0.077
716	0.076
716	0.076
716	0.076
717	0.075
717	0.075
718	0.074
718	0.073
719	0.073
719	0.072
720	0.072
720	0.071
720	0.07
721	0.069
721	0.068
722	0.067
722	0.065
723	0.065
723	0.064
723	0.063
724	0.062
724	0.061
725	0.061
725	0.06
726	0.059
726	0.058
727	0.057
727	0.056
727	0.055
728	0.054
728	0.053
729	0.053
729	0.052
730	0.052
730	0.051
730	0.051
731	0.05
731	0.05
732	0.05
732	0.049
733	0.049
733	0.048
734	0.047
734	0.047
734	0.046
735	0.045
735	0.045
736	0.044
736	0.044
737	0.043
737	0.043
737	0.043
738	0.042
738	0.041
739	0.04
739	0.038
740	0.037
740	0.035
741	0.034
741	0.032
741	0.031
742	0.029
742	0.027
743	0.026
743	0.024
744	0.023
744	0.022
744	0.022
745	0.021
745	0.02
746	0.02
746	0.02
747	0.02
747	0.021
748	0.021
748	0.022
748	0.022
749	0.022
749	0.023
750	0.023
750	0.023
751	0.023
751	0.022
751	0.022
752	0.021
752	0.02
753	0.018
753	0.017
754	0.017
754	0.016
754	0.016
755	0.016
755	0.016
756	0.017
756	0.017
757	0.017
757	0.017
758	0.017
758	0.017
758	0.017
759	0.017
759	0.016
760	0.015
760	0.013
761	0.012
761	0.012
761	0.011
762	0.01
762	0.009
763	0.008
763	0.008
764	0.007
764	0.006
764	0.005
765	0.004
765	0.003
766	0.002
766	0.002
767	0.002
767	0.001
768	-0.001
768	-0.002
768	-0.003
769	-0.004
769	-0.005
770	-0.007
770	-0.008
771	-0.01
771	-0.013
771	-0.015
772	-0.017
772	-0.018
773	-0.02
773	-0.021
774	-0.023
774	-0.024
775	-0.025
775	-0.026
775	-0.028
776	-0.029
776	-0.031
777	-0.033
777	-0.034
778	-0.037
778	-0.039
778	-0.042
779	-0.045
779	-0.047
780	-0.05
780	-0.053
781	-0.057
781	-0.062
781	-0.067
782	-0.072
782	-0.078
783	-0.083
783	-0.089
784	-0.095
784	-0.101
784	-0.106
785	-0.113
785	-0.118
786	-0.121
786	-0.121
787	-0.119
787	-0.118
788	-0.119
788	-0.121
788	-0.122
789	-0.125
789	-0.125
790	-0.123
790	-0.122
791	-0.124
791	-0.126
791	-0.129
792	-0.124
792	-0.114
793	-0.109
793	-0.105
794	-0.103
794	-0.104
794	-0.108
795	-0.11
795	-0.109
796	-0.109
796	-0.111
797	-0.119
797	-0.129
797	-0.136
798	-0.14
798	-0.143
799	-0.144
799	-0.144
800	-0.144
800	-0.146
801	-0.149
801	-0.15
801	-0.151
802	-0.152
802	-0.153
803	-0.154
803	-0.153
804	-0.152
804	-0.146
804	-0.139
805	-0.134
805	-0.131
806	-0.129
806	-0.127
807	-0.125
807	-0.125
807	-0.125
808	-0.125
808	-0.126
809	-0.131
809	-0.137
810	-0.141
810	-0.144
810	-0.148
811	-0.152
811	-0.153
812	-0.15
812	-0.147
813	-0.148
813	-0.149
813	-0.15
814	-0.151
814	-0.151
815	-0.149
815	-0.146
816	-0.144
816	-0.144
817	-0.147
817	-0.148
817	-0.145
818	-0.141
818	-0.134
819	-0.128
819	-0.122
820	-0.118
820	-0.113
820	-0.107
821	-0.1
821	-0.092
822	-0.085
822	-0.079
823	-0.073
823	-0.068
823	-0.064
824	-0.059
824	-0.054
825	-0.049
825	-0.044
826	-0.04
826	-0.037
826	-0.034
827	-0.031
827	-0.029
828	-0.027
828	-0.025
829	-0.023
829	-0.022
829	-0.021
830	-0.021
830	-0.02
831	-0.019
831	-0.018
832	-0.016
832	-0.015
832	-0.014
833	-0.012
833	-0.011
834	-0.01
834	-0.009
835	-0.007
835	-0.007
835	-0.006
836	-0.006
836	-0.006
837	-0.005
837	-0.005
838	-0.005
838	-0.005
839	-0.005
839	-0.005
839	-0.005
840	-0.005
840	-0.005
841	-0.005
841	-0.004
842	-0.004
842	-0.004
842	-0.004
843	-0.003
843	-0.003
844	-0.002
844	-0.002
845	-0.001
845	-0.001
845	-0
846	0
846	-0
847	-0
847	0
848	0
848	0
848	0.001
849	0.001
849	0.001
850	0.002
850	0.002
851	0.003
851	0.004
851	0.004
852	0.005
852	0.005
853	0.005
853	0.005
854	0.005
854	0.005
854	0.005
855	0.005
855	0.004
856	0.004
856	0.004
857	0.003
857	0.003
857	0.003
858	0.003
858	0.004
859	0.004
859	0.005
860	0.005
860	0.006
860	0.007
861	0.007
861	0.008
862	0.009
862	0.009
863	0.01
863	0.01
863	0.01
864	0.01
864	0.01
865	0.011
865	0.011
866	0.012
866	0.012
866	0.013
867	0.013
867	0.014
868	0.014
868	0.014
869	0.014
869	0.014
869	0.013
870	0.012
870	0.011
871	0.01
871	0.009
872	0.008
872	0.007
872	0.006
873	0.004
873	0.003
874	0.002
874	0.001
875	0.001
875	-0
875	-0
876	-0.001
876	-0
877	0
877	0.001
878	0.002
878	0.002
878	0.003
879	0.004
879	0.004
880	0.005
880	0.005
881	0.006
881	0.006
881	0.006
882	0.005
882	0.005
883	0.004
883	0.004
884	0.003
884	0.003
884	0.003
885	0.002
885	0.002
886	0.002
886	0.002
887	0.003
887	0.003
887	0.004
888	0.004
888	0.005
889	0.006
889	0.006
890	0.006
890	0.007
890	0.007
891	0.007
891	0.007
892	0.006
892	0.006
893	0.006
893	0.006
893	0.007
894	0.007
894	0.008
895	0.008
895	0.009
895	0.009
896	0.009
896	0.01
897	0.01
897	0.01
898	0.01
898	0.01
898	0.01
899	0.01
899	0.01
900	0.009
900	0.009
901	0.009
901	0.008
901	0.008
902	0.008
902	0.008
903	0.007
903	0.007
904	0.006
904	0.006
904	0.005
905	0.005
905	0.005
906	0.005
906	0.005
907	0.005
907	0.005
907	0.005
908	0.005
908	0.005
909	0.005
909	0.005
910	0.005
910	0.004
910	0.004
911	0.004
911	0.004
912	0.003
912	0.004
913	0.004
913	0.003
913	0.003
914	0.003
914	0.003
915	0.003
915	0.004
916	0.005
916	0.005
916	0.006
917	0.007
917	0.007
918	0.008
918	0.008
918	0.008
919	0.008
919	0.007
920	0.007
920	0.006
921	0.005
921	0.004
921	0.003
922	0.002
922	0.002
923	0.002
923	0.002
924	0.001
924	0.001
924	0.001
925	0.001
925	0
926	-0
926	-0.001
927	-0.001
927	-0.001
927	-0.002
928	-0.002
928	-0.002
929	-0.002
929	-0.002
930	-0.002
930	-0.002
930	-0.002
931	-0.002
931	-0.002
932	-0.003
932	-0.003
933	-0.003
933	-0.004
933	-0.005
934	-0.005
934	-0.005
935	-0.006
935	-0.007
935	-0.007
936	-0.007
936	-0.007
937	-0.007
937	-0.007
938	-0.006
938	-0.005
938	-0.005
939	-0.004
939	-0.003
940	-0.002
940	-0.002
941	-0.001
941	-0.001
941	-0
942	0
942	0
943	0
943	0.001
944	0.001
944	0.001
944	0.002
945	0.002
945	0.003
946	0.004
946	0.005
946	0.006
947	0.007
947	0.008
948	0.009
948	0.01
949	0.011
949	0.012
949	0.012
950	0.013
950	0.013
951	0.014
951	0.014
952	0.013
952	0.013
952	0.013
953	0.013
953	0.014
954	0.013
954	0.013
955	0.013
955	0.013
955	0.013
956	0.013
956	0.013
957	0.012
957	0.012
957	0.011
958	0.01
958	0.009
959	0.008
959	0.008
960	0.007
960	0.005
960	0.004
961	0.003
961	0.002
962	0.002
962	0.001
963	0
963	-0
963	-0.001
964	-0.001
964	-0.001
965	-0.001
965	-0.001
966	0
966	0.001
966	0.001
967	0.002
967	0.003
968	0.003
968	0.003
968	0.003
969	0.003
969	0.003
970	0.003
970	0.002
971	0.001
971	0
971	-0.001
972	-0.002
972	-0.003
973	-0.004
973	-0.006
974	-0.006
974	-0.007
974	-0.007
975	-0.008
975	-0.008
976	-0.008
976	-0.008
976	-0.008
977	-0.008
977	-0.008
978	-0.008
978	-0.008
979	-0.008
979	-0.008
979	-0.008
980	-0.008
980	-0.008
981	-0.008
981	-0.007
982	-0.007
982	-0.007
982	-0.007
983	-0.007
983	-0.007
984	-0.007
984	-0.007
984	-0.007
985	-0.007
985	-0.007
986	-0.007
986	-0.007
987	-0.007
987	-0.007
987	-0.007
988	-0.006
988	-0.005
989	-0.005
989	-0.004
990	-0.003
990	-0.003
990	-0.002
991	-0.002
991	-0.001
992	-0.001
992	-0.001
992	-0.001
993	-0.001
993	-0.001
994	-0.002
994	-0.002
995	-0.002
995	-0.002
995	-0.002
996	-0.002
996	-0.002
997	-0.003
997	-0.003
997	-0.003
998	-0.003
998	-0.003
999	-0.003
999	-0.003
1000	-0.003
1000	-0.003
1000	-0.004
1001	-0.003
1001	-0.004
1002	-0.004
1002	-0.004
1003	-0.004
1003	-0.004
1003	-0.004
1004	-0.003
1004	-0.003
1005	-0.003
1005	-0.003
1005	-0.003
1006	-0.003
1006	-0.003
1007	-0.003
1007	-0.004
1008	-0.004
1008	-0.004
1008	-0.004
1009	-0.005
1009	-0.005
1010	-0.005
1010	-0.006
1010	-0.006
1011	-0.006
1011	-0.006
1012	-0.005
1012	-0.005
1013	-0.005
1013	-0.004
1013	-0.004
1014	-0.003
1014	-0.002
1015	-0.002
1015	-0.001
1016	-0
1016	0
1016	0
1017	0
1017	0.001
1018	0.001
1018	0
1018	0
1019	0
1019	0
1020	0
1020	0
1021	-0
1021	-0
1021	-0
1022	-0
1022	-0
1023	-0
1023	-0
1023	-0.001
1024	-0.001
1024	-0.001
1025	-0.002
1025	-0.002
1026	-0.002
1026	-0.002
1026	-0.002
1027	-0.002
1027	-0.002
1028	-0.002
1028	-0.001
1028	-0.001
1029	-0
1029	0
1030	0.001
1030	0.002
1031	0.002
1031	0.002
1031	0.003
1032	0.003
1032	0.003
1033	0.002
1033	0.002
1033	0.002
1034	0.002
1034	0.001
1035	0
1035	-0
1036	-0.001
1036	-0.001
1036	-0.001
1037	-0.001
1037	-0.001
1038	-0.001
1038	-0.001
1039	-0.001
1039	-0.001
1039	-0
1040	0
1040	0.001
1041	0.001
1041	0.001
1041	0.001
1042	0.001
1042	0.001
1043	0.001
1043	0.001
1044	0.001
1044	0.001
1044	0.001
1045	0.001
1045	0.001
1046	0.001
1046	0
1046	-0
1047	-0
1047	-0
1048	-0.001
1048	-0.001
1049	-0.001
1049	-0.001
1049	-0.001
1050	-0.002
1050	-0.002
1051	-0.002
1051	-0.002
1051	-0.001
1052	-0.001
1052	-0.001
1053	-0
1053	0
1053	0.001
1054	0.002
1054	0.002
1055	0.002
1055	0.003
1056	0.003
1056	0.003
1056	0.002
1057	0.002
1057	0.002
1058	0.002
1058	0.002
1058	0.001
1059	0.001
1059	0.002
1060	0.002
1060	0.002
1061	0.003
1061	0.003
1061	0.004
1062	0.004
1062	0.004
1063	0.005
1063	0.005
1063	0.005
1064	0.005
1064	0.005
1065	0.005
1065	0.005
1066	0.005
1066	0.005
1066	0.004
1067	0.004
1067	0.004
1068	0.004
1068	0.004
1068	0.004
1069	0.004
1069	0.004
1070	0.004
1070	0.004
1071	0.005
1071	0.006
1071	0.007
1072	0.007
1072	0.008
1073	0.009
1073	0.011
1073	0.012
1074	0.013
1074	0.014
1075	0.015
1075	0.016
1076	0.016
1076	0.017
1076	0.018
1077	0.018
1077	0.019
1078	0.02
1078	0.021
1078	0.022
1079	0.023
1079	0.024
1080	0.025
1080	0.026
1080	0.027
1081	0.028
1081	0.029
1082	0.029
1082	0.03
1083	0.03
1083	0.03
1083	0.031
1084	0.032
1084	0.032
1085	0.032
1085	0.033
1085	0.033
1086	0.034
1086	0.034
1087	0.036
1087	0.036
1088	0.037
1088	0.039
1088	0.04
1089	0.042
1089	0.044
1090	0.046
1090	0.049
1090	0.051
1091	0.053
1091	0.056
1092	0.058
1092	0.061
1092	0.063
1093	0.065
1093	0.067
1094	0.069
1094	0.071
1095	0.072
1095	0.074
1095	0.077
1096	0.079
1096	0.082
1097	0.084
1097	0.087
1097	0.09
1098	0.093
1098	0.096
1099	0.101
1099	0.106
1100	0.111
1100	0.116
1100	0.122
1101	0.128
1101	0.134
1102	0.14
1102	0.148
1102	0.156
1103	0.166
1103	0.175
1104	0.185
1104	0.197
1104	0.209
1105	0.222
1105	0.237
1106	0.254
1106	0.273
1107	0.295
1107	0.321
1107	0.356
1108	0.459
1108	0.629
1109	1.039
1109	-0
1109	-0
1110	-0
1110	-0
1111	-0
1111	-0
