Data from 15c-2a_Absorbance__20__00020.txt Node

Date: Wed Jan 24 09:26:58 CET 2024
User: Marek
Spectrometer: MAYP115816
Trigger mode: 0
Integration Time (sec): 2.000000E-1
Scans to average: 10
Electric dark correction enabled: true
Nonlinearity correction enabled: true
Boxcar width: 5
XAxis mode: Wavelengths
Number of Pixels in Spectrum: 2068
>>>>>Begin Spectral Data<<<<<
199	-1.708
199	-1.545
200	-1.385
200	-1.261
201	-1.188
201	-1.135
202	-1.063
202	-1.004
203	-0.953
203	-0.91
204	-0.882
204	-0.858
205	-0.836
205	-0.828
205	-0.825
206	-0.822
206	-0.82
207	-0.816
207	-0.813
208	-0.812
208	-0.81
209	-0.808
209	-0.807
210	-0.807
210	-0.804
211	-0.803
211	-0.802
212	-0.799
212	-0.797
213	-0.794
213	-0.792
213	-0.789
214	-0.787
214	-0.783
215	-0.782
215	-0.778
216	-0.776
216	-0.772
217	-0.772
217	-0.772
218	-0.772
218	-0.771
219	-0.77
219	-0.767
220	-0.765
220	-0.762
221	-0.762
221	-0.759
221	-0.755
222	-0.749
222	-0.743
223	-0.736
223	-0.73
224	-0.721
224	-0.713
225	-0.706
225	-0.697
226	-0.687
226	-0.677
227	-0.665
227	-0.654
228	-0.638
228	-0.622
229	-0.603
229	-0.585
229	-0.562
230	-0.536
230	-0.508
231	-0.478
231	-0.446
232	-0.414
232	-0.38
233	-0.347
233	-0.312
234	-0.278
234	-0.245
235	-0.214
235	-0.183
236	-0.156
236	-0.13
236	-0.105
237	-0.083
237	-0.062
238	-0.044
238	-0.026
239	-0.011
239	0.003
240	0.016
240	0.027
241	0.037
241	0.047
242	0.055
242	0.063
243	0.07
243	0.076
243	0.082
244	0.087
244	0.092
245	0.096
245	0.1
246	0.104
246	0.108
247	0.112
247	0.115
248	0.119
248	0.122
249	0.125
249	0.128
250	0.13
250	0.133
250	0.136
251	0.138
251	0.14
252	0.142
252	0.144
253	0.146
253	0.148
254	0.15
254	0.152
255	0.153
255	0.155
256	0.156
256	0.157
257	0.158
257	0.159
258	0.16
258	0.161
258	0.161
259	0.162
259	0.162
260	0.163
260	0.163
261	0.163
261	0.163
262	0.163
262	0.163
263	0.163
263	0.163
264	0.162
264	0.162
265	0.162
265	0.161
265	0.161
266	0.16
266	0.159
267	0.158
267	0.157
268	0.156
268	0.155
269	0.154
269	0.152
270	0.151
270	0.15
271	0.148
271	0.147
272	0.145
272	0.144
272	0.142
273	0.141
273	0.14
274	0.138
274	0.136
275	0.135
275	0.133
276	0.132
276	0.13
277	0.128
277	0.126
278	0.125
278	0.123
278	0.121
279	0.119
279	0.117
280	0.116
280	0.114
281	0.113
281	0.111
282	0.11
282	0.109
283	0.107
283	0.106
284	0.105
284	0.104
285	0.102
285	0.101
285	0.099
286	0.098
286	0.097
287	0.095
287	0.094
288	0.093
288	0.092
289	0.091
289	0.09
290	0.089
290	0.088
291	0.087
291	0.086
292	0.085
292	0.084
292	0.084
293	0.083
293	0.082
294	0.082
294	0.081
295	0.08
295	0.08
296	0.079
296	0.079
297	0.078
297	0.078
298	0.077
298	0.077
298	0.076
299	0.076
299	0.076
300	0.075
300	0.075
301	0.075
301	0.074
302	0.074
302	0.074
303	0.074
303	0.074
304	0.073
304	0.073
305	0.073
305	0.073
305	0.073
306	0.072
306	0.072
307	0.072
307	0.072
308	0.072
308	0.072
309	0.071
309	0.071
310	0.071
310	0.071
311	0.071
311	0.07
311	0.07
312	0.07
312	0.07
313	0.07
313	0.069
314	0.069
314	0.069
315	0.069
315	0.068
316	0.068
316	0.068
317	0.068
317	0.067
318	0.067
318	0.067
318	0.067
319	0.066
319	0.066
320	0.066
320	0.066
321	0.065
321	0.065
322	0.065
322	0.065
323	0.065
323	0.064
324	0.064
324	0.064
324	0.064
325	0.064
325	0.063
326	0.063
326	0.063
327	0.063
327	0.062
328	0.062
328	0.062
329	0.062
329	0.062
330	0.062
330	0.061
330	0.061
331	0.061
331	0.061
332	0.06
332	0.06
333	0.06
333	0.059
334	0.059
334	0.059
335	0.058
335	0.058
336	0.058
336	0.058
336	0.057
337	0.057
337	0.057
338	0.057
338	0.057
339	0.057
339	0.057
340	0.056
340	0.056
341	0.056
341	0.056
342	0.056
342	0.056
342	0.056
343	0.055
343	0.055
344	0.055
344	0.055
345	0.055
345	0.055
346	0.054
346	0.054
347	0.054
347	0.054
348	0.053
348	0.053
348	0.053
349	0.053
349	0.052
350	0.052
350	0.052
351	0.052
351	0.051
352	0.051
352	0.051
353	0.051
353	0.05
354	0.05
354	0.05
354	0.05
355	0.05
355	0.049
356	0.049
356	0.049
357	0.049
357	0.049
358	0.049
358	0.049
359	0.049
359	0.049
360	0.049
360	0.049
360	0.049
361	0.049
361	0.049
362	0.049
362	0.049
363	0.049
363	0.049
364	0.049
364	0.049
365	0.049
365	0.049
366	0.049
366	0.049
366	0.049
367	0.049
367	0.049
368	0.049
368	0.049
369	0.048
369	0.048
370	0.048
370	0.048
371	0.048
371	0.048
372	0.047
372	0.047
372	0.047
373	0.047
373	0.047
374	0.047
374	0.047
375	0.047
375	0.047
376	0.047
376	0.047
377	0.047
377	0.047
378	0.047
378	0.047
378	0.047
379	0.047
379	0.047
380	0.047
380	0.047
381	0.046
381	0.046
382	0.046
382	0.046
383	0.046
383	0.046
383	0.046
384	0.046
384	0.046
385	0.046
385	0.046
386	0.046
386	0.046
387	0.046
387	0.046
388	0.046
388	0.046
389	0.046
389	0.046
389	0.046
390	0.046
390	0.046
391	0.046
391	0.046
392	0.046
392	0.046
393	0.046
393	0.046
394	0.046
394	0.046
394	0.046
395	0.046
395	0.046
396	0.046
396	0.045
397	0.046
397	0.046
398	0.046
398	0.046
399	0.045
399	0.045
400	0.045
400	0.045
400	0.045
401	0.045
401	0.045
402	0.045
402	0.044
403	0.044
403	0.044
404	0.044
404	0.044
405	0.044
405	0.044
405	0.044
406	0.044
406	0.043
407	0.043
407	0.043
408	0.043
408	0.043
409	0.043
409	0.042
410	0.042
410	0.042
411	0.042
411	0.042
411	0.042
412	0.042
412	0.042
413	0.042
413	0.042
414	0.042
414	0.042
415	0.042
415	0.042
416	0.042
416	0.042
416	0.042
417	0.042
417	0.042
418	0.041
418	0.041
419	0.041
419	0.041
420	0.042
420	0.042
421	0.042
421	0.042
421	0.042
422	0.042
422	0.042
423	0.042
423	0.042
424	0.042
424	0.042
425	0.041
425	0.041
426	0.041
426	0.04
427	0.04
427	0.04
427	0.04
428	0.041
428	0.041
429	0.041
429	0.041
430	0.041
430	0.041
431	0.041
431	0.041
432	0.041
432	0.041
432	0.041
433	0.04
433	0.04
434	0.04
434	0.04
435	0.039
435	0.039
436	0.039
436	0.039
437	0.039
437	0.039
437	0.039
438	0.039
438	0.039
439	0.039
439	0.039
440	0.039
440	0.039
441	0.038
441	0.038
442	0.039
442	0.039
442	0.039
443	0.039
443	0.039
444	0.039
444	0.039
445	0.039
445	0.039
446	0.039
446	0.04
447	0.039
447	0.039
447	0.039
448	0.039
448	0.039
449	0.039
449	0.039
450	0.039
450	0.039
451	0.038
451	0.038
452	0.038
452	0.038
452	0.038
453	0.037
453	0.037
454	0.037
454	0.037
455	0.036
455	0.036
456	0.036
456	0.036
457	0.036
457	0.036
458	0.036
458	0.036
458	0.036
459	0.036
459	0.036
460	0.036
460	0.036
461	0.035
461	0.035
462	0.035
462	0.035
463	0.035
463	0.035
463	0.035
464	0.035
464	0.035
465	0.035
465	0.035
466	0.035
466	0.035
467	0.035
467	0.035
467	0.035
468	0.034
468	0.034
469	0.033
469	0.033
470	0.033
470	0.032
471	0.032
471	0.032
472	0.032
472	0.032
472	0.032
473	0.033
473	0.033
474	0.033
474	0.034
475	0.034
475	0.034
476	0.034
476	0.034
477	0.034
477	0.034
477	0.034
478	0.034
478	0.034
479	0.035
479	0.035
480	0.036
480	0.036
481	0.037
481	0.037
482	0.037
482	0.038
482	0.038
483	0.038
483	0.039
484	0.039
484	0.04
485	0.04
485	0.041
486	0.041
486	0.041
487	0.041
487	0.041
487	0.041
488	0.04
488	0.04
489	0.04
489	0.04
490	0.039
490	0.039
491	0.039
491	0.039
492	0.039
492	0.04
492	0.04
493	0.041
493	0.041
494	0.041
494	0.042
495	0.042
495	0.043
496	0.043
496	0.044
496	0.044
497	0.044
497	0.045
498	0.045
498	0.045
499	0.045
499	0.045
500	0.045
500	0.046
501	0.046
501	0.046
501	0.047
502	0.047
502	0.047
503	0.048
503	0.048
504	0.048
504	0.049
505	0.049
505	0.049
506	0.049
506	0.049
506	0.049
507	0.049
507	0.049
508	0.049
508	0.049
509	0.049
509	0.049
510	0.049
510	0.049
511	0.049
511	0.049
511	0.049
512	0.049
512	0.049
513	0.049
513	0.049
514	0.049
514	0.049
515	0.049
515	0.049
515	0.049
516	0.049
516	0.049
517	0.05
517	0.05
518	0.05
518	0.05
519	0.05
519	0.05
520	0.05
520	0.05
520	0.049
521	0.049
521	0.048
522	0.046
522	0.046
523	0.045
523	0.044
524	0.043
524	0.043
524	0.043
525	0.043
525	0.044
526	0.044
526	0.045
527	0.047
527	0.048
528	0.049
528	0.05
529	0.051
529	0.051
529	0.051
530	0.052
530	0.052
531	0.052
531	0.052
532	0.051
532	0.051
533	0.051
533	0.051
533	0.051
534	0.051
534	0.051
535	0.051
535	0.051
536	0.051
536	0.051
537	0.051
537	0.051
538	0.051
538	0.05
538	0.05
539	0.05
539	0.049
540	0.049
540	0.049
541	0.048
541	0.048
542	0.047
542	0.047
542	0.046
543	0.046
543	0.046
544	0.046
544	0.046
545	0.046
545	0.045
546	0.046
546	0.046
547	0.046
547	0.046
547	0.045
548	0.045
548	0.045
549	0.044
549	0.044
550	0.044
550	0.043
551	0.043
551	0.043
551	0.042
552	0.042
552	0.041
553	0.041
553	0.041
554	0.041
554	0.041
555	0.041
555	0.04
556	0.039
556	0.039
556	0.038
557	0.037
557	0.037
558	0.036
558	0.036
559	0.035
559	0.035
560	0.035
560	0.035
560	0.035
561	0.035
561	0.036
562	0.036
562	0.036
563	0.036
563	0.036
564	0.035
564	0.035
564	0.034
565	0.034
565	0.033
566	0.033
566	0.033
567	0.033
567	0.033
568	0.033
568	0.034
568	0.034
569	0.035
569	0.036
570	0.037
570	0.037
571	0.037
571	0.037
572	0.038
572	0.038
573	0.038
573	0.038
573	0.038
574	0.038
574	0.038
575	0.038
575	0.038
576	0.038
576	0.038
577	0.038
577	0.038
577	0.038
578	0.037
578	0.037
579	0.037
579	0.037
580	0.038
580	0.037
581	0.037
581	0.037
581	0.036
582	0.036
582	0.036
583	0.036
583	0.036
584	0.035
584	0.035
585	0.034
585	0.034
585	0.034
586	0.034
586	0.034
587	0.034
587	0.034
588	0.033
588	0.033
589	0.032
589	0.032
590	0.031
590	0.031
590	0.031
591	0.03
591	0.03
592	0.03
592	0.03
593	0.029
593	0.029
594	0.029
594	0.029
594	0.029
595	0.028
595	0.028
596	0.028
596	0.028
597	0.029
597	0.029
598	0.03
598	0.03
598	0.03
599	0.03
599	0.03
600	0.03
600	0.029
601	0.029
601	0.029
602	0.028
602	0.028
602	0.028
603	0.028
603	0.028
604	0.029
604	0.029
605	0.03
605	0.03
606	0.03
606	0.029
606	0.029
607	0.028
607	0.027
608	0.027
608	0.026
609	0.026
609	0.025
610	0.024
610	0.024
610	0.024
611	0.024
611	0.025
612	0.025
612	0.026
613	0.026
613	0.027
614	0.027
614	0.027
614	0.027
615	0.027
615	0.027
616	0.026
616	0.026
617	0.025
617	0.024
618	0.023
618	0.023
618	0.022
619	0.021
619	0.021
620	0.021
620	0.021
621	0.021
621	0.021
622	0.021
622	0.021
622	0.022
623	0.022
623	0.022
624	0.022
624	0.022
625	0.022
625	0.022
626	0.022
626	0.022
626	0.022
627	0.022
627	0.023
628	0.023
628	0.023
629	0.023
629	0.024
630	0.024
630	0.024
630	0.024
631	0.024
631	0.025
632	0.025
632	0.025
633	0.025
633	0.025
634	0.025
634	0.026
634	0.027
635	0.027
635	0.028
636	0.028
636	0.028
637	0.029
637	0.029
638	0.029
638	0.03
638	0.03
639	0.031
639	0.031
640	0.031
640	0.031
641	0.032
641	0.033
642	0.034
642	0.034
642	0.035
643	0.036
643	0.036
644	0.036
644	0.037
645	0.038
645	0.038
646	0.039
646	0.039
646	0.04
647	0.04
647	0.041
648	0.042
648	0.043
649	0.043
649	0.044
650	0.045
650	0.045
650	0.046
651	0.047
651	0.048
652	0.049
652	0.05
653	0.051
653	0.053
653	0.046
654	0.038
654	0.032
655	0.034
655	0.035
656	0.036
656	0.036
657	0.037
657	0.038
657	0.038
658	0.038
658	0.043
659	0.053
659	0.066
660	0.066
660	0.067
661	0.068
661	0.069
661	0.071
662	0.072
662	0.074
663	0.075
663	0.076
664	0.077
664	0.078
665	0.078
665	0.079
665	0.08
666	0.08
666	0.081
667	0.081
667	0.081
668	0.082
668	0.082
669	0.083
669	0.084
669	0.086
670	0.087
670	0.089
671	0.09
671	0.091
672	0.092
672	0.093
672	0.094
673	0.094
673	0.095
674	0.095
674	0.095
675	0.096
675	0.096
676	0.096
676	0.097
676	0.097
677	0.097
677	0.098
678	0.098
678	0.098
679	0.099
679	0.099
680	0.099
680	0.1
680	0.1
681	0.1
681	0.1
682	0.101
682	0.101
683	0.102
683	0.103
684	0.103
684	0.104
684	0.104
685	0.104
685	0.104
686	0.104
686	0.105
687	0.105
687	0.105
687	0.105
688	0.105
688	0.105
689	0.105
689	0.106
690	0.106
690	0.106
691	0.106
691	0.106
691	0.106
692	0.105
692	0.105
693	0.104
693	0.104
694	0.103
694	0.102
695	0.102
695	0.102
695	0.101
696	0.101
696	0.1
697	0.099
697	0.099
698	0.098
698	0.098
698	0.097
699	0.097
699	0.097
700	0.097
700	0.096
701	0.097
701	0.097
702	0.097
702	0.097
702	0.097
703	0.097
703	0.096
704	0.096
704	0.095
705	0.094
705	0.094
705	0.093
706	0.093
706	0.092
707	0.091
707	0.09
708	0.09
708	0.089
709	0.088
709	0.088
709	0.086
710	0.085
710	0.084
711	0.083
711	0.082
712	0.082
712	0.081
713	0.08
713	0.08
713	0.08
714	0.079
714	0.078
715	0.078
715	0.077
716	0.077
716	0.076
716	0.076
717	0.076
717	0.075
718	0.075
718	0.074
719	0.073
719	0.073
720	0.073
720	0.072
720	0.071
721	0.07
721	0.069
722	0.068
722	0.067
723	0.066
723	0.065
723	0.065
724	0.064
724	0.063
725	0.063
725	0.062
726	0.061
726	0.06
727	0.059
727	0.059
727	0.058
728	0.057
728	0.057
729	0.057
729	0.056
730	0.056
730	0.056
730	0.055
731	0.055
731	0.055
732	0.055
732	0.055
733	0.054
733	0.054
734	0.053
734	0.053
734	0.052
735	0.052
735	0.051
736	0.051
736	0.05
737	0.05
737	0.049
737	0.049
738	0.048
738	0.047
739	0.045
739	0.044
740	0.042
740	0.041
741	0.039
741	0.037
741	0.036
742	0.034
742	0.032
743	0.03
743	0.028
744	0.027
744	0.026
744	0.025
745	0.024
745	0.024
746	0.023
746	0.023
747	0.023
747	0.023
748	0.023
748	0.024
748	0.024
749	0.024
749	0.024
750	0.025
750	0.024
751	0.024
751	0.024
751	0.024
752	0.023
752	0.022
753	0.021
753	0.02
754	0.019
754	0.018
754	0.018
755	0.018
755	0.019
756	0.019
756	0.019
757	0.019
757	0.019
758	0.02
758	0.02
758	0.02
759	0.02
759	0.019
760	0.019
760	0.017
761	0.016
761	0.015
761	0.014
762	0.013
762	0.012
763	0.011
763	0.01
764	0.009
764	0.008
764	0.007
765	0.006
765	0.005
766	0.004
766	0.003
767	0.003
767	0.002
768	0.001
768	-0.001
768	-0.002
769	-0.003
769	-0.004
770	-0.005
770	-0.006
771	-0.008
771	-0.01
771	-0.012
772	-0.015
772	-0.017
773	-0.019
773	-0.021
774	-0.023
774	-0.025
775	-0.027
775	-0.028
775	-0.031
776	-0.033
776	-0.035
777	-0.037
777	-0.04
778	-0.043
778	-0.046
778	-0.05
779	-0.053
779	-0.056
780	-0.06
780	-0.065
781	-0.07
781	-0.075
781	-0.081
782	-0.087
782	-0.093
783	-0.1
783	-0.105
784	-0.109
784	-0.114
784	-0.118
785	-0.123
785	-0.126
786	-0.128
786	-0.126
787	-0.122
787	-0.119
788	-0.119
788	-0.12
788	-0.122
789	-0.125
789	-0.125
790	-0.122
790	-0.122
791	-0.123
791	-0.126
791	-0.128
792	-0.124
792	-0.114
793	-0.108
793	-0.104
794	-0.103
794	-0.104
794	-0.107
795	-0.109
795	-0.109
796	-0.109
796	-0.111
797	-0.119
797	-0.129
797	-0.135
798	-0.14
798	-0.143
799	-0.144
799	-0.143
800	-0.143
800	-0.145
801	-0.149
801	-0.15
801	-0.15
802	-0.152
802	-0.153
803	-0.153
803	-0.153
804	-0.151
804	-0.146
804	-0.139
805	-0.134
805	-0.131
806	-0.128
806	-0.126
807	-0.125
807	-0.124
807	-0.124
808	-0.124
808	-0.125
809	-0.13
809	-0.136
810	-0.14
810	-0.144
810	-0.148
811	-0.151
811	-0.153
812	-0.149
812	-0.147
813	-0.148
813	-0.149
813	-0.15
814	-0.151
814	-0.151
815	-0.149
815	-0.146
816	-0.143
816	-0.143
817	-0.146
817	-0.147
817	-0.144
818	-0.139
818	-0.133
819	-0.127
819	-0.121
820	-0.117
820	-0.112
820	-0.106
821	-0.099
821	-0.091
822	-0.084
822	-0.077
823	-0.071
823	-0.066
823	-0.061
824	-0.056
824	-0.051
825	-0.045
825	-0.04
826	-0.036
826	-0.032
826	-0.029
827	-0.026
827	-0.023
828	-0.02
828	-0.019
829	-0.017
829	-0.016
829	-0.015
830	-0.015
830	-0.015
831	-0.014
831	-0.013
832	-0.013
832	-0.012
832	-0.011
833	-0.01
833	-0.009
834	-0.008
834	-0.007
835	-0.006
835	-0.005
835	-0.005
836	-0.005
836	-0.005
837	-0.005
837	-0.005
838	-0.005
838	-0.005
839	-0.005
839	-0.004
839	-0.004
840	-0.004
840	-0.003
841	-0.003
841	-0.002
842	-0.001
842	-0.001
842	-0
843	0
843	0.001
844	0.002
844	0.002
845	0.003
845	0.003
845	0.004
846	0.004
846	0.004
847	0.004
847	0.004
848	0.004
848	0.004
848	0.005
849	0.005
849	0.005
850	0.005
850	0.005
851	0.006
851	0.006
851	0.006
852	0.006
852	0.006
853	0.006
853	0.006
854	0.006
854	0.006
854	0.006
855	0.006
855	0.006
856	0.005
856	0.005
857	0.005
857	0.005
857	0.005
858	0.005
858	0.006
859	0.006
859	0.007
860	0.008
860	0.008
860	0.009
861	0.01
861	0.01
862	0.011
862	0.011
863	0.011
863	0.011
863	0.012
864	0.012
864	0.012
865	0.013
865	0.013
866	0.014
866	0.015
866	0.015
867	0.016
867	0.016
868	0.017
868	0.017
869	0.017
869	0.016
869	0.015
870	0.014
870	0.013
871	0.011
871	0.01
872	0.009
872	0.008
872	0.007
873	0.006
873	0.005
874	0.004
874	0.003
875	0.003
875	0.003
875	0.003
876	0.004
876	0.004
877	0.005
877	0.006
878	0.007
878	0.008
878	0.009
879	0.01
879	0.011
880	0.012
880	0.012
881	0.013
881	0.013
881	0.013
882	0.013
882	0.013
883	0.012
883	0.012
884	0.012
884	0.011
884	0.011
885	0.01
885	0.01
886	0.01
886	0.009
887	0.009
887	0.009
887	0.009
888	0.009
888	0.009
889	0.009
889	0.01
890	0.01
890	0.01
890	0.01
891	0.011
891	0.011
892	0.011
892	0.011
893	0.011
893	0.011
893	0.011
894	0.011
894	0.012
895	0.012
895	0.012
895	0.013
896	0.013
896	0.013
897	0.014
897	0.014
898	0.015
898	0.015
898	0.015
899	0.015
899	0.015
900	0.015
900	0.015
901	0.015
901	0.015
901	0.014
902	0.014
902	0.014
903	0.013
903	0.012
904	0.012
904	0.011
904	0.01
905	0.01
905	0.01
906	0.01
906	0.01
907	0.009
907	0.009
907	0.009
908	0.009
908	0.009
909	0.009
909	0.009
910	0.009
910	0.009
910	0.009
911	0.008
911	0.008
912	0.008
912	0.008
913	0.008
913	0.008
913	0.008
914	0.008
914	0.009
915	0.009
915	0.01
916	0.01
916	0.011
916	0.012
917	0.013
917	0.014
918	0.014
918	0.014
918	0.014
919	0.014
919	0.013
920	0.013
920	0.012
921	0.011
921	0.01
921	0.01
922	0.009
922	0.009
923	0.009
923	0.009
924	0.009
924	0.009
924	0.009
925	0.009
925	0.009
926	0.009
926	0.009
927	0.008
927	0.008
927	0.007
928	0.007
928	0.006
929	0.006
929	0.005
930	0.005
930	0.005
930	0.005
931	0.005
931	0.004
932	0.004
932	0.004
933	0.004
933	0.004
933	0.004
934	0.004
934	0.005
935	0.004
935	0.004
935	0.004
936	0.004
936	0.005
937	0.005
937	0.005
938	0.006
938	0.006
938	0.006
939	0.007
939	0.007
940	0.007
940	0.007
941	0.007
941	0.007
941	0.007
942	0.006
942	0.006
943	0.006
943	0.006
944	0.005
944	0.006
944	0.006
945	0.006
945	0.007
946	0.008
946	0.009
946	0.01
947	0.011
947	0.011
948	0.012
948	0.013
949	0.014
949	0.014
949	0.015
950	0.016
950	0.016
951	0.017
951	0.017
952	0.017
952	0.017
952	0.017
953	0.017
953	0.017
954	0.017
954	0.017
955	0.017
955	0.017
955	0.017
956	0.017
956	0.017
957	0.017
957	0.017
957	0.016
958	0.015
958	0.015
959	0.014
959	0.013
960	0.013
960	0.012
960	0.011
961	0.01
961	0.01
962	0.009
962	0.009
963	0.009
963	0.008
963	0.008
964	0.008
964	0.007
965	0.007
965	0.007
966	0.008
966	0.008
966	0.008
967	0.009
967	0.009
968	0.009
968	0.01
968	0.01
969	0.01
969	0.009
970	0.009
970	0.009
971	0.008
971	0.007
971	0.006
972	0.005
972	0.004
973	0.003
973	0.002
974	0.002
974	0.002
974	0.002
975	0.002
975	0.002
976	0.003
976	0.003
976	0.003
977	0.003
977	0.004
978	0.004
978	0.004
979	0.004
979	0.004
979	0.004
980	0.004
980	0.005
981	0.005
981	0.005
982	0.005
982	0.005
982	0.005
983	0.005
983	0.005
984	0.004
984	0.004
984	0.003
985	0.003
985	0.002
986	0.002
986	0.001
987	0.001
987	0.002
987	0.002
988	0.003
988	0.003
989	0.004
989	0.005
990	0.006
990	0.006
990	0.007
991	0.008
991	0.008
992	0.009
992	0.009
992	0.009
993	0.01
993	0.01
994	0.01
994	0.01
995	0.01
995	0.01
995	0.01
996	0.01
996	0.01
997	0.009
997	0.009
997	0.009
998	0.008
998	0.008
999	0.008
999	0.007
1000	0.007
1000	0.007
1000	0.007
1001	0.007
1001	0.007
1002	0.007
1002	0.007
1003	0.007
1003	0.007
1003	0.007
1004	0.007
1004	0.007
1005	0.007
1005	0.007
1005	0.006
1006	0.006
1006	0.006
1007	0.006
1007	0.005
1008	0.005
1008	0.005
1008	0.004
1009	0.003
1009	0.003
1010	0.002
1010	0.001
1010	0.001
1011	0.001
1011	0.001
1012	0.001
1012	0.001
1013	0.002
1013	0.002
1013	0.003
1014	0.004
1014	0.005
1015	0.006
1015	0.006
1016	0.007
1016	0.008
1016	0.008
1017	0.009
1017	0.009
1018	0.01
1018	0.01
1018	0.01
1019	0.01
1019	0.01
1020	0.01
1020	0.01
1021	0.01
1021	0.01
1021	0.01
1022	0.01
1022	0.009
1023	0.009
1023	0.009
1023	0.009
1024	0.009
1024	0.009
1025	0.008
1025	0.008
1026	0.009
1026	0.009
1026	0.009
1027	0.009
1027	0.01
1028	0.01
1028	0.01
1028	0.011
1029	0.011
1029	0.012
1030	0.012
1030	0.013
1031	0.013
1031	0.014
1031	0.014
1032	0.014
1032	0.014
1033	0.014
1033	0.014
1033	0.014
1034	0.014
1034	0.013
1035	0.013
1035	0.012
1036	0.012
1036	0.012
1036	0.011
1037	0.011
1037	0.011
1038	0.011
1038	0.011
1039	0.012
1039	0.012
1039	0.013
1040	0.013
1040	0.014
1041	0.014
1041	0.014
1041	0.015
1042	0.015
1042	0.015
1043	0.015
1043	0.015
1044	0.015
1044	0.015
1044	0.015
1045	0.015
1045	0.015
1046	0.015
1046	0.015
1046	0.015
1047	0.014
1047	0.014
1048	0.014
1048	0.014
1049	0.014
1049	0.013
1049	0.013
1050	0.013
1050	0.012
1051	0.013
1051	0.012
1051	0.013
1052	0.013
1052	0.013
1053	0.014
1053	0.014
1053	0.014
1054	0.014
1054	0.015
1055	0.015
1055	0.015
1056	0.015
1056	0.015
1056	0.014
1057	0.014
1057	0.014
1058	0.014
1058	0.014
1058	0.014
1059	0.014
1059	0.014
1060	0.015
1060	0.015
1061	0.016
1061	0.017
1061	0.018
1062	0.019
1062	0.019
1063	0.02
1063	0.021
1063	0.022
1064	0.022
1064	0.023
1065	0.023
1065	0.023
1066	0.023
1066	0.023
1066	0.023
1067	0.023
1067	0.023
1068	0.023
1068	0.023
1068	0.023
1069	0.024
1069	0.024
1070	0.025
1070	0.025
1071	0.026
1071	0.027
1071	0.028
1072	0.029
1072	0.03
1073	0.031
1073	0.033
1073	0.034
1074	0.035
1074	0.035
1075	0.036
1075	0.037
1076	0.039
1076	0.04
1076	0.04
1077	0.041
1077	0.042
1078	0.043
1078	0.045
1078	0.046
1079	0.048
1079	0.049
1080	0.05
1080	0.051
1080	0.052
1081	0.053
1081	0.054
1082	0.055
1082	0.055
1083	0.056
1083	0.057
1083	0.058
1084	0.059
1084	0.06
1085	0.062
1085	0.063
1085	0.064
1086	0.065
1086	0.066
1087	0.068
1087	0.069
1088	0.07
1088	0.071
1088	0.073
1089	0.075
1089	0.077
1090	0.079
1090	0.082
1090	0.084
1091	0.087
1091	0.09
1092	0.093
1092	0.096
1092	0.099
1093	0.101
1093	0.103
1094	0.106
1094	0.108
1095	0.111
1095	0.114
1095	0.118
1096	0.121
1096	0.125
1097	0.129
1097	0.134
1097	0.14
1098	0.145
1098	0.151
1099	0.157
1099	0.165
1100	0.172
1100	0.18
1100	0.189
1101	0.199
1101	0.209
1102	0.22
1102	0.232
1102	0.245
1103	0.261
1103	0.277
1104	0.293
1104	0.312
1104	0.333
1105	0.355
1105	0.378
1106	0.404
1106	0.436
1107	0.475
1107	0.531
1107	0.602
1108	0.845
1108	2.006
1109	-0
1109	-0
1109	-0
1110	-0
1110	-0
1111	-0
1111	-0
