Data from 15c-2a_Absorbance__731__00731.txt Node

Date: Wed Jan 24 09:50:40 CET 2024
User: Marek
Spectrometer: MAYP115816
Trigger mode: 0
Integration Time (sec): 2.000000E-1
Scans to average: 10
Electric dark correction enabled: true
Nonlinearity correction enabled: true
Boxcar width: 5
XAxis mode: Wavelengths
Number of Pixels in Spectrum: 2068
>>>>>Begin Spectral Data<<<<<
199	-1.621
199	-1.464
200	-1.309
200	-1.187
201	-1.116
201	-1.066
202	-0.998
202	-0.945
203	-0.899
203	-0.86
204	-0.832
204	-0.809
205	-0.788
205	-0.779
205	-0.778
206	-0.775
206	-0.774
207	-0.77
207	-0.768
208	-0.766
208	-0.765
209	-0.764
209	-0.764
210	-0.764
210	-0.762
211	-0.76
211	-0.759
212	-0.757
212	-0.755
213	-0.752
213	-0.75
213	-0.748
214	-0.745
214	-0.741
215	-0.741
215	-0.737
216	-0.736
216	-0.734
217	-0.732
217	-0.733
218	-0.733
218	-0.732
219	-0.73
219	-0.728
220	-0.726
220	-0.724
221	-0.725
221	-0.722
221	-0.718
222	-0.713
222	-0.707
223	-0.701
223	-0.697
224	-0.689
224	-0.68
225	-0.673
225	-0.664
226	-0.655
226	-0.644
227	-0.632
227	-0.623
228	-0.606
228	-0.59
229	-0.571
229	-0.551
229	-0.529
230	-0.504
230	-0.475
231	-0.445
231	-0.413
232	-0.381
232	-0.346
233	-0.313
233	-0.279
234	-0.246
234	-0.213
235	-0.183
235	-0.153
236	-0.126
236	-0.101
236	-0.078
237	-0.055
237	-0.035
238	-0.017
238	-0.001
239	0.014
239	0.027
240	0.04
240	0.05
241	0.06
241	0.069
242	0.077
242	0.084
243	0.091
243	0.096
243	0.102
244	0.107
244	0.111
245	0.115
245	0.119
246	0.123
246	0.126
247	0.129
247	0.133
248	0.135
248	0.138
249	0.141
249	0.143
250	0.145
250	0.148
250	0.15
251	0.153
251	0.155
252	0.157
252	0.159
253	0.161
253	0.163
254	0.164
254	0.166
255	0.168
255	0.169
256	0.17
256	0.171
257	0.172
257	0.173
258	0.173
258	0.174
258	0.175
259	0.175
259	0.176
260	0.176
260	0.176
261	0.176
261	0.177
262	0.176
262	0.176
263	0.176
263	0.175
264	0.175
264	0.174
265	0.174
265	0.173
265	0.172
266	0.171
266	0.17
267	0.169
267	0.168
268	0.167
268	0.166
269	0.165
269	0.163
270	0.162
270	0.16
271	0.159
271	0.158
272	0.156
272	0.155
272	0.153
273	0.152
273	0.15
274	0.148
274	0.147
275	0.145
275	0.144
276	0.142
276	0.14
277	0.139
277	0.137
278	0.135
278	0.133
278	0.132
279	0.13
279	0.128
280	0.126
280	0.125
281	0.123
281	0.121
282	0.12
282	0.118
283	0.117
283	0.116
284	0.114
284	0.113
285	0.112
285	0.11
285	0.109
286	0.108
286	0.106
287	0.105
287	0.104
288	0.103
288	0.101
289	0.1
289	0.099
290	0.098
290	0.097
291	0.096
291	0.095
292	0.094
292	0.093
292	0.093
293	0.092
293	0.091
294	0.091
294	0.09
295	0.089
295	0.089
296	0.088
296	0.088
297	0.087
297	0.087
298	0.086
298	0.086
298	0.085
299	0.085
299	0.084
300	0.084
300	0.084
301	0.083
301	0.083
302	0.083
302	0.082
303	0.082
303	0.082
304	0.082
304	0.081
305	0.081
305	0.081
305	0.08
306	0.08
306	0.08
307	0.079
307	0.079
308	0.079
308	0.079
309	0.078
309	0.078
310	0.078
310	0.078
311	0.078
311	0.077
311	0.077
312	0.077
312	0.077
313	0.076
313	0.076
314	0.076
314	0.076
315	0.075
315	0.075
316	0.075
316	0.075
317	0.074
317	0.074
318	0.074
318	0.073
318	0.073
319	0.073
319	0.072
320	0.072
320	0.072
321	0.071
321	0.071
322	0.07
322	0.07
323	0.07
323	0.069
324	0.069
324	0.069
324	0.069
325	0.069
325	0.068
326	0.068
326	0.068
327	0.068
327	0.067
328	0.067
328	0.067
329	0.066
329	0.066
330	0.066
330	0.066
330	0.065
331	0.065
331	0.065
332	0.064
332	0.064
333	0.064
333	0.063
334	0.063
334	0.063
335	0.062
335	0.062
336	0.062
336	0.062
336	0.061
337	0.061
337	0.061
338	0.061
338	0.061
339	0.061
339	0.06
340	0.06
340	0.06
341	0.06
341	0.059
342	0.059
342	0.059
342	0.059
343	0.058
343	0.058
344	0.058
344	0.058
345	0.057
345	0.057
346	0.057
346	0.057
347	0.057
347	0.056
348	0.056
348	0.056
348	0.056
349	0.056
349	0.055
350	0.055
350	0.055
351	0.054
351	0.054
352	0.054
352	0.054
353	0.054
353	0.054
354	0.053
354	0.053
354	0.053
355	0.053
355	0.052
356	0.052
356	0.052
357	0.052
357	0.051
358	0.051
358	0.051
359	0.051
359	0.051
360	0.051
360	0.051
360	0.051
361	0.051
361	0.051
362	0.052
362	0.052
363	0.052
363	0.052
364	0.052
364	0.052
365	0.052
365	0.052
366	0.052
366	0.051
366	0.051
367	0.051
367	0.051
368	0.051
368	0.051
369	0.051
369	0.051
370	0.051
370	0.051
371	0.051
371	0.05
372	0.05
372	0.05
372	0.05
373	0.05
373	0.05
374	0.05
374	0.05
375	0.05
375	0.05
376	0.05
376	0.05
377	0.05
377	0.05
378	0.05
378	0.05
378	0.05
379	0.05
379	0.05
380	0.05
380	0.05
381	0.05
381	0.05
382	0.05
382	0.05
383	0.05
383	0.05
383	0.05
384	0.05
384	0.05
385	0.05
385	0.05
386	0.05
386	0.05
387	0.049
387	0.049
388	0.049
388	0.049
389	0.049
389	0.049
389	0.049
390	0.049
390	0.049
391	0.049
391	0.05
392	0.05
392	0.05
393	0.05
393	0.05
394	0.05
394	0.05
394	0.05
395	0.05
395	0.05
396	0.05
396	0.05
397	0.05
397	0.05
398	0.05
398	0.05
399	0.05
399	0.049
400	0.049
400	0.049
400	0.049
401	0.049
401	0.048
402	0.048
402	0.048
403	0.048
403	0.048
404	0.048
404	0.048
405	0.048
405	0.048
405	0.048
406	0.048
406	0.048
407	0.047
407	0.047
408	0.047
408	0.047
409	0.047
409	0.047
410	0.047
410	0.047
411	0.047
411	0.047
411	0.047
412	0.047
412	0.047
413	0.046
413	0.047
414	0.047
414	0.047
415	0.047
415	0.047
416	0.047
416	0.047
416	0.047
417	0.047
417	0.047
418	0.047
418	0.047
419	0.047
419	0.047
420	0.047
420	0.047
421	0.047
421	0.047
421	0.047
422	0.047
422	0.047
423	0.047
423	0.047
424	0.047
424	0.047
425	0.047
425	0.046
426	0.046
426	0.046
427	0.046
427	0.046
427	0.046
428	0.046
428	0.046
429	0.046
429	0.046
430	0.046
430	0.046
431	0.046
431	0.046
432	0.046
432	0.046
432	0.046
433	0.045
433	0.045
434	0.045
434	0.045
435	0.045
435	0.045
436	0.045
436	0.045
437	0.045
437	0.045
437	0.045
438	0.044
438	0.044
439	0.044
439	0.044
440	0.044
440	0.044
441	0.044
441	0.044
442	0.044
442	0.045
442	0.045
443	0.045
443	0.045
444	0.045
444	0.045
445	0.045
445	0.045
446	0.045
446	0.045
447	0.045
447	0.044
447	0.044
448	0.044
448	0.044
449	0.044
449	0.044
450	0.044
450	0.044
451	0.044
451	0.044
452	0.044
452	0.044
452	0.044
453	0.044
453	0.044
454	0.043
454	0.043
455	0.043
455	0.043
456	0.042
456	0.042
457	0.042
457	0.042
458	0.041
458	0.041
458	0.041
459	0.042
459	0.042
460	0.042
460	0.041
461	0.041
461	0.042
462	0.042
462	0.042
463	0.042
463	0.043
463	0.043
464	0.043
464	0.043
465	0.043
465	0.043
466	0.043
466	0.043
467	0.043
467	0.042
467	0.042
468	0.041
468	0.041
469	0.04
469	0.04
470	0.04
470	0.04
471	0.039
471	0.039
472	0.039
472	0.039
472	0.04
473	0.04
473	0.04
474	0.04
474	0.041
475	0.041
475	0.041
476	0.041
476	0.041
477	0.042
477	0.042
477	0.042
478	0.042
478	0.042
479	0.042
479	0.043
480	0.043
480	0.044
481	0.044
481	0.044
482	0.045
482	0.045
482	0.046
483	0.047
483	0.047
484	0.048
484	0.048
485	0.048
485	0.048
486	0.049
486	0.049
487	0.049
487	0.049
487	0.049
488	0.048
488	0.048
489	0.048
489	0.048
490	0.048
490	0.048
491	0.048
491	0.049
492	0.049
492	0.049
492	0.049
493	0.05
493	0.05
494	0.051
494	0.052
495	0.052
495	0.052
496	0.052
496	0.053
496	0.054
497	0.054
497	0.055
498	0.055
498	0.055
499	0.055
499	0.055
500	0.056
500	0.056
501	0.057
501	0.057
501	0.058
502	0.058
502	0.059
503	0.059
503	0.059
504	0.06
504	0.06
505	0.06
505	0.06
506	0.06
506	0.06
506	0.06
507	0.061
507	0.061
508	0.061
508	0.061
509	0.061
509	0.062
510	0.062
510	0.062
511	0.062
511	0.062
511	0.062
512	0.062
512	0.062
513	0.062
513	0.062
514	0.062
514	0.063
515	0.063
515	0.063
515	0.063
516	0.064
516	0.064
517	0.065
517	0.065
518	0.065
518	0.065
519	0.065
519	0.064
520	0.064
520	0.063
520	0.063
521	0.062
521	0.061
522	0.06
522	0.059
523	0.059
523	0.059
524	0.059
524	0.06
524	0.06
525	0.061
525	0.062
526	0.063
526	0.064
527	0.065
527	0.065
528	0.066
528	0.066
529	0.066
529	0.066
529	0.066
530	0.065
530	0.065
531	0.065
531	0.065
532	0.064
532	0.064
533	0.064
533	0.064
533	0.064
534	0.063
534	0.063
535	0.063
535	0.062
536	0.062
536	0.062
537	0.062
537	0.062
538	0.061
538	0.061
538	0.061
539	0.06
539	0.06
540	0.06
540	0.059
541	0.059
541	0.058
542	0.057
542	0.057
542	0.056
543	0.056
543	0.055
544	0.055
544	0.055
545	0.055
545	0.055
546	0.055
546	0.055
547	0.054
547	0.054
547	0.053
548	0.053
548	0.052
549	0.051
549	0.051
550	0.05
550	0.05
551	0.049
551	0.049
551	0.048
552	0.048
552	0.048
553	0.048
553	0.048
554	0.048
554	0.047
555	0.047
555	0.046
556	0.045
556	0.044
556	0.044
557	0.043
557	0.042
558	0.042
558	0.041
559	0.041
559	0.041
560	0.041
560	0.04
560	0.041
561	0.041
561	0.041
562	0.041
562	0.041
563	0.04
563	0.04
564	0.039
564	0.038
564	0.037
565	0.037
565	0.036
566	0.035
566	0.034
567	0.033
567	0.033
568	0.033
568	0.034
568	0.034
569	0.034
569	0.035
570	0.035
570	0.035
571	0.036
571	0.036
572	0.036
572	0.036
573	0.037
573	0.037
573	0.036
574	0.036
574	0.036
575	0.036
575	0.037
576	0.038
576	0.037
577	0.037
577	0.037
577	0.036
578	0.036
578	0.036
579	0.037
579	0.038
580	0.037
580	0.036
581	0.035
581	0.034
581	0.034
582	0.035
582	0.035
583	0.035
583	0.035
584	0.033
584	0.031
585	0.031
585	0.031
585	0.031
586	0.03
586	0.03
587	0.029
587	0.028
588	0.027
588	0.026
589	0.026
589	0.026
590	0.026
590	0.025
590	0.026
591	0.027
591	0.026
592	0.026
592	0.026
593	0.026
593	0.026
594	0.026
594	0.025
594	0.025
595	0.025
595	0.024
596	0.024
596	0.025
597	0.026
597	0.027
598	0.027
598	0.027
598	0.028
599	0.028
599	0.028
600	0.027
600	0.027
601	0.026
601	0.026
602	0.025
602	0.025
602	0.025
603	0.025
603	0.026
604	0.027
604	0.028
605	0.029
605	0.03
606	0.03
606	0.029
606	0.029
607	0.029
607	0.028
608	0.028
608	0.027
609	0.026
609	0.026
610	0.025
610	0.024
610	0.024
611	0.024
611	0.024
612	0.025
612	0.025
613	0.026
613	0.026
614	0.026
614	0.026
614	0.026
615	0.026
615	0.026
616	0.026
616	0.026
617	0.026
617	0.025
618	0.024
618	0.024
618	0.024
619	0.024
619	0.025
620	0.026
620	0.026
621	0.026
621	0.027
622	0.027
622	0.027
622	0.026
623	0.026
623	0.026
624	0.026
624	0.025
625	0.024
625	0.024
626	0.024
626	0.023
626	0.024
627	0.024
627	0.025
628	0.025
628	0.025
629	0.026
629	0.026
630	0.026
630	0.026
630	0.026
631	0.026
631	0.026
632	0.026
632	0.027
633	0.027
633	0.027
634	0.028
634	0.029
634	0.03
635	0.031
635	0.031
636	0.032
636	0.033
637	0.033
637	0.034
638	0.034
638	0.035
638	0.036
639	0.036
639	0.037
640	0.037
640	0.039
641	0.039
641	0.04
642	0.041
642	0.043
642	0.043
643	0.044
643	0.044
644	0.045
644	0.045
645	0.046
645	0.046
646	0.046
646	0.047
646	0.048
647	0.049
647	0.05
648	0.051
648	0.052
649	0.054
649	0.055
650	0.056
650	0.057
650	0.058
651	0.06
651	0.061
652	0.062
652	0.063
653	0.064
653	0.069
653	0.068
654	0.057
654	0.047
655	0.048
655	0.049
656	0.049
656	0.05
657	0.051
657	0.051
657	0.052
658	0.05
658	0.05
659	0.062
659	0.077
660	0.082
660	0.083
661	0.084
661	0.085
661	0.086
662	0.087
662	0.089
663	0.09
663	0.091
664	0.092
664	0.092
665	0.093
665	0.094
665	0.096
666	0.097
666	0.098
667	0.099
667	0.1
668	0.1
668	0.101
669	0.103
669	0.104
669	0.106
670	0.107
670	0.109
671	0.109
671	0.11
672	0.111
672	0.112
672	0.113
673	0.113
673	0.114
674	0.114
674	0.114
675	0.114
675	0.115
676	0.115
676	0.116
676	0.117
677	0.117
677	0.118
678	0.119
678	0.119
679	0.119
679	0.12
680	0.121
680	0.122
680	0.122
681	0.122
681	0.122
682	0.122
682	0.123
683	0.123
683	0.124
684	0.125
684	0.125
684	0.125
685	0.125
685	0.126
686	0.126
686	0.127
687	0.127
687	0.127
687	0.127
688	0.127
688	0.127
689	0.127
689	0.128
690	0.127
690	0.127
691	0.126
691	0.126
691	0.125
692	0.124
692	0.124
693	0.124
693	0.123
694	0.123
694	0.122
695	0.122
695	0.122
695	0.122
696	0.121
696	0.121
697	0.12
697	0.119
698	0.118
698	0.117
698	0.116
699	0.116
699	0.114
700	0.113
700	0.113
701	0.112
701	0.112
702	0.112
702	0.112
702	0.112
703	0.111
703	0.111
704	0.111
704	0.111
705	0.111
705	0.11
705	0.11
706	0.11
706	0.109
707	0.108
707	0.108
708	0.107
708	0.106
709	0.105
709	0.104
709	0.103
710	0.101
710	0.1
711	0.099
711	0.098
712	0.097
712	0.096
713	0.095
713	0.094
713	0.093
714	0.092
714	0.091
715	0.09
715	0.089
716	0.088
716	0.088
716	0.087
717	0.086
717	0.085
718	0.084
718	0.083
719	0.083
719	0.082
720	0.081
720	0.08
720	0.079
721	0.077
721	0.076
722	0.076
722	0.075
723	0.074
723	0.073
723	0.073
724	0.072
724	0.071
725	0.07
725	0.07
726	0.069
726	0.067
727	0.066
727	0.065
727	0.063
728	0.062
728	0.061
729	0.06
729	0.059
730	0.058
730	0.057
730	0.057
731	0.056
731	0.056
732	0.056
732	0.055
733	0.055
733	0.055
734	0.054
734	0.053
734	0.053
735	0.052
735	0.051
736	0.05
736	0.049
737	0.048
737	0.048
737	0.047
738	0.045
738	0.044
739	0.043
739	0.041
740	0.04
740	0.039
741	0.039
741	0.037
741	0.036
742	0.034
742	0.032
743	0.032
743	0.031
744	0.03
744	0.029
744	0.029
745	0.028
745	0.028
746	0.028
746	0.028
747	0.028
747	0.028
748	0.029
748	0.029
748	0.029
749	0.028
749	0.028
750	0.028
750	0.027
751	0.026
751	0.026
751	0.025
752	0.023
752	0.022
753	0.02
753	0.019
754	0.018
754	0.016
754	0.016
755	0.016
755	0.016
756	0.016
756	0.015
757	0.015
757	0.015
758	0.015
758	0.015
758	0.015
759	0.015
759	0.014
760	0.013
760	0.012
761	0.012
761	0.013
761	0.012
762	0.012
762	0.013
763	0.013
763	0.013
764	0.012
764	0.011
764	0.011
765	0.01
765	0.009
766	0.008
766	0.007
767	0.007
767	0.005
768	0.004
768	0.002
768	0.001
769	0
769	-0.001
770	-0.003
770	-0.004
771	-0.006
771	-0.009
771	-0.011
772	-0.013
772	-0.015
773	-0.017
773	-0.019
774	-0.021
774	-0.022
775	-0.024
775	-0.025
775	-0.027
776	-0.028
776	-0.03
777	-0.031
777	-0.033
778	-0.035
778	-0.038
778	-0.04
779	-0.042
779	-0.043
780	-0.046
780	-0.048
781	-0.051
781	-0.054
781	-0.058
782	-0.062
782	-0.066
783	-0.071
783	-0.075
784	-0.081
784	-0.088
784	-0.094
785	-0.101
785	-0.108
786	-0.112
786	-0.114
787	-0.113
787	-0.113
788	-0.116
788	-0.12
788	-0.122
789	-0.125
789	-0.125
790	-0.123
790	-0.122
791	-0.124
791	-0.126
791	-0.129
792	-0.125
792	-0.115
793	-0.109
793	-0.105
794	-0.103
794	-0.105
794	-0.108
795	-0.11
795	-0.109
796	-0.109
796	-0.111
797	-0.119
797	-0.13
797	-0.136
798	-0.141
798	-0.144
799	-0.144
799	-0.144
800	-0.144
800	-0.146
801	-0.149
801	-0.151
801	-0.151
802	-0.152
802	-0.153
803	-0.154
803	-0.154
804	-0.152
804	-0.146
804	-0.139
805	-0.135
805	-0.132
806	-0.129
806	-0.127
807	-0.126
807	-0.125
807	-0.125
808	-0.125
808	-0.126
809	-0.131
809	-0.137
810	-0.141
810	-0.144
810	-0.148
811	-0.152
811	-0.153
812	-0.15
812	-0.148
813	-0.148
813	-0.149
813	-0.151
814	-0.152
814	-0.152
815	-0.149
815	-0.146
816	-0.144
816	-0.144
817	-0.147
817	-0.147
817	-0.144
818	-0.139
818	-0.133
819	-0.126
819	-0.12
820	-0.116
820	-0.111
820	-0.105
821	-0.097
821	-0.09
822	-0.082
822	-0.076
823	-0.07
823	-0.065
823	-0.06
824	-0.055
824	-0.05
825	-0.045
825	-0.04
826	-0.036
826	-0.033
826	-0.031
827	-0.028
827	-0.027
828	-0.025
828	-0.024
829	-0.022
829	-0.021
829	-0.021
830	-0.02
830	-0.019
831	-0.018
831	-0.016
832	-0.015
832	-0.014
832	-0.014
833	-0.013
833	-0.013
834	-0.013
834	-0.013
835	-0.013
835	-0.014
835	-0.014
836	-0.014
836	-0.014
837	-0.014
837	-0.014
838	-0.014
838	-0.013
839	-0.012
839	-0.012
839	-0.011
840	-0.01
840	-0.01
841	-0.009
841	-0.008
842	-0.008
842	-0.007
842	-0.006
843	-0.006
843	-0.005
844	-0.005
844	-0.004
845	-0.004
845	-0.003
845	-0.003
846	-0.002
846	-0.002
847	-0.002
847	-0.002
848	-0.001
848	-0.001
848	-0
849	0
849	0.001
850	0.001
850	0.002
851	0.002
851	0.002
851	0.002
852	0.002
852	0.002
853	0.002
853	0.002
854	0.001
854	0.001
854	0.001
855	0.001
855	0.001
856	0.001
856	0.001
857	0.002
857	0.002
857	0.002
858	0.003
858	0.003
859	0.003
859	0.004
860	0.004
860	0.005
860	0.006
861	0.006
861	0.007
862	0.007
862	0.007
863	0.007
863	0.007
863	0.007
864	0.007
864	0.007
865	0.007
865	0.007
866	0.007
866	0.007
866	0.007
867	0.007
867	0.007
868	0.007
868	0.007
869	0.007
869	0.006
869	0.005
870	0.004
870	0.003
871	0.002
871	0.002
872	0.001
872	0
872	0
873	0
873	0
874	0
874	0.001
875	0.001
875	0.001
875	0.002
876	0.002
876	0.003
877	0.003
877	0.004
878	0.004
878	0.004
878	0.004
879	0.004
879	0.003
880	0.003
880	0.003
881	0.002
881	0.001
881	0.001
882	-0
882	-0.001
883	-0.001
883	-0.002
884	-0.002
884	-0.002
884	-0.002
885	-0.001
885	-0.001
886	-0.001
886	-0
887	0
887	0
887	0.001
888	0.001
888	0.002
889	0.002
889	0.003
890	0.003
890	0.004
890	0.004
891	0.004
891	0.005
892	0.005
892	0.004
893	0.004
893	0.004
893	0.004
894	0.004
894	0.004
895	0.004
895	0.003
895	0.002
896	0.002
896	0.001
897	0.001
897	0
898	-0
898	-0.001
898	-0.002
899	-0.003
899	-0.003
900	-0.004
900	-0.005
901	-0.006
901	-0.007
901	-0.007
902	-0.008
902	-0.009
903	-0.01
903	-0.01
904	-0.011
904	-0.011
904	-0.011
905	-0.011
905	-0.01
906	-0.01
906	-0.009
907	-0.008
907	-0.007
907	-0.006
908	-0.005
908	-0.004
909	-0.002
909	-0.001
910	0.001
910	0.002
910	0.003
911	0.004
911	0.005
912	0.006
912	0.007
913	0.008
913	0.008
913	0.008
914	0.008
914	0.009
915	0.009
915	0.008
916	0.009
916	0.009
916	0.009
917	0.009
917	0.009
918	0.009
918	0.008
918	0.008
919	0.007
919	0.006
920	0.005
920	0.004
921	0.002
921	0.001
921	-0
922	-0.001
922	-0.001
923	-0.002
923	-0.002
924	-0.002
924	-0.002
924	-0.002
925	-0.002
925	-0.002
926	-0.002
926	-0.003
927	-0.003
927	-0.004
927	-0.004
928	-0.004
928	-0.005
929	-0.005
929	-0.006
930	-0.006
930	-0.007
930	-0.007
931	-0.008
931	-0.009
932	-0.009
932	-0.009
933	-0.01
933	-0.011
933	-0.011
934	-0.012
934	-0.013
935	-0.014
935	-0.014
935	-0.015
936	-0.015
936	-0.016
937	-0.016
937	-0.016
938	-0.016
938	-0.016
938	-0.016
939	-0.015
939	-0.014
940	-0.014
940	-0.013
941	-0.012
941	-0.012
941	-0.011
942	-0.011
942	-0.01
943	-0.01
943	-0.01
944	-0.01
944	-0.009
944	-0.009
945	-0.009
945	-0.008
946	-0.008
946	-0.007
946	-0.006
947	-0.005
947	-0.005
948	-0.003
948	-0.002
949	-0.002
949	-0.001
949	0
950	0.001
950	0.002
951	0.002
951	0.003
952	0.003
952	0.003
952	0.003
953	0.004
953	0.004
954	0.004
954	0.004
955	0.004
955	0.004
955	0.004
956	0.004
956	0.004
957	0.004
957	0.003
957	0.003
958	0.002
958	0.001
959	0.001
959	-0
960	-0.001
960	-0.003
960	-0.004
961	-0.005
961	-0.006
962	-0.007
962	-0.008
963	-0.009
963	-0.01
963	-0.01
964	-0.01
964	-0.01
965	-0.01
965	-0.01
966	-0.01
966	-0.01
966	-0.009
967	-0.009
967	-0.009
968	-0.009
968	-0.009
968	-0.009
969	-0.009
969	-0.009
970	-0.009
970	-0.009
971	-0.009
971	-0.009
971	-0.009
972	-0.01
972	-0.01
973	-0.01
973	-0.01
974	-0.01
974	-0.01
974	-0.01
975	-0.009
975	-0.009
976	-0.009
976	-0.009
976	-0.009
977	-0.008
977	-0.008
978	-0.008
978	-0.008
979	-0.009
979	-0.009
979	-0.009
980	-0.009
980	-0.009
981	-0.009
981	-0.01
982	-0.01
982	-0.009
982	-0.01
983	-0.01
983	-0.01
984	-0.011
984	-0.011
984	-0.012
985	-0.012
985	-0.013
986	-0.013
986	-0.014
987	-0.014
987	-0.014
987	-0.015
988	-0.015
988	-0.015
989	-0.015
989	-0.015
990	-0.014
990	-0.014
990	-0.014
991	-0.013
991	-0.012
992	-0.012
992	-0.011
992	-0.01
993	-0.009
993	-0.008
994	-0.007
994	-0.007
995	-0.005
995	-0.005
995	-0.004
996	-0.003
996	-0.003
997	-0.003
997	-0.002
997	-0.002
998	-0.002
998	-0.002
999	-0.002
999	-0.002
1000	-0.002
1000	-0.003
1000	-0.003
1001	-0.003
1001	-0.004
1002	-0.004
1002	-0.005
1003	-0.005
1003	-0.006
1003	-0.006
1004	-0.007
1004	-0.008
1005	-0.008
1005	-0.009
1005	-0.01
1006	-0.01
1006	-0.01
1007	-0.011
1007	-0.011
1008	-0.011
1008	-0.011
1008	-0.011
1009	-0.011
1009	-0.011
1010	-0.01
1010	-0.01
1010	-0.009
1011	-0.009
1011	-0.008
1012	-0.007
1012	-0.007
1013	-0.006
1013	-0.006
1013	-0.005
1014	-0.005
1014	-0.005
1015	-0.005
1015	-0.005
1016	-0.005
1016	-0.006
1016	-0.006
1017	-0.006
1017	-0.006
1018	-0.006
1018	-0.007
1018	-0.007
1019	-0.007
1019	-0.007
1020	-0.008
1020	-0.008
1021	-0.009
1021	-0.009
1021	-0.01
1022	-0.011
1022	-0.012
1023	-0.012
1023	-0.013
1023	-0.014
1024	-0.016
1024	-0.016
1025	-0.017
1025	-0.018
1026	-0.018
1026	-0.018
1026	-0.019
1027	-0.019
1027	-0.018
1028	-0.017
1028	-0.016
1028	-0.015
1029	-0.015
1029	-0.014
1030	-0.013
1030	-0.013
1031	-0.012
1031	-0.011
1031	-0.011
1032	-0.011
1032	-0.011
1033	-0.011
1033	-0.011
1033	-0.011
1034	-0.011
1034	-0.011
1035	-0.011
1035	-0.012
1036	-0.012
1036	-0.013
1036	-0.012
1037	-0.013
1037	-0.013
1038	-0.013
1038	-0.013
1039	-0.013
1039	-0.013
1039	-0.013
1040	-0.013
1040	-0.014
1041	-0.014
1041	-0.015
1041	-0.015
1042	-0.016
1042	-0.016
1043	-0.017
1043	-0.018
1044	-0.018
1044	-0.019
1044	-0.019
1045	-0.02
1045	-0.02
1046	-0.02
1046	-0.021
1046	-0.02
1047	-0.02
1047	-0.02
1048	-0.019
1048	-0.019
1049	-0.019
1049	-0.019
1049	-0.019
1050	-0.019
1050	-0.02
1051	-0.02
1051	-0.02
1051	-0.02
1052	-0.02
1052	-0.02
1053	-0.02
1053	-0.02
1053	-0.02
1054	-0.02
1054	-0.02
1055	-0.019
1055	-0.02
1056	-0.02
1056	-0.02
1056	-0.021
1057	-0.022
1057	-0.023
1058	-0.023
1058	-0.025
1058	-0.025
1059	-0.026
1059	-0.027
1060	-0.028
1060	-0.028
1061	-0.028
1061	-0.028
1061	-0.028
1062	-0.028
1062	-0.029
1063	-0.029
1063	-0.029
1063	-0.029
1064	-0.029
1064	-0.028
1065	-0.028
1065	-0.028
1066	-0.028
1066	-0.028
1066	-0.027
1067	-0.026
1067	-0.026
1068	-0.025
1068	-0.025
1068	-0.024
1069	-0.024
1069	-0.024
1070	-0.024
1070	-0.024
1071	-0.023
1071	-0.023
1071	-0.023
1072	-0.023
1072	-0.022
1073	-0.022
1073	-0.021
1073	-0.02
1074	-0.02
1074	-0.019
1075	-0.018
1075	-0.018
1076	-0.018
1076	-0.017
1076	-0.018
1077	-0.017
1077	-0.017
1078	-0.016
1078	-0.016
1078	-0.015
1079	-0.014
1079	-0.014
1080	-0.013
1080	-0.012
1080	-0.012
1081	-0.01
1081	-0.01
1082	-0.01
1082	-0.01
1083	-0.01
1083	-0.01
1083	-0.009
1084	-0.009
1084	-0.008
1085	-0.008
1085	-0.008
1085	-0.007
1086	-0.007
1086	-0.006
1087	-0.006
1087	-0.005
1088	-0.005
1088	-0.005
1088	-0.004
1089	-0.003
1089	-0.002
1090	-0.001
1090	0
1090	0.001
1091	0.003
1091	0.004
1092	0.006
1092	0.008
1092	0.009
1093	0.01
1093	0.012
1094	0.014
1094	0.015
1095	0.016
1095	0.017
1095	0.02
1096	0.021
1096	0.023
1097	0.024
1097	0.026
1097	0.028
1098	0.03
1098	0.031
1099	0.033
1099	0.036
1100	0.039
1100	0.04
1100	0.042
1101	0.045
1101	0.048
1102	0.051
1102	0.056
1102	0.06
1103	0.066
1103	0.07
1104	0.076
1104	0.082
1104	0.09
1105	0.097
1105	0.105
1106	0.112
1106	0.122
1107	0.131
1107	0.144
1107	0.16
1108	0.215
1108	0.291
1109	0.41
1109	0.644
1109	0.906
1110	-0
1110	-0
1111	-0
1111	-0
