Data from 15c-2a_Absorbance__416__00416.txt Node

Date: Wed Jan 24 09:40:10 CET 2024
User: Marek
Spectrometer: MAYP115816
Trigger mode: 0
Integration Time (sec): 2.000000E-1
Scans to average: 10
Electric dark correction enabled: true
Nonlinearity correction enabled: true
Boxcar width: 5
XAxis mode: Wavelengths
Number of Pixels in Spectrum: 2068
>>>>>Begin Spectral Data<<<<<
199	-1.63
199	-1.471
200	-1.314
200	-1.192
201	-1.121
201	-1.07
202	-1.001
202	-0.946
203	-0.9
203	-0.859
204	-0.832
204	-0.808
205	-0.787
205	-0.779
205	-0.777
206	-0.774
206	-0.772
207	-0.768
207	-0.766
208	-0.764
208	-0.762
209	-0.761
209	-0.761
210	-0.761
210	-0.758
211	-0.757
211	-0.757
212	-0.755
212	-0.751
213	-0.75
213	-0.747
213	-0.745
214	-0.743
214	-0.739
215	-0.738
215	-0.734
216	-0.733
216	-0.73
217	-0.729
217	-0.729
218	-0.73
218	-0.729
219	-0.728
219	-0.725
220	-0.724
220	-0.721
221	-0.721
221	-0.718
221	-0.714
222	-0.708
222	-0.702
223	-0.696
223	-0.69
224	-0.683
224	-0.675
225	-0.668
225	-0.659
226	-0.651
226	-0.64
227	-0.629
227	-0.619
228	-0.603
228	-0.587
229	-0.568
229	-0.548
229	-0.525
230	-0.499
230	-0.471
231	-0.441
231	-0.409
232	-0.377
232	-0.344
233	-0.311
233	-0.277
234	-0.245
234	-0.213
235	-0.183
235	-0.154
236	-0.127
236	-0.103
236	-0.079
237	-0.058
237	-0.038
238	-0.02
238	-0.004
239	0.011
239	0.024
240	0.036
240	0.047
241	0.056
241	0.066
242	0.074
242	0.08
243	0.087
243	0.093
243	0.098
244	0.103
244	0.107
245	0.111
245	0.115
246	0.119
246	0.122
247	0.125
247	0.129
248	0.132
248	0.135
249	0.137
249	0.14
250	0.142
250	0.145
250	0.147
251	0.15
251	0.152
252	0.154
252	0.155
253	0.157
253	0.159
254	0.161
254	0.162
255	0.164
255	0.165
256	0.166
256	0.167
257	0.168
257	0.169
258	0.17
258	0.17
258	0.171
259	0.171
259	0.172
260	0.172
260	0.172
261	0.172
261	0.172
262	0.172
262	0.172
263	0.172
263	0.172
264	0.171
264	0.171
265	0.17
265	0.17
265	0.169
266	0.168
266	0.168
267	0.167
267	0.166
268	0.165
268	0.163
269	0.162
269	0.161
270	0.159
270	0.158
271	0.156
271	0.155
272	0.153
272	0.152
272	0.15
273	0.148
273	0.147
274	0.145
274	0.144
275	0.142
275	0.14
276	0.139
276	0.137
277	0.135
277	0.133
278	0.132
278	0.13
278	0.128
279	0.126
279	0.124
280	0.123
280	0.121
281	0.12
281	0.118
282	0.117
282	0.115
283	0.114
283	0.112
284	0.111
284	0.11
285	0.109
285	0.107
285	0.106
286	0.104
286	0.103
287	0.102
287	0.101
288	0.1
288	0.098
289	0.097
289	0.096
290	0.095
290	0.094
291	0.093
291	0.092
292	0.091
292	0.09
292	0.09
293	0.089
293	0.088
294	0.087
294	0.087
295	0.086
295	0.085
296	0.085
296	0.084
297	0.084
297	0.083
298	0.083
298	0.082
298	0.082
299	0.081
299	0.081
300	0.081
300	0.08
301	0.08
301	0.08
302	0.08
302	0.079
303	0.079
303	0.079
304	0.079
304	0.078
305	0.078
305	0.078
305	0.078
306	0.077
306	0.077
307	0.077
307	0.077
308	0.077
308	0.076
309	0.076
309	0.076
310	0.076
310	0.075
311	0.075
311	0.075
311	0.075
312	0.074
312	0.074
313	0.074
313	0.073
314	0.073
314	0.073
315	0.073
315	0.072
316	0.072
316	0.072
317	0.072
317	0.071
318	0.071
318	0.071
318	0.07
319	0.07
319	0.07
320	0.07
320	0.069
321	0.069
321	0.069
322	0.068
322	0.068
323	0.068
323	0.068
324	0.068
324	0.067
324	0.067
325	0.067
325	0.067
326	0.066
326	0.066
327	0.066
327	0.065
328	0.065
328	0.065
329	0.064
329	0.064
330	0.064
330	0.063
330	0.063
331	0.063
331	0.063
332	0.062
332	0.062
333	0.061
333	0.061
334	0.061
334	0.061
335	0.06
335	0.06
336	0.06
336	0.059
336	0.059
337	0.059
337	0.059
338	0.059
338	0.059
339	0.059
339	0.058
340	0.058
340	0.058
341	0.058
341	0.057
342	0.057
342	0.057
342	0.057
343	0.056
343	0.056
344	0.056
344	0.056
345	0.055
345	0.055
346	0.055
346	0.055
347	0.055
347	0.055
348	0.054
348	0.054
348	0.054
349	0.054
349	0.054
350	0.053
350	0.053
351	0.053
351	0.052
352	0.052
352	0.052
353	0.052
353	0.052
354	0.051
354	0.051
354	0.051
355	0.051
355	0.051
356	0.05
356	0.05
357	0.05
357	0.05
358	0.05
358	0.049
359	0.049
359	0.049
360	0.049
360	0.049
360	0.049
361	0.05
361	0.05
362	0.05
362	0.05
363	0.05
363	0.05
364	0.05
364	0.05
365	0.05
365	0.05
366	0.05
366	0.049
366	0.049
367	0.049
367	0.049
368	0.049
368	0.049
369	0.049
369	0.049
370	0.049
370	0.049
371	0.049
371	0.049
372	0.048
372	0.048
372	0.048
373	0.048
373	0.048
374	0.048
374	0.048
375	0.048
375	0.048
376	0.048
376	0.048
377	0.048
377	0.048
378	0.048
378	0.048
378	0.048
379	0.048
379	0.048
380	0.048
380	0.048
381	0.048
381	0.048
382	0.048
382	0.048
383	0.048
383	0.048
383	0.048
384	0.048
384	0.048
385	0.048
385	0.048
386	0.048
386	0.048
387	0.048
387	0.048
388	0.048
388	0.048
389	0.047
389	0.047
389	0.047
390	0.047
390	0.047
391	0.047
391	0.048
392	0.048
392	0.047
393	0.047
393	0.047
394	0.048
394	0.048
394	0.047
395	0.047
395	0.047
396	0.047
396	0.047
397	0.047
397	0.047
398	0.048
398	0.048
399	0.048
399	0.047
400	0.047
400	0.047
400	0.047
401	0.047
401	0.047
402	0.047
402	0.047
403	0.046
403	0.046
404	0.046
404	0.046
405	0.046
405	0.046
405	0.046
406	0.045
406	0.045
407	0.045
407	0.045
408	0.045
408	0.045
409	0.045
409	0.044
410	0.045
410	0.045
411	0.045
411	0.045
411	0.045
412	0.045
412	0.044
413	0.044
413	0.044
414	0.044
414	0.044
415	0.044
415	0.044
416	0.045
416	0.044
416	0.044
417	0.044
417	0.044
418	0.044
418	0.044
419	0.044
419	0.045
420	0.045
420	0.045
421	0.045
421	0.045
421	0.045
422	0.045
422	0.045
423	0.045
423	0.045
424	0.044
424	0.044
425	0.044
425	0.043
426	0.043
426	0.043
427	0.043
427	0.043
427	0.043
428	0.043
428	0.044
429	0.044
429	0.044
430	0.044
430	0.045
431	0.045
431	0.044
432	0.044
432	0.044
432	0.044
433	0.043
433	0.043
434	0.043
434	0.042
435	0.042
435	0.042
436	0.042
436	0.042
437	0.042
437	0.042
437	0.042
438	0.042
438	0.042
439	0.042
439	0.042
440	0.042
440	0.042
441	0.042
441	0.042
442	0.042
442	0.043
442	0.043
443	0.042
443	0.043
444	0.043
444	0.043
445	0.043
445	0.043
446	0.043
446	0.043
447	0.043
447	0.043
447	0.043
448	0.043
448	0.043
449	0.043
449	0.043
450	0.043
450	0.042
451	0.042
451	0.042
452	0.042
452	0.042
452	0.042
453	0.041
453	0.041
454	0.041
454	0.04
455	0.04
455	0.04
456	0.04
456	0.039
457	0.039
457	0.039
458	0.039
458	0.039
458	0.039
459	0.039
459	0.039
460	0.039
460	0.039
461	0.039
461	0.039
462	0.039
462	0.039
463	0.04
463	0.04
463	0.04
464	0.04
464	0.04
465	0.04
465	0.041
466	0.041
466	0.041
467	0.041
467	0.04
467	0.04
468	0.039
468	0.039
469	0.039
469	0.038
470	0.038
470	0.038
471	0.038
471	0.038
472	0.038
472	0.038
472	0.039
473	0.039
473	0.039
474	0.04
474	0.04
475	0.04
475	0.04
476	0.04
476	0.04
477	0.04
477	0.041
477	0.041
478	0.041
478	0.041
479	0.041
479	0.042
480	0.042
480	0.042
481	0.043
481	0.043
482	0.043
482	0.044
482	0.044
483	0.044
483	0.045
484	0.045
484	0.046
485	0.046
485	0.046
486	0.046
486	0.047
487	0.046
487	0.047
487	0.047
488	0.047
488	0.046
489	0.046
489	0.046
490	0.046
490	0.046
491	0.046
491	0.046
492	0.047
492	0.047
492	0.048
493	0.048
493	0.048
494	0.049
494	0.049
495	0.049
495	0.05
496	0.05
496	0.051
496	0.051
497	0.052
497	0.052
498	0.052
498	0.052
499	0.052
499	0.053
500	0.053
500	0.054
501	0.054
501	0.055
501	0.055
502	0.055
502	0.056
503	0.057
503	0.057
504	0.058
504	0.058
505	0.059
505	0.059
506	0.059
506	0.059
506	0.059
507	0.059
507	0.059
508	0.059
508	0.059
509	0.059
509	0.059
510	0.06
510	0.06
511	0.06
511	0.06
511	0.06
512	0.061
512	0.061
513	0.061
513	0.061
514	0.061
514	0.061
515	0.061
515	0.061
515	0.061
516	0.061
516	0.061
517	0.062
517	0.062
518	0.062
518	0.062
519	0.063
519	0.062
520	0.062
520	0.062
520	0.061
521	0.06
521	0.059
522	0.058
522	0.057
523	0.056
523	0.056
524	0.056
524	0.056
524	0.057
525	0.057
525	0.058
526	0.059
526	0.06
527	0.061
527	0.062
528	0.062
528	0.063
529	0.063
529	0.063
529	0.063
530	0.063
530	0.063
531	0.063
531	0.062
532	0.062
532	0.061
533	0.061
533	0.06
533	0.06
534	0.06
534	0.059
535	0.059
535	0.059
536	0.059
536	0.059
537	0.059
537	0.059
538	0.059
538	0.059
538	0.059
539	0.058
539	0.058
540	0.057
540	0.057
541	0.056
541	0.055
542	0.055
542	0.054
542	0.054
543	0.053
543	0.053
544	0.053
544	0.053
545	0.052
545	0.052
546	0.052
546	0.052
547	0.052
547	0.051
547	0.051
548	0.051
548	0.05
549	0.05
549	0.049
550	0.049
550	0.048
551	0.047
551	0.047
551	0.047
552	0.046
552	0.046
553	0.046
553	0.046
554	0.045
554	0.045
555	0.044
555	0.044
556	0.043
556	0.042
556	0.041
557	0.041
557	0.04
558	0.039
558	0.039
559	0.039
559	0.038
560	0.038
560	0.038
560	0.039
561	0.039
561	0.04
562	0.04
562	0.04
563	0.04
563	0.039
564	0.039
564	0.038
564	0.037
565	0.037
565	0.036
566	0.035
566	0.034
567	0.034
567	0.034
568	0.034
568	0.034
568	0.035
569	0.035
569	0.036
570	0.036
570	0.036
571	0.037
571	0.037
572	0.037
572	0.037
573	0.037
573	0.037
573	0.037
574	0.036
574	0.036
575	0.036
575	0.037
576	0.037
576	0.036
577	0.036
577	0.035
577	0.035
578	0.035
578	0.035
579	0.035
579	0.036
580	0.035
580	0.034
581	0.033
581	0.033
581	0.033
582	0.033
582	0.033
583	0.033
583	0.032
584	0.031
584	0.03
585	0.03
585	0.031
585	0.031
586	0.031
586	0.031
587	0.03
587	0.03
588	0.029
588	0.029
589	0.028
589	0.028
590	0.027
590	0.027
590	0.027
591	0.027
591	0.027
592	0.027
592	0.026
593	0.026
593	0.026
594	0.026
594	0.025
594	0.025
595	0.025
595	0.024
596	0.024
596	0.025
597	0.026
597	0.026
598	0.027
598	0.027
598	0.027
599	0.027
599	0.027
600	0.027
600	0.026
601	0.026
601	0.026
602	0.026
602	0.026
602	0.026
603	0.026
603	0.027
604	0.028
604	0.028
605	0.029
605	0.03
606	0.03
606	0.029
606	0.029
607	0.028
607	0.027
608	0.027
608	0.026
609	0.025
609	0.024
610	0.024
610	0.023
610	0.023
611	0.023
611	0.024
612	0.024
612	0.025
613	0.026
613	0.027
614	0.027
614	0.027
614	0.028
615	0.027
615	0.027
616	0.027
616	0.026
617	0.026
617	0.025
618	0.024
618	0.023
618	0.022
619	0.022
619	0.022
620	0.022
620	0.022
621	0.022
621	0.022
622	0.022
622	0.022
622	0.022
623	0.022
623	0.022
624	0.023
624	0.022
625	0.022
625	0.022
626	0.023
626	0.023
626	0.023
627	0.024
627	0.024
628	0.025
628	0.025
629	0.025
629	0.026
630	0.026
630	0.026
630	0.026
631	0.027
631	0.027
632	0.028
632	0.028
633	0.028
633	0.029
634	0.029
634	0.03
634	0.031
635	0.032
635	0.032
636	0.033
636	0.033
637	0.033
637	0.034
638	0.034
638	0.035
638	0.035
639	0.036
639	0.036
640	0.037
640	0.037
641	0.038
641	0.039
642	0.04
642	0.04
642	0.041
643	0.041
643	0.041
644	0.041
644	0.041
645	0.041
645	0.042
646	0.042
646	0.043
646	0.043
647	0.044
647	0.046
648	0.047
648	0.048
649	0.049
649	0.051
650	0.052
650	0.053
650	0.054
651	0.055
651	0.056
652	0.057
652	0.058
653	0.059
653	0.063
653	0.06
654	0.049
654	0.041
655	0.043
655	0.044
656	0.045
656	0.046
657	0.046
657	0.047
657	0.047
658	0.046
658	0.048
659	0.059
659	0.073
660	0.075
660	0.076
661	0.076
661	0.077
661	0.078
662	0.08
662	0.081
663	0.083
663	0.085
664	0.086
664	0.087
665	0.089
665	0.091
665	0.092
666	0.093
666	0.094
667	0.095
667	0.095
668	0.096
668	0.097
669	0.098
669	0.099
669	0.1
670	0.102
670	0.103
671	0.105
671	0.106
672	0.107
672	0.109
672	0.109
673	0.11
673	0.111
674	0.111
674	0.111
675	0.111
675	0.111
676	0.111
676	0.11
676	0.11
677	0.11
677	0.111
678	0.111
678	0.111
679	0.112
679	0.112
680	0.113
680	0.113
680	0.113
681	0.114
681	0.114
682	0.114
682	0.115
683	0.115
683	0.116
684	0.117
684	0.118
684	0.118
685	0.119
685	0.119
686	0.12
686	0.121
687	0.121
687	0.122
687	0.123
688	0.123
688	0.123
689	0.124
689	0.124
690	0.124
690	0.124
691	0.123
691	0.123
691	0.122
692	0.121
692	0.12
693	0.119
693	0.119
694	0.117
694	0.116
695	0.116
695	0.116
695	0.116
696	0.115
696	0.114
697	0.113
697	0.112
698	0.111
698	0.11
698	0.109
699	0.109
699	0.108
700	0.107
700	0.106
701	0.106
701	0.106
702	0.106
702	0.106
702	0.106
703	0.105
703	0.105
704	0.104
704	0.104
705	0.104
705	0.103
705	0.103
706	0.102
706	0.101
707	0.101
707	0.1
708	0.099
708	0.098
709	0.097
709	0.096
709	0.095
710	0.093
710	0.093
711	0.092
711	0.091
712	0.091
712	0.09
713	0.089
713	0.089
713	0.089
714	0.088
714	0.087
715	0.087
715	0.086
716	0.086
716	0.085
716	0.085
717	0.084
717	0.084
718	0.083
718	0.082
719	0.081
719	0.08
720	0.079
720	0.078
720	0.077
721	0.076
721	0.074
722	0.073
722	0.072
723	0.071
723	0.07
723	0.069
724	0.068
724	0.068
725	0.067
725	0.066
726	0.065
726	0.064
727	0.062
727	0.062
727	0.061
728	0.06
728	0.059
729	0.058
729	0.057
730	0.057
730	0.056
730	0.056
731	0.055
731	0.055
732	0.055
732	0.054
733	0.053
733	0.052
734	0.052
734	0.051
734	0.05
735	0.05
735	0.049
736	0.048
736	0.048
737	0.048
737	0.048
737	0.047
738	0.046
738	0.045
739	0.044
739	0.043
740	0.042
740	0.04
741	0.039
741	0.037
741	0.035
742	0.033
742	0.031
743	0.03
743	0.029
744	0.028
744	0.027
744	0.026
745	0.025
745	0.024
746	0.024
746	0.024
747	0.024
747	0.025
748	0.025
748	0.026
748	0.026
749	0.026
749	0.027
750	0.027
750	0.027
751	0.026
751	0.026
751	0.026
752	0.024
752	0.023
753	0.022
753	0.02
754	0.02
754	0.019
754	0.019
755	0.019
755	0.019
756	0.019
756	0.019
757	0.019
757	0.019
758	0.019
758	0.019
758	0.019
759	0.019
759	0.018
760	0.017
760	0.015
761	0.014
761	0.014
761	0.013
762	0.012
762	0.012
763	0.011
763	0.011
764	0.01
764	0.008
764	0.007
765	0.007
765	0.006
766	0.005
766	0.005
767	0.004
767	0.003
768	0.001
768	0
768	-0.001
769	-0.002
769	-0.003
770	-0.005
770	-0.007
771	-0.009
771	-0.011
771	-0.013
772	-0.015
772	-0.016
773	-0.018
773	-0.019
774	-0.02
774	-0.021
775	-0.022
775	-0.023
775	-0.024
776	-0.025
776	-0.027
777	-0.028
777	-0.03
778	-0.032
778	-0.034
778	-0.037
779	-0.039
779	-0.041
780	-0.044
780	-0.047
781	-0.05
781	-0.055
781	-0.059
782	-0.064
782	-0.07
783	-0.075
783	-0.081
784	-0.087
784	-0.094
784	-0.1
785	-0.107
785	-0.113
786	-0.117
786	-0.118
787	-0.117
787	-0.116
788	-0.118
788	-0.121
788	-0.122
789	-0.125
789	-0.125
790	-0.123
790	-0.122
791	-0.124
791	-0.126
791	-0.129
792	-0.125
792	-0.114
793	-0.109
793	-0.105
794	-0.103
794	-0.105
794	-0.108
795	-0.11
795	-0.109
796	-0.109
796	-0.111
797	-0.119
797	-0.13
797	-0.136
798	-0.141
798	-0.143
799	-0.144
799	-0.144
800	-0.144
800	-0.146
801	-0.149
801	-0.151
801	-0.151
802	-0.152
802	-0.153
803	-0.154
803	-0.153
804	-0.152
804	-0.146
804	-0.139
805	-0.134
805	-0.132
806	-0.129
806	-0.127
807	-0.126
807	-0.125
807	-0.125
808	-0.125
808	-0.126
809	-0.131
809	-0.137
810	-0.141
810	-0.144
810	-0.148
811	-0.152
811	-0.153
812	-0.15
812	-0.148
813	-0.148
813	-0.149
813	-0.151
814	-0.152
814	-0.152
815	-0.149
815	-0.146
816	-0.144
816	-0.144
817	-0.147
817	-0.148
817	-0.145
818	-0.14
818	-0.134
819	-0.128
819	-0.122
820	-0.118
820	-0.113
820	-0.107
821	-0.1
821	-0.092
822	-0.085
822	-0.078
823	-0.072
823	-0.067
823	-0.063
824	-0.058
824	-0.054
825	-0.049
825	-0.044
826	-0.04
826	-0.037
826	-0.034
827	-0.032
827	-0.029
828	-0.027
828	-0.025
829	-0.024
829	-0.022
829	-0.021
830	-0.021
830	-0.02
831	-0.019
831	-0.017
832	-0.016
832	-0.015
832	-0.013
833	-0.012
833	-0.011
834	-0.009
834	-0.008
835	-0.007
835	-0.006
835	-0.005
836	-0.004
836	-0.004
837	-0.003
837	-0.003
838	-0.003
838	-0.003
839	-0.002
839	-0.003
839	-0.003
840	-0.003
840	-0.003
841	-0.003
841	-0.003
842	-0.003
842	-0.003
842	-0.002
843	-0.002
843	-0.002
844	-0.001
844	-0.001
845	-0
845	0
845	0.001
846	0.001
846	0
847	0
847	0.001
848	0.001
848	0.001
848	0.001
849	0.002
849	0.002
850	0.003
850	0.004
851	0.004
851	0.005
851	0.006
852	0.006
852	0.007
853	0.007
853	0.007
854	0.007
854	0.006
854	0.006
855	0.006
855	0.005
856	0.005
856	0.004
857	0.004
857	0.004
857	0.003
858	0.003
858	0.004
859	0.004
859	0.004
860	0.005
860	0.006
860	0.007
861	0.008
861	0.009
862	0.01
862	0.011
863	0.011
863	0.011
863	0.012
864	0.012
864	0.012
865	0.012
865	0.013
866	0.013
866	0.013
866	0.013
867	0.014
867	0.014
868	0.015
868	0.015
869	0.015
869	0.014
869	0.013
870	0.013
870	0.012
871	0.011
871	0.01
872	0.009
872	0.008
872	0.006
873	0.005
873	0.004
874	0.003
874	0.003
875	0.002
875	0.001
875	0.001
876	0.001
876	0.001
877	0.001
877	0.001
878	0.002
878	0.002
878	0.003
879	0.003
879	0.003
880	0.003
880	0.004
881	0.004
881	0.004
881	0.003
882	0.003
882	0.003
883	0.002
883	0.002
884	0.002
884	0.001
884	0.001
885	0.001
885	0.001
886	0.001
886	0.002
887	0.002
887	0.003
887	0.004
888	0.005
888	0.005
889	0.006
889	0.007
890	0.008
890	0.008
890	0.008
891	0.008
891	0.007
892	0.007
892	0.006
893	0.006
893	0.006
893	0.006
894	0.006
894	0.006
895	0.006
895	0.007
895	0.007
896	0.007
896	0.007
897	0.007
897	0.007
898	0.007
898	0.007
898	0.006
899	0.006
899	0.006
900	0.006
900	0.006
901	0.005
901	0.005
901	0.005
902	0.005
902	0.005
903	0.005
903	0.005
904	0.004
904	0.004
904	0.004
905	0.004
905	0.004
906	0.004
906	0.004
907	0.004
907	0.004
907	0.004
908	0.004
908	0.004
909	0.005
909	0.005
910	0.005
910	0.005
910	0.005
911	0.005
911	0.005
912	0.005
912	0.005
913	0.005
913	0.005
913	0.005
914	0.006
914	0.006
915	0.006
915	0.007
916	0.007
916	0.008
916	0.009
917	0.009
917	0.009
918	0.01
918	0.01
918	0.009
919	0.009
919	0.008
920	0.007
920	0.006
921	0.005
921	0.004
921	0.003
922	0.002
922	0.002
923	0.001
923	0.001
924	0.001
924	0.001
924	0
925	-0
925	-0
926	-0.001
926	-0.001
927	-0.002
927	-0.002
927	-0.003
928	-0.003
928	-0.003
929	-0.003
929	-0.003
930	-0.004
930	-0.003
930	-0.003
931	-0.003
931	-0.003
932	-0.004
932	-0.004
933	-0.004
933	-0.005
933	-0.005
934	-0.006
934	-0.007
935	-0.007
935	-0.008
935	-0.009
936	-0.009
936	-0.01
937	-0.01
937	-0.009
938	-0.009
938	-0.008
938	-0.008
939	-0.007
939	-0.007
940	-0.006
940	-0.006
941	-0.005
941	-0.005
941	-0.005
942	-0.005
942	-0.005
943	-0.004
943	-0.004
944	-0.004
944	-0.003
944	-0.003
945	-0.002
945	-0.001
946	0.001
946	0.002
946	0.003
947	0.005
947	0.006
948	0.008
948	0.009
949	0.01
949	0.011
949	0.012
950	0.013
950	0.014
951	0.014
951	0.014
952	0.014
952	0.015
952	0.015
953	0.015
953	0.015
954	0.015
954	0.015
955	0.015
955	0.015
955	0.015
956	0.015
956	0.014
957	0.014
957	0.013
957	0.012
958	0.011
958	0.01
959	0.009
959	0.007
960	0.006
960	0.005
960	0.003
961	0.002
961	0.001
962	-0
962	-0.001
963	-0.002
963	-0.003
963	-0.003
964	-0.003
964	-0.003
965	-0.003
965	-0.002
966	-0.001
966	-0.001
966	0
967	0.001
967	0.002
968	0.002
968	0.002
968	0.003
969	0.002
969	0.002
970	0.002
970	0.001
971	0.001
971	-0
971	-0.001
972	-0.002
972	-0.003
973	-0.004
973	-0.005
974	-0.006
974	-0.006
974	-0.007
975	-0.007
975	-0.008
976	-0.008
976	-0.008
976	-0.009
977	-0.009
977	-0.009
978	-0.01
978	-0.01
979	-0.01
979	-0.01
979	-0.01
980	-0.011
980	-0.011
981	-0.011
981	-0.011
982	-0.011
982	-0.01
982	-0.01
983	-0.01
983	-0.01
984	-0.01
984	-0.01
984	-0.009
985	-0.009
985	-0.009
986	-0.009
986	-0.009
987	-0.009
987	-0.009
987	-0.008
988	-0.007
988	-0.007
989	-0.006
989	-0.006
990	-0.005
990	-0.005
990	-0.004
991	-0.003
991	-0.003
992	-0.003
992	-0.003
992	-0.003
993	-0.003
993	-0.004
994	-0.004
994	-0.004
995	-0.005
995	-0.005
995	-0.005
996	-0.005
996	-0.005
997	-0.006
997	-0.006
997	-0.006
998	-0.006
998	-0.006
999	-0.006
999	-0.007
1000	-0.007
1000	-0.007
1000	-0.007
1001	-0.007
1001	-0.007
1002	-0.008
1002	-0.008
1003	-0.008
1003	-0.007
1003	-0.007
1004	-0.007
1004	-0.007
1005	-0.007
1005	-0.007
1005	-0.007
1006	-0.007
1006	-0.006
1007	-0.007
1007	-0.007
1008	-0.007
1008	-0.007
1008	-0.008
1009	-0.008
1009	-0.008
1010	-0.009
1010	-0.009
1010	-0.009
1011	-0.009
1011	-0.009
1012	-0.009
1012	-0.008
1013	-0.008
1013	-0.007
1013	-0.007
1014	-0.006
1014	-0.006
1015	-0.005
1015	-0.005
1016	-0.004
1016	-0.004
1016	-0.004
1017	-0.004
1017	-0.003
1018	-0.003
1018	-0.004
1018	-0.004
1019	-0.004
1019	-0.004
1020	-0.004
1020	-0.004
1021	-0.004
1021	-0.004
1021	-0.004
1022	-0.004
1022	-0.004
1023	-0.004
1023	-0.004
1023	-0.005
1024	-0.005
1024	-0.005
1025	-0.006
1025	-0.006
1026	-0.006
1026	-0.006
1026	-0.007
1027	-0.007
1027	-0.006
1028	-0.006
1028	-0.006
1028	-0.005
1029	-0.005
1029	-0.004
1030	-0.004
1030	-0.004
1031	-0.003
1031	-0.003
1031	-0.003
1032	-0.003
1032	-0.003
1033	-0.003
1033	-0.004
1033	-0.004
1034	-0.005
1034	-0.005
1035	-0.006
1035	-0.007
1036	-0.007
1036	-0.008
1036	-0.008
1037	-0.008
1037	-0.008
1038	-0.008
1038	-0.008
1039	-0.008
1039	-0.007
1039	-0.007
1040	-0.006
1040	-0.006
1041	-0.006
1041	-0.006
1041	-0.006
1042	-0.005
1042	-0.005
1043	-0.006
1043	-0.006
1044	-0.006
1044	-0.007
1044	-0.006
1045	-0.007
1045	-0.007
1046	-0.008
1046	-0.008
1046	-0.008
1047	-0.009
1047	-0.008
1048	-0.009
1048	-0.009
1049	-0.009
1049	-0.01
1049	-0.009
1050	-0.01
1050	-0.01
1051	-0.009
1051	-0.009
1051	-0.009
1052	-0.009
1052	-0.008
1053	-0.008
1053	-0.007
1053	-0.007
1054	-0.007
1054	-0.006
1055	-0.006
1055	-0.005
1056	-0.005
1056	-0.006
1056	-0.006
1057	-0.007
1057	-0.007
1058	-0.007
1058	-0.007
1058	-0.007
1059	-0.008
1059	-0.008
1060	-0.008
1060	-0.008
1061	-0.007
1061	-0.007
1061	-0.006
1062	-0.006
1062	-0.006
1063	-0.006
1063	-0.006
1063	-0.006
1064	-0.006
1064	-0.006
1065	-0.007
1065	-0.007
1066	-0.007
1066	-0.008
1066	-0.008
1067	-0.008
1067	-0.008
1068	-0.007
1068	-0.007
1068	-0.007
1069	-0.007
1069	-0.007
1070	-0.007
1070	-0.006
1071	-0.006
1071	-0.006
1071	-0.005
1072	-0.005
1072	-0.004
1073	-0.003
1073	-0.002
1073	-0.002
1074	-0.001
1074	0
1075	0.001
1075	0.002
1076	0.002
1076	0.003
1076	0.003
1077	0.004
1077	0.004
1078	0.005
1078	0.006
1078	0.007
1079	0.008
1079	0.009
1080	0.01
1080	0.011
1080	0.011
1081	0.013
1081	0.013
1082	0.013
1082	0.013
1083	0.013
1083	0.013
1083	0.014
1084	0.014
1084	0.015
1085	0.015
1085	0.016
1085	0.016
1086	0.017
1086	0.017
1087	0.018
1087	0.02
1088	0.02
1088	0.021
1088	0.022
1089	0.023
1089	0.025
1090	0.026
1090	0.028
1090	0.03
1091	0.032
1091	0.035
1092	0.037
1092	0.04
1092	0.042
1093	0.043
1093	0.045
1094	0.047
1094	0.049
1095	0.05
1095	0.051
1095	0.054
1096	0.055
1096	0.057
1097	0.06
1097	0.061
1097	0.063
1098	0.065
1098	0.067
1099	0.071
1099	0.074
1100	0.079
1100	0.082
1100	0.087
1101	0.091
1101	0.095
1102	0.101
1102	0.107
1102	0.114
1103	0.121
1103	0.129
1104	0.138
1104	0.146
1104	0.157
1105	0.167
1105	0.179
1106	0.19
1106	0.203
1107	0.218
1107	0.24
1107	0.266
1108	0.339
1108	0.451
1109	0.651
1109	1.29
1109	-0
1110	-0
1110	-0
1111	-0
1111	-0
