Data from 15c-2a_Absorbance__9__00009.txt Node

Date: Wed Jan 24 09:26:36 CET 2024
User: Marek
Spectrometer: MAYP115816
Trigger mode: 0
Integration Time (sec): 2.000000E-1
Scans to average: 10
Electric dark correction enabled: true
Nonlinearity correction enabled: true
Boxcar width: 5
XAxis mode: Wavelengths
Number of Pixels in Spectrum: 2068
>>>>>Begin Spectral Data<<<<<
199	-1.71
199	-1.548
200	-1.387
200	-1.264
201	-1.191
201	-1.137
202	-1.066
202	-1.008
203	-0.957
203	-0.914
204	-0.886
204	-0.862
205	-0.841
205	-0.832
205	-0.83
206	-0.826
206	-0.824
207	-0.82
207	-0.817
208	-0.816
208	-0.814
209	-0.812
209	-0.811
210	-0.81
210	-0.808
211	-0.806
211	-0.806
212	-0.803
212	-0.801
213	-0.798
213	-0.795
213	-0.792
214	-0.79
214	-0.786
215	-0.786
215	-0.78
216	-0.779
216	-0.775
217	-0.774
217	-0.774
218	-0.774
218	-0.773
219	-0.772
219	-0.769
220	-0.767
220	-0.764
221	-0.765
221	-0.763
221	-0.759
222	-0.753
222	-0.747
223	-0.741
223	-0.735
224	-0.726
224	-0.719
225	-0.712
225	-0.702
226	-0.692
226	-0.681
227	-0.67
227	-0.659
228	-0.642
228	-0.626
229	-0.607
229	-0.588
229	-0.565
230	-0.539
230	-0.511
231	-0.482
231	-0.45
232	-0.417
232	-0.384
233	-0.351
233	-0.317
234	-0.283
234	-0.25
235	-0.218
235	-0.188
236	-0.161
236	-0.134
236	-0.11
237	-0.087
237	-0.066
238	-0.047
238	-0.03
239	-0.015
239	-0.001
240	0.012
240	0.023
241	0.034
241	0.044
242	0.052
242	0.06
243	0.066
243	0.073
243	0.078
244	0.084
244	0.089
245	0.093
245	0.097
246	0.101
246	0.105
247	0.109
247	0.112
248	0.116
248	0.119
249	0.122
249	0.125
250	0.128
250	0.131
250	0.133
251	0.136
251	0.138
252	0.14
252	0.142
253	0.144
253	0.146
254	0.147
254	0.149
255	0.151
255	0.152
256	0.153
256	0.154
257	0.155
257	0.156
258	0.157
258	0.158
258	0.159
259	0.159
259	0.16
260	0.16
260	0.161
261	0.161
261	0.161
262	0.161
262	0.161
263	0.161
263	0.16
264	0.16
264	0.16
265	0.159
265	0.159
265	0.158
266	0.157
266	0.156
267	0.156
267	0.155
268	0.154
268	0.153
269	0.151
269	0.15
270	0.149
270	0.147
271	0.146
271	0.145
272	0.143
272	0.142
272	0.14
273	0.139
273	0.137
274	0.136
274	0.134
275	0.133
275	0.131
276	0.129
276	0.128
277	0.126
277	0.124
278	0.122
278	0.121
278	0.119
279	0.117
279	0.115
280	0.114
280	0.112
281	0.11
281	0.109
282	0.108
282	0.106
283	0.105
283	0.104
284	0.103
284	0.101
285	0.1
285	0.099
285	0.098
286	0.096
286	0.095
287	0.094
287	0.093
288	0.091
288	0.09
289	0.089
289	0.088
290	0.087
290	0.086
291	0.085
291	0.084
292	0.083
292	0.083
292	0.082
293	0.081
293	0.081
294	0.08
294	0.079
295	0.079
295	0.078
296	0.078
296	0.077
297	0.077
297	0.076
298	0.075
298	0.075
298	0.075
299	0.074
299	0.074
300	0.074
300	0.073
301	0.073
301	0.073
302	0.073
302	0.073
303	0.073
303	0.072
304	0.072
304	0.072
305	0.072
305	0.072
305	0.071
306	0.071
306	0.071
307	0.071
307	0.071
308	0.07
308	0.07
309	0.07
309	0.07
310	0.07
310	0.07
311	0.069
311	0.069
311	0.069
312	0.069
312	0.068
313	0.068
313	0.068
314	0.068
314	0.067
315	0.067
315	0.067
316	0.067
316	0.067
317	0.066
317	0.066
318	0.066
318	0.066
318	0.065
319	0.065
319	0.065
320	0.065
320	0.064
321	0.064
321	0.064
322	0.064
322	0.064
323	0.063
323	0.063
324	0.063
324	0.063
324	0.063
325	0.062
325	0.062
326	0.062
326	0.062
327	0.062
327	0.061
328	0.061
328	0.061
329	0.061
329	0.061
330	0.06
330	0.06
330	0.06
331	0.06
331	0.06
332	0.059
332	0.059
333	0.059
333	0.058
334	0.058
334	0.058
335	0.058
335	0.057
336	0.057
336	0.057
336	0.057
337	0.056
337	0.056
338	0.056
338	0.056
339	0.056
339	0.056
340	0.055
340	0.055
341	0.055
341	0.055
342	0.055
342	0.055
342	0.054
343	0.054
343	0.054
344	0.054
344	0.054
345	0.054
345	0.053
346	0.053
346	0.053
347	0.053
347	0.053
348	0.052
348	0.052
348	0.052
349	0.052
349	0.052
350	0.051
350	0.051
351	0.051
351	0.051
352	0.05
352	0.05
353	0.05
353	0.05
354	0.05
354	0.049
354	0.049
355	0.049
355	0.049
356	0.049
356	0.048
357	0.048
357	0.048
358	0.048
358	0.048
359	0.048
359	0.048
360	0.048
360	0.048
360	0.048
361	0.048
361	0.049
362	0.049
362	0.049
363	0.049
363	0.049
364	0.049
364	0.049
365	0.048
365	0.048
366	0.048
366	0.048
366	0.048
367	0.048
367	0.048
368	0.048
368	0.048
369	0.047
369	0.047
370	0.047
370	0.047
371	0.047
371	0.047
372	0.047
372	0.046
372	0.046
373	0.046
373	0.046
374	0.046
374	0.046
375	0.046
375	0.046
376	0.046
376	0.046
377	0.046
377	0.046
378	0.046
378	0.046
378	0.046
379	0.046
379	0.046
380	0.046
380	0.046
381	0.046
381	0.046
382	0.045
382	0.045
383	0.045
383	0.045
383	0.045
384	0.045
384	0.045
385	0.045
385	0.045
386	0.045
386	0.045
387	0.045
387	0.045
388	0.045
388	0.045
389	0.045
389	0.045
389	0.045
390	0.045
390	0.045
391	0.045
391	0.045
392	0.045
392	0.045
393	0.045
393	0.045
394	0.045
394	0.045
394	0.045
395	0.045
395	0.045
396	0.044
396	0.044
397	0.044
397	0.044
398	0.044
398	0.044
399	0.044
399	0.044
400	0.044
400	0.044
400	0.044
401	0.044
401	0.043
402	0.043
402	0.043
403	0.043
403	0.043
404	0.043
404	0.043
405	0.043
405	0.043
405	0.043
406	0.043
406	0.043
407	0.043
407	0.043
408	0.042
408	0.042
409	0.042
409	0.042
410	0.042
410	0.042
411	0.042
411	0.042
411	0.042
412	0.041
412	0.041
413	0.041
413	0.041
414	0.041
414	0.041
415	0.041
415	0.041
416	0.041
416	0.041
416	0.041
417	0.041
417	0.041
418	0.041
418	0.041
419	0.04
419	0.04
420	0.041
420	0.041
421	0.041
421	0.041
421	0.041
422	0.041
422	0.041
423	0.041
423	0.041
424	0.041
424	0.041
425	0.041
425	0.04
426	0.04
426	0.04
427	0.04
427	0.04
427	0.04
428	0.04
428	0.04
429	0.04
429	0.04
430	0.04
430	0.04
431	0.04
431	0.04
432	0.04
432	0.039
432	0.039
433	0.039
433	0.039
434	0.038
434	0.038
435	0.038
435	0.038
436	0.038
436	0.038
437	0.038
437	0.038
437	0.038
438	0.038
438	0.038
439	0.038
439	0.038
440	0.038
440	0.038
441	0.038
441	0.038
442	0.038
442	0.038
442	0.038
443	0.038
443	0.038
444	0.038
444	0.038
445	0.038
445	0.038
446	0.038
446	0.038
447	0.038
447	0.038
447	0.038
448	0.038
448	0.038
449	0.038
449	0.038
450	0.038
450	0.037
451	0.037
451	0.037
452	0.037
452	0.036
452	0.036
453	0.036
453	0.036
454	0.035
454	0.035
455	0.035
455	0.035
456	0.035
456	0.035
457	0.035
457	0.035
458	0.035
458	0.035
458	0.035
459	0.035
459	0.035
460	0.035
460	0.034
461	0.034
461	0.034
462	0.034
462	0.034
463	0.034
463	0.034
463	0.034
464	0.034
464	0.034
465	0.034
465	0.034
466	0.034
466	0.034
467	0.034
467	0.034
467	0.033
468	0.033
468	0.032
469	0.032
469	0.032
470	0.031
470	0.031
471	0.031
471	0.031
472	0.031
472	0.031
472	0.031
473	0.031
473	0.032
474	0.032
474	0.032
475	0.032
475	0.032
476	0.032
476	0.032
477	0.032
477	0.033
477	0.033
478	0.033
478	0.033
479	0.033
479	0.033
480	0.034
480	0.034
481	0.035
481	0.035
482	0.035
482	0.036
482	0.036
483	0.036
483	0.037
484	0.038
484	0.038
485	0.039
485	0.039
486	0.039
486	0.039
487	0.039
487	0.039
487	0.039
488	0.039
488	0.039
489	0.038
489	0.038
490	0.038
490	0.037
491	0.037
491	0.037
492	0.037
492	0.038
492	0.038
493	0.038
493	0.039
494	0.039
494	0.04
495	0.04
495	0.041
496	0.041
496	0.041
496	0.042
497	0.042
497	0.043
498	0.043
498	0.043
499	0.043
499	0.043
500	0.043
500	0.043
501	0.044
501	0.044
501	0.045
502	0.045
502	0.045
503	0.046
503	0.046
504	0.047
504	0.047
505	0.047
505	0.047
506	0.047
506	0.047
506	0.047
507	0.047
507	0.047
508	0.047
508	0.048
509	0.048
509	0.048
510	0.048
510	0.048
511	0.048
511	0.047
511	0.047
512	0.047
512	0.047
513	0.047
513	0.047
514	0.047
514	0.047
515	0.047
515	0.047
515	0.047
516	0.047
516	0.047
517	0.048
517	0.048
518	0.048
518	0.048
519	0.049
519	0.048
520	0.048
520	0.048
520	0.047
521	0.046
521	0.045
522	0.044
522	0.043
523	0.042
523	0.041
524	0.04
524	0.04
524	0.04
525	0.04
525	0.041
526	0.042
526	0.043
527	0.044
527	0.046
528	0.047
528	0.048
529	0.049
529	0.049
529	0.05
530	0.05
530	0.05
531	0.05
531	0.05
532	0.05
532	0.05
533	0.049
533	0.049
533	0.05
534	0.05
534	0.05
535	0.049
535	0.049
536	0.049
536	0.049
537	0.049
537	0.049
538	0.049
538	0.049
538	0.049
539	0.048
539	0.048
540	0.048
540	0.047
541	0.047
541	0.047
542	0.046
542	0.045
542	0.045
543	0.045
543	0.044
544	0.044
544	0.044
545	0.044
545	0.044
546	0.044
546	0.045
547	0.045
547	0.045
547	0.044
548	0.044
548	0.043
549	0.043
549	0.043
550	0.042
550	0.042
551	0.042
551	0.041
551	0.041
552	0.04
552	0.04
553	0.04
553	0.04
554	0.04
554	0.04
555	0.04
555	0.039
556	0.038
556	0.038
556	0.037
557	0.036
557	0.036
558	0.036
558	0.035
559	0.035
559	0.034
560	0.035
560	0.034
560	0.034
561	0.035
561	0.035
562	0.035
562	0.035
563	0.035
563	0.035
564	0.035
564	0.034
564	0.033
565	0.033
565	0.033
566	0.032
566	0.032
567	0.031
567	0.031
568	0.032
568	0.032
568	0.033
569	0.034
569	0.035
570	0.036
570	0.036
571	0.036
571	0.037
572	0.037
572	0.038
573	0.038
573	0.038
573	0.038
574	0.038
574	0.038
575	0.038
575	0.038
576	0.038
576	0.038
577	0.038
577	0.038
577	0.038
578	0.037
578	0.037
579	0.037
579	0.037
580	0.037
580	0.037
581	0.037
581	0.037
581	0.036
582	0.036
582	0.035
583	0.035
583	0.036
584	0.035
584	0.035
585	0.034
585	0.034
585	0.034
586	0.034
586	0.035
587	0.034
587	0.034
588	0.034
588	0.033
589	0.032
589	0.032
590	0.031
590	0.031
590	0.03
591	0.03
591	0.03
592	0.03
592	0.03
593	0.029
593	0.029
594	0.029
594	0.029
594	0.029
595	0.029
595	0.028
596	0.028
596	0.028
597	0.029
597	0.029
598	0.029
598	0.03
598	0.03
599	0.03
599	0.03
600	0.03
600	0.029
601	0.029
601	0.029
602	0.028
602	0.028
602	0.028
603	0.028
603	0.028
604	0.028
604	0.029
605	0.029
605	0.029
606	0.029
606	0.029
606	0.029
607	0.028
607	0.027
608	0.027
608	0.026
609	0.025
609	0.025
610	0.025
610	0.024
610	0.024
611	0.024
611	0.024
612	0.025
612	0.025
613	0.026
613	0.027
614	0.027
614	0.027
614	0.027
615	0.027
615	0.027
616	0.026
616	0.026
617	0.025
617	0.024
618	0.023
618	0.023
618	0.022
619	0.021
619	0.021
620	0.021
620	0.021
621	0.021
621	0.021
622	0.021
622	0.021
622	0.021
623	0.021
623	0.021
624	0.022
624	0.022
625	0.022
625	0.022
626	0.022
626	0.022
626	0.022
627	0.022
627	0.022
628	0.022
628	0.023
629	0.023
629	0.023
630	0.023
630	0.023
630	0.023
631	0.023
631	0.024
632	0.024
632	0.024
633	0.025
633	0.025
634	0.025
634	0.026
634	0.026
635	0.027
635	0.027
636	0.028
636	0.028
637	0.028
637	0.028
638	0.028
638	0.029
638	0.03
639	0.03
639	0.03
640	0.03
640	0.031
641	0.031
641	0.032
642	0.033
642	0.034
642	0.035
643	0.035
643	0.036
644	0.036
644	0.037
645	0.038
645	0.038
646	0.039
646	0.039
646	0.04
647	0.04
647	0.041
648	0.042
648	0.042
649	0.043
649	0.044
650	0.044
650	0.045
650	0.046
651	0.046
651	0.047
652	0.048
652	0.049
653	0.05
653	0.052
653	0.045
654	0.037
654	0.031
655	0.034
655	0.034
656	0.035
656	0.035
657	0.036
657	0.036
657	0.037
658	0.036
658	0.042
659	0.052
659	0.064
660	0.064
660	0.065
661	0.066
661	0.067
661	0.069
662	0.07
662	0.072
663	0.073
663	0.074
664	0.075
664	0.075
665	0.076
665	0.077
665	0.078
666	0.078
666	0.079
667	0.079
667	0.079
668	0.08
668	0.081
669	0.082
669	0.083
669	0.084
670	0.086
670	0.087
671	0.088
671	0.089
672	0.09
672	0.091
672	0.092
673	0.092
673	0.093
674	0.093
674	0.093
675	0.094
675	0.094
676	0.094
676	0.094
676	0.094
677	0.095
677	0.095
678	0.096
678	0.096
679	0.096
679	0.097
680	0.097
680	0.098
680	0.098
681	0.098
681	0.099
682	0.099
682	0.1
683	0.1
683	0.101
684	0.102
684	0.102
684	0.102
685	0.102
685	0.102
686	0.103
686	0.103
687	0.103
687	0.103
687	0.103
688	0.103
688	0.103
689	0.103
689	0.104
690	0.104
690	0.104
691	0.104
691	0.104
691	0.104
692	0.103
692	0.103
693	0.102
693	0.102
694	0.101
694	0.101
695	0.1
695	0.1
695	0.1
696	0.099
696	0.098
697	0.098
697	0.097
698	0.096
698	0.096
698	0.095
699	0.095
699	0.095
700	0.095
700	0.095
701	0.095
701	0.095
702	0.095
702	0.096
702	0.095
703	0.095
703	0.095
704	0.094
704	0.094
705	0.093
705	0.093
705	0.092
706	0.091
706	0.091
707	0.09
707	0.089
708	0.088
708	0.088
709	0.087
709	0.086
709	0.085
710	0.084
710	0.083
711	0.082
711	0.081
712	0.08
712	0.08
713	0.08
713	0.079
713	0.079
714	0.078
714	0.078
715	0.078
715	0.077
716	0.076
716	0.076
716	0.076
717	0.075
717	0.075
718	0.074
718	0.073
719	0.073
719	0.072
720	0.072
720	0.071
720	0.07
721	0.069
721	0.068
722	0.067
722	0.066
723	0.066
723	0.065
723	0.064
724	0.063
724	0.063
725	0.062
725	0.061
726	0.06
726	0.059
727	0.059
727	0.058
727	0.057
728	0.057
728	0.056
729	0.056
729	0.056
730	0.055
730	0.055
730	0.055
731	0.055
731	0.054
732	0.054
732	0.054
733	0.054
733	0.053
734	0.053
734	0.052
734	0.052
735	0.051
735	0.051
736	0.05
736	0.05
737	0.049
737	0.049
737	0.049
738	0.048
738	0.046
739	0.045
739	0.044
740	0.042
740	0.04
741	0.039
741	0.037
741	0.036
742	0.034
742	0.031
743	0.03
743	0.028
744	0.027
744	0.026
744	0.025
745	0.024
745	0.024
746	0.023
746	0.023
747	0.023
747	0.023
748	0.023
748	0.024
748	0.024
749	0.024
749	0.025
750	0.025
750	0.024
751	0.024
751	0.023
751	0.023
752	0.022
752	0.021
753	0.02
753	0.019
754	0.018
754	0.017
754	0.017
755	0.017
755	0.018
756	0.018
756	0.018
757	0.018
757	0.019
758	0.019
758	0.019
758	0.019
759	0.019
759	0.019
760	0.018
760	0.017
761	0.016
761	0.015
761	0.014
762	0.013
762	0.012
763	0.011
763	0.01
764	0.009
764	0.008
764	0.007
765	0.006
765	0.005
766	0.004
766	0.003
767	0.003
767	0.002
768	0
768	-0.001
768	-0.002
769	-0.003
769	-0.004
770	-0.005
770	-0.007
771	-0.008
771	-0.011
771	-0.013
772	-0.015
772	-0.017
773	-0.019
773	-0.022
774	-0.024
774	-0.026
775	-0.028
775	-0.03
775	-0.032
776	-0.034
776	-0.036
777	-0.038
777	-0.041
778	-0.043
778	-0.047
778	-0.05
779	-0.053
779	-0.056
780	-0.06
780	-0.065
781	-0.07
781	-0.075
781	-0.081
782	-0.087
782	-0.094
783	-0.1
783	-0.105
784	-0.11
784	-0.114
784	-0.118
785	-0.123
785	-0.127
786	-0.128
786	-0.127
787	-0.122
787	-0.12
788	-0.119
788	-0.12
788	-0.122
789	-0.124
789	-0.125
790	-0.122
790	-0.122
791	-0.123
791	-0.125
791	-0.128
792	-0.124
792	-0.114
793	-0.108
793	-0.104
794	-0.103
794	-0.104
794	-0.107
795	-0.109
795	-0.109
796	-0.109
796	-0.111
797	-0.119
797	-0.129
797	-0.135
798	-0.14
798	-0.143
799	-0.144
799	-0.143
800	-0.143
800	-0.145
801	-0.149
801	-0.15
801	-0.15
802	-0.152
802	-0.153
803	-0.153
803	-0.153
804	-0.151
804	-0.146
804	-0.139
805	-0.134
805	-0.131
806	-0.128
806	-0.126
807	-0.125
807	-0.124
807	-0.124
808	-0.124
808	-0.125
809	-0.13
809	-0.136
810	-0.14
810	-0.144
810	-0.148
811	-0.151
811	-0.153
812	-0.149
812	-0.147
813	-0.148
813	-0.149
813	-0.15
814	-0.151
814	-0.151
815	-0.149
815	-0.146
816	-0.143
816	-0.143
817	-0.146
817	-0.147
817	-0.144
818	-0.139
818	-0.133
819	-0.127
819	-0.121
820	-0.116
820	-0.112
820	-0.106
821	-0.098
821	-0.09
822	-0.083
822	-0.076
823	-0.07
823	-0.065
823	-0.06
824	-0.055
824	-0.049
825	-0.044
825	-0.039
826	-0.035
826	-0.031
826	-0.028
827	-0.025
827	-0.022
828	-0.019
828	-0.017
829	-0.016
829	-0.015
829	-0.014
830	-0.014
830	-0.014
831	-0.013
831	-0.012
832	-0.011
832	-0.011
832	-0.01
833	-0.008
833	-0.007
834	-0.006
834	-0.006
835	-0.005
835	-0.004
835	-0.004
836	-0.004
836	-0.004
837	-0.004
837	-0.004
838	-0.005
838	-0.005
839	-0.005
839	-0.005
839	-0.004
840	-0.004
840	-0.003
841	-0.003
841	-0.002
842	-0.002
842	-0.001
842	-0
843	0
843	0.001
844	0.002
844	0.002
845	0.003
845	0.003
845	0.004
846	0.004
846	0.004
847	0.004
847	0.004
848	0.004
848	0.005
848	0.005
849	0.005
849	0.005
850	0.005
850	0.006
851	0.006
851	0.006
851	0.006
852	0.006
852	0.007
853	0.007
853	0.007
854	0.006
854	0.006
854	0.006
855	0.006
855	0.006
856	0.005
856	0.005
857	0.005
857	0.005
857	0.005
858	0.005
858	0.006
859	0.006
859	0.007
860	0.008
860	0.008
860	0.009
861	0.01
861	0.01
862	0.011
862	0.011
863	0.012
863	0.012
863	0.012
864	0.012
864	0.012
865	0.013
865	0.013
866	0.014
866	0.015
866	0.015
867	0.016
867	0.016
868	0.016
868	0.016
869	0.016
869	0.015
869	0.014
870	0.013
870	0.012
871	0.011
871	0.01
872	0.009
872	0.008
872	0.007
873	0.006
873	0.005
874	0.005
874	0.004
875	0.004
875	0.004
875	0.004
876	0.004
876	0.005
877	0.006
877	0.007
878	0.007
878	0.008
878	0.009
879	0.01
879	0.011
880	0.012
880	0.012
881	0.013
881	0.013
881	0.013
882	0.013
882	0.013
883	0.013
883	0.013
884	0.012
884	0.012
884	0.012
885	0.011
885	0.011
886	0.011
886	0.01
887	0.01
887	0.01
887	0.01
888	0.01
888	0.01
889	0.01
889	0.011
890	0.011
890	0.011
890	0.011
891	0.011
891	0.011
892	0.011
892	0.011
893	0.011
893	0.011
893	0.011
894	0.011
894	0.012
895	0.012
895	0.012
895	0.013
896	0.013
896	0.014
897	0.014
897	0.015
898	0.015
898	0.015
898	0.015
899	0.016
899	0.016
900	0.016
900	0.016
901	0.016
901	0.015
901	0.015
902	0.014
902	0.014
903	0.014
903	0.013
904	0.012
904	0.012
904	0.011
905	0.011
905	0.011
906	0.01
906	0.01
907	0.01
907	0.01
907	0.01
908	0.01
908	0.01
909	0.01
909	0.01
910	0.01
910	0.01
910	0.009
911	0.009
911	0.009
912	0.008
912	0.008
913	0.008
913	0.008
913	0.008
914	0.009
914	0.009
915	0.009
915	0.01
916	0.011
916	0.012
916	0.013
917	0.014
917	0.014
918	0.015
918	0.015
918	0.015
919	0.015
919	0.014
920	0.014
920	0.013
921	0.012
921	0.011
921	0.01
922	0.01
922	0.01
923	0.01
923	0.01
924	0.01
924	0.01
924	0.01
925	0.011
925	0.011
926	0.01
926	0.01
927	0.01
927	0.009
927	0.009
928	0.008
928	0.008
929	0.007
929	0.007
930	0.007
930	0.006
930	0.006
931	0.006
931	0.006
932	0.006
932	0.006
933	0.006
933	0.006
933	0.006
934	0.006
934	0.006
935	0.006
935	0.006
935	0.006
936	0.006
936	0.006
937	0.006
937	0.006
938	0.007
938	0.007
938	0.007
939	0.008
939	0.008
940	0.008
940	0.007
941	0.007
941	0.007
941	0.007
942	0.006
942	0.006
943	0.006
943	0.005
944	0.005
944	0.006
944	0.006
945	0.007
945	0.007
946	0.008
946	0.009
946	0.009
947	0.01
947	0.011
948	0.012
948	0.013
949	0.013
949	0.014
949	0.015
950	0.015
950	0.016
951	0.016
951	0.017
952	0.017
952	0.017
952	0.017
953	0.017
953	0.017
954	0.017
954	0.017
955	0.017
955	0.017
955	0.017
956	0.017
956	0.017
957	0.016
957	0.016
957	0.015
958	0.015
958	0.014
959	0.014
959	0.013
960	0.013
960	0.012
960	0.011
961	0.011
961	0.01
962	0.01
962	0.01
963	0.009
963	0.009
963	0.008
964	0.008
964	0.008
965	0.008
965	0.008
966	0.009
966	0.009
966	0.009
967	0.009
967	0.01
968	0.01
968	0.01
968	0.01
969	0.01
969	0.01
970	0.009
970	0.009
971	0.008
971	0.007
971	0.006
972	0.005
972	0.004
973	0.004
973	0.003
974	0.002
974	0.002
974	0.002
975	0.003
975	0.003
976	0.003
976	0.003
976	0.004
977	0.004
977	0.004
978	0.005
978	0.005
979	0.005
979	0.005
979	0.005
980	0.005
980	0.006
981	0.006
981	0.006
982	0.006
982	0.006
982	0.006
983	0.006
983	0.006
984	0.005
984	0.005
984	0.004
985	0.004
985	0.003
986	0.003
986	0.003
987	0.003
987	0.003
987	0.004
988	0.004
988	0.005
989	0.005
989	0.006
990	0.007
990	0.008
990	0.008
991	0.009
991	0.009
992	0.01
992	0.01
992	0.01
993	0.011
993	0.011
994	0.011
994	0.012
995	0.012
995	0.012
995	0.012
996	0.011
996	0.011
997	0.011
997	0.011
997	0.01
998	0.01
998	0.009
999	0.009
999	0.009
1000	0.008
1000	0.008
1000	0.008
1001	0.008
1001	0.008
1002	0.008
1002	0.008
1003	0.008
1003	0.008
1003	0.008
1004	0.007
1004	0.007
1005	0.007
1005	0.007
1005	0.007
1006	0.007
1006	0.007
1007	0.006
1007	0.006
1008	0.005
1008	0.005
1008	0.005
1009	0.004
1009	0.003
1010	0.003
1010	0.002
1010	0.002
1011	0.001
1011	0.001
1012	0.002
1012	0.002
1013	0.002
1013	0.003
1013	0.004
1014	0.004
1014	0.005
1015	0.006
1015	0.007
1016	0.008
1016	0.008
1016	0.009
1017	0.009
1017	0.01
1018	0.01
1018	0.01
1018	0.01
1019	0.01
1019	0.011
1020	0.01
1020	0.01
1021	0.01
1021	0.01
1021	0.01
1022	0.01
1022	0.01
1023	0.01
1023	0.01
1023	0.01
1024	0.01
1024	0.01
1025	0.01
1025	0.01
1026	0.01
1026	0.01
1026	0.01
1027	0.01
1027	0.011
1028	0.011
1028	0.011
1028	0.011
1029	0.012
1029	0.012
1030	0.013
1030	0.014
1031	0.014
1031	0.014
1031	0.015
1032	0.015
1032	0.015
1033	0.015
1033	0.015
1033	0.014
1034	0.014
1034	0.014
1035	0.013
1035	0.013
1036	0.012
1036	0.012
1036	0.012
1037	0.012
1037	0.012
1038	0.012
1038	0.012
1039	0.012
1039	0.013
1039	0.013
1040	0.014
1040	0.014
1041	0.015
1041	0.015
1041	0.015
1042	0.016
1042	0.016
1043	0.016
1043	0.016
1044	0.016
1044	0.016
1044	0.016
1045	0.016
1045	0.016
1046	0.016
1046	0.016
1046	0.015
1047	0.015
1047	0.016
1048	0.015
1048	0.015
1049	0.015
1049	0.015
1049	0.014
1050	0.014
1050	0.014
1051	0.014
1051	0.014
1051	0.014
1052	0.014
1052	0.014
1053	0.014
1053	0.015
1053	0.015
1054	0.015
1054	0.015
1055	0.015
1055	0.015
1056	0.015
1056	0.014
1056	0.014
1057	0.014
1057	0.014
1058	0.014
1058	0.014
1058	0.014
1059	0.014
1059	0.015
1060	0.015
1060	0.016
1061	0.017
1061	0.018
1061	0.019
1062	0.02
1062	0.02
1063	0.022
1063	0.022
1063	0.023
1064	0.024
1064	0.024
1065	0.025
1065	0.025
1066	0.025
1066	0.025
1066	0.025
1067	0.025
1067	0.024
1068	0.024
1068	0.024
1068	0.024
1069	0.024
1069	0.025
1070	0.025
1070	0.026
1071	0.026
1071	0.027
1071	0.028
1072	0.03
1072	0.031
1073	0.032
1073	0.034
1073	0.035
1074	0.036
1074	0.037
1075	0.039
1075	0.04
1076	0.04
1076	0.042
1076	0.042
1077	0.043
1077	0.044
1078	0.045
1078	0.046
1078	0.047
1079	0.049
1079	0.05
1080	0.051
1080	0.051
1080	0.052
1081	0.054
1081	0.055
1082	0.055
1082	0.056
1083	0.057
1083	0.057
1083	0.059
1084	0.06
1084	0.061
1085	0.062
1085	0.064
1085	0.065
1086	0.066
1086	0.067
1087	0.068
1087	0.07
1088	0.071
1088	0.073
1088	0.075
1089	0.077
1089	0.079
1090	0.081
1090	0.084
1090	0.087
1091	0.09
1091	0.093
1092	0.095
1092	0.098
1092	0.1
1093	0.103
1093	0.105
1094	0.108
1094	0.111
1095	0.113
1095	0.116
1095	0.12
1096	0.123
1096	0.128
1097	0.132
1097	0.137
1097	0.143
1098	0.147
1098	0.153
1099	0.159
1099	0.166
1100	0.175
1100	0.182
1100	0.191
1101	0.201
1101	0.211
1102	0.222
1102	0.236
1102	0.249
1103	0.265
1103	0.281
1104	0.3
1104	0.319
1104	0.343
1105	0.365
1105	0.392
1106	0.422
1106	0.457
1107	0.498
1107	0.558
1107	0.637
1108	0.921
1108	-0
1109	-0
1109	-0
1109	-0
1110	-0
1110	-0
1111	-0
1111	-0
