Data from 15c-2a_Absorbance__267__00267.txt Node

Date: Wed Jan 24 09:35:12 CET 2024
User: Marek
Spectrometer: MAYP115816
Trigger mode: 0
Integration Time (sec): 2.000000E-1
Scans to average: 10
Electric dark correction enabled: true
Nonlinearity correction enabled: true
Boxcar width: 5
XAxis mode: Wavelengths
Number of Pixels in Spectrum: 2068
>>>>>Begin Spectral Data<<<<<
199	-1.66
199	-1.499
200	-1.34
200	-1.219
201	-1.147
201	-1.095
202	-1.025
202	-0.968
203	-0.92
203	-0.878
204	-0.851
204	-0.827
205	-0.806
205	-0.798
205	-0.795
206	-0.791
206	-0.789
207	-0.786
207	-0.784
208	-0.782
208	-0.78
209	-0.778
209	-0.778
210	-0.777
210	-0.775
211	-0.774
211	-0.774
212	-0.771
212	-0.768
213	-0.766
213	-0.764
213	-0.761
214	-0.759
214	-0.755
215	-0.753
215	-0.749
216	-0.748
216	-0.745
217	-0.743
217	-0.744
218	-0.745
218	-0.744
219	-0.743
219	-0.74
220	-0.738
220	-0.737
221	-0.738
221	-0.735
221	-0.73
222	-0.725
222	-0.719
223	-0.713
223	-0.707
224	-0.699
224	-0.691
225	-0.684
225	-0.674
226	-0.665
226	-0.654
227	-0.644
227	-0.633
228	-0.616
228	-0.6
229	-0.581
229	-0.562
229	-0.539
230	-0.513
230	-0.485
231	-0.456
231	-0.425
232	-0.392
232	-0.358
233	-0.326
233	-0.291
234	-0.258
234	-0.226
235	-0.195
235	-0.166
236	-0.139
236	-0.113
236	-0.089
237	-0.067
237	-0.047
238	-0.029
238	-0.013
239	0.001
239	0.015
240	0.027
240	0.038
241	0.048
241	0.057
242	0.064
242	0.071
243	0.078
243	0.084
243	0.09
244	0.095
244	0.099
245	0.103
245	0.107
246	0.111
246	0.115
247	0.118
247	0.122
248	0.125
248	0.127
249	0.13
249	0.133
250	0.135
250	0.138
250	0.141
251	0.143
251	0.145
252	0.147
252	0.149
253	0.151
253	0.153
254	0.155
254	0.156
255	0.158
255	0.159
256	0.16
256	0.161
257	0.162
257	0.163
258	0.164
258	0.165
258	0.165
259	0.166
259	0.166
260	0.166
260	0.167
261	0.167
261	0.167
262	0.167
262	0.166
263	0.166
263	0.166
264	0.166
264	0.165
265	0.165
265	0.164
265	0.164
266	0.163
266	0.162
267	0.161
267	0.16
268	0.159
268	0.158
269	0.156
269	0.155
270	0.153
270	0.152
271	0.15
271	0.149
272	0.147
272	0.146
272	0.144
273	0.143
273	0.141
274	0.139
274	0.138
275	0.137
275	0.135
276	0.134
276	0.132
277	0.13
277	0.128
278	0.127
278	0.125
278	0.123
279	0.122
279	0.12
280	0.118
280	0.116
281	0.115
281	0.113
282	0.112
282	0.11
283	0.109
283	0.108
284	0.106
284	0.105
285	0.104
285	0.102
285	0.101
286	0.1
286	0.098
287	0.097
287	0.096
288	0.095
288	0.094
289	0.092
289	0.091
290	0.09
290	0.089
291	0.088
291	0.087
292	0.087
292	0.086
292	0.085
293	0.084
293	0.083
294	0.083
294	0.082
295	0.082
295	0.081
296	0.08
296	0.08
297	0.079
297	0.079
298	0.078
298	0.078
298	0.077
299	0.077
299	0.077
300	0.076
300	0.076
301	0.076
301	0.075
302	0.075
302	0.075
303	0.075
303	0.075
304	0.074
304	0.074
305	0.074
305	0.074
305	0.073
306	0.073
306	0.073
307	0.073
307	0.073
308	0.072
308	0.072
309	0.072
309	0.072
310	0.072
310	0.071
311	0.071
311	0.071
311	0.071
312	0.07
312	0.07
313	0.07
313	0.07
314	0.069
314	0.069
315	0.069
315	0.069
316	0.068
316	0.068
317	0.068
317	0.068
318	0.067
318	0.067
318	0.067
319	0.066
319	0.066
320	0.066
320	0.066
321	0.065
321	0.065
322	0.065
322	0.065
323	0.064
323	0.064
324	0.064
324	0.064
324	0.063
325	0.063
325	0.063
326	0.062
326	0.062
327	0.062
327	0.062
328	0.061
328	0.061
329	0.061
329	0.061
330	0.061
330	0.06
330	0.06
331	0.06
331	0.06
332	0.059
332	0.059
333	0.058
333	0.058
334	0.058
334	0.057
335	0.057
335	0.057
336	0.056
336	0.056
336	0.056
337	0.056
337	0.056
338	0.056
338	0.055
339	0.055
339	0.055
340	0.055
340	0.055
341	0.054
341	0.054
342	0.054
342	0.054
342	0.054
343	0.053
343	0.053
344	0.053
344	0.053
345	0.053
345	0.053
346	0.052
346	0.052
347	0.052
347	0.052
348	0.051
348	0.051
348	0.051
349	0.051
349	0.051
350	0.05
350	0.05
351	0.05
351	0.05
352	0.049
352	0.049
353	0.049
353	0.049
354	0.048
354	0.048
354	0.048
355	0.048
355	0.048
356	0.048
356	0.047
357	0.047
357	0.047
358	0.047
358	0.047
359	0.047
359	0.047
360	0.047
360	0.047
360	0.047
361	0.047
361	0.047
362	0.047
362	0.047
363	0.047
363	0.047
364	0.047
364	0.047
365	0.047
365	0.047
366	0.047
366	0.047
366	0.046
367	0.047
367	0.046
368	0.046
368	0.046
369	0.046
369	0.046
370	0.046
370	0.046
371	0.046
371	0.046
372	0.046
372	0.045
372	0.046
373	0.045
373	0.045
374	0.045
374	0.045
375	0.045
375	0.045
376	0.045
376	0.045
377	0.045
377	0.045
378	0.045
378	0.045
378	0.045
379	0.045
379	0.045
380	0.045
380	0.045
381	0.045
381	0.045
382	0.045
382	0.045
383	0.045
383	0.045
383	0.045
384	0.045
384	0.045
385	0.044
385	0.045
386	0.045
386	0.045
387	0.044
387	0.044
388	0.044
388	0.044
389	0.044
389	0.044
389	0.044
390	0.044
390	0.044
391	0.044
391	0.044
392	0.045
392	0.044
393	0.044
393	0.044
394	0.044
394	0.045
394	0.045
395	0.045
395	0.044
396	0.044
396	0.044
397	0.044
397	0.045
398	0.045
398	0.045
399	0.045
399	0.045
400	0.044
400	0.044
400	0.044
401	0.044
401	0.044
402	0.044
402	0.043
403	0.043
403	0.043
404	0.043
404	0.043
405	0.043
405	0.043
405	0.043
406	0.042
406	0.042
407	0.042
407	0.042
408	0.042
408	0.042
409	0.041
409	0.041
410	0.041
410	0.041
411	0.042
411	0.042
411	0.041
412	0.041
412	0.041
413	0.041
413	0.041
414	0.041
414	0.041
415	0.041
415	0.041
416	0.041
416	0.041
416	0.041
417	0.041
417	0.041
418	0.041
418	0.041
419	0.041
419	0.041
420	0.041
420	0.041
421	0.041
421	0.041
421	0.041
422	0.041
422	0.041
423	0.041
423	0.041
424	0.041
424	0.041
425	0.04
425	0.04
426	0.04
426	0.039
427	0.039
427	0.04
427	0.04
428	0.04
428	0.04
429	0.041
429	0.041
430	0.041
430	0.041
431	0.041
431	0.041
432	0.04
432	0.04
432	0.04
433	0.04
433	0.039
434	0.039
434	0.039
435	0.039
435	0.039
436	0.039
436	0.039
437	0.039
437	0.039
437	0.039
438	0.039
438	0.039
439	0.039
439	0.039
440	0.039
440	0.039
441	0.038
441	0.038
442	0.039
442	0.039
442	0.039
443	0.039
443	0.039
444	0.039
444	0.039
445	0.039
445	0.04
446	0.04
446	0.04
447	0.04
447	0.039
447	0.039
448	0.039
448	0.039
449	0.039
449	0.039
450	0.039
450	0.039
451	0.039
451	0.038
452	0.038
452	0.038
452	0.038
453	0.038
453	0.037
454	0.037
454	0.037
455	0.036
455	0.036
456	0.036
456	0.036
457	0.036
457	0.035
458	0.035
458	0.035
458	0.035
459	0.036
459	0.036
460	0.036
460	0.035
461	0.035
461	0.035
462	0.036
462	0.036
463	0.036
463	0.036
463	0.036
464	0.037
464	0.037
465	0.037
465	0.037
466	0.037
466	0.037
467	0.037
467	0.037
467	0.036
468	0.036
468	0.035
469	0.035
469	0.035
470	0.035
470	0.035
471	0.035
471	0.034
472	0.035
472	0.035
472	0.035
473	0.035
473	0.036
474	0.036
474	0.036
475	0.036
475	0.036
476	0.036
476	0.036
477	0.036
477	0.036
477	0.037
478	0.037
478	0.037
479	0.037
479	0.037
480	0.038
480	0.038
481	0.038
481	0.038
482	0.039
482	0.039
482	0.039
483	0.04
483	0.04
484	0.041
484	0.041
485	0.041
485	0.041
486	0.042
486	0.042
487	0.042
487	0.042
487	0.042
488	0.042
488	0.042
489	0.042
489	0.042
490	0.042
490	0.042
491	0.042
491	0.042
492	0.042
492	0.042
492	0.043
493	0.043
493	0.043
494	0.044
494	0.044
495	0.045
495	0.045
496	0.046
496	0.046
496	0.047
497	0.047
497	0.047
498	0.048
498	0.048
499	0.048
499	0.048
500	0.048
500	0.048
501	0.049
501	0.049
501	0.05
502	0.05
502	0.05
503	0.051
503	0.052
504	0.052
504	0.053
505	0.053
505	0.053
506	0.053
506	0.054
506	0.054
507	0.053
507	0.053
508	0.053
508	0.053
509	0.053
509	0.053
510	0.053
510	0.053
511	0.053
511	0.054
511	0.054
512	0.054
512	0.055
513	0.055
513	0.055
514	0.054
514	0.054
515	0.054
515	0.054
515	0.054
516	0.054
516	0.054
517	0.055
517	0.055
518	0.055
518	0.055
519	0.055
519	0.055
520	0.055
520	0.054
520	0.054
521	0.053
521	0.052
522	0.051
522	0.05
523	0.05
523	0.049
524	0.049
524	0.049
524	0.049
525	0.05
525	0.051
526	0.051
526	0.052
527	0.054
527	0.054
528	0.055
528	0.056
529	0.057
529	0.057
529	0.057
530	0.057
530	0.057
531	0.057
531	0.057
532	0.056
532	0.056
533	0.055
533	0.055
533	0.055
534	0.054
534	0.054
535	0.053
535	0.053
536	0.053
536	0.053
537	0.053
537	0.053
538	0.053
538	0.053
538	0.053
539	0.052
539	0.052
540	0.052
540	0.052
541	0.051
541	0.05
542	0.05
542	0.049
542	0.049
543	0.048
543	0.048
544	0.048
544	0.048
545	0.048
545	0.048
546	0.048
546	0.048
547	0.047
547	0.047
547	0.046
548	0.046
548	0.045
549	0.045
549	0.045
550	0.044
550	0.044
551	0.043
551	0.043
551	0.043
552	0.042
552	0.042
553	0.042
553	0.042
554	0.042
554	0.041
555	0.041
555	0.04
556	0.039
556	0.038
556	0.037
557	0.037
557	0.036
558	0.036
558	0.035
559	0.035
559	0.035
560	0.035
560	0.035
560	0.035
561	0.036
561	0.036
562	0.037
562	0.037
563	0.037
563	0.036
564	0.035
564	0.035
564	0.034
565	0.033
565	0.033
566	0.032
566	0.031
567	0.031
567	0.031
568	0.031
568	0.031
568	0.031
569	0.032
569	0.033
570	0.033
570	0.033
571	0.034
571	0.034
572	0.034
572	0.034
573	0.034
573	0.035
573	0.034
574	0.034
574	0.034
575	0.033
575	0.034
576	0.034
576	0.034
577	0.033
577	0.033
577	0.033
578	0.032
578	0.032
579	0.033
579	0.033
580	0.032
580	0.032
581	0.031
581	0.031
581	0.031
582	0.03
582	0.03
583	0.03
583	0.03
584	0.029
584	0.029
585	0.028
585	0.029
585	0.028
586	0.029
586	0.029
587	0.028
587	0.028
588	0.027
588	0.027
589	0.026
589	0.026
590	0.025
590	0.025
590	0.025
591	0.025
591	0.025
592	0.024
592	0.024
593	0.024
593	0.024
594	0.024
594	0.023
594	0.023
595	0.023
595	0.023
596	0.023
596	0.023
597	0.024
597	0.024
598	0.025
598	0.025
598	0.025
599	0.025
599	0.025
600	0.024
600	0.024
601	0.024
601	0.024
602	0.023
602	0.024
602	0.024
603	0.024
603	0.025
604	0.026
604	0.026
605	0.027
605	0.028
606	0.028
606	0.027
606	0.027
607	0.026
607	0.025
608	0.025
608	0.024
609	0.023
609	0.022
610	0.021
610	0.021
610	0.02
611	0.021
611	0.021
612	0.022
612	0.022
613	0.023
613	0.024
614	0.025
614	0.025
614	0.025
615	0.025
615	0.025
616	0.025
616	0.025
617	0.024
617	0.023
618	0.023
618	0.022
618	0.021
619	0.02
619	0.02
620	0.02
620	0.02
621	0.02
621	0.02
622	0.019
622	0.02
622	0.02
623	0.019
623	0.02
624	0.02
624	0.02
625	0.02
625	0.02
626	0.02
626	0.02
626	0.021
627	0.021
627	0.021
628	0.022
628	0.022
629	0.023
629	0.023
630	0.023
630	0.023
630	0.023
631	0.024
631	0.024
632	0.024
632	0.024
633	0.024
633	0.025
634	0.025
634	0.026
634	0.027
635	0.027
635	0.028
636	0.028
636	0.029
637	0.029
637	0.029
638	0.029
638	0.03
638	0.031
639	0.031
639	0.031
640	0.032
640	0.033
641	0.033
641	0.034
642	0.035
642	0.035
642	0.036
643	0.036
643	0.036
644	0.036
644	0.036
645	0.037
645	0.037
646	0.037
646	0.038
646	0.038
647	0.039
647	0.04
648	0.041
648	0.043
649	0.044
649	0.044
650	0.045
650	0.046
650	0.047
651	0.048
651	0.049
652	0.05
652	0.051
653	0.052
653	0.055
653	0.051
654	0.042
654	0.035
655	0.037
655	0.038
656	0.039
656	0.04
657	0.041
657	0.041
657	0.042
658	0.041
658	0.045
659	0.054
659	0.067
660	0.069
660	0.069
661	0.07
661	0.071
661	0.072
662	0.073
662	0.074
663	0.076
663	0.077
664	0.079
664	0.08
665	0.081
665	0.083
665	0.084
666	0.085
666	0.086
667	0.086
667	0.087
668	0.087
668	0.088
669	0.089
669	0.09
669	0.091
670	0.093
670	0.094
671	0.095
671	0.096
672	0.098
672	0.099
672	0.1
673	0.1
673	0.101
674	0.101
674	0.101
675	0.101
675	0.101
676	0.101
676	0.101
676	0.101
677	0.101
677	0.101
678	0.101
678	0.102
679	0.102
679	0.102
680	0.103
680	0.103
680	0.103
681	0.104
681	0.104
682	0.104
682	0.105
683	0.106
683	0.107
684	0.107
684	0.108
684	0.108
685	0.109
685	0.109
686	0.11
686	0.111
687	0.111
687	0.112
687	0.112
688	0.113
688	0.113
689	0.113
689	0.114
690	0.114
690	0.114
691	0.113
691	0.112
691	0.112
692	0.111
692	0.11
693	0.109
693	0.109
694	0.108
694	0.107
695	0.107
695	0.107
695	0.106
696	0.106
696	0.105
697	0.104
697	0.103
698	0.102
698	0.101
698	0.1
699	0.1
699	0.099
700	0.098
700	0.098
701	0.098
701	0.098
702	0.098
702	0.098
702	0.097
703	0.097
703	0.096
704	0.096
704	0.095
705	0.095
705	0.094
705	0.094
706	0.093
706	0.093
707	0.092
707	0.092
708	0.091
708	0.09
709	0.09
709	0.089
709	0.088
710	0.086
710	0.085
711	0.084
711	0.083
712	0.083
712	0.082
713	0.082
713	0.082
713	0.081
714	0.08
714	0.08
715	0.079
715	0.079
716	0.078
716	0.078
716	0.077
717	0.077
717	0.076
718	0.076
718	0.075
719	0.074
719	0.074
720	0.073
720	0.072
720	0.071
721	0.07
721	0.069
722	0.068
722	0.067
723	0.066
723	0.065
723	0.064
724	0.063
724	0.063
725	0.062
725	0.061
726	0.06
726	0.059
727	0.058
727	0.057
727	0.056
728	0.055
728	0.054
729	0.054
729	0.053
730	0.053
730	0.052
730	0.052
731	0.051
731	0.051
732	0.05
732	0.05
733	0.049
733	0.049
734	0.048
734	0.047
734	0.046
735	0.046
735	0.045
736	0.044
736	0.044
737	0.044
737	0.044
737	0.043
738	0.042
738	0.041
739	0.04
739	0.039
740	0.037
740	0.036
741	0.035
741	0.033
741	0.031
742	0.029
742	0.027
743	0.026
743	0.025
744	0.023
744	0.023
744	0.022
745	0.021
745	0.021
746	0.02
746	0.02
747	0.021
747	0.021
748	0.022
748	0.022
748	0.022
749	0.023
749	0.023
750	0.023
750	0.023
751	0.023
751	0.023
751	0.022
752	0.021
752	0.02
753	0.019
753	0.018
754	0.017
754	0.016
754	0.016
755	0.016
755	0.017
756	0.017
756	0.017
757	0.017
757	0.017
758	0.017
758	0.017
758	0.017
759	0.017
759	0.016
760	0.015
760	0.013
761	0.012
761	0.011
761	0.01
762	0.01
762	0.009
763	0.009
763	0.008
764	0.007
764	0.005
764	0.004
765	0.004
765	0.003
766	0.002
766	0.002
767	0.002
767	0.001
768	-0.001
768	-0.002
768	-0.003
769	-0.005
769	-0.006
770	-0.007
770	-0.009
771	-0.011
771	-0.013
771	-0.015
772	-0.017
772	-0.018
773	-0.02
773	-0.021
774	-0.023
774	-0.024
775	-0.025
775	-0.026
775	-0.028
776	-0.029
776	-0.031
777	-0.032
777	-0.034
778	-0.036
778	-0.039
778	-0.042
779	-0.044
779	-0.046
780	-0.05
780	-0.053
781	-0.057
781	-0.062
781	-0.067
782	-0.072
782	-0.078
783	-0.084
783	-0.089
784	-0.096
784	-0.101
784	-0.107
785	-0.113
785	-0.119
786	-0.122
786	-0.122
787	-0.119
787	-0.118
788	-0.119
788	-0.121
788	-0.122
789	-0.125
789	-0.125
790	-0.123
790	-0.122
791	-0.123
791	-0.126
791	-0.129
792	-0.124
792	-0.114
793	-0.109
793	-0.105
794	-0.103
794	-0.104
794	-0.108
795	-0.109
795	-0.109
796	-0.109
796	-0.111
797	-0.119
797	-0.129
797	-0.135
798	-0.14
798	-0.143
799	-0.144
799	-0.144
800	-0.144
800	-0.146
801	-0.149
801	-0.15
801	-0.151
802	-0.152
802	-0.153
803	-0.153
803	-0.153
804	-0.152
804	-0.146
804	-0.139
805	-0.134
805	-0.131
806	-0.128
806	-0.127
807	-0.125
807	-0.125
807	-0.125
808	-0.124
808	-0.126
809	-0.131
809	-0.137
810	-0.141
810	-0.144
810	-0.148
811	-0.152
811	-0.153
812	-0.15
812	-0.147
813	-0.148
813	-0.149
813	-0.15
814	-0.151
814	-0.151
815	-0.149
815	-0.146
816	-0.144
816	-0.144
817	-0.147
817	-0.148
817	-0.145
818	-0.14
818	-0.134
819	-0.127
819	-0.122
820	-0.117
820	-0.113
820	-0.107
821	-0.099
821	-0.092
822	-0.085
822	-0.078
823	-0.073
823	-0.068
823	-0.063
824	-0.059
824	-0.054
825	-0.049
825	-0.044
826	-0.04
826	-0.037
826	-0.034
827	-0.031
827	-0.029
828	-0.027
828	-0.025
829	-0.023
829	-0.022
829	-0.022
830	-0.021
830	-0.02
831	-0.019
831	-0.018
832	-0.017
832	-0.015
832	-0.014
833	-0.012
833	-0.011
834	-0.01
834	-0.008
835	-0.007
835	-0.007
835	-0.006
836	-0.005
836	-0.005
837	-0.005
837	-0.005
838	-0.004
838	-0.004
839	-0.004
839	-0.004
839	-0.004
840	-0.004
840	-0.004
841	-0.004
841	-0.004
842	-0.004
842	-0.003
842	-0.003
843	-0.003
843	-0.003
844	-0.002
844	-0.001
845	-0.001
845	-0
845	0
846	0
846	0
847	0
847	0
848	0.001
848	0.001
848	0.001
849	0.002
849	0.002
850	0.002
850	0.003
851	0.004
851	0.005
851	0.005
852	0.005
852	0.006
853	0.006
853	0.006
854	0.006
854	0.006
854	0.006
855	0.005
855	0.005
856	0.004
856	0.004
857	0.004
857	0.004
857	0.004
858	0.004
858	0.004
859	0.004
859	0.005
860	0.005
860	0.006
860	0.007
861	0.008
861	0.008
862	0.009
862	0.01
863	0.01
863	0.01
863	0.01
864	0.01
864	0.011
865	0.011
865	0.012
866	0.012
866	0.012
866	0.013
867	0.013
867	0.014
868	0.014
868	0.014
869	0.014
869	0.014
869	0.013
870	0.012
870	0.011
871	0.01
871	0.009
872	0.008
872	0.007
872	0.006
873	0.005
873	0.004
874	0.003
874	0.002
875	0.001
875	0.001
875	0
876	0
876	0
877	0
877	0.001
878	0.001
878	0.002
878	0.003
879	0.003
879	0.004
880	0.004
880	0.005
881	0.005
881	0.005
881	0.005
882	0.004
882	0.004
883	0.004
883	0.003
884	0.003
884	0.003
884	0.002
885	0.002
885	0.002
886	0.002
886	0.003
887	0.003
887	0.003
887	0.004
888	0.005
888	0.005
889	0.006
889	0.007
890	0.007
890	0.007
890	0.007
891	0.007
891	0.007
892	0.007
892	0.006
893	0.006
893	0.006
893	0.006
894	0.007
894	0.007
895	0.008
895	0.008
895	0.008
896	0.009
896	0.009
897	0.009
897	0.009
898	0.009
898	0.009
898	0.009
899	0.009
899	0.009
900	0.009
900	0.008
901	0.008
901	0.008
901	0.008
902	0.008
902	0.007
903	0.007
903	0.007
904	0.006
904	0.006
904	0.005
905	0.005
905	0.005
906	0.005
906	0.005
907	0.005
907	0.005
907	0.005
908	0.005
908	0.005
909	0.005
909	0.005
910	0.005
910	0.005
910	0.004
911	0.004
911	0.004
912	0.004
912	0.004
913	0.004
913	0.004
913	0.004
914	0.004
914	0.004
915	0.005
915	0.005
916	0.006
916	0.006
916	0.007
917	0.008
917	0.008
918	0.008
918	0.008
918	0.008
919	0.008
919	0.007
920	0.007
920	0.006
921	0.005
921	0.004
921	0.003
922	0.002
922	0.002
923	0.002
923	0.001
924	0.001
924	0.001
924	0.001
925	0
925	-0
926	-0
926	-0.001
927	-0.001
927	-0.002
927	-0.002
928	-0.002
928	-0.002
929	-0.002
929	-0.003
930	-0.003
930	-0.002
930	-0.002
931	-0.002
931	-0.003
932	-0.003
932	-0.003
933	-0.004
933	-0.004
933	-0.005
934	-0.005
934	-0.005
935	-0.006
935	-0.007
935	-0.007
936	-0.008
936	-0.008
937	-0.008
937	-0.007
938	-0.007
938	-0.006
938	-0.006
939	-0.005
939	-0.004
940	-0.003
940	-0.003
941	-0.002
941	-0.002
941	-0.001
942	-0.001
942	-0.001
943	-0
943	-0
944	0
944	0.001
944	0.001
945	0.002
945	0.002
946	0.003
946	0.004
946	0.005
947	0.006
947	0.008
948	0.009
948	0.01
949	0.011
949	0.012
949	0.013
950	0.013
950	0.014
951	0.014
951	0.014
952	0.014
952	0.014
952	0.014
953	0.014
953	0.014
954	0.014
954	0.014
955	0.014
955	0.014
955	0.014
956	0.014
956	0.014
957	0.013
957	0.013
957	0.012
958	0.011
958	0.01
959	0.009
959	0.008
960	0.007
960	0.005
960	0.004
961	0.003
961	0.002
962	0.001
962	0.001
963	0
963	-0.001
963	-0.001
964	-0.001
964	-0.001
965	-0.001
965	-0.001
966	0
966	0.001
966	0.002
967	0.002
967	0.003
968	0.003
968	0.004
968	0.004
969	0.004
969	0.003
970	0.003
970	0.002
971	0.002
971	0.001
971	-0
972	-0.001
972	-0.003
973	-0.004
973	-0.005
974	-0.006
974	-0.006
974	-0.007
975	-0.007
975	-0.007
976	-0.007
976	-0.007
976	-0.007
977	-0.008
977	-0.008
978	-0.008
978	-0.008
979	-0.008
979	-0.008
979	-0.008
980	-0.008
980	-0.008
981	-0.008
981	-0.008
982	-0.008
982	-0.008
982	-0.008
983	-0.007
983	-0.007
984	-0.007
984	-0.007
984	-0.007
985	-0.007
985	-0.007
986	-0.007
986	-0.007
987	-0.007
987	-0.007
987	-0.006
988	-0.006
988	-0.005
989	-0.005
989	-0.004
990	-0.004
990	-0.003
990	-0.003
991	-0.002
991	-0.002
992	-0.002
992	-0.002
992	-0.002
993	-0.002
993	-0.002
994	-0.002
994	-0.003
995	-0.003
995	-0.003
995	-0.003
996	-0.003
996	-0.003
997	-0.003
997	-0.003
997	-0.003
998	-0.004
998	-0.004
999	-0.004
999	-0.004
1000	-0.004
1000	-0.004
1000	-0.005
1001	-0.005
1001	-0.005
1002	-0.005
1002	-0.005
1003	-0.005
1003	-0.005
1003	-0.004
1004	-0.004
1004	-0.004
1005	-0.004
1005	-0.004
1005	-0.004
1006	-0.004
1006	-0.004
1007	-0.004
1007	-0.004
1008	-0.005
1008	-0.005
1008	-0.005
1009	-0.006
1009	-0.006
1010	-0.006
1010	-0.006
1010	-0.007
1011	-0.007
1011	-0.006
1012	-0.006
1012	-0.006
1013	-0.005
1013	-0.005
1013	-0.004
1014	-0.004
1014	-0.003
1015	-0.002
1015	-0.002
1016	-0.001
1016	-0.001
1016	-0
1017	-0
1017	0
1018	0
1018	0
1018	0
1019	0
1019	0
1020	-0
1020	-0
1021	-0.001
1021	-0.001
1021	-0.001
1022	-0.001
1022	-0.001
1023	-0.001
1023	-0.001
1023	-0.001
1024	-0.002
1024	-0.002
1025	-0.002
1025	-0.003
1026	-0.003
1026	-0.003
1026	-0.003
1027	-0.003
1027	-0.003
1028	-0.003
1028	-0.002
1028	-0.002
1029	-0.001
1029	-0.001
1030	-0
1030	0
1031	0.001
1031	0.001
1031	0.001
1032	0.002
1032	0.002
1033	0.001
1033	0.001
1033	0.001
1034	0
1034	-0
1035	-0.001
1035	-0.001
1036	-0.002
1036	-0.002
1036	-0.002
1037	-0.003
1037	-0.003
1038	-0.003
1038	-0.003
1039	-0.002
1039	-0.002
1039	-0.001
1040	-0.001
1040	-0.001
1041	-0
1041	-0
1041	-0
1042	0
1042	0
1043	0
1043	-0
1044	-0
1044	-0.001
1044	-0
1045	-0.001
1045	-0.001
1046	-0.001
1046	-0.002
1046	-0.002
1047	-0.002
1047	-0.002
1048	-0.002
1048	-0.002
1049	-0.003
1049	-0.003
1049	-0.003
1050	-0.003
1050	-0.003
1051	-0.003
1051	-0.003
1051	-0.002
1052	-0.002
1052	-0.002
1053	-0.002
1053	-0.001
1053	-0.001
1054	-0
1054	0
1055	0.001
1055	0.001
1056	0.001
1056	0.001
1056	0.001
1057	0.001
1057	0.001
1058	0.001
1058	0.001
1058	0.001
1059	0
1059	0.001
1060	0.001
1060	0.001
1061	0.001
1061	0.002
1061	0.003
1062	0.003
1062	0.002
1063	0.003
1063	0.003
1063	0.003
1064	0.003
1064	0.003
1065	0.003
1065	0.002
1066	0.003
1066	0.002
1066	0.002
1067	0.002
1067	0.002
1068	0.002
1068	0.002
1068	0.002
1069	0.002
1069	0.002
1070	0.002
1070	0.003
1071	0.003
1071	0.004
1071	0.004
1072	0.005
1072	0.006
1073	0.007
1073	0.008
1073	0.009
1074	0.011
1074	0.012
1075	0.013
1075	0.013
1076	0.014
1076	0.015
1076	0.015
1077	0.016
1077	0.017
1078	0.018
1078	0.019
1078	0.02
1079	0.022
1079	0.023
1080	0.024
1080	0.024
1080	0.025
1081	0.027
1081	0.027
1082	0.027
1082	0.027
1083	0.027
1083	0.028
1083	0.028
1084	0.029
1084	0.029
1085	0.03
1085	0.03
1085	0.03
1086	0.031
1086	0.032
1087	0.033
1087	0.034
1088	0.034
1088	0.035
1088	0.037
1089	0.039
1089	0.042
1090	0.044
1090	0.046
1090	0.048
1091	0.05
1091	0.054
1092	0.056
1092	0.059
1092	0.062
1093	0.063
1093	0.066
1094	0.068
1094	0.069
1095	0.072
1095	0.074
1095	0.077
1096	0.079
1096	0.082
1097	0.083
1097	0.086
1097	0.09
1098	0.092
1098	0.095
1099	0.1
1099	0.105
1100	0.11
1100	0.113
1100	0.119
1101	0.125
1101	0.133
1102	0.139
1102	0.148
1102	0.157
1103	0.165
1103	0.176
1104	0.187
1104	0.198
1104	0.212
1105	0.225
1105	0.24
1106	0.254
1106	0.273
1107	0.291
1107	0.318
1107	0.355
1108	0.455
1108	0.624
1109	1.03
1109	-0
1109	-0
1110	-0
1110	-0
1111	-0
1111	-0
