Data from 15c-2a_Absorbance__297__00297.txt Node

Date: Wed Jan 24 09:36:12 CET 2024
User: Marek
Spectrometer: MAYP115816
Trigger mode: 0
Integration Time (sec): 2.000000E-1
Scans to average: 10
Electric dark correction enabled: true
Nonlinearity correction enabled: true
Boxcar width: 5
XAxis mode: Wavelengths
Number of Pixels in Spectrum: 2068
>>>>>Begin Spectral Data<<<<<
199	-1.646
199	-1.486
200	-1.329
200	-1.207
201	-1.135
201	-1.083
202	-1.013
202	-0.957
203	-0.909
203	-0.868
204	-0.84
204	-0.817
205	-0.796
205	-0.787
205	-0.784
206	-0.781
206	-0.779
207	-0.775
207	-0.773
208	-0.772
208	-0.77
209	-0.768
209	-0.768
210	-0.767
210	-0.766
211	-0.765
211	-0.764
212	-0.762
212	-0.76
213	-0.757
213	-0.755
213	-0.752
214	-0.749
214	-0.745
215	-0.745
215	-0.74
216	-0.74
216	-0.736
217	-0.736
217	-0.736
218	-0.736
218	-0.735
219	-0.735
219	-0.732
220	-0.73
220	-0.727
221	-0.728
221	-0.724
221	-0.72
222	-0.715
222	-0.709
223	-0.703
223	-0.697
224	-0.688
224	-0.681
225	-0.674
225	-0.664
226	-0.655
226	-0.644
227	-0.634
227	-0.622
228	-0.605
228	-0.589
229	-0.57
229	-0.55
229	-0.528
230	-0.502
230	-0.475
231	-0.446
231	-0.415
232	-0.382
232	-0.349
233	-0.316
233	-0.283
234	-0.25
234	-0.218
235	-0.188
235	-0.159
236	-0.132
236	-0.107
236	-0.083
237	-0.062
237	-0.042
238	-0.024
238	-0.008
239	0.007
239	0.02
240	0.032
240	0.043
241	0.053
241	0.062
242	0.07
242	0.077
243	0.084
243	0.09
243	0.095
244	0.1
244	0.105
245	0.109
245	0.113
246	0.117
246	0.12
247	0.123
247	0.127
248	0.13
248	0.133
249	0.136
249	0.138
250	0.141
250	0.143
250	0.145
251	0.148
251	0.15
252	0.152
252	0.154
253	0.156
253	0.157
254	0.159
254	0.161
255	0.162
255	0.164
256	0.165
256	0.166
257	0.167
257	0.168
258	0.169
258	0.169
258	0.17
259	0.171
259	0.171
260	0.171
260	0.171
261	0.171
261	0.171
262	0.171
262	0.171
263	0.171
263	0.17
264	0.17
264	0.169
265	0.169
265	0.168
265	0.168
266	0.167
266	0.166
267	0.165
267	0.164
268	0.163
268	0.162
269	0.161
269	0.16
270	0.158
270	0.156
271	0.155
271	0.153
272	0.152
272	0.15
272	0.149
273	0.147
273	0.146
274	0.144
274	0.143
275	0.141
275	0.14
276	0.138
276	0.136
277	0.135
277	0.133
278	0.131
278	0.129
278	0.128
279	0.126
279	0.124
280	0.122
280	0.121
281	0.119
281	0.118
282	0.116
282	0.115
283	0.113
283	0.112
284	0.111
284	0.109
285	0.108
285	0.106
285	0.105
286	0.104
286	0.102
287	0.101
287	0.1
288	0.099
288	0.098
289	0.096
289	0.095
290	0.094
290	0.093
291	0.092
291	0.092
292	0.091
292	0.09
292	0.089
293	0.088
293	0.088
294	0.087
294	0.086
295	0.086
295	0.085
296	0.084
296	0.084
297	0.083
297	0.083
298	0.082
298	0.082
298	0.081
299	0.081
299	0.08
300	0.08
300	0.08
301	0.079
301	0.079
302	0.079
302	0.079
303	0.078
303	0.078
304	0.078
304	0.078
305	0.078
305	0.077
305	0.077
306	0.077
306	0.077
307	0.077
307	0.076
308	0.076
308	0.076
309	0.076
309	0.075
310	0.075
310	0.075
311	0.075
311	0.074
311	0.074
312	0.074
312	0.073
313	0.073
313	0.073
314	0.073
314	0.073
315	0.072
315	0.072
316	0.072
316	0.072
317	0.071
317	0.071
318	0.071
318	0.071
318	0.07
319	0.07
319	0.07
320	0.069
320	0.069
321	0.069
321	0.068
322	0.068
322	0.068
323	0.068
323	0.068
324	0.067
324	0.067
324	0.067
325	0.066
325	0.066
326	0.066
326	0.066
327	0.065
327	0.065
328	0.065
328	0.064
329	0.064
329	0.064
330	0.063
330	0.063
330	0.063
331	0.063
331	0.063
332	0.062
332	0.062
333	0.061
333	0.061
334	0.061
334	0.061
335	0.06
335	0.06
336	0.06
336	0.059
336	0.059
337	0.059
337	0.059
338	0.059
338	0.058
339	0.058
339	0.058
340	0.058
340	0.058
341	0.057
341	0.057
342	0.057
342	0.057
342	0.057
343	0.056
343	0.056
344	0.056
344	0.056
345	0.056
345	0.055
346	0.055
346	0.055
347	0.055
347	0.055
348	0.055
348	0.054
348	0.054
349	0.054
349	0.054
350	0.054
350	0.054
351	0.053
351	0.053
352	0.053
352	0.052
353	0.052
353	0.052
354	0.052
354	0.051
354	0.051
355	0.051
355	0.05
356	0.05
356	0.05
357	0.05
357	0.05
358	0.049
358	0.049
359	0.049
359	0.049
360	0.049
360	0.049
360	0.05
361	0.05
361	0.05
362	0.05
362	0.05
363	0.05
363	0.05
364	0.05
364	0.05
365	0.05
365	0.05
366	0.05
366	0.049
366	0.049
367	0.049
367	0.049
368	0.049
368	0.049
369	0.049
369	0.049
370	0.049
370	0.049
371	0.049
371	0.048
372	0.048
372	0.048
372	0.048
373	0.048
373	0.048
374	0.048
374	0.048
375	0.048
375	0.048
376	0.048
376	0.048
377	0.048
377	0.048
378	0.048
378	0.048
378	0.048
379	0.048
379	0.048
380	0.048
380	0.048
381	0.048
381	0.048
382	0.048
382	0.048
383	0.048
383	0.047
383	0.048
384	0.048
384	0.048
385	0.048
385	0.048
386	0.048
386	0.048
387	0.047
387	0.047
388	0.047
388	0.047
389	0.047
389	0.047
389	0.047
390	0.047
390	0.047
391	0.047
391	0.047
392	0.047
392	0.047
393	0.047
393	0.047
394	0.047
394	0.047
394	0.047
395	0.047
395	0.047
396	0.047
396	0.047
397	0.047
397	0.047
398	0.047
398	0.048
399	0.047
399	0.047
400	0.047
400	0.047
400	0.047
401	0.047
401	0.047
402	0.046
402	0.046
403	0.046
403	0.046
404	0.046
404	0.046
405	0.046
405	0.046
405	0.045
406	0.045
406	0.045
407	0.045
407	0.045
408	0.045
408	0.045
409	0.045
409	0.045
410	0.044
410	0.044
411	0.044
411	0.044
411	0.044
412	0.044
412	0.044
413	0.044
413	0.044
414	0.044
414	0.044
415	0.044
415	0.044
416	0.044
416	0.044
416	0.044
417	0.044
417	0.044
418	0.044
418	0.044
419	0.044
419	0.044
420	0.044
420	0.044
421	0.044
421	0.044
421	0.044
422	0.044
422	0.044
423	0.044
423	0.044
424	0.044
424	0.044
425	0.043
425	0.043
426	0.043
426	0.043
427	0.043
427	0.043
427	0.043
428	0.043
428	0.043
429	0.044
429	0.044
430	0.044
430	0.044
431	0.044
431	0.044
432	0.044
432	0.043
432	0.043
433	0.043
433	0.042
434	0.042
434	0.042
435	0.042
435	0.042
436	0.042
436	0.042
437	0.042
437	0.042
437	0.042
438	0.042
438	0.041
439	0.041
439	0.041
440	0.041
440	0.041
441	0.041
441	0.041
442	0.041
442	0.042
442	0.042
443	0.042
443	0.042
444	0.042
444	0.042
445	0.042
445	0.042
446	0.042
446	0.043
447	0.043
447	0.042
447	0.042
448	0.042
448	0.042
449	0.042
449	0.042
450	0.042
450	0.042
451	0.041
451	0.041
452	0.041
452	0.041
452	0.041
453	0.041
453	0.04
454	0.04
454	0.04
455	0.039
455	0.039
456	0.039
456	0.039
457	0.039
457	0.039
458	0.038
458	0.038
458	0.038
459	0.038
459	0.038
460	0.038
460	0.038
461	0.038
461	0.038
462	0.039
462	0.039
463	0.039
463	0.039
463	0.039
464	0.04
464	0.04
465	0.04
465	0.04
466	0.04
466	0.04
467	0.04
467	0.039
467	0.039
468	0.039
468	0.038
469	0.038
469	0.038
470	0.037
470	0.037
471	0.037
471	0.037
472	0.037
472	0.037
472	0.038
473	0.038
473	0.038
474	0.039
474	0.039
475	0.039
475	0.039
476	0.039
476	0.039
477	0.039
477	0.04
477	0.04
478	0.04
478	0.04
479	0.04
479	0.041
480	0.041
480	0.041
481	0.042
481	0.042
482	0.042
482	0.043
482	0.043
483	0.043
483	0.044
484	0.044
484	0.045
485	0.045
485	0.045
486	0.045
486	0.045
487	0.045
487	0.045
487	0.046
488	0.045
488	0.045
489	0.045
489	0.045
490	0.045
490	0.045
491	0.045
491	0.045
492	0.046
492	0.046
492	0.046
493	0.046
493	0.047
494	0.047
494	0.048
495	0.048
495	0.049
496	0.049
496	0.05
496	0.05
497	0.05
497	0.051
498	0.051
498	0.051
499	0.052
499	0.052
500	0.052
500	0.053
501	0.053
501	0.053
501	0.054
502	0.054
502	0.055
503	0.055
503	0.056
504	0.056
504	0.057
505	0.057
505	0.057
506	0.058
506	0.058
506	0.058
507	0.058
507	0.057
508	0.057
508	0.057
509	0.057
509	0.057
510	0.058
510	0.058
511	0.058
511	0.058
511	0.058
512	0.059
512	0.059
513	0.059
513	0.059
514	0.059
514	0.059
515	0.059
515	0.059
515	0.059
516	0.059
516	0.059
517	0.059
517	0.06
518	0.06
518	0.06
519	0.06
519	0.06
520	0.06
520	0.059
520	0.059
521	0.058
521	0.057
522	0.056
522	0.055
523	0.054
523	0.053
524	0.053
524	0.054
524	0.054
525	0.054
525	0.055
526	0.056
526	0.057
527	0.058
527	0.059
528	0.06
528	0.061
529	0.061
529	0.061
529	0.061
530	0.061
530	0.061
531	0.061
531	0.061
532	0.06
532	0.059
533	0.059
533	0.059
533	0.058
534	0.058
534	0.058
535	0.058
535	0.057
536	0.057
536	0.057
537	0.057
537	0.058
538	0.058
538	0.057
538	0.057
539	0.057
539	0.056
540	0.056
540	0.055
541	0.055
541	0.054
542	0.053
542	0.053
542	0.052
543	0.052
543	0.052
544	0.051
544	0.052
545	0.051
545	0.051
546	0.052
546	0.051
547	0.051
547	0.051
547	0.05
548	0.05
548	0.049
549	0.049
549	0.048
550	0.048
550	0.047
551	0.047
551	0.046
551	0.046
552	0.045
552	0.045
553	0.045
553	0.045
554	0.045
554	0.044
555	0.043
555	0.043
556	0.042
556	0.041
556	0.04
557	0.039
557	0.039
558	0.038
558	0.038
559	0.037
559	0.037
560	0.038
560	0.038
560	0.038
561	0.039
561	0.039
562	0.039
562	0.039
563	0.039
563	0.039
564	0.038
564	0.037
564	0.036
565	0.036
565	0.035
566	0.034
566	0.034
567	0.033
567	0.033
568	0.033
568	0.033
568	0.034
569	0.035
569	0.035
570	0.036
570	0.036
571	0.036
571	0.036
572	0.036
572	0.037
573	0.037
573	0.037
573	0.036
574	0.036
574	0.036
575	0.035
575	0.036
576	0.036
576	0.035
577	0.035
577	0.035
577	0.035
578	0.034
578	0.034
579	0.034
579	0.035
580	0.034
580	0.034
581	0.033
581	0.033
581	0.032
582	0.032
582	0.032
583	0.032
583	0.032
584	0.031
584	0.03
585	0.03
585	0.03
585	0.03
586	0.03
586	0.03
587	0.03
587	0.03
588	0.029
588	0.028
589	0.028
589	0.028
590	0.027
590	0.027
590	0.027
591	0.027
591	0.027
592	0.026
592	0.026
593	0.026
593	0.026
594	0.026
594	0.025
594	0.025
595	0.025
595	0.024
596	0.024
596	0.025
597	0.025
597	0.026
598	0.026
598	0.026
598	0.027
599	0.027
599	0.026
600	0.026
600	0.026
601	0.026
601	0.025
602	0.025
602	0.025
602	0.025
603	0.026
603	0.026
604	0.027
604	0.028
605	0.029
605	0.029
606	0.029
606	0.029
606	0.028
607	0.027
607	0.027
608	0.026
608	0.025
609	0.024
609	0.024
610	0.023
610	0.022
610	0.022
611	0.022
611	0.023
612	0.023
612	0.024
613	0.025
613	0.026
614	0.027
614	0.027
614	0.027
615	0.027
615	0.027
616	0.027
616	0.026
617	0.026
617	0.025
618	0.024
618	0.023
618	0.022
619	0.022
619	0.022
620	0.022
620	0.022
621	0.022
621	0.022
622	0.022
622	0.022
622	0.022
623	0.022
623	0.022
624	0.022
624	0.022
625	0.022
625	0.022
626	0.022
626	0.022
626	0.023
627	0.023
627	0.024
628	0.024
628	0.025
629	0.025
629	0.025
630	0.025
630	0.025
630	0.026
631	0.026
631	0.026
632	0.027
632	0.027
633	0.027
633	0.027
634	0.028
634	0.028
634	0.029
635	0.03
635	0.03
636	0.031
636	0.031
637	0.032
637	0.032
638	0.032
638	0.033
638	0.034
639	0.034
639	0.035
640	0.035
640	0.036
641	0.037
641	0.037
642	0.038
642	0.039
642	0.039
643	0.04
643	0.04
644	0.04
644	0.04
645	0.04
645	0.04
646	0.041
646	0.041
646	0.042
647	0.043
647	0.044
648	0.045
648	0.046
649	0.047
649	0.049
650	0.05
650	0.051
650	0.052
651	0.053
651	0.054
652	0.055
652	0.056
653	0.057
653	0.06
653	0.056
654	0.046
654	0.039
655	0.04
655	0.041
656	0.042
656	0.043
657	0.044
657	0.045
657	0.045
658	0.044
658	0.048
659	0.058
659	0.072
660	0.074
660	0.074
661	0.075
661	0.076
661	0.077
662	0.078
662	0.08
663	0.081
663	0.083
664	0.085
664	0.086
665	0.087
665	0.089
665	0.09
666	0.091
666	0.092
667	0.093
667	0.093
668	0.094
668	0.095
669	0.096
669	0.097
669	0.098
670	0.099
670	0.101
671	0.102
671	0.103
672	0.104
672	0.106
672	0.107
673	0.107
673	0.108
674	0.108
674	0.108
675	0.108
675	0.108
676	0.108
676	0.108
676	0.108
677	0.108
677	0.109
678	0.109
678	0.109
679	0.109
679	0.11
680	0.111
680	0.111
680	0.111
681	0.111
681	0.112
682	0.112
682	0.112
683	0.113
683	0.114
684	0.115
684	0.116
684	0.116
685	0.117
685	0.117
686	0.118
686	0.119
687	0.119
687	0.12
687	0.12
688	0.12
688	0.12
689	0.121
689	0.121
690	0.121
690	0.121
691	0.121
691	0.12
691	0.119
692	0.118
692	0.118
693	0.117
693	0.116
694	0.115
694	0.114
695	0.114
695	0.114
695	0.113
696	0.113
696	0.112
697	0.111
697	0.11
698	0.109
698	0.108
698	0.107
699	0.107
699	0.106
700	0.105
700	0.104
701	0.104
701	0.104
702	0.104
702	0.104
702	0.104
703	0.103
703	0.103
704	0.102
704	0.102
705	0.101
705	0.101
705	0.1
706	0.1
706	0.099
707	0.098
707	0.098
708	0.097
708	0.096
709	0.095
709	0.095
709	0.093
710	0.092
710	0.091
711	0.09
711	0.089
712	0.089
712	0.088
713	0.088
713	0.087
713	0.087
714	0.086
714	0.085
715	0.085
715	0.085
716	0.084
716	0.084
716	0.083
717	0.082
717	0.082
718	0.081
718	0.08
719	0.079
719	0.079
720	0.078
720	0.077
720	0.076
721	0.074
721	0.073
722	0.072
722	0.071
723	0.07
723	0.069
723	0.068
724	0.067
724	0.066
725	0.065
725	0.064
726	0.063
726	0.062
727	0.061
727	0.06
727	0.059
728	0.058
728	0.057
729	0.057
729	0.056
730	0.056
730	0.055
730	0.055
731	0.054
731	0.054
732	0.053
732	0.053
733	0.052
733	0.052
734	0.051
734	0.05
734	0.049
735	0.049
735	0.048
736	0.047
736	0.047
737	0.047
737	0.046
737	0.046
738	0.045
738	0.044
739	0.043
739	0.042
740	0.04
740	0.039
741	0.037
741	0.036
741	0.034
742	0.031
742	0.03
743	0.028
743	0.027
744	0.026
744	0.025
744	0.024
745	0.023
745	0.023
746	0.023
746	0.022
747	0.023
747	0.023
748	0.024
748	0.024
748	0.025
749	0.025
749	0.025
750	0.026
750	0.025
751	0.025
751	0.025
751	0.024
752	0.023
752	0.022
753	0.021
753	0.02
754	0.019
754	0.018
754	0.018
755	0.018
755	0.018
756	0.018
756	0.018
757	0.018
757	0.019
758	0.019
758	0.018
758	0.018
759	0.018
759	0.017
760	0.016
760	0.015
761	0.014
761	0.013
761	0.012
762	0.011
762	0.01
763	0.01
763	0.009
764	0.008
764	0.007
764	0.006
765	0.005
765	0.004
766	0.004
766	0.003
767	0.003
767	0.002
768	0
768	-0.001
768	-0.002
769	-0.003
769	-0.004
770	-0.006
770	-0.007
771	-0.009
771	-0.012
771	-0.014
772	-0.016
772	-0.017
773	-0.019
773	-0.02
774	-0.021
774	-0.023
775	-0.024
775	-0.025
775	-0.026
776	-0.028
776	-0.029
777	-0.031
777	-0.033
778	-0.035
778	-0.037
778	-0.04
779	-0.042
779	-0.044
780	-0.048
780	-0.051
781	-0.055
781	-0.06
781	-0.065
782	-0.07
782	-0.076
783	-0.081
783	-0.087
784	-0.093
784	-0.099
784	-0.105
785	-0.112
785	-0.117
786	-0.121
786	-0.121
787	-0.119
787	-0.117
788	-0.119
788	-0.121
788	-0.122
789	-0.125
789	-0.125
790	-0.123
790	-0.122
791	-0.124
791	-0.126
791	-0.129
792	-0.124
792	-0.114
793	-0.109
793	-0.105
794	-0.103
794	-0.104
794	-0.108
795	-0.11
795	-0.109
796	-0.109
796	-0.111
797	-0.119
797	-0.13
797	-0.136
798	-0.14
798	-0.143
799	-0.144
799	-0.144
800	-0.144
800	-0.146
801	-0.149
801	-0.15
801	-0.151
802	-0.152
802	-0.153
803	-0.154
803	-0.153
804	-0.152
804	-0.146
804	-0.139
805	-0.134
805	-0.131
806	-0.129
806	-0.127
807	-0.125
807	-0.125
807	-0.125
808	-0.125
808	-0.126
809	-0.131
809	-0.137
810	-0.141
810	-0.144
810	-0.148
811	-0.152
811	-0.153
812	-0.15
812	-0.147
813	-0.148
813	-0.149
813	-0.151
814	-0.152
814	-0.152
815	-0.149
815	-0.146
816	-0.144
816	-0.144
817	-0.147
817	-0.148
817	-0.145
818	-0.14
818	-0.134
819	-0.127
819	-0.122
820	-0.117
820	-0.113
820	-0.107
821	-0.099
821	-0.092
822	-0.085
822	-0.078
823	-0.072
823	-0.068
823	-0.063
824	-0.059
824	-0.054
825	-0.049
825	-0.044
826	-0.04
826	-0.037
826	-0.034
827	-0.031
827	-0.029
828	-0.027
828	-0.025
829	-0.023
829	-0.022
829	-0.021
830	-0.021
830	-0.02
831	-0.019
831	-0.017
832	-0.016
832	-0.015
832	-0.014
833	-0.012
833	-0.011
834	-0.009
834	-0.008
835	-0.007
835	-0.006
835	-0.006
836	-0.005
836	-0.005
837	-0.004
837	-0.004
838	-0.004
838	-0.004
839	-0.004
839	-0.004
839	-0.004
840	-0.004
840	-0.004
841	-0.004
841	-0.004
842	-0.004
842	-0.003
842	-0.003
843	-0.003
843	-0.002
844	-0.002
844	-0.001
845	-0.001
845	-0
845	0
846	0
846	0
847	0
847	0
848	0.001
848	0.001
848	0.001
849	0.002
849	0.002
850	0.002
850	0.003
851	0.004
851	0.005
851	0.005
852	0.005
852	0.006
853	0.006
853	0.006
854	0.006
854	0.006
854	0.005
855	0.005
855	0.004
856	0.004
856	0.004
857	0.003
857	0.003
857	0.003
858	0.003
858	0.003
859	0.003
859	0.004
860	0.005
860	0.006
860	0.006
861	0.007
861	0.008
862	0.009
862	0.009
863	0.01
863	0.01
863	0.01
864	0.01
864	0.011
865	0.011
865	0.012
866	0.012
866	0.012
866	0.013
867	0.013
867	0.014
868	0.014
868	0.014
869	0.014
869	0.014
869	0.013
870	0.012
870	0.011
871	0.01
871	0.009
872	0.008
872	0.007
872	0.006
873	0.005
873	0.004
874	0.003
874	0.002
875	0.001
875	0
875	0
876	0
876	0
877	0
877	0.001
878	0.001
878	0.002
878	0.003
879	0.003
879	0.004
880	0.004
880	0.004
881	0.004
881	0.004
881	0.004
882	0.004
882	0.004
883	0.003
883	0.003
884	0.003
884	0.002
884	0.002
885	0.002
885	0.002
886	0.002
886	0.002
887	0.003
887	0.003
887	0.004
888	0.005
888	0.005
889	0.006
889	0.007
890	0.007
890	0.007
890	0.007
891	0.007
891	0.007
892	0.006
892	0.006
893	0.006
893	0.006
893	0.006
894	0.006
894	0.007
895	0.007
895	0.008
895	0.008
896	0.008
896	0.008
897	0.009
897	0.009
898	0.009
898	0.008
898	0.008
899	0.008
899	0.008
900	0.008
900	0.007
901	0.007
901	0.007
901	0.007
902	0.007
902	0.006
903	0.006
903	0.006
904	0.005
904	0.005
904	0.005
905	0.004
905	0.005
906	0.005
906	0.005
907	0.005
907	0.005
907	0.004
908	0.004
908	0.004
909	0.005
909	0.005
910	0.005
910	0.004
910	0.004
911	0.004
911	0.004
912	0.004
912	0.004
913	0.004
913	0.004
913	0.004
914	0.004
914	0.004
915	0.005
915	0.005
916	0.006
916	0.006
916	0.007
917	0.008
917	0.008
918	0.008
918	0.009
918	0.009
919	0.008
919	0.008
920	0.007
920	0.006
921	0.005
921	0.004
921	0.003
922	0.002
922	0.002
923	0.002
923	0.001
924	0.001
924	0.001
924	0.001
925	0
925	0
926	-0
926	-0.001
927	-0.001
927	-0.002
927	-0.002
928	-0.002
928	-0.003
929	-0.003
929	-0.003
930	-0.003
930	-0.003
930	-0.003
931	-0.003
931	-0.003
932	-0.003
932	-0.003
933	-0.004
933	-0.004
933	-0.005
934	-0.005
934	-0.006
935	-0.007
935	-0.007
935	-0.008
936	-0.008
936	-0.008
937	-0.008
937	-0.008
938	-0.007
938	-0.007
938	-0.006
939	-0.006
939	-0.005
940	-0.004
940	-0.004
941	-0.003
941	-0.003
941	-0.002
942	-0.002
942	-0.002
943	-0.001
943	-0.001
944	-0.001
944	-0
944	0
945	0.001
945	0.002
946	0.003
946	0.004
946	0.005
947	0.006
947	0.007
948	0.009
948	0.01
949	0.011
949	0.012
949	0.013
950	0.013
950	0.014
951	0.014
951	0.014
952	0.014
952	0.014
952	0.014
953	0.014
953	0.014
954	0.014
954	0.014
955	0.014
955	0.014
955	0.014
956	0.014
956	0.014
957	0.013
957	0.012
957	0.012
958	0.011
958	0.01
959	0.009
959	0.007
960	0.006
960	0.005
960	0.004
961	0.002
961	0.001
962	0.001
962	-0
963	-0.001
963	-0.001
963	-0.002
964	-0.002
964	-0.002
965	-0.002
965	-0.001
966	-0.001
966	0
966	0.001
967	0.002
967	0.002
968	0.003
968	0.003
968	0.003
969	0.003
969	0.003
970	0.003
970	0.002
971	0.001
971	0
971	-0.001
972	-0.002
972	-0.003
973	-0.004
973	-0.005
974	-0.006
974	-0.007
974	-0.007
975	-0.007
975	-0.008
976	-0.008
976	-0.008
976	-0.008
977	-0.008
977	-0.008
978	-0.008
978	-0.008
979	-0.009
979	-0.009
979	-0.009
980	-0.009
980	-0.009
981	-0.009
981	-0.009
982	-0.009
982	-0.008
982	-0.008
983	-0.008
983	-0.008
984	-0.009
984	-0.009
984	-0.008
985	-0.008
985	-0.008
986	-0.008
986	-0.008
987	-0.008
987	-0.008
987	-0.007
988	-0.007
988	-0.006
989	-0.005
989	-0.005
990	-0.004
990	-0.004
990	-0.003
991	-0.003
991	-0.003
992	-0.002
992	-0.002
992	-0.003
993	-0.003
993	-0.003
994	-0.003
994	-0.003
995	-0.003
995	-0.003
995	-0.004
996	-0.004
996	-0.004
997	-0.004
997	-0.004
997	-0.004
998	-0.004
998	-0.005
999	-0.005
999	-0.005
1000	-0.005
1000	-0.005
1000	-0.005
1001	-0.005
1001	-0.005
1002	-0.005
1002	-0.005
1003	-0.005
1003	-0.005
1003	-0.005
1004	-0.005
1004	-0.005
1005	-0.004
1005	-0.004
1005	-0.004
1006	-0.004
1006	-0.004
1007	-0.005
1007	-0.005
1008	-0.005
1008	-0.005
1008	-0.005
1009	-0.006
1009	-0.006
1010	-0.006
1010	-0.007
1010	-0.007
1011	-0.007
1011	-0.007
1012	-0.007
1012	-0.006
1013	-0.006
1013	-0.005
1013	-0.005
1014	-0.004
1014	-0.004
1015	-0.003
1015	-0.003
1016	-0.002
1016	-0.002
1016	-0.001
1017	-0.001
1017	-0.001
1018	-0.001
1018	-0.001
1018	-0.001
1019	-0.001
1019	-0.001
1020	-0.001
1020	-0.001
1021	-0.002
1021	-0.002
1021	-0.002
1022	-0.002
1022	-0.002
1023	-0.002
1023	-0.002
1023	-0.002
1024	-0.003
1024	-0.003
1025	-0.003
1025	-0.004
1026	-0.004
1026	-0.004
1026	-0.004
1027	-0.004
1027	-0.004
1028	-0.003
1028	-0.003
1028	-0.003
1029	-0.002
1029	-0.002
1030	-0.001
1030	-0.001
1031	-0.001
1031	-0
1031	0
1032	0
1032	0
1033	0
1033	-0
1033	-0
1034	-0.001
1034	-0.002
1035	-0.002
1035	-0.003
1036	-0.003
1036	-0.004
1036	-0.004
1037	-0.004
1037	-0.004
1038	-0.004
1038	-0.004
1039	-0.004
1039	-0.003
1039	-0.002
1040	-0.002
1040	-0.002
1041	-0.002
1041	-0.001
1041	-0.001
1042	-0.001
1042	-0.001
1043	-0.001
1043	-0.002
1044	-0.002
1044	-0.002
1044	-0.002
1045	-0.002
1045	-0.003
1046	-0.003
1046	-0.003
1046	-0.003
1047	-0.004
1047	-0.004
1048	-0.004
1048	-0.004
1049	-0.004
1049	-0.004
1049	-0.004
1050	-0.005
1050	-0.005
1051	-0.005
1051	-0.004
1051	-0.004
1052	-0.004
1052	-0.004
1053	-0.003
1053	-0.003
1053	-0.002
1054	-0.002
1054	-0.001
1055	-0.001
1055	-0.001
1056	-0.001
1056	-0.001
1056	-0.002
1057	-0.002
1057	-0.002
1058	-0.002
1058	-0.002
1058	-0.002
1059	-0.002
1059	-0.002
1060	-0.002
1060	-0.002
1061	-0.001
1061	-0.001
1061	-0
1062	0
1062	-0
1063	0
1063	0
1063	0.001
1064	0
1064	0
1065	0.001
1065	0
1066	0
1066	-0
1066	-0
1067	-0
1067	-0
1068	-0.001
1068	-0.001
1068	-0.001
1069	-0.001
1069	-0
1070	-0
1070	0
1071	0.001
1071	0.001
1071	0.002
1072	0.003
1072	0.004
1073	0.005
1073	0.006
1073	0.007
1074	0.008
1074	0.009
1075	0.01
1075	0.01
1076	0.011
1076	0.012
1076	0.012
1077	0.013
1077	0.014
1078	0.015
1078	0.016
1078	0.017
1079	0.018
1079	0.019
1080	0.02
1080	0.021
1080	0.022
1081	0.023
1081	0.024
1082	0.024
1082	0.024
1083	0.024
1083	0.025
1083	0.025
1084	0.026
1084	0.026
1085	0.027
1085	0.027
1085	0.028
1086	0.028
1086	0.028
1087	0.029
1087	0.03
1088	0.031
1088	0.032
1088	0.033
1089	0.034
1089	0.036
1090	0.038
1090	0.041
1090	0.043
1091	0.045
1091	0.048
1092	0.05
1092	0.053
1092	0.056
1093	0.057
1093	0.06
1094	0.061
1094	0.063
1095	0.064
1095	0.066
1095	0.068
1096	0.07
1096	0.072
1097	0.074
1097	0.077
1097	0.08
1098	0.083
1098	0.085
1099	0.09
1099	0.094
1100	0.099
1100	0.105
1100	0.11
1101	0.115
1101	0.121
1102	0.128
1102	0.136
1102	0.144
1103	0.152
1103	0.161
1104	0.171
1104	0.181
1104	0.193
1105	0.207
1105	0.219
1106	0.234
1106	0.249
1107	0.266
1107	0.291
1107	0.323
1108	0.414
1108	0.56
1109	0.864
1109	-0
1109	-0
1110	-0
1110	-0
1111	-0
1111	-0
