Data from 15c-2a_Absorbance__473__00473.txt Node

Date: Wed Jan 24 09:42:04 CET 2024
User: Marek
Spectrometer: MAYP115816
Trigger mode: 0
Integration Time (sec): 2.000000E-1
Scans to average: 10
Electric dark correction enabled: true
Nonlinearity correction enabled: true
Boxcar width: 5
XAxis mode: Wavelengths
Number of Pixels in Spectrum: 2068
>>>>>Begin Spectral Data<<<<<
199	-1.625
199	-1.466
200	-1.309
200	-1.188
201	-1.117
201	-1.066
202	-0.997
202	-0.942
203	-0.896
203	-0.856
204	-0.829
204	-0.806
205	-0.785
205	-0.777
205	-0.775
206	-0.771
206	-0.769
207	-0.765
207	-0.763
208	-0.761
208	-0.76
209	-0.758
209	-0.758
210	-0.757
210	-0.755
211	-0.754
211	-0.755
212	-0.752
212	-0.751
213	-0.748
213	-0.746
213	-0.744
214	-0.741
214	-0.737
215	-0.737
215	-0.733
216	-0.732
216	-0.729
217	-0.728
217	-0.728
218	-0.729
218	-0.728
219	-0.726
219	-0.724
220	-0.721
220	-0.719
221	-0.72
221	-0.717
221	-0.712
222	-0.707
222	-0.7
223	-0.693
223	-0.689
224	-0.68
224	-0.673
225	-0.666
225	-0.657
226	-0.647
226	-0.636
227	-0.625
227	-0.615
228	-0.599
228	-0.583
229	-0.564
229	-0.545
229	-0.522
230	-0.497
230	-0.468
231	-0.44
231	-0.408
232	-0.376
232	-0.342
233	-0.31
233	-0.276
234	-0.244
234	-0.212
235	-0.181
235	-0.152
236	-0.125
236	-0.1
236	-0.077
237	-0.054
237	-0.035
238	-0.017
238	-0.001
239	0.013
239	0.027
240	0.039
240	0.049
241	0.059
241	0.068
242	0.075
242	0.082
243	0.088
243	0.094
243	0.099
244	0.104
244	0.109
245	0.113
245	0.117
246	0.121
246	0.124
247	0.127
247	0.13
248	0.134
248	0.137
249	0.139
249	0.142
250	0.144
250	0.146
250	0.149
251	0.151
251	0.153
252	0.155
252	0.157
253	0.159
253	0.161
254	0.162
254	0.164
255	0.166
255	0.167
256	0.168
256	0.169
257	0.169
257	0.17
258	0.171
258	0.172
258	0.172
259	0.173
259	0.173
260	0.173
260	0.174
261	0.174
261	0.174
262	0.174
262	0.174
263	0.173
263	0.173
264	0.173
264	0.172
265	0.172
265	0.171
265	0.17
266	0.169
266	0.169
267	0.168
267	0.167
268	0.166
268	0.165
269	0.163
269	0.162
270	0.16
270	0.159
271	0.157
271	0.156
272	0.154
272	0.153
272	0.151
273	0.149
273	0.148
274	0.146
274	0.145
275	0.143
275	0.142
276	0.14
276	0.138
277	0.137
277	0.135
278	0.133
278	0.131
278	0.129
279	0.128
279	0.126
280	0.124
280	0.122
281	0.121
281	0.119
282	0.118
282	0.116
283	0.115
283	0.114
284	0.113
284	0.111
285	0.11
285	0.109
285	0.107
286	0.106
286	0.105
287	0.103
287	0.102
288	0.101
288	0.099
289	0.098
289	0.097
290	0.096
290	0.095
291	0.094
291	0.093
292	0.092
292	0.091
292	0.091
293	0.09
293	0.089
294	0.088
294	0.088
295	0.087
295	0.087
296	0.086
296	0.085
297	0.085
297	0.084
298	0.084
298	0.083
298	0.083
299	0.082
299	0.082
300	0.082
300	0.081
301	0.081
301	0.081
302	0.08
302	0.08
303	0.08
303	0.08
304	0.079
304	0.079
305	0.079
305	0.079
305	0.078
306	0.078
306	0.078
307	0.078
307	0.078
308	0.077
308	0.077
309	0.077
309	0.077
310	0.076
310	0.076
311	0.076
311	0.076
311	0.076
312	0.075
312	0.075
313	0.075
313	0.074
314	0.074
314	0.074
315	0.074
315	0.073
316	0.073
316	0.073
317	0.072
317	0.072
318	0.072
318	0.072
318	0.071
319	0.071
319	0.071
320	0.07
320	0.07
321	0.07
321	0.07
322	0.069
322	0.069
323	0.069
323	0.069
324	0.068
324	0.068
324	0.068
325	0.067
325	0.067
326	0.067
326	0.066
327	0.066
327	0.066
328	0.065
328	0.065
329	0.065
329	0.065
330	0.064
330	0.064
330	0.064
331	0.063
331	0.063
332	0.063
332	0.063
333	0.062
333	0.062
334	0.061
334	0.061
335	0.061
335	0.061
336	0.06
336	0.06
336	0.06
337	0.059
337	0.059
338	0.059
338	0.059
339	0.059
339	0.059
340	0.058
340	0.058
341	0.058
341	0.058
342	0.058
342	0.058
342	0.058
343	0.057
343	0.057
344	0.057
344	0.057
345	0.056
345	0.056
346	0.056
346	0.056
347	0.056
347	0.055
348	0.055
348	0.055
348	0.055
349	0.054
349	0.054
350	0.054
350	0.054
351	0.053
351	0.053
352	0.053
352	0.052
353	0.052
353	0.052
354	0.052
354	0.052
354	0.051
355	0.051
355	0.051
356	0.051
356	0.051
357	0.051
357	0.05
358	0.05
358	0.05
359	0.05
359	0.05
360	0.05
360	0.05
360	0.05
361	0.05
361	0.05
362	0.05
362	0.05
363	0.05
363	0.051
364	0.051
364	0.051
365	0.05
365	0.05
366	0.05
366	0.05
366	0.05
367	0.05
367	0.05
368	0.05
368	0.05
369	0.049
369	0.049
370	0.049
370	0.049
371	0.049
371	0.049
372	0.049
372	0.049
372	0.049
373	0.049
373	0.049
374	0.049
374	0.049
375	0.049
375	0.049
376	0.049
376	0.049
377	0.049
377	0.049
378	0.049
378	0.049
378	0.049
379	0.049
379	0.049
380	0.049
380	0.049
381	0.049
381	0.049
382	0.049
382	0.049
383	0.049
383	0.048
383	0.048
384	0.048
384	0.049
385	0.049
385	0.048
386	0.048
386	0.048
387	0.048
387	0.048
388	0.048
388	0.048
389	0.048
389	0.048
389	0.048
390	0.048
390	0.048
391	0.048
391	0.048
392	0.048
392	0.048
393	0.048
393	0.048
394	0.048
394	0.048
394	0.048
395	0.048
395	0.048
396	0.048
396	0.048
397	0.048
397	0.048
398	0.048
398	0.048
399	0.048
399	0.048
400	0.048
400	0.048
400	0.048
401	0.048
401	0.047
402	0.047
402	0.047
403	0.047
403	0.047
404	0.047
404	0.047
405	0.046
405	0.046
405	0.046
406	0.046
406	0.046
407	0.046
407	0.046
408	0.046
408	0.046
409	0.045
409	0.045
410	0.045
410	0.046
411	0.045
411	0.045
411	0.045
412	0.045
412	0.045
413	0.045
413	0.045
414	0.045
414	0.045
415	0.045
415	0.045
416	0.045
416	0.045
416	0.045
417	0.045
417	0.045
418	0.045
418	0.045
419	0.045
419	0.045
420	0.045
420	0.045
421	0.045
421	0.045
421	0.045
422	0.045
422	0.045
423	0.045
423	0.045
424	0.045
424	0.045
425	0.044
425	0.044
426	0.044
426	0.044
427	0.044
427	0.043
427	0.044
428	0.044
428	0.045
429	0.045
429	0.045
430	0.045
430	0.045
431	0.045
431	0.045
432	0.045
432	0.044
432	0.044
433	0.044
433	0.043
434	0.043
434	0.043
435	0.043
435	0.043
436	0.042
436	0.043
437	0.042
437	0.042
437	0.042
438	0.042
438	0.042
439	0.043
439	0.043
440	0.042
440	0.042
441	0.042
441	0.042
442	0.043
442	0.043
442	0.043
443	0.043
443	0.043
444	0.043
444	0.043
445	0.043
445	0.043
446	0.044
446	0.044
447	0.044
447	0.043
447	0.043
448	0.043
448	0.043
449	0.043
449	0.043
450	0.043
450	0.043
451	0.043
451	0.042
452	0.042
452	0.042
452	0.042
453	0.042
453	0.041
454	0.041
454	0.041
455	0.04
455	0.04
456	0.04
456	0.04
457	0.04
457	0.04
458	0.04
458	0.04
458	0.04
459	0.04
459	0.04
460	0.04
460	0.04
461	0.04
461	0.04
462	0.04
462	0.04
463	0.04
463	0.04
463	0.041
464	0.041
464	0.041
465	0.041
465	0.041
466	0.041
466	0.041
467	0.041
467	0.041
467	0.041
468	0.04
468	0.04
469	0.039
469	0.039
470	0.039
470	0.039
471	0.039
471	0.039
472	0.039
472	0.039
472	0.039
473	0.04
473	0.04
474	0.04
474	0.04
475	0.04
475	0.041
476	0.041
476	0.041
477	0.041
477	0.041
477	0.041
478	0.041
478	0.042
479	0.042
479	0.042
480	0.043
480	0.043
481	0.043
481	0.044
482	0.044
482	0.044
482	0.045
483	0.045
483	0.046
484	0.046
484	0.046
485	0.047
485	0.047
486	0.047
486	0.047
487	0.048
487	0.048
487	0.048
488	0.047
488	0.047
489	0.047
489	0.047
490	0.047
490	0.047
491	0.048
491	0.048
492	0.048
492	0.048
492	0.049
493	0.049
493	0.049
494	0.05
494	0.05
495	0.05
495	0.051
496	0.051
496	0.052
496	0.052
497	0.052
497	0.053
498	0.053
498	0.053
499	0.053
499	0.054
500	0.054
500	0.054
501	0.055
501	0.055
501	0.056
502	0.056
502	0.057
503	0.057
503	0.058
504	0.058
504	0.059
505	0.059
505	0.059
506	0.06
506	0.06
506	0.06
507	0.06
507	0.06
508	0.06
508	0.06
509	0.06
509	0.06
510	0.06
510	0.06
511	0.06
511	0.06
511	0.061
512	0.061
512	0.062
513	0.062
513	0.062
514	0.062
514	0.062
515	0.061
515	0.061
515	0.061
516	0.062
516	0.062
517	0.062
517	0.063
518	0.063
518	0.063
519	0.063
519	0.062
520	0.062
520	0.062
520	0.061
521	0.06
521	0.059
522	0.058
522	0.058
523	0.057
523	0.057
524	0.057
524	0.057
524	0.058
525	0.058
525	0.059
526	0.06
526	0.061
527	0.062
527	0.063
528	0.063
528	0.064
529	0.064
529	0.064
529	0.064
530	0.064
530	0.064
531	0.064
531	0.063
532	0.063
532	0.062
533	0.062
533	0.062
533	0.061
534	0.061
534	0.061
535	0.06
535	0.06
536	0.06
536	0.06
537	0.06
537	0.06
538	0.06
538	0.059
538	0.059
539	0.059
539	0.058
540	0.058
540	0.057
541	0.057
541	0.056
542	0.055
542	0.055
542	0.054
543	0.054
543	0.054
544	0.054
544	0.054
545	0.054
545	0.054
546	0.054
546	0.054
547	0.053
547	0.053
547	0.052
548	0.052
548	0.051
549	0.051
549	0.05
550	0.049
550	0.049
551	0.048
551	0.048
551	0.047
552	0.047
552	0.047
553	0.047
553	0.047
554	0.046
554	0.046
555	0.045
555	0.044
556	0.043
556	0.042
556	0.042
557	0.041
557	0.041
558	0.04
558	0.039
559	0.039
559	0.039
560	0.039
560	0.039
560	0.04
561	0.04
561	0.041
562	0.041
562	0.041
563	0.04
563	0.04
564	0.039
564	0.038
564	0.037
565	0.036
565	0.036
566	0.035
566	0.034
567	0.034
567	0.034
568	0.034
568	0.035
568	0.035
569	0.036
569	0.037
570	0.037
570	0.037
571	0.037
571	0.037
572	0.037
572	0.037
573	0.037
573	0.037
573	0.037
574	0.036
574	0.036
575	0.036
575	0.037
576	0.037
576	0.036
577	0.036
577	0.036
577	0.036
578	0.035
578	0.035
579	0.036
579	0.036
580	0.035
580	0.034
581	0.033
581	0.033
581	0.033
582	0.033
582	0.033
583	0.033
583	0.033
584	0.032
584	0.031
585	0.031
585	0.031
585	0.031
586	0.031
586	0.031
587	0.031
587	0.03
588	0.029
588	0.029
589	0.028
589	0.028
590	0.028
590	0.027
590	0.028
591	0.028
591	0.027
592	0.027
592	0.026
593	0.026
593	0.026
594	0.026
594	0.025
594	0.025
595	0.025
595	0.024
596	0.024
596	0.025
597	0.026
597	0.027
598	0.027
598	0.027
598	0.028
599	0.028
599	0.028
600	0.027
600	0.027
601	0.027
601	0.026
602	0.026
602	0.026
602	0.026
603	0.026
603	0.027
604	0.028
604	0.029
605	0.029
605	0.03
606	0.03
606	0.03
606	0.029
607	0.028
607	0.028
608	0.027
608	0.026
609	0.025
609	0.025
610	0.024
610	0.023
610	0.023
611	0.023
611	0.024
612	0.025
612	0.025
613	0.026
613	0.028
614	0.028
614	0.028
614	0.028
615	0.028
615	0.027
616	0.027
616	0.027
617	0.026
617	0.026
618	0.025
618	0.024
618	0.023
619	0.022
619	0.022
620	0.023
620	0.023
621	0.023
621	0.023
622	0.022
622	0.023
622	0.023
623	0.023
623	0.023
624	0.023
624	0.023
625	0.023
625	0.023
626	0.023
626	0.023
626	0.024
627	0.024
627	0.025
628	0.025
628	0.025
629	0.026
629	0.026
630	0.026
630	0.026
630	0.027
631	0.028
631	0.028
632	0.028
632	0.029
633	0.029
633	0.03
634	0.03
634	0.031
634	0.032
635	0.033
635	0.033
636	0.034
636	0.034
637	0.034
637	0.035
638	0.035
638	0.036
638	0.037
639	0.037
639	0.037
640	0.038
640	0.039
641	0.039
641	0.04
642	0.041
642	0.042
642	0.042
643	0.042
643	0.042
644	0.042
644	0.043
645	0.043
645	0.043
646	0.043
646	0.044
646	0.045
647	0.045
647	0.047
648	0.048
648	0.049
649	0.05
649	0.051
650	0.053
650	0.054
650	0.055
651	0.056
651	0.057
652	0.058
652	0.059
653	0.061
653	0.065
653	0.062
654	0.052
654	0.043
655	0.044
655	0.045
656	0.046
656	0.047
657	0.048
657	0.049
657	0.049
658	0.048
658	0.049
659	0.061
659	0.075
660	0.078
660	0.078
661	0.078
661	0.079
661	0.08
662	0.082
662	0.083
663	0.085
663	0.086
664	0.088
664	0.089
665	0.091
665	0.093
665	0.094
666	0.095
666	0.096
667	0.097
667	0.098
668	0.099
668	0.099
669	0.1
669	0.102
669	0.103
670	0.105
670	0.106
671	0.107
671	0.108
672	0.11
672	0.111
672	0.112
673	0.112
673	0.113
674	0.113
674	0.113
675	0.113
675	0.112
676	0.113
676	0.112
676	0.112
677	0.113
677	0.113
678	0.113
678	0.113
679	0.114
679	0.114
680	0.115
680	0.115
680	0.116
681	0.116
681	0.116
682	0.117
682	0.117
683	0.118
683	0.119
684	0.12
684	0.121
684	0.121
685	0.121
685	0.122
686	0.123
686	0.124
687	0.124
687	0.125
687	0.126
688	0.126
688	0.126
689	0.127
689	0.127
690	0.127
690	0.127
691	0.126
691	0.125
691	0.124
692	0.123
692	0.122
693	0.121
693	0.121
694	0.12
694	0.119
695	0.118
695	0.119
695	0.118
696	0.118
696	0.117
697	0.116
697	0.115
698	0.114
698	0.113
698	0.112
699	0.111
699	0.11
700	0.109
700	0.109
701	0.108
701	0.108
702	0.108
702	0.109
702	0.108
703	0.108
703	0.107
704	0.107
704	0.106
705	0.106
705	0.106
705	0.105
706	0.104
706	0.104
707	0.103
707	0.102
708	0.101
708	0.1
709	0.1
709	0.099
709	0.097
710	0.096
710	0.095
711	0.094
711	0.094
712	0.093
712	0.092
713	0.092
713	0.092
713	0.091
714	0.09
714	0.09
715	0.089
715	0.088
716	0.088
716	0.088
716	0.087
717	0.086
717	0.086
718	0.085
718	0.084
719	0.083
719	0.082
720	0.082
720	0.08
720	0.079
721	0.078
721	0.076
722	0.075
722	0.074
723	0.073
723	0.072
723	0.071
724	0.07
724	0.069
725	0.068
725	0.067
726	0.066
726	0.065
727	0.064
727	0.063
727	0.062
728	0.061
728	0.06
729	0.059
729	0.058
730	0.058
730	0.057
730	0.057
731	0.056
731	0.056
732	0.056
732	0.055
733	0.054
733	0.054
734	0.053
734	0.052
734	0.051
735	0.051
735	0.05
736	0.05
736	0.049
737	0.049
737	0.049
737	0.048
738	0.047
738	0.046
739	0.045
739	0.044
740	0.042
740	0.041
741	0.04
741	0.038
741	0.036
742	0.034
742	0.032
743	0.031
743	0.03
744	0.028
744	0.028
744	0.027
745	0.026
745	0.025
746	0.025
746	0.025
747	0.025
747	0.026
748	0.026
748	0.027
748	0.027
749	0.027
749	0.027
750	0.028
750	0.027
751	0.027
751	0.027
751	0.026
752	0.025
752	0.023
753	0.022
753	0.021
754	0.02
754	0.019
754	0.019
755	0.019
755	0.02
756	0.02
756	0.019
757	0.019
757	0.02
758	0.02
758	0.02
758	0.02
759	0.019
759	0.018
760	0.017
760	0.016
761	0.015
761	0.015
761	0.014
762	0.013
762	0.013
763	0.012
763	0.011
764	0.01
764	0.009
764	0.008
765	0.007
765	0.006
766	0.006
766	0.006
767	0.005
767	0.004
768	0.002
768	0.001
768	-0
769	-0.002
769	-0.003
770	-0.004
770	-0.006
771	-0.008
771	-0.01
771	-0.012
772	-0.014
772	-0.015
773	-0.017
773	-0.018
774	-0.019
774	-0.021
775	-0.021
775	-0.022
775	-0.024
776	-0.025
776	-0.026
777	-0.028
777	-0.029
778	-0.031
778	-0.034
778	-0.036
779	-0.038
779	-0.04
780	-0.043
780	-0.046
781	-0.049
781	-0.053
781	-0.058
782	-0.063
782	-0.069
783	-0.074
783	-0.08
784	-0.087
784	-0.093
784	-0.099
785	-0.107
785	-0.113
786	-0.117
786	-0.118
787	-0.116
787	-0.116
788	-0.118
788	-0.12
788	-0.122
789	-0.125
789	-0.125
790	-0.123
790	-0.122
791	-0.124
791	-0.126
791	-0.129
792	-0.125
792	-0.114
793	-0.109
793	-0.105
794	-0.103
794	-0.105
794	-0.108
795	-0.11
795	-0.109
796	-0.109
796	-0.111
797	-0.119
797	-0.13
797	-0.136
798	-0.141
798	-0.143
799	-0.144
799	-0.144
800	-0.144
800	-0.146
801	-0.149
801	-0.151
801	-0.151
802	-0.152
802	-0.153
803	-0.154
803	-0.154
804	-0.152
804	-0.146
804	-0.139
805	-0.134
805	-0.132
806	-0.129
806	-0.127
807	-0.126
807	-0.125
807	-0.125
808	-0.125
808	-0.126
809	-0.131
809	-0.137
810	-0.141
810	-0.144
810	-0.148
811	-0.152
811	-0.153
812	-0.15
812	-0.148
813	-0.148
813	-0.149
813	-0.151
814	-0.152
814	-0.152
815	-0.149
815	-0.146
816	-0.144
816	-0.144
817	-0.147
817	-0.148
817	-0.145
818	-0.14
818	-0.134
819	-0.127
819	-0.121
820	-0.117
820	-0.112
820	-0.106
821	-0.099
821	-0.091
822	-0.084
822	-0.077
823	-0.072
823	-0.067
823	-0.063
824	-0.058
824	-0.053
825	-0.048
825	-0.044
826	-0.04
826	-0.037
826	-0.034
827	-0.032
827	-0.029
828	-0.027
828	-0.026
829	-0.024
829	-0.023
829	-0.022
830	-0.021
830	-0.021
831	-0.019
831	-0.018
832	-0.017
832	-0.015
832	-0.014
833	-0.012
833	-0.011
834	-0.01
834	-0.008
835	-0.007
835	-0.006
835	-0.005
836	-0.004
836	-0.004
837	-0.003
837	-0.003
838	-0.003
838	-0.003
839	-0.002
839	-0.002
839	-0.002
840	-0.002
840	-0.002
841	-0.002
841	-0.002
842	-0.002
842	-0.002
842	-0.002
843	-0.001
843	-0.001
844	-0.001
844	-0
845	0
845	0
845	0.001
846	0.001
846	0
847	0
847	0.001
848	0.001
848	0.001
848	0.001
849	0.002
849	0.002
850	0.003
850	0.003
851	0.004
851	0.005
851	0.006
852	0.006
852	0.007
853	0.007
853	0.007
854	0.007
854	0.007
854	0.006
855	0.006
855	0.006
856	0.005
856	0.005
857	0.005
857	0.004
857	0.004
858	0.004
858	0.004
859	0.005
859	0.005
860	0.006
860	0.007
860	0.008
861	0.009
861	0.01
862	0.011
862	0.011
863	0.012
863	0.012
863	0.013
864	0.013
864	0.013
865	0.013
865	0.014
866	0.014
866	0.014
866	0.014
867	0.014
867	0.015
868	0.015
868	0.015
869	0.015
869	0.014
869	0.013
870	0.012
870	0.011
871	0.011
871	0.01
872	0.008
872	0.007
872	0.006
873	0.005
873	0.004
874	0.004
874	0.003
875	0.002
875	0.002
875	0.002
876	0.002
876	0.002
877	0.002
877	0.002
878	0.003
878	0.003
878	0.003
879	0.004
879	0.004
880	0.004
880	0.004
881	0.004
881	0.004
881	0.004
882	0.003
882	0.003
883	0.002
883	0.002
884	0.002
884	0.001
884	0.001
885	0.001
885	0.001
886	0.002
886	0.002
887	0.002
887	0.003
887	0.004
888	0.005
888	0.006
889	0.007
889	0.007
890	0.008
890	0.008
890	0.008
891	0.008
891	0.008
892	0.007
892	0.007
893	0.006
893	0.006
893	0.006
894	0.006
894	0.006
895	0.006
895	0.006
895	0.006
896	0.006
896	0.006
897	0.006
897	0.006
898	0.006
898	0.006
898	0.006
899	0.006
899	0.006
900	0.005
900	0.005
901	0.005
901	0.005
901	0.005
902	0.005
902	0.005
903	0.004
903	0.004
904	0.004
904	0.004
904	0.003
905	0.004
905	0.004
906	0.004
906	0.004
907	0.004
907	0.004
907	0.004
908	0.004
908	0.004
909	0.004
909	0.005
910	0.005
910	0.005
910	0.005
911	0.005
911	0.005
912	0.005
912	0.005
913	0.006
913	0.006
913	0.006
914	0.006
914	0.006
915	0.007
915	0.007
916	0.008
916	0.008
916	0.009
917	0.01
917	0.01
918	0.01
918	0.01
918	0.01
919	0.009
919	0.008
920	0.007
920	0.006
921	0.005
921	0.004
921	0.003
922	0.002
922	0.002
923	0.002
923	0.001
924	0.001
924	0.001
924	0.001
925	0
925	-0
926	-0.001
926	-0.001
927	-0.002
927	-0.002
927	-0.003
928	-0.003
928	-0.003
929	-0.003
929	-0.004
930	-0.003
930	-0.003
930	-0.003
931	-0.003
931	-0.003
932	-0.003
932	-0.004
933	-0.004
933	-0.005
933	-0.005
934	-0.006
934	-0.006
935	-0.007
935	-0.008
935	-0.009
936	-0.009
936	-0.01
937	-0.01
937	-0.009
938	-0.009
938	-0.009
938	-0.008
939	-0.008
939	-0.007
940	-0.006
940	-0.006
941	-0.005
941	-0.005
941	-0.005
942	-0.004
942	-0.004
943	-0.004
943	-0.004
944	-0.004
944	-0.003
944	-0.002
945	-0.002
945	-0
946	0.001
946	0.002
946	0.003
947	0.005
947	0.006
948	0.008
948	0.009
949	0.01
949	0.012
949	0.013
950	0.014
950	0.015
951	0.015
951	0.015
952	0.016
952	0.016
952	0.016
953	0.016
953	0.016
954	0.016
954	0.016
955	0.016
955	0.016
955	0.016
956	0.015
956	0.015
957	0.014
957	0.013
957	0.012
958	0.011
958	0.01
959	0.008
959	0.007
960	0.006
960	0.004
960	0.003
961	0.001
961	0
962	-0.001
962	-0.002
963	-0.002
963	-0.003
963	-0.003
964	-0.004
964	-0.003
965	-0.003
965	-0.003
966	-0.002
966	-0.001
966	-0
967	0.001
967	0.001
968	0.002
968	0.002
968	0.002
969	0.002
969	0.002
970	0.002
970	0.001
971	0
971	-0.001
971	-0.002
972	-0.003
972	-0.003
973	-0.005
973	-0.006
974	-0.006
974	-0.007
974	-0.007
975	-0.008
975	-0.008
976	-0.008
976	-0.008
976	-0.009
977	-0.009
977	-0.009
978	-0.01
978	-0.01
979	-0.011
979	-0.011
979	-0.011
980	-0.012
980	-0.012
981	-0.012
981	-0.012
982	-0.012
982	-0.011
982	-0.011
983	-0.011
983	-0.011
984	-0.011
984	-0.01
984	-0.01
985	-0.01
985	-0.01
986	-0.01
986	-0.01
987	-0.009
987	-0.009
987	-0.008
988	-0.008
988	-0.007
989	-0.006
989	-0.006
990	-0.005
990	-0.005
990	-0.004
991	-0.003
991	-0.003
992	-0.003
992	-0.003
992	-0.003
993	-0.003
993	-0.004
994	-0.004
994	-0.004
995	-0.005
995	-0.005
995	-0.005
996	-0.006
996	-0.006
997	-0.006
997	-0.006
997	-0.006
998	-0.006
998	-0.007
999	-0.007
999	-0.007
1000	-0.007
1000	-0.007
1000	-0.007
1001	-0.007
1001	-0.007
1002	-0.007
1002	-0.007
1003	-0.007
1003	-0.007
1003	-0.007
1004	-0.007
1004	-0.007
1005	-0.007
1005	-0.007
1005	-0.007
1006	-0.007
1006	-0.007
1007	-0.007
1007	-0.007
1008	-0.007
1008	-0.007
1008	-0.008
1009	-0.008
1009	-0.008
1010	-0.009
1010	-0.009
1010	-0.009
1011	-0.009
1011	-0.009
1012	-0.009
1012	-0.008
1013	-0.008
1013	-0.007
1013	-0.007
1014	-0.006
1014	-0.006
1015	-0.005
1015	-0.005
1016	-0.004
1016	-0.004
1016	-0.004
1017	-0.004
1017	-0.004
1018	-0.004
1018	-0.004
1018	-0.004
1019	-0.004
1019	-0.004
1020	-0.004
1020	-0.004
1021	-0.004
1021	-0.004
1021	-0.004
1022	-0.004
1022	-0.004
1023	-0.004
1023	-0.004
1023	-0.005
1024	-0.005
1024	-0.006
1025	-0.006
1025	-0.006
1026	-0.007
1026	-0.007
1026	-0.007
1027	-0.007
1027	-0.007
1028	-0.007
1028	-0.006
1028	-0.006
1029	-0.006
1029	-0.005
1030	-0.005
1030	-0.004
1031	-0.004
1031	-0.004
1031	-0.004
1032	-0.004
1032	-0.004
1033	-0.004
1033	-0.005
1033	-0.005
1034	-0.006
1034	-0.007
1035	-0.008
1035	-0.008
1036	-0.009
1036	-0.009
1036	-0.009
1037	-0.01
1037	-0.01
1038	-0.01
1038	-0.01
1039	-0.009
1039	-0.009
1039	-0.008
1040	-0.008
1040	-0.007
1041	-0.007
1041	-0.007
1041	-0.007
1042	-0.007
1042	-0.007
1043	-0.007
1043	-0.007
1044	-0.008
1044	-0.008
1044	-0.008
1045	-0.008
1045	-0.009
1046	-0.009
1046	-0.009
1046	-0.009
1047	-0.01
1047	-0.01
1048	-0.01
1048	-0.01
1049	-0.01
1049	-0.011
1049	-0.011
1050	-0.011
1050	-0.011
1051	-0.011
1051	-0.011
1051	-0.01
1052	-0.01
1052	-0.01
1053	-0.01
1053	-0.009
1053	-0.009
1054	-0.008
1054	-0.008
1055	-0.007
1055	-0.007
1056	-0.007
1056	-0.007
1056	-0.008
1057	-0.008
1057	-0.009
1058	-0.008
1058	-0.009
1058	-0.009
1059	-0.009
1059	-0.01
1060	-0.01
1060	-0.01
1061	-0.009
1061	-0.009
1061	-0.008
1062	-0.008
1062	-0.009
1063	-0.009
1063	-0.009
1063	-0.009
1064	-0.009
1064	-0.009
1065	-0.009
1065	-0.01
1066	-0.01
1066	-0.01
1066	-0.01
1067	-0.01
1067	-0.01
1068	-0.01
1068	-0.01
1068	-0.01
1069	-0.01
1069	-0.01
1070	-0.01
1070	-0.01
1071	-0.01
1071	-0.009
1071	-0.009
1072	-0.008
1072	-0.007
1073	-0.006
1073	-0.005
1073	-0.005
1074	-0.004
1074	-0.003
1075	-0.002
1075	-0.001
1076	-0.001
1076	-0
1076	-0.001
1077	-0
1077	0.001
1078	0.001
1078	0.002
1078	0.003
1079	0.004
1079	0.005
1080	0.006
1080	0.007
1080	0.008
1081	0.009
1081	0.01
1082	0.01
1082	0.01
1083	0.01
1083	0.01
1083	0.011
1084	0.011
1084	0.011
1085	0.012
1085	0.012
1085	0.013
1086	0.013
1086	0.013
1087	0.015
1087	0.015
1088	0.016
1088	0.017
1088	0.018
1089	0.019
1089	0.02
1090	0.022
1090	0.024
1090	0.026
1091	0.027
1091	0.03
1092	0.032
1092	0.034
1092	0.036
1093	0.038
1093	0.04
1094	0.042
1094	0.043
1095	0.044
1095	0.046
1095	0.048
1096	0.05
1096	0.052
1097	0.053
1097	0.055
1097	0.057
1098	0.059
1098	0.061
1099	0.064
1099	0.067
1100	0.071
1100	0.073
1100	0.078
1101	0.082
1101	0.086
1102	0.091
1102	0.098
1102	0.104
1103	0.111
1103	0.118
1104	0.127
1104	0.136
1104	0.147
1105	0.156
1105	0.167
1106	0.178
1106	0.192
1107	0.205
1107	0.224
1107	0.247
1108	0.32
1108	0.426
1109	0.609
1109	1.128
1109	-0
1110	-0
1110	-0
1111	-0
1111	-0
