Data from 15c-2a_Absorbance__951__00951.txt Node

Date: Wed Jan 24 09:58:00 CET 2024
User: Marek
Spectrometer: MAYP115816
Trigger mode: 0
Integration Time (sec): 2.000000E-1
Scans to average: 10
Electric dark correction enabled: true
Nonlinearity correction enabled: true
Boxcar width: 5
XAxis mode: Wavelengths
Number of Pixels in Spectrum: 2068
>>>>>Begin Spectral Data<<<<<
199	-1.618
199	-1.462
200	-1.307
200	-1.187
201	-1.116
201	-1.065
202	-0.998
202	-0.945
203	-0.9
203	-0.862
204	-0.834
204	-0.811
205	-0.79
205	-0.781
205	-0.779
206	-0.776
206	-0.774
207	-0.77
207	-0.767
208	-0.766
208	-0.765
209	-0.764
209	-0.764
210	-0.764
210	-0.763
211	-0.762
211	-0.763
212	-0.761
212	-0.759
213	-0.757
213	-0.754
213	-0.752
214	-0.749
214	-0.745
215	-0.744
215	-0.74
216	-0.739
216	-0.737
217	-0.736
217	-0.736
218	-0.736
218	-0.735
219	-0.733
219	-0.731
220	-0.73
220	-0.729
221	-0.729
221	-0.726
221	-0.722
222	-0.716
222	-0.71
223	-0.704
223	-0.7
224	-0.692
224	-0.685
225	-0.677
225	-0.668
226	-0.659
226	-0.648
227	-0.636
227	-0.626
228	-0.61
228	-0.595
229	-0.575
229	-0.556
229	-0.533
230	-0.506
230	-0.477
231	-0.447
231	-0.416
232	-0.383
232	-0.348
233	-0.315
233	-0.279
234	-0.246
234	-0.213
235	-0.182
235	-0.152
236	-0.126
236	-0.1
236	-0.076
237	-0.053
237	-0.034
238	-0.016
238	0.001
239	0.015
239	0.029
240	0.042
240	0.052
241	0.062
241	0.071
242	0.079
242	0.086
243	0.093
243	0.098
243	0.104
244	0.109
244	0.113
245	0.117
245	0.121
246	0.125
246	0.128
247	0.131
247	0.135
248	0.138
248	0.141
249	0.143
249	0.146
250	0.148
250	0.151
250	0.153
251	0.155
251	0.157
252	0.16
252	0.161
253	0.163
253	0.165
254	0.167
254	0.168
255	0.17
255	0.171
256	0.172
256	0.173
257	0.174
257	0.175
258	0.176
258	0.176
258	0.177
259	0.177
259	0.178
260	0.178
260	0.178
261	0.178
261	0.178
262	0.178
262	0.178
263	0.178
263	0.177
264	0.177
264	0.176
265	0.176
265	0.175
265	0.174
266	0.174
266	0.173
267	0.172
267	0.171
268	0.169
268	0.168
269	0.167
269	0.165
270	0.164
270	0.162
271	0.161
271	0.159
272	0.158
272	0.156
272	0.155
273	0.153
273	0.151
274	0.15
274	0.149
275	0.147
275	0.146
276	0.144
276	0.142
277	0.141
277	0.139
278	0.137
278	0.135
278	0.134
279	0.132
279	0.13
280	0.128
280	0.126
281	0.125
281	0.123
282	0.122
282	0.12
283	0.119
283	0.117
284	0.116
284	0.115
285	0.113
285	0.112
285	0.111
286	0.109
286	0.108
287	0.107
287	0.105
288	0.104
288	0.103
289	0.102
289	0.101
290	0.1
290	0.099
291	0.098
291	0.097
292	0.096
292	0.095
292	0.094
293	0.093
293	0.093
294	0.092
294	0.092
295	0.091
295	0.09
296	0.09
296	0.089
297	0.089
297	0.088
298	0.087
298	0.087
298	0.087
299	0.086
299	0.086
300	0.085
300	0.085
301	0.085
301	0.084
302	0.084
302	0.084
303	0.083
303	0.083
304	0.083
304	0.083
305	0.082
305	0.082
305	0.082
306	0.082
306	0.081
307	0.081
307	0.081
308	0.08
308	0.08
309	0.08
309	0.079
310	0.079
310	0.079
311	0.079
311	0.079
311	0.078
312	0.078
312	0.078
313	0.078
313	0.077
314	0.077
314	0.077
315	0.077
315	0.076
316	0.076
316	0.076
317	0.075
317	0.075
318	0.075
318	0.075
318	0.074
319	0.074
319	0.074
320	0.073
320	0.073
321	0.072
321	0.072
322	0.072
322	0.072
323	0.071
323	0.071
324	0.071
324	0.07
324	0.07
325	0.07
325	0.07
326	0.069
326	0.069
327	0.069
327	0.068
328	0.068
328	0.068
329	0.068
329	0.067
330	0.067
330	0.067
330	0.067
331	0.066
331	0.066
332	0.066
332	0.065
333	0.065
333	0.065
334	0.064
334	0.064
335	0.064
335	0.063
336	0.063
336	0.063
336	0.062
337	0.062
337	0.062
338	0.062
338	0.061
339	0.061
339	0.061
340	0.061
340	0.061
341	0.06
341	0.06
342	0.06
342	0.06
342	0.059
343	0.059
343	0.059
344	0.059
344	0.058
345	0.058
345	0.058
346	0.058
346	0.058
347	0.058
347	0.057
348	0.057
348	0.057
348	0.057
349	0.057
349	0.056
350	0.056
350	0.056
351	0.056
351	0.055
352	0.055
352	0.055
353	0.055
353	0.054
354	0.054
354	0.054
354	0.054
355	0.053
355	0.053
356	0.053
356	0.053
357	0.052
357	0.052
358	0.052
358	0.052
359	0.052
359	0.052
360	0.052
360	0.052
360	0.052
361	0.052
361	0.052
362	0.053
362	0.053
363	0.053
363	0.053
364	0.053
364	0.053
365	0.052
365	0.052
366	0.052
366	0.052
366	0.052
367	0.052
367	0.052
368	0.052
368	0.052
369	0.051
369	0.051
370	0.051
370	0.051
371	0.051
371	0.051
372	0.051
372	0.051
372	0.051
373	0.051
373	0.051
374	0.051
374	0.051
375	0.051
375	0.051
376	0.051
376	0.051
377	0.051
377	0.051
378	0.051
378	0.051
378	0.051
379	0.051
379	0.051
380	0.051
380	0.051
381	0.051
381	0.051
382	0.051
382	0.051
383	0.05
383	0.05
383	0.05
384	0.05
384	0.05
385	0.05
385	0.05
386	0.05
386	0.05
387	0.05
387	0.05
388	0.05
388	0.05
389	0.05
389	0.05
389	0.05
390	0.05
390	0.051
391	0.051
391	0.051
392	0.051
392	0.051
393	0.051
393	0.051
394	0.051
394	0.051
394	0.051
395	0.051
395	0.05
396	0.05
396	0.05
397	0.05
397	0.05
398	0.05
398	0.051
399	0.05
399	0.05
400	0.05
400	0.05
400	0.05
401	0.05
401	0.05
402	0.05
402	0.049
403	0.049
403	0.049
404	0.049
404	0.049
405	0.049
405	0.049
405	0.049
406	0.049
406	0.049
407	0.049
407	0.048
408	0.048
408	0.048
409	0.048
409	0.048
410	0.048
410	0.048
411	0.048
411	0.048
411	0.048
412	0.048
412	0.048
413	0.048
413	0.047
414	0.047
414	0.047
415	0.047
415	0.047
416	0.047
416	0.047
416	0.047
417	0.047
417	0.047
418	0.047
418	0.047
419	0.047
419	0.048
420	0.048
420	0.048
421	0.048
421	0.049
421	0.049
422	0.049
422	0.049
423	0.048
423	0.048
424	0.048
424	0.048
425	0.047
425	0.047
426	0.047
426	0.047
427	0.047
427	0.047
427	0.047
428	0.047
428	0.048
429	0.048
429	0.048
430	0.048
430	0.047
431	0.047
431	0.047
432	0.047
432	0.047
432	0.047
433	0.046
433	0.046
434	0.046
434	0.046
435	0.046
435	0.046
436	0.046
436	0.046
437	0.046
437	0.046
437	0.045
438	0.045
438	0.045
439	0.045
439	0.045
440	0.045
440	0.045
441	0.045
441	0.045
442	0.045
442	0.045
442	0.046
443	0.046
443	0.046
444	0.046
444	0.046
445	0.046
445	0.046
446	0.046
446	0.046
447	0.046
447	0.045
447	0.045
448	0.045
448	0.045
449	0.045
449	0.045
450	0.045
450	0.045
451	0.045
451	0.045
452	0.045
452	0.045
452	0.045
453	0.045
453	0.044
454	0.044
454	0.044
455	0.044
455	0.044
456	0.044
456	0.043
457	0.043
457	0.043
458	0.043
458	0.043
458	0.043
459	0.043
459	0.043
460	0.043
460	0.043
461	0.042
461	0.043
462	0.043
462	0.043
463	0.043
463	0.044
463	0.044
464	0.044
464	0.044
465	0.044
465	0.044
466	0.044
466	0.044
467	0.044
467	0.044
467	0.043
468	0.043
468	0.042
469	0.042
469	0.042
470	0.041
470	0.041
471	0.041
471	0.041
472	0.041
472	0.041
472	0.041
473	0.042
473	0.042
474	0.042
474	0.042
475	0.043
475	0.043
476	0.043
476	0.043
477	0.043
477	0.043
477	0.043
478	0.043
478	0.043
479	0.043
479	0.044
480	0.044
480	0.045
481	0.045
481	0.045
482	0.046
482	0.046
482	0.047
483	0.047
483	0.049
484	0.049
484	0.049
485	0.049
485	0.05
486	0.05
486	0.05
487	0.05
487	0.05
487	0.05
488	0.05
488	0.049
489	0.049
489	0.049
490	0.05
490	0.05
491	0.05
491	0.05
492	0.05
492	0.051
492	0.051
493	0.052
493	0.052
494	0.053
494	0.053
495	0.054
495	0.054
496	0.055
496	0.055
496	0.055
497	0.056
497	0.056
498	0.056
498	0.057
499	0.057
499	0.057
500	0.057
500	0.058
501	0.058
501	0.059
501	0.059
502	0.06
502	0.06
503	0.06
503	0.061
504	0.061
504	0.061
505	0.061
505	0.061
506	0.061
506	0.062
506	0.062
507	0.062
507	0.062
508	0.062
508	0.063
509	0.063
509	0.064
510	0.064
510	0.065
511	0.064
511	0.064
511	0.064
512	0.065
512	0.065
513	0.065
513	0.064
514	0.064
514	0.064
515	0.064
515	0.065
515	0.065
516	0.065
516	0.066
517	0.066
517	0.067
518	0.067
518	0.067
519	0.067
519	0.066
520	0.066
520	0.065
520	0.065
521	0.064
521	0.063
522	0.062
522	0.061
523	0.061
523	0.061
524	0.061
524	0.062
524	0.063
525	0.064
525	0.064
526	0.065
526	0.066
527	0.067
527	0.067
528	0.068
528	0.068
529	0.068
529	0.068
529	0.067
530	0.067
530	0.067
531	0.067
531	0.067
532	0.066
532	0.066
533	0.066
533	0.065
533	0.065
534	0.065
534	0.064
535	0.064
535	0.063
536	0.063
536	0.063
537	0.063
537	0.063
538	0.063
538	0.062
538	0.062
539	0.062
539	0.062
540	0.061
540	0.061
541	0.06
541	0.059
542	0.059
542	0.058
542	0.057
543	0.057
543	0.056
544	0.056
544	0.056
545	0.056
545	0.056
546	0.056
546	0.056
547	0.055
547	0.055
547	0.054
548	0.054
548	0.054
549	0.053
549	0.052
550	0.052
550	0.051
551	0.05
551	0.05
551	0.05
552	0.049
552	0.049
553	0.049
553	0.049
554	0.049
554	0.049
555	0.048
555	0.047
556	0.047
556	0.046
556	0.045
557	0.044
557	0.044
558	0.043
558	0.042
559	0.042
559	0.042
560	0.042
560	0.041
560	0.041
561	0.042
561	0.042
562	0.042
562	0.042
563	0.041
563	0.041
564	0.04
564	0.039
564	0.038
565	0.037
565	0.036
566	0.035
566	0.035
567	0.034
567	0.034
568	0.034
568	0.035
568	0.035
569	0.036
569	0.037
570	0.037
570	0.037
571	0.037
571	0.038
572	0.038
572	0.038
573	0.038
573	0.038
573	0.037
574	0.037
574	0.037
575	0.037
575	0.038
576	0.039
576	0.038
577	0.038
577	0.038
577	0.038
578	0.037
578	0.038
579	0.039
579	0.039
580	0.039
580	0.037
581	0.036
581	0.036
581	0.036
582	0.036
582	0.036
583	0.036
583	0.035
584	0.033
584	0.031
585	0.031
585	0.031
585	0.031
586	0.031
586	0.031
587	0.03
587	0.029
588	0.028
588	0.027
589	0.027
589	0.027
590	0.027
590	0.027
590	0.028
591	0.029
591	0.028
592	0.028
592	0.027
593	0.028
593	0.027
594	0.027
594	0.026
594	0.026
595	0.026
595	0.025
596	0.025
596	0.026
597	0.028
597	0.028
598	0.028
598	0.029
598	0.03
599	0.03
599	0.029
600	0.029
600	0.028
601	0.028
601	0.028
602	0.027
602	0.027
602	0.027
603	0.027
603	0.028
604	0.028
604	0.029
605	0.03
605	0.031
606	0.031
606	0.03
606	0.03
607	0.029
607	0.029
608	0.029
608	0.028
609	0.028
609	0.027
610	0.026
610	0.026
610	0.026
611	0.026
611	0.026
612	0.027
612	0.027
613	0.028
613	0.028
614	0.028
614	0.028
614	0.028
615	0.028
615	0.027
616	0.028
616	0.027
617	0.027
617	0.026
618	0.026
618	0.026
618	0.026
619	0.026
619	0.027
620	0.028
620	0.028
621	0.028
621	0.029
622	0.029
622	0.029
622	0.029
623	0.028
623	0.029
624	0.029
624	0.028
625	0.027
625	0.027
626	0.027
626	0.026
626	0.027
627	0.027
627	0.027
628	0.028
628	0.028
629	0.028
629	0.028
630	0.028
630	0.027
630	0.028
631	0.028
631	0.028
632	0.028
632	0.028
633	0.028
633	0.029
634	0.03
634	0.031
634	0.032
635	0.033
635	0.033
636	0.034
636	0.035
637	0.035
637	0.036
638	0.036
638	0.037
638	0.038
639	0.038
639	0.039
640	0.04
640	0.04
641	0.041
641	0.043
642	0.044
642	0.045
642	0.046
643	0.046
643	0.047
644	0.047
644	0.047
645	0.048
645	0.048
646	0.049
646	0.05
646	0.051
647	0.052
647	0.053
648	0.054
648	0.056
649	0.057
649	0.059
650	0.06
650	0.061
650	0.062
651	0.063
651	0.064
652	0.065
652	0.066
653	0.068
653	0.072
653	0.074
654	0.061
654	0.051
655	0.051
655	0.052
656	0.053
656	0.054
657	0.055
657	0.055
657	0.056
658	0.054
658	0.052
659	0.065
659	0.081
660	0.086
660	0.087
661	0.087
661	0.088
661	0.089
662	0.09
662	0.091
663	0.093
663	0.094
664	0.094
664	0.095
665	0.096
665	0.098
665	0.099
666	0.1
666	0.102
667	0.103
667	0.104
668	0.105
668	0.106
669	0.107
669	0.109
669	0.11
670	0.112
670	0.113
671	0.114
671	0.115
672	0.116
672	0.117
672	0.118
673	0.119
673	0.12
674	0.121
674	0.121
675	0.121
675	0.121
676	0.122
676	0.122
676	0.123
677	0.123
677	0.124
678	0.124
678	0.124
679	0.124
679	0.125
680	0.125
680	0.126
680	0.126
681	0.126
681	0.127
682	0.127
682	0.128
683	0.129
683	0.13
684	0.131
684	0.131
684	0.131
685	0.131
685	0.132
686	0.132
686	0.132
687	0.132
687	0.132
687	0.132
688	0.132
688	0.132
689	0.133
689	0.133
690	0.133
690	0.133
691	0.132
691	0.132
691	0.131
692	0.13
692	0.13
693	0.129
693	0.129
694	0.128
694	0.127
695	0.127
695	0.128
695	0.127
696	0.126
696	0.125
697	0.124
697	0.123
698	0.122
698	0.121
698	0.12
699	0.119
699	0.118
700	0.117
700	0.117
701	0.117
701	0.117
702	0.117
702	0.118
702	0.118
703	0.117
703	0.117
704	0.117
704	0.116
705	0.117
705	0.116
705	0.115
706	0.114
706	0.113
707	0.112
707	0.111
708	0.11
708	0.109
709	0.108
709	0.106
709	0.104
710	0.102
710	0.101
711	0.1
711	0.099
712	0.098
712	0.097
713	0.096
713	0.096
713	0.095
714	0.094
714	0.093
715	0.093
715	0.092
716	0.091
716	0.091
716	0.091
717	0.09
717	0.09
718	0.089
718	0.088
719	0.088
719	0.087
720	0.086
720	0.085
720	0.083
721	0.081
721	0.08
722	0.079
722	0.077
723	0.077
723	0.076
723	0.075
724	0.073
724	0.072
725	0.071
725	0.07
726	0.069
726	0.068
727	0.066
727	0.065
727	0.063
728	0.062
728	0.061
729	0.061
729	0.06
730	0.059
730	0.059
730	0.058
731	0.058
731	0.057
732	0.057
732	0.057
733	0.057
733	0.057
734	0.057
734	0.056
734	0.056
735	0.055
735	0.054
736	0.053
736	0.053
737	0.052
737	0.051
737	0.05
738	0.049
738	0.047
739	0.046
739	0.045
740	0.044
740	0.043
741	0.042
741	0.041
741	0.039
742	0.037
742	0.036
743	0.035
743	0.034
744	0.033
744	0.032
744	0.03
745	0.03
745	0.029
746	0.029
746	0.028
747	0.028
747	0.028
748	0.028
748	0.029
748	0.029
749	0.028
749	0.028
750	0.028
750	0.028
751	0.027
751	0.026
751	0.026
752	0.025
752	0.023
753	0.022
753	0.021
754	0.02
754	0.019
754	0.019
755	0.018
755	0.019
756	0.018
756	0.017
757	0.017
757	0.017
758	0.017
758	0.017
758	0.017
759	0.017
759	0.016
760	0.015
760	0.014
761	0.014
761	0.014
761	0.014
762	0.014
762	0.014
763	0.014
763	0.013
764	0.012
764	0.012
764	0.011
765	0.01
765	0.009
766	0.009
766	0.009
767	0.008
767	0.007
768	0.005
768	0.004
768	0.003
769	0.003
769	0.001
770	-0
770	-0.002
771	-0.004
771	-0.007
771	-0.009
772	-0.011
772	-0.013
773	-0.015
773	-0.017
774	-0.018
774	-0.02
775	-0.021
775	-0.022
775	-0.023
776	-0.024
776	-0.025
777	-0.026
777	-0.028
778	-0.03
778	-0.033
778	-0.035
779	-0.037
779	-0.039
780	-0.042
780	-0.045
781	-0.048
781	-0.051
781	-0.055
782	-0.059
782	-0.064
783	-0.069
783	-0.073
784	-0.08
784	-0.086
784	-0.093
785	-0.1
785	-0.107
786	-0.111
786	-0.113
787	-0.113
787	-0.113
788	-0.116
788	-0.119
788	-0.122
789	-0.125
789	-0.125
790	-0.123
790	-0.122
791	-0.124
791	-0.126
791	-0.129
792	-0.125
792	-0.115
793	-0.109
793	-0.105
794	-0.103
794	-0.105
794	-0.108
795	-0.11
795	-0.109
796	-0.109
796	-0.111
797	-0.119
797	-0.13
797	-0.136
798	-0.141
798	-0.144
799	-0.144
799	-0.144
800	-0.144
800	-0.146
801	-0.149
801	-0.151
801	-0.151
802	-0.152
802	-0.153
803	-0.154
803	-0.154
804	-0.152
804	-0.146
804	-0.139
805	-0.135
805	-0.132
806	-0.129
806	-0.127
807	-0.126
807	-0.125
807	-0.125
808	-0.125
808	-0.126
809	-0.131
809	-0.137
810	-0.141
810	-0.144
810	-0.148
811	-0.152
811	-0.153
812	-0.15
812	-0.148
813	-0.148
813	-0.149
813	-0.151
814	-0.152
814	-0.152
815	-0.149
815	-0.146
816	-0.144
816	-0.144
817	-0.147
817	-0.147
817	-0.144
818	-0.14
818	-0.134
819	-0.127
819	-0.121
820	-0.117
820	-0.112
820	-0.106
821	-0.099
821	-0.091
822	-0.084
822	-0.077
823	-0.071
823	-0.066
823	-0.061
824	-0.056
824	-0.051
825	-0.046
825	-0.041
826	-0.036
826	-0.033
826	-0.031
827	-0.028
827	-0.026
828	-0.025
828	-0.023
829	-0.022
829	-0.02
829	-0.02
830	-0.02
830	-0.019
831	-0.017
831	-0.016
832	-0.015
832	-0.014
832	-0.013
833	-0.013
833	-0.013
834	-0.013
834	-0.012
835	-0.012
835	-0.012
835	-0.012
836	-0.012
836	-0.012
837	-0.011
837	-0.011
838	-0.01
838	-0.009
839	-0.008
839	-0.008
839	-0.007
840	-0.006
840	-0.006
841	-0.005
841	-0.005
842	-0.004
842	-0.004
842	-0.003
843	-0.003
843	-0.003
844	-0.002
844	-0.002
845	-0.001
845	-0.001
845	-0
846	-0
846	-0
847	-0
847	0
848	0.001
848	0.001
848	0.001
849	0.002
849	0.002
850	0.003
850	0.003
851	0.003
851	0.004
851	0.004
852	0.004
852	0.004
853	0.003
853	0.003
854	0.003
854	0.003
854	0.003
855	0.002
855	0.002
856	0.003
856	0.003
857	0.003
857	0.004
857	0.004
858	0.005
858	0.005
859	0.006
859	0.006
860	0.007
860	0.007
860	0.008
861	0.008
861	0.009
862	0.008
862	0.008
863	0.008
863	0.008
863	0.008
864	0.008
864	0.008
865	0.008
865	0.008
866	0.007
866	0.007
866	0.007
867	0.008
867	0.008
868	0.008
868	0.008
869	0.008
869	0.007
869	0.006
870	0.006
870	0.005
871	0.004
871	0.004
872	0.003
872	0.002
872	0.002
873	0.001
873	0.001
874	0.001
874	0.001
875	0.002
875	0.002
875	0.002
876	0.003
876	0.003
877	0.003
877	0.003
878	0.003
878	0.003
878	0.003
879	0.003
879	0.002
880	0.002
880	0.001
881	0.001
881	0
881	-0.001
882	-0.001
882	-0.002
883	-0.003
883	-0.003
884	-0.003
884	-0.003
884	-0.003
885	-0.002
885	-0.002
886	-0.001
886	-0
887	0
887	0.001
887	0.002
888	0.002
888	0.002
889	0.003
889	0.003
890	0.004
890	0.004
890	0.004
891	0.004
891	0.004
892	0.004
892	0.003
893	0.003
893	0.003
893	0.003
894	0.003
894	0.002
895	0.002
895	0.002
895	0.001
896	0
896	-0
897	-0.001
897	-0.001
898	-0.002
898	-0.003
898	-0.003
899	-0.004
899	-0.004
900	-0.005
900	-0.005
901	-0.006
901	-0.006
901	-0.007
902	-0.007
902	-0.007
903	-0.008
903	-0.008
904	-0.009
904	-0.009
904	-0.01
905	-0.009
905	-0.009
906	-0.009
906	-0.008
907	-0.008
907	-0.007
907	-0.006
908	-0.005
908	-0.004
909	-0.002
909	-0.001
910	0.001
910	0.003
910	0.004
911	0.005
911	0.007
912	0.008
912	0.009
913	0.01
913	0.011
913	0.011
914	0.011
914	0.011
915	0.01
915	0.01
916	0.01
916	0.01
916	0.01
917	0.009
917	0.009
918	0.008
918	0.008
918	0.007
919	0.006
919	0.005
920	0.004
920	0.003
921	0.001
921	0
921	-0.001
922	-0.002
922	-0.002
923	-0.003
923	-0.003
924	-0.003
924	-0.003
924	-0.003
925	-0.003
925	-0.003
926	-0.003
926	-0.003
927	-0.003
927	-0.003
927	-0.003
928	-0.003
928	-0.004
929	-0.004
929	-0.004
930	-0.005
930	-0.005
930	-0.006
931	-0.006
931	-0.007
932	-0.007
932	-0.007
933	-0.008
933	-0.008
933	-0.009
934	-0.01
934	-0.01
935	-0.011
935	-0.011
935	-0.012
936	-0.013
936	-0.013
937	-0.014
937	-0.014
938	-0.014
938	-0.014
938	-0.014
939	-0.013
939	-0.013
940	-0.013
940	-0.012
941	-0.012
941	-0.012
941	-0.012
942	-0.011
942	-0.011
943	-0.011
943	-0.011
944	-0.011
944	-0.01
944	-0.01
945	-0.009
945	-0.009
946	-0.008
946	-0.007
946	-0.007
947	-0.005
947	-0.004
948	-0.003
948	-0.002
949	-0.001
949	-0
949	0.001
950	0.001
950	0.002
951	0.003
951	0.004
952	0.004
952	0.005
952	0.005
953	0.005
953	0.006
954	0.006
954	0.006
955	0.006
955	0.005
955	0.005
956	0.005
956	0.005
957	0.004
957	0.003
957	0.003
958	0.002
958	0.001
959	0
959	-0.001
960	-0.002
960	-0.004
960	-0.005
961	-0.006
961	-0.007
962	-0.008
962	-0.009
963	-0.009
963	-0.01
963	-0.01
964	-0.01
964	-0.01
965	-0.01
965	-0.01
966	-0.01
966	-0.009
966	-0.009
967	-0.009
967	-0.009
968	-0.009
968	-0.008
968	-0.008
969	-0.008
969	-0.008
970	-0.008
970	-0.008
971	-0.008
971	-0.009
971	-0.009
972	-0.009
972	-0.01
973	-0.01
973	-0.01
974	-0.011
974	-0.01
974	-0.011
975	-0.01
975	-0.01
976	-0.01
976	-0.01
976	-0.01
977	-0.01
977	-0.01
978	-0.01
978	-0.01
979	-0.01
979	-0.01
979	-0.011
980	-0.011
980	-0.011
981	-0.012
981	-0.012
982	-0.012
982	-0.011
982	-0.011
983	-0.011
983	-0.011
984	-0.012
984	-0.012
984	-0.012
985	-0.012
985	-0.012
986	-0.013
986	-0.013
987	-0.013
987	-0.014
987	-0.014
988	-0.014
988	-0.014
989	-0.013
989	-0.013
990	-0.013
990	-0.013
990	-0.013
991	-0.012
991	-0.012
992	-0.011
992	-0.01
992	-0.01
993	-0.009
993	-0.008
994	-0.008
994	-0.007
995	-0.006
995	-0.005
995	-0.004
996	-0.004
996	-0.004
997	-0.003
997	-0.003
997	-0.003
998	-0.002
998	-0.002
999	-0.002
999	-0.002
1000	-0.003
1000	-0.003
1000	-0.003
1001	-0.003
1001	-0.004
1002	-0.004
1002	-0.005
1003	-0.005
1003	-0.006
1003	-0.006
1004	-0.007
1004	-0.007
1005	-0.008
1005	-0.009
1005	-0.009
1006	-0.01
1006	-0.01
1007	-0.011
1007	-0.011
1008	-0.011
1008	-0.012
1008	-0.012
1009	-0.012
1009	-0.012
1010	-0.012
1010	-0.011
1010	-0.011
1011	-0.011
1011	-0.01
1012	-0.009
1012	-0.008
1013	-0.008
1013	-0.007
1013	-0.006
1014	-0.006
1014	-0.006
1015	-0.006
1015	-0.005
1016	-0.005
1016	-0.006
1016	-0.006
1017	-0.006
1017	-0.006
1018	-0.006
1018	-0.007
1018	-0.007
1019	-0.007
1019	-0.007
1020	-0.008
1020	-0.008
1021	-0.009
1021	-0.009
1021	-0.01
1022	-0.011
1022	-0.012
1023	-0.013
1023	-0.014
1023	-0.015
1024	-0.016
1024	-0.017
1025	-0.018
1025	-0.019
1026	-0.019
1026	-0.019
1026	-0.019
1027	-0.019
1027	-0.018
1028	-0.018
1028	-0.017
1028	-0.016
1029	-0.015
1029	-0.014
1030	-0.014
1030	-0.013
1031	-0.013
1031	-0.012
1031	-0.011
1032	-0.011
1032	-0.011
1033	-0.011
1033	-0.011
1033	-0.011
1034	-0.012
1034	-0.013
1035	-0.013
1035	-0.014
1036	-0.014
1036	-0.015
1036	-0.015
1037	-0.015
1037	-0.015
1038	-0.015
1038	-0.015
1039	-0.015
1039	-0.015
1039	-0.015
1040	-0.015
1040	-0.015
1041	-0.015
1041	-0.015
1041	-0.016
1042	-0.017
1042	-0.017
1043	-0.018
1043	-0.018
1044	-0.019
1044	-0.02
1044	-0.02
1045	-0.021
1045	-0.022
1046	-0.022
1046	-0.023
1046	-0.023
1047	-0.023
1047	-0.023
1048	-0.023
1048	-0.023
1049	-0.023
1049	-0.023
1049	-0.023
1050	-0.023
1050	-0.024
1051	-0.024
1051	-0.024
1051	-0.023
1052	-0.024
1052	-0.024
1053	-0.024
1053	-0.024
1053	-0.024
1054	-0.023
1054	-0.023
1055	-0.022
1055	-0.022
1056	-0.022
1056	-0.023
1056	-0.024
1057	-0.024
1057	-0.024
1058	-0.024
1058	-0.025
1058	-0.025
1059	-0.026
1059	-0.027
1060	-0.027
1060	-0.028
1061	-0.028
1061	-0.027
1061	-0.027
1062	-0.028
1062	-0.028
1063	-0.028
1063	-0.029
1063	-0.029
1064	-0.029
1064	-0.029
1065	-0.029
1065	-0.029
1066	-0.029
1066	-0.029
1066	-0.029
1067	-0.029
1067	-0.029
1068	-0.029
1068	-0.028
1068	-0.028
1069	-0.029
1069	-0.028
1070	-0.028
1070	-0.029
1071	-0.029
1071	-0.028
1071	-0.028
1072	-0.028
1072	-0.027
1073	-0.027
1073	-0.026
1073	-0.025
1074	-0.025
1074	-0.024
1075	-0.024
1075	-0.024
1076	-0.024
1076	-0.024
1076	-0.024
1077	-0.024
1077	-0.023
1078	-0.023
1078	-0.022
1078	-0.022
1079	-0.021
1079	-0.02
1080	-0.019
1080	-0.018
1080	-0.018
1081	-0.017
1081	-0.016
1082	-0.016
1082	-0.016
1083	-0.016
1083	-0.016
1083	-0.015
1084	-0.015
1084	-0.015
1085	-0.014
1085	-0.014
1085	-0.013
1086	-0.013
1086	-0.013
1087	-0.012
1087	-0.012
1088	-0.012
1088	-0.011
1088	-0.011
1089	-0.01
1089	-0.01
1090	-0.009
1090	-0.008
1090	-0.007
1091	-0.006
1091	-0.005
1092	-0.003
1092	-0.001
1092	0
1093	0.002
1093	0.004
1094	0.005
1094	0.006
1095	0.007
1095	0.008
1095	0.011
1096	0.012
1096	0.014
1097	0.015
1097	0.016
1097	0.018
1098	0.019
1098	0.021
1099	0.023
1099	0.025
1100	0.029
1100	0.03
1100	0.033
1101	0.035
1101	0.038
1102	0.043
1102	0.047
1102	0.051
1103	0.056
1103	0.061
1104	0.066
1104	0.071
1104	0.078
1105	0.085
1105	0.092
1106	0.099
1106	0.106
1107	0.115
1107	0.129
1107	0.144
1108	0.195
1108	0.268
1109	0.38
1109	0.588
1109	0.802
1110	2.383
1110	-0
1111	-0
1111	-0
