Data from 15c-2a_Absorbance__1261__01261.txt Node

Date: Wed Jan 24 10:08:20 CET 2024
User: Marek
Spectrometer: MAYP115816
Trigger mode: 0
Integration Time (sec): 2.000000E-1
Scans to average: 10
Electric dark correction enabled: true
Nonlinearity correction enabled: true
Boxcar width: 5
XAxis mode: Wavelengths
Number of Pixels in Spectrum: 2068
>>>>>Begin Spectral Data<<<<<
199	-1.611
199	-1.456
200	-1.301
200	-1.181
201	-1.112
201	-1.062
202	-0.995
202	-0.944
203	-0.899
203	-0.862
204	-0.834
204	-0.811
205	-0.79
205	-0.781
205	-0.78
206	-0.777
206	-0.775
207	-0.772
207	-0.769
208	-0.768
208	-0.767
209	-0.765
209	-0.766
210	-0.766
210	-0.765
211	-0.764
211	-0.764
212	-0.761
212	-0.759
213	-0.756
213	-0.754
213	-0.751
214	-0.749
214	-0.746
215	-0.745
215	-0.741
216	-0.74
216	-0.738
217	-0.736
217	-0.738
218	-0.738
218	-0.738
219	-0.735
219	-0.734
220	-0.732
220	-0.731
221	-0.731
221	-0.729
221	-0.724
222	-0.718
222	-0.712
223	-0.706
223	-0.7
224	-0.693
224	-0.685
225	-0.677
225	-0.668
226	-0.659
226	-0.648
227	-0.637
227	-0.627
228	-0.612
228	-0.596
229	-0.577
229	-0.557
229	-0.534
230	-0.508
230	-0.478
231	-0.448
231	-0.416
232	-0.382
232	-0.348
233	-0.314
233	-0.279
234	-0.245
234	-0.212
235	-0.18
235	-0.15
236	-0.123
236	-0.096
236	-0.072
237	-0.049
237	-0.029
238	-0.01
238	0.007
239	0.022
239	0.036
240	0.049
240	0.06
241	0.07
241	0.078
242	0.086
242	0.093
243	0.1
243	0.106
243	0.111
244	0.116
244	0.12
245	0.124
245	0.128
246	0.132
246	0.135
247	0.139
247	0.142
248	0.145
248	0.147
249	0.15
249	0.153
250	0.155
250	0.158
250	0.16
251	0.163
251	0.165
252	0.167
252	0.168
253	0.17
253	0.172
254	0.174
254	0.175
255	0.177
255	0.178
256	0.179
256	0.18
257	0.181
257	0.182
258	0.182
258	0.183
258	0.183
259	0.184
259	0.184
260	0.185
260	0.185
261	0.185
261	0.185
262	0.184
262	0.184
263	0.184
263	0.184
264	0.183
264	0.183
265	0.182
265	0.182
265	0.181
266	0.18
266	0.179
267	0.178
267	0.177
268	0.176
268	0.175
269	0.174
269	0.172
270	0.171
270	0.169
271	0.168
271	0.166
272	0.165
272	0.163
272	0.161
273	0.16
273	0.158
274	0.157
274	0.155
275	0.153
275	0.152
276	0.15
276	0.149
277	0.147
277	0.145
278	0.143
278	0.141
278	0.14
279	0.138
279	0.136
280	0.134
280	0.132
281	0.13
281	0.129
282	0.127
282	0.126
283	0.125
283	0.123
284	0.122
284	0.121
285	0.119
285	0.118
285	0.116
286	0.115
286	0.114
287	0.113
287	0.111
288	0.11
288	0.109
289	0.108
289	0.107
290	0.105
290	0.104
291	0.103
291	0.102
292	0.102
292	0.101
292	0.1
293	0.099
293	0.098
294	0.098
294	0.097
295	0.096
295	0.096
296	0.095
296	0.095
297	0.094
297	0.094
298	0.093
298	0.093
298	0.092
299	0.092
299	0.091
300	0.091
300	0.09
301	0.09
301	0.09
302	0.089
302	0.089
303	0.089
303	0.089
304	0.088
304	0.088
305	0.088
305	0.087
305	0.087
306	0.087
306	0.087
307	0.086
307	0.086
308	0.086
308	0.085
309	0.085
309	0.085
310	0.085
310	0.084
311	0.084
311	0.084
311	0.084
312	0.083
312	0.083
313	0.083
313	0.083
314	0.082
314	0.082
315	0.082
315	0.081
316	0.081
316	0.081
317	0.08
317	0.08
318	0.08
318	0.08
318	0.079
319	0.079
319	0.079
320	0.078
320	0.078
321	0.078
321	0.077
322	0.077
322	0.077
323	0.076
323	0.076
324	0.076
324	0.076
324	0.075
325	0.075
325	0.075
326	0.074
326	0.074
327	0.074
327	0.073
328	0.073
328	0.073
329	0.073
329	0.072
330	0.072
330	0.072
330	0.071
331	0.071
331	0.071
332	0.07
332	0.07
333	0.069
333	0.069
334	0.069
334	0.068
335	0.068
335	0.068
336	0.067
336	0.067
336	0.067
337	0.067
337	0.067
338	0.067
338	0.066
339	0.066
339	0.066
340	0.065
340	0.065
341	0.065
341	0.065
342	0.064
342	0.064
342	0.064
343	0.063
343	0.063
344	0.063
344	0.063
345	0.063
345	0.063
346	0.063
346	0.062
347	0.062
347	0.062
348	0.062
348	0.061
348	0.061
349	0.061
349	0.061
350	0.061
350	0.06
351	0.06
351	0.06
352	0.06
352	0.059
353	0.059
353	0.059
354	0.059
354	0.058
354	0.058
355	0.058
355	0.057
356	0.057
356	0.057
357	0.056
357	0.056
358	0.056
358	0.056
359	0.056
359	0.056
360	0.056
360	0.056
360	0.056
361	0.056
361	0.057
362	0.057
362	0.057
363	0.057
363	0.057
364	0.057
364	0.057
365	0.057
365	0.057
366	0.057
366	0.056
366	0.056
367	0.056
367	0.056
368	0.056
368	0.056
369	0.056
369	0.056
370	0.056
370	0.056
371	0.056
371	0.055
372	0.055
372	0.055
372	0.055
373	0.055
373	0.055
374	0.055
374	0.055
375	0.055
375	0.055
376	0.055
376	0.055
377	0.055
377	0.055
378	0.055
378	0.055
378	0.055
379	0.055
379	0.055
380	0.055
380	0.055
381	0.055
381	0.055
382	0.055
382	0.055
383	0.055
383	0.054
383	0.054
384	0.054
384	0.054
385	0.054
385	0.054
386	0.054
386	0.055
387	0.055
387	0.055
388	0.054
388	0.054
389	0.054
389	0.054
389	0.054
390	0.054
390	0.054
391	0.054
391	0.055
392	0.055
392	0.055
393	0.055
393	0.055
394	0.055
394	0.055
394	0.055
395	0.055
395	0.054
396	0.054
396	0.054
397	0.054
397	0.055
398	0.055
398	0.055
399	0.055
399	0.055
400	0.054
400	0.054
400	0.054
401	0.054
401	0.053
402	0.053
402	0.053
403	0.053
403	0.053
404	0.054
404	0.054
405	0.053
405	0.053
405	0.053
406	0.053
406	0.053
407	0.053
407	0.053
408	0.053
408	0.053
409	0.052
409	0.052
410	0.052
410	0.052
411	0.053
411	0.053
411	0.052
412	0.052
412	0.052
413	0.052
413	0.052
414	0.052
414	0.052
415	0.052
415	0.052
416	0.052
416	0.052
416	0.052
417	0.052
417	0.052
418	0.051
418	0.051
419	0.051
419	0.052
420	0.052
420	0.052
421	0.052
421	0.052
421	0.052
422	0.052
422	0.052
423	0.052
423	0.052
424	0.052
424	0.052
425	0.051
425	0.051
426	0.051
426	0.051
427	0.051
427	0.051
427	0.051
428	0.051
428	0.052
429	0.052
429	0.052
430	0.052
430	0.052
431	0.051
431	0.051
432	0.051
432	0.051
432	0.051
433	0.051
433	0.05
434	0.05
434	0.05
435	0.05
435	0.05
436	0.05
436	0.05
437	0.05
437	0.049
437	0.049
438	0.049
438	0.049
439	0.049
439	0.049
440	0.049
440	0.05
441	0.05
441	0.05
442	0.05
442	0.05
442	0.05
443	0.05
443	0.05
444	0.05
444	0.05
445	0.05
445	0.05
446	0.05
446	0.05
447	0.05
447	0.05
447	0.05
448	0.05
448	0.05
449	0.05
449	0.049
450	0.049
450	0.049
451	0.049
451	0.049
452	0.049
452	0.049
452	0.048
453	0.048
453	0.048
454	0.048
454	0.048
455	0.048
455	0.047
456	0.047
456	0.047
457	0.046
457	0.046
458	0.046
458	0.046
458	0.046
459	0.047
459	0.047
460	0.046
460	0.046
461	0.046
461	0.046
462	0.046
462	0.047
463	0.047
463	0.048
463	0.048
464	0.048
464	0.048
465	0.048
465	0.048
466	0.048
466	0.048
467	0.048
467	0.048
467	0.047
468	0.046
468	0.046
469	0.045
469	0.045
470	0.045
470	0.045
471	0.045
471	0.045
472	0.045
472	0.045
472	0.045
473	0.046
473	0.046
474	0.047
474	0.047
475	0.047
475	0.047
476	0.047
476	0.047
477	0.047
477	0.047
477	0.047
478	0.047
478	0.047
479	0.048
479	0.048
480	0.048
480	0.049
481	0.049
481	0.049
482	0.05
482	0.05
482	0.051
483	0.051
483	0.053
484	0.053
484	0.053
485	0.053
485	0.054
486	0.054
486	0.054
487	0.054
487	0.054
487	0.054
488	0.054
488	0.053
489	0.053
489	0.053
490	0.053
490	0.053
491	0.054
491	0.054
492	0.054
492	0.055
492	0.055
493	0.056
493	0.056
494	0.057
494	0.058
495	0.058
495	0.058
496	0.059
496	0.059
496	0.06
497	0.06
497	0.061
498	0.061
498	0.061
499	0.061
499	0.061
500	0.062
500	0.063
501	0.063
501	0.064
501	0.064
502	0.065
502	0.065
503	0.066
503	0.067
504	0.067
504	0.067
505	0.067
505	0.067
506	0.068
506	0.068
506	0.068
507	0.068
507	0.068
508	0.069
508	0.069
509	0.07
509	0.07
510	0.07
510	0.071
511	0.07
511	0.071
511	0.071
512	0.071
512	0.071
513	0.071
513	0.07
514	0.07
514	0.071
515	0.071
515	0.071
515	0.072
516	0.072
516	0.073
517	0.073
517	0.073
518	0.074
518	0.074
519	0.073
519	0.073
520	0.072
520	0.072
520	0.071
521	0.07
521	0.069
522	0.068
522	0.068
523	0.068
523	0.068
524	0.068
524	0.068
524	0.069
525	0.07
525	0.071
526	0.071
526	0.072
527	0.072
527	0.073
528	0.073
528	0.073
529	0.073
529	0.073
529	0.073
530	0.072
530	0.072
531	0.072
531	0.072
532	0.071
532	0.071
533	0.071
533	0.07
533	0.07
534	0.07
534	0.069
535	0.069
535	0.069
536	0.068
536	0.068
537	0.068
537	0.068
538	0.067
538	0.067
538	0.067
539	0.067
539	0.066
540	0.066
540	0.065
541	0.065
541	0.064
542	0.064
542	0.063
542	0.063
543	0.062
543	0.062
544	0.061
544	0.061
545	0.061
545	0.061
546	0.062
546	0.061
547	0.06
547	0.059
547	0.058
548	0.058
548	0.057
549	0.057
549	0.056
550	0.055
550	0.054
551	0.053
551	0.053
551	0.053
552	0.052
552	0.052
553	0.052
553	0.052
554	0.052
554	0.051
555	0.05
555	0.05
556	0.049
556	0.048
556	0.048
557	0.047
557	0.047
558	0.046
558	0.046
559	0.045
559	0.045
560	0.045
560	0.044
560	0.044
561	0.045
561	0.045
562	0.045
562	0.044
563	0.044
563	0.043
564	0.042
564	0.041
564	0.041
565	0.04
565	0.039
566	0.038
566	0.038
567	0.038
567	0.038
568	0.038
568	0.038
568	0.039
569	0.04
569	0.041
570	0.041
570	0.04
571	0.041
571	0.041
572	0.041
572	0.041
573	0.041
573	0.041
573	0.041
574	0.04
574	0.04
575	0.04
575	0.041
576	0.042
576	0.041
577	0.041
577	0.04
577	0.04
578	0.04
578	0.04
579	0.041
579	0.042
580	0.041
580	0.039
581	0.038
581	0.037
581	0.037
582	0.038
582	0.038
583	0.038
583	0.037
584	0.035
584	0.033
585	0.033
585	0.033
585	0.034
586	0.034
586	0.034
587	0.033
587	0.031
588	0.031
588	0.03
589	0.03
589	0.031
590	0.031
590	0.031
590	0.032
591	0.033
591	0.032
592	0.032
592	0.031
593	0.031
593	0.031
594	0.031
594	0.03
594	0.029
595	0.029
595	0.028
596	0.027
596	0.029
597	0.031
597	0.031
598	0.031
598	0.032
598	0.032
599	0.033
599	0.032
600	0.031
600	0.031
601	0.03
601	0.03
602	0.029
602	0.029
602	0.029
603	0.029
603	0.03
604	0.031
604	0.032
605	0.033
605	0.034
606	0.034
606	0.033
606	0.033
607	0.032
607	0.032
608	0.032
608	0.03
609	0.03
609	0.029
610	0.029
610	0.028
610	0.028
611	0.029
611	0.029
612	0.03
612	0.03
613	0.031
613	0.032
614	0.031
614	0.031
614	0.031
615	0.031
615	0.03
616	0.03
616	0.03
617	0.03
617	0.029
618	0.029
618	0.029
618	0.029
619	0.029
619	0.03
620	0.031
620	0.032
621	0.032
621	0.032
622	0.032
622	0.032
622	0.031
623	0.03
623	0.031
624	0.031
624	0.03
625	0.03
625	0.03
626	0.029
626	0.029
626	0.03
627	0.031
627	0.032
628	0.032
628	0.033
629	0.033
629	0.033
630	0.033
630	0.033
630	0.033
631	0.033
631	0.033
632	0.033
632	0.033
633	0.033
633	0.034
634	0.035
634	0.036
634	0.037
635	0.038
635	0.039
636	0.039
636	0.04
637	0.041
637	0.041
638	0.042
638	0.043
638	0.044
639	0.044
639	0.044
640	0.045
640	0.046
641	0.047
641	0.049
642	0.05
642	0.051
642	0.052
643	0.052
643	0.052
644	0.052
644	0.053
645	0.053
645	0.053
646	0.054
646	0.055
646	0.056
647	0.057
647	0.058
648	0.06
648	0.061
649	0.063
649	0.065
650	0.067
650	0.068
650	0.069
651	0.07
651	0.071
652	0.072
652	0.073
653	0.075
653	0.08
653	0.083
654	0.069
654	0.057
655	0.057
655	0.058
656	0.06
656	0.061
657	0.062
657	0.062
657	0.063
658	0.06
658	0.057
659	0.071
659	0.088
660	0.093
660	0.094
661	0.094
661	0.094
661	0.095
662	0.096
662	0.097
663	0.098
663	0.099
664	0.101
664	0.102
665	0.103
665	0.105
665	0.107
666	0.108
666	0.11
667	0.111
667	0.112
668	0.114
668	0.115
669	0.117
669	0.119
669	0.121
670	0.123
670	0.124
671	0.126
671	0.127
672	0.128
672	0.13
672	0.131
673	0.132
673	0.133
674	0.133
674	0.133
675	0.133
675	0.134
676	0.134
676	0.135
676	0.135
677	0.135
677	0.136
678	0.136
678	0.136
679	0.136
679	0.136
680	0.137
680	0.138
680	0.137
681	0.138
681	0.138
682	0.138
682	0.138
683	0.139
683	0.141
684	0.142
684	0.142
684	0.142
685	0.143
685	0.143
686	0.144
686	0.144
687	0.144
687	0.144
687	0.144
688	0.144
688	0.144
689	0.144
689	0.145
690	0.144
690	0.144
691	0.143
691	0.143
691	0.143
692	0.142
692	0.141
693	0.141
693	0.141
694	0.14
694	0.139
695	0.14
695	0.14
695	0.139
696	0.138
696	0.137
697	0.137
697	0.136
698	0.135
698	0.134
698	0.133
699	0.132
699	0.131
700	0.129
700	0.129
701	0.129
701	0.129
702	0.129
702	0.128
702	0.128
703	0.127
703	0.126
704	0.126
704	0.125
705	0.125
705	0.124
705	0.123
706	0.122
706	0.121
707	0.12
707	0.119
708	0.118
708	0.117
709	0.116
709	0.114
709	0.112
710	0.11
710	0.109
711	0.108
711	0.107
712	0.106
712	0.105
713	0.104
713	0.103
713	0.103
714	0.102
714	0.101
715	0.101
715	0.1
716	0.099
716	0.1
716	0.099
717	0.099
717	0.099
718	0.098
718	0.097
719	0.096
719	0.096
720	0.095
720	0.094
720	0.092
721	0.09
721	0.089
722	0.088
722	0.086
723	0.085
723	0.084
723	0.083
724	0.081
724	0.08
725	0.079
725	0.078
726	0.076
726	0.075
727	0.073
727	0.072
727	0.07
728	0.069
728	0.068
729	0.067
729	0.067
730	0.066
730	0.065
730	0.064
731	0.064
731	0.063
732	0.064
732	0.063
733	0.063
733	0.063
734	0.062
734	0.062
734	0.061
735	0.061
735	0.06
736	0.059
736	0.058
737	0.057
737	0.057
737	0.056
738	0.054
738	0.052
739	0.051
739	0.05
740	0.049
740	0.049
741	0.048
741	0.047
741	0.045
742	0.043
742	0.041
743	0.04
743	0.038
744	0.037
744	0.036
744	0.034
745	0.033
745	0.032
746	0.031
746	0.03
747	0.03
747	0.031
748	0.031
748	0.031
748	0.031
749	0.031
749	0.031
750	0.031
750	0.031
751	0.031
751	0.03
751	0.03
752	0.029
752	0.028
753	0.027
753	0.027
754	0.026
754	0.025
754	0.025
755	0.025
755	0.026
756	0.025
756	0.024
757	0.024
757	0.024
758	0.024
758	0.023
758	0.023
759	0.022
759	0.021
760	0.019
760	0.018
761	0.017
761	0.017
761	0.016
762	0.015
762	0.015
763	0.015
763	0.014
764	0.013
764	0.012
764	0.012
765	0.011
765	0.011
766	0.011
766	0.011
767	0.01
767	0.009
768	0.007
768	0.006
768	0.005
769	0.004
769	0.003
770	0.001
770	-0.001
771	-0.003
771	-0.006
771	-0.009
772	-0.01
772	-0.012
773	-0.014
773	-0.015
774	-0.017
774	-0.018
775	-0.018
775	-0.019
775	-0.02
776	-0.021
776	-0.022
777	-0.023
777	-0.025
778	-0.027
778	-0.029
778	-0.031
779	-0.033
779	-0.035
780	-0.038
780	-0.041
781	-0.044
781	-0.047
781	-0.051
782	-0.055
782	-0.06
783	-0.065
783	-0.069
784	-0.076
784	-0.082
784	-0.089
785	-0.095
785	-0.102
786	-0.108
786	-0.11
787	-0.11
787	-0.11
788	-0.113
788	-0.117
788	-0.12
789	-0.123
789	-0.124
790	-0.123
790	-0.122
791	-0.124
791	-0.126
791	-0.129
792	-0.125
792	-0.115
793	-0.109
793	-0.105
794	-0.103
794	-0.105
794	-0.108
795	-0.11
795	-0.109
796	-0.109
796	-0.111
797	-0.119
797	-0.13
797	-0.136
798	-0.141
798	-0.144
799	-0.144
799	-0.144
800	-0.144
800	-0.146
801	-0.149
801	-0.151
801	-0.151
802	-0.152
802	-0.153
803	-0.154
803	-0.154
804	-0.152
804	-0.147
804	-0.139
805	-0.135
805	-0.132
806	-0.129
806	-0.127
807	-0.126
807	-0.125
807	-0.125
808	-0.125
808	-0.126
809	-0.131
809	-0.137
810	-0.141
810	-0.144
810	-0.148
811	-0.152
811	-0.153
812	-0.15
812	-0.148
813	-0.148
813	-0.149
813	-0.151
814	-0.152
814	-0.152
815	-0.149
815	-0.146
816	-0.144
816	-0.144
817	-0.147
817	-0.148
817	-0.145
818	-0.14
818	-0.134
819	-0.127
819	-0.121
820	-0.117
820	-0.112
820	-0.106
821	-0.099
821	-0.091
822	-0.084
822	-0.077
823	-0.07
823	-0.065
823	-0.06
824	-0.055
824	-0.05
825	-0.045
825	-0.039
826	-0.035
826	-0.032
826	-0.03
827	-0.027
827	-0.025
828	-0.023
828	-0.022
829	-0.02
829	-0.019
829	-0.019
830	-0.019
830	-0.018
831	-0.017
831	-0.016
832	-0.015
832	-0.014
832	-0.013
833	-0.013
833	-0.012
834	-0.011
834	-0.011
835	-0.01
835	-0.009
835	-0.008
836	-0.007
836	-0.007
837	-0.006
837	-0.005
838	-0.004
838	-0.004
839	-0.003
839	-0.002
839	-0.002
840	-0.002
840	-0.001
841	-0.001
841	-0.001
842	-0.001
842	-0
842	-0
843	0
843	0
844	0.001
844	0.001
845	0.002
845	0.002
845	0.002
846	0.002
846	0.001
847	0.001
847	0.002
848	0.002
848	0.002
848	0.002
849	0.003
849	0.004
850	0.004
850	0.005
851	0.005
851	0.006
851	0.006
852	0.006
852	0.006
853	0.006
853	0.005
854	0.005
854	0.004
854	0.004
855	0.003
855	0.003
856	0.003
856	0.003
857	0.003
857	0.003
857	0.003
858	0.004
858	0.004
859	0.005
859	0.005
860	0.006
860	0.007
860	0.008
861	0.008
861	0.009
862	0.009
862	0.009
863	0.009
863	0.009
863	0.009
864	0.008
864	0.008
865	0.009
865	0.009
866	0.009
866	0.009
866	0.01
867	0.011
867	0.011
868	0.012
868	0.012
869	0.013
869	0.013
869	0.012
870	0.012
870	0.011
871	0.01
871	0.01
872	0.009
872	0.008
872	0.007
873	0.007
873	0.006
874	0.006
874	0.006
875	0.006
875	0.006
875	0.006
876	0.006
876	0.006
877	0.006
877	0.005
878	0.005
878	0.005
878	0.004
879	0.004
879	0.003
880	0.003
880	0.002
881	0.002
881	0.001
881	0.001
882	0
882	-0
883	-0.001
883	-0.001
884	-0.001
884	-0.001
884	-0.001
885	-0.001
885	-0
886	0
886	0.001
887	0.001
887	0.002
887	0.003
888	0.003
888	0.004
889	0.004
889	0.005
890	0.006
890	0.006
890	0.006
891	0.007
891	0.007
892	0.007
892	0.007
893	0.007
893	0.006
893	0.006
894	0.006
894	0.006
895	0.005
895	0.005
895	0.004
896	0.003
896	0.002
897	0.001
897	-0.001
898	-0.002
898	-0.003
898	-0.004
899	-0.005
899	-0.006
900	-0.006
900	-0.007
901	-0.007
901	-0.008
901	-0.008
902	-0.008
902	-0.008
903	-0.008
903	-0.009
904	-0.009
904	-0.009
904	-0.01
905	-0.009
905	-0.009
906	-0.009
906	-0.008
907	-0.008
907	-0.007
907	-0.006
908	-0.006
908	-0.005
909	-0.003
909	-0.002
910	-0.001
910	-0
910	0.001
911	0.001
911	0.002
912	0.003
912	0.004
913	0.004
913	0.004
913	0.004
914	0.004
914	0.004
915	0.004
915	0.004
916	0.005
916	0.005
916	0.005
917	0.006
917	0.006
918	0.006
918	0.006
918	0.005
919	0.005
919	0.004
920	0.003
920	0.002
921	0.001
921	-0
921	-0.001
922	-0.002
922	-0.002
923	-0.003
923	-0.003
924	-0.003
924	-0.002
924	-0.002
925	-0.002
925	-0.001
926	-0.001
926	-0
927	-0
927	-0
927	0
928	0
928	0.001
929	0.001
929	0.001
930	0
930	0
930	0
931	-0
931	-0.001
932	-0.001
932	-0.002
933	-0.002
933	-0.003
933	-0.004
934	-0.005
934	-0.006
935	-0.007
935	-0.008
935	-0.009
936	-0.01
936	-0.011
937	-0.011
937	-0.011
938	-0.011
938	-0.011
938	-0.011
939	-0.011
939	-0.01
940	-0.01
940	-0.01
941	-0.01
941	-0.01
941	-0.01
942	-0.009
942	-0.01
943	-0.01
943	-0.01
944	-0.01
944	-0.01
944	-0.009
945	-0.008
945	-0.007
946	-0.006
946	-0.005
946	-0.004
947	-0.003
947	-0.002
948	-0.001
948	0
949	0.001
949	0.002
949	0.003
950	0.005
950	0.005
951	0.006
951	0.007
952	0.007
952	0.007
952	0.008
953	0.008
953	0.008
954	0.008
954	0.008
955	0.007
955	0.007
955	0.007
956	0.007
956	0.007
957	0.006
957	0.006
957	0.005
958	0.004
958	0.003
959	0.002
959	0.001
960	0
960	-0.001
960	-0.002
961	-0.004
961	-0.005
962	-0.006
962	-0.006
963	-0.007
963	-0.008
963	-0.008
964	-0.008
964	-0.008
965	-0.008
965	-0.008
966	-0.008
966	-0.007
966	-0.007
967	-0.007
967	-0.006
968	-0.006
968	-0.006
968	-0.005
969	-0.005
969	-0.005
970	-0.005
970	-0.006
971	-0.006
971	-0.006
971	-0.007
972	-0.007
972	-0.008
973	-0.008
973	-0.009
974	-0.01
974	-0.01
974	-0.01
975	-0.01
975	-0.01
976	-0.01
976	-0.009
976	-0.009
977	-0.009
977	-0.009
978	-0.01
978	-0.01
979	-0.01
979	-0.011
979	-0.011
980	-0.011
980	-0.012
981	-0.012
981	-0.012
982	-0.012
982	-0.012
982	-0.012
983	-0.012
983	-0.012
984	-0.012
984	-0.012
984	-0.013
985	-0.013
985	-0.013
986	-0.013
986	-0.013
987	-0.013
987	-0.013
987	-0.012
988	-0.012
988	-0.011
989	-0.011
989	-0.011
990	-0.01
990	-0.01
990	-0.009
991	-0.009
991	-0.008
992	-0.007
992	-0.007
992	-0.007
993	-0.006
993	-0.006
994	-0.006
994	-0.005
995	-0.005
995	-0.005
995	-0.005
996	-0.005
996	-0.005
997	-0.005
997	-0.005
997	-0.005
998	-0.005
998	-0.005
999	-0.005
999	-0.006
1000	-0.006
1000	-0.007
1000	-0.007
1001	-0.008
1001	-0.008
1002	-0.009
1002	-0.009
1003	-0.01
1003	-0.01
1003	-0.01
1004	-0.011
1004	-0.011
1005	-0.011
1005	-0.011
1005	-0.011
1006	-0.012
1006	-0.012
1007	-0.012
1007	-0.012
1008	-0.012
1008	-0.012
1008	-0.012
1009	-0.013
1009	-0.012
1010	-0.012
1010	-0.012
1010	-0.012
1011	-0.011
1011	-0.01
1012	-0.01
1012	-0.009
1013	-0.008
1013	-0.008
1013	-0.007
1014	-0.007
1014	-0.007
1015	-0.007
1015	-0.006
1016	-0.006
1016	-0.007
1016	-0.007
1017	-0.007
1017	-0.008
1018	-0.008
1018	-0.008
1018	-0.008
1019	-0.009
1019	-0.009
1020	-0.009
1020	-0.01
1021	-0.01
1021	-0.011
1021	-0.011
1022	-0.012
1022	-0.013
1023	-0.014
1023	-0.015
1023	-0.016
1024	-0.018
1024	-0.019
1025	-0.02
1025	-0.02
1026	-0.021
1026	-0.021
1026	-0.021
1027	-0.021
1027	-0.021
1028	-0.02
1028	-0.019
1028	-0.018
1029	-0.017
1029	-0.016
1030	-0.015
1030	-0.014
1031	-0.013
1031	-0.013
1031	-0.012
1032	-0.012
1032	-0.012
1033	-0.012
1033	-0.012
1033	-0.013
1034	-0.014
1034	-0.014
1035	-0.015
1035	-0.016
1036	-0.017
1036	-0.018
1036	-0.018
1037	-0.019
1037	-0.019
1038	-0.019
1038	-0.019
1039	-0.019
1039	-0.019
1039	-0.018
1040	-0.018
1040	-0.018
1041	-0.018
1041	-0.019
1041	-0.019
1042	-0.019
1042	-0.02
1043	-0.021
1043	-0.022
1044	-0.022
1044	-0.023
1044	-0.023
1045	-0.024
1045	-0.025
1046	-0.025
1046	-0.026
1046	-0.026
1047	-0.026
1047	-0.025
1048	-0.025
1048	-0.026
1049	-0.025
1049	-0.026
1049	-0.026
1050	-0.026
1050	-0.027
1051	-0.027
1051	-0.026
1051	-0.026
1052	-0.026
1052	-0.026
1053	-0.025
1053	-0.025
1053	-0.025
1054	-0.024
1054	-0.023
1055	-0.023
1055	-0.022
1056	-0.022
1056	-0.023
1056	-0.023
1057	-0.024
1057	-0.025
1058	-0.025
1058	-0.025
1058	-0.026
1059	-0.026
1059	-0.027
1060	-0.027
1060	-0.027
1061	-0.027
1061	-0.026
1061	-0.026
1062	-0.026
1062	-0.027
1063	-0.027
1063	-0.027
1063	-0.027
1064	-0.028
1064	-0.028
1065	-0.028
1065	-0.029
1066	-0.029
1066	-0.03
1066	-0.03
1067	-0.03
1067	-0.03
1068	-0.03
1068	-0.031
1068	-0.031
1069	-0.031
1069	-0.032
1070	-0.032
1070	-0.032
1071	-0.032
1071	-0.032
1071	-0.032
1072	-0.032
1072	-0.031
1073	-0.031
1073	-0.03
1073	-0.03
1074	-0.03
1074	-0.029
1075	-0.029
1075	-0.028
1076	-0.028
1076	-0.028
1076	-0.028
1077	-0.028
1077	-0.028
1078	-0.028
1078	-0.027
1078	-0.027
1079	-0.026
1079	-0.025
1080	-0.025
1080	-0.024
1080	-0.023
1081	-0.022
1081	-0.021
1082	-0.021
1082	-0.021
1083	-0.021
1083	-0.021
1083	-0.02
1084	-0.02
1084	-0.02
1085	-0.02
1085	-0.019
1085	-0.019
1086	-0.019
1086	-0.019
1087	-0.018
1087	-0.017
1088	-0.017
1088	-0.017
1088	-0.016
1089	-0.015
1089	-0.014
1090	-0.014
1090	-0.012
1090	-0.012
1091	-0.011
1091	-0.009
1092	-0.008
1092	-0.006
1092	-0.004
1093	-0.004
1093	-0.002
1094	-0
1094	0.001
1095	0.002
1095	0.003
1095	0.005
1096	0.005
1096	0.007
1097	0.008
1097	0.009
1097	0.011
1098	0.011
1098	0.012
1099	0.015
1099	0.016
1100	0.018
1100	0.019
1100	0.022
1101	0.024
1101	0.026
1102	0.028
1102	0.032
1102	0.035
1103	0.04
1103	0.043
1104	0.049
1104	0.054
1104	0.061
1105	0.066
1105	0.073
1106	0.078
1106	0.087
1107	0.094
1107	0.108
1107	0.121
1108	0.17
1108	0.235
1109	0.334
1109	0.513
1109	0.685
1110	1.225
1110	-0
1111	-0
1111	-0
